Z:\data\JTB-E02\BACandBLUE\JTB-E18-006-09.D Thu Apr 11 11:55:03 2019
Start of data points
2.09513,133864
2.10325,130853
2.11137,131262
2.11950,139717
2.12762,134270
2.13573,130212
2.14387,136776
2.15198,132842
2.16012,132125
2.16823,128166
2.17635,127269
2.18448,130480
2.19260,130010
2.20073,128084
2.20885,126692
2.21697,121697
2.22510,124849
2.23322,132416
2.24135,125027
2.24947,118078
2.25758,118123
2.26572,142612
2.27383,386243
2.28195,1169022
2.29008,1187803
2.29820,664058
2.30633,462311
2.31445,388268
2.32257,360570
2.33070,321280
2.33882,302729
2.34695,281938
2.35507,255097
2.36318,243091
2.37132,230716
2.37943,222059
2.38755,225005
2.39568,224796
2.40380,211713
2.41193,209611
2.42005,209280
2.42817,216760
2.43630,206596
2.44442,195241
2.45255,192845
2.46067,192173
2.46878,193422
2.47692,190875
2.48503,182025
2.49317,185277
2.50128,186648
2.50940,185868
2.51753,182476
2.52565,179855
2.53377,172861
2.54190,176343
2.55002,179193
2.55815,248046
2.56627,471643
2.57438,555307
2.58252,450130
2.59063,373446
2.59877,324638
2.60688,583965
2.61500,1732338
2.62313,2408887
2.63125,1627551
2.63938,993564
2.64750,704251
2.65562,555064
2.66375,440837
2.67187,386861
2.67998,334248
2.68812,309226
2.69623,280921
2.70437,267880
2.71248,249093
2.72060,246745
2.72873,236819
2.73685,231848
2.74498,223170
2.75310,214055
2.76122,219718
2.76935,202114
2.77747,225936
2.78558,447730
2.79372,877576
2.80183,851545
2.80997,605390
2.81808,483781
2.82620,440162
2.83433,395785
2.84245,351359
2.85058,321634
2.85870,289486
2.86682,268974
2.87495,258295
2.88307,253170
2.89120,239924
2.89932,227672
2.90743,220679
2.91557,212694
2.92368,207377
2.93180,205399
2.93993,200177
2.94805,203936
2.95618,205366
2.96430,233749
2.97242,268875
2.98055,259796
2.98867,249357
2.99680,269725
3.00492,313217
3.01303,308777
3.02117,286900
3.02928,264971
3.03740,250132
3.04553,244393
3.05365,240460
3.06178,248723
3.06990,304415
3.07802,385179
3.08615,1503180
3.09427,6285477
3.10240,1.307974E+07
3.11052,1.992348E+07
3.11863,2.338666E+07
3.12677,2.02625E+07
3.13488,1.484226E+07
3.14302,1.129985E+07
3.15113,9027183
3.15925,7363408
3.16738,6092738
3.17550,5092472
3.18362,4360717
3.19175,3992004
3.19987,3998801
3.20800,3714036
3.21612,3111736
3.22423,2662072
3.23237,2325966
3.24048,2071254
3.24862,1829185
3.25673,1649732
3.26485,1519658
3.27298,1383660
3.28110,1269058
3.28923,1232290
3.29735,1495405
3.30547,2626101
3.31360,4527298
3.32172,5783167
3.32983,5459612
3.33797,4403585
3.34608,3548629
3.35422,2998165
3.36233,2612167
3.37045,2261009
3.37858,2033834
3.38670,1852198
3.39483,1693614
3.40295,1574738
3.41107,1457537
3.41920,1393170
3.42732,1363199
3.43545,1286096
3.44357,1205030
3.45168,1103842
3.45982,1054299
3.46793,978256
3.47605,948980
3.48418,895022
3.49230,847496
3.50043,810329
3.50855,753587
3.51667,738723
3.52480,734165
3.53292,732622
3.54105,738859
3.54917,718050
3.55728,669391
3.56542,660834
3.57353,698540
3.58165,776618
3.58978,794658
3.59790,732829
3.60603,666685
3.61415,619975
3.62227,603868
3.63040,595236
3.63852,592793
3.64665,580826
3.65477,574661
3.66288,666716
3.67102,1904544
3.67913,6380258
3.68727,1.166475E+07
3.69538,1.196149E+07
3.70350,8612954
3.71163,5983688
3.71975,4633862
3.72787,3869768
3.73600,3363124
3.74412,2963812
3.75225,2643865
3.76037,2418492
3.76848,2204429
3.77662,2031388
3.78473,1886205
3.79287,1762696
3.80098,1684981
3.80910,1885840
3.81723,2641085
3.82535,3428609
3.83347,3272203
3.84160,2671824
3.84972,2199973
3.85785,1921983
3.86597,1742962
3.87408,1588449
3.88222,1489828
3.89033,1399136
3.89847,1311293
3.90658,1237226
3.91470,1174973
3.92283,1185133
3.93095,1237985
3.93908,1318902
3.94720,1650437
3.95532,4162251
3.96345,1.213521E+07
3.97157,2.341857E+07
3.97968,2.876429E+07
3.98782,2.554034E+07
3.99593,1.853665E+07
4.00407,1.839509E+07
4.01218,3.39976E+07
4.02030,5.594728E+07
4.02843,6.89067E+07
4.03655,6.693782E+07
4.04468,4.971686E+07
4.05280,3.033222E+07
4.06092,1.96297E+07
4.06905,1.405765E+07
4.07717,1.076684E+07
4.08530,8682157
4.09342,7030279
4.10153,5928591
4.10967,5122511
4.11778,4455572
4.12590,3939313
4.13403,3526603
4.14215,3211209
4.15028,2960205
4.15840,2749254
4.16652,2574729
4.17465,2411159
4.18277,2321411
4.19090,2166326
4.19902,2050330
4.20713,1924194
4.21527,2202626
4.22338,3938479
4.23150,8051980
4.23963,1.24069E+07
4.24775,1.368946E+07
4.25588,1.143395E+07
4.26400,7990968
4.27212,5705771
4.28025,4269438
4.28837,3361633
4.29650,2782191
4.30462,2348630
4.31273,2058854
4.32087,1845738
4.32898,1635306
4.33712,1537825
4.34523,1430303
4.35335,1370533
4.36148,1312648
4.36960,1327300
4.37772,1304656
4.38585,1262700
4.39397,1181540
4.40210,1113070
4.41022,1041575
4.41833,1004383
4.42647,970065
4.43458,927643
4.44272,901107
4.45083,872706
4.45895,851033
4.46708,840404
4.47520,827769
4.48333,818317
4.49145,793746
4.49957,772865
4.50770,768944
4.51582,747885
4.52393,713169
4.53207,712528
4.54018,690484
4.54832,689236
4.55643,689753
4.56455,700551
4.57268,673751
4.58080,634333
4.58893,625121
4.59705,623311
4.60517,594719
4.61330,602411
4.62142,604355
4.62953,630068
4.63767,734061
4.64578,891749
4.65392,996001
4.66203,953675
4.67015,827839
4.67828,743515
4.68640,707700
4.69453,676459
4.70265,647497
4.71077,617757
4.71890,589090
4.72702,558381
4.73515,544923
4.74327,537966
4.75138,520734
4.75952,516769
4.76763,519564
4.77575,503386
4.78388,501801
4.79200,545408
4.80013,723576
4.80825,1024114
4.81637,1292997
4.82450,1233808
4.83262,1041009
4.84075,895867
4.84887,826716
4.85698,798790
4.86512,767829
4.87323,726045
4.88135,675844
4.88948,650930
4.89760,616934
4.90573,577754
4.91385,565743
4.92197,546914
4.93010,536332
4.93822,578669
4.94635,776714
4.95447,1389713
4.96258,2429236
4.97072,3519032
4.97883,3914173
4.98697,3556475
4.99508,2797771
5.00320,2170396
5.01133,1722351
5.01945,1484938
5.02757,1292416
5.03570,1233404
5.04382,1228504
5.05195,1189319
5.06007,1141241
5.06818,1038476
5.07632,969031
5.08443,905606
5.09257,851340
5.10068,823735
5.10880,782481
5.11693,741422
5.12505,733357
5.13318,705018
5.14130,665085
5.14942,657756
5.15755,680587
5.16567,703451
5.17378,748954
5.18192,765307
5.19003,737360
5.19817,698940
5.20628,695906
5.21440,711004
5.22253,729158
5.23065,701472
5.23878,665931
5.24690,633040
5.25502,599957
5.26315,561138
5.27127,548925
5.27938,509801
5.28752,491212
5.29563,479230
5.30377,475656
5.31188,470861
5.32000,472210
5.32813,475397
5.33625,500897
5.34438,531134
5.35250,554791
5.36062,557489
5.36875,507640
5.37687,477585
5.38500,464816
5.39312,483816
5.40123,511331
5.40937,501610
5.41748,489257
5.42560,474094
5.43373,444055
5.44185,440160
5.44998,432320
5.45810,424407
5.46622,446865
5.47435,456526
5.48247,434836
5.49060,398736
5.49872,391891
5.50683,380579
5.51497,383917
5.52308,374040
5.53122,383098
5.53933,371227
5.54745,373332
5.55558,387749
5.56370,422300
5.57182,519901
5.57995,621576
5.58807,673003
5.59620,631998
5.60432,551537
5.61243,467291
5.62057,419006
5.62868,396170
5.63682,388811
5.64493,383999
5.65305,380372
5.66118,375189
5.66930,365687
5.67742,364983
5.68555,366341
5.69367,380626
5.70180,402816
5.70992,402340
5.71803,386358
5.72617,375677
5.73428,361732
5.74242,348611
5.75053,352611
5.75865,334596
5.76678,337007
5.77490,334565
5.78303,333521
5.79115,330108
5.79927,326120
5.80740,322857
5.81552,317885
5.82363,330159
5.83177,353913
5.83988,390627
5.84802,438377
5.85613,454980
5.86425,435342
5.87238,412299
5.88050,371078
5.88863,357988
5.89675,340120
5.90487,317833
5.91300,293408
5.92112,282083
5.92925,270956
5.93737,280787
5.94548,285435
5.95362,305533
5.96173,323481
5.96985,348123
5.97798,365922
5.98610,374289
5.99423,418366
6.00235,418905
6.01047,436993
6.01860,497016
6.02672,567232
6.03485,611667
6.04297,588086
6.05108,479585
6.05922,381646
6.06733,335830
6.07545,294953
6.08358,279940
6.09170,272310
6.09983,260348
6.10795,254592
6.11607,244488
6.12420,246460
6.13232,277354
6.14045,349361
6.14857,442922
6.15668,512317
6.16482,524801
6.17293,456591
6.18107,403105
6.18918,360965
6.19730,335559
6.20543,309825
6.21355,290445
6.22167,282287
6.22980,273613
6.23792,274995
6.24605,272678
6.25417,278015
6.26228,277409
6.27042,283599
6.27853,284613
6.28667,282122
6.29478,264963
6.30290,257612
6.31103,251370
6.31915,263465
6.32727,306247
6.33540,398451
6.34352,518363
6.35165,604368
6.35977,590218
6.36788,479460
6.37602,401364
6.38413,346148
6.39227,321331
6.40038,297341
6.40850,289941
6.41663,282104
6.42475,265983
6.43288,265328
6.44100,257401
6.44912,253292
6.45725,243476
6.46537,240822
6.47348,232885
6.48162,243114
6.48973,232092
6.49787,229381
6.50598,231021
6.51410,223367
6.52223,225493
6.53035,230716
6.53848,228665
6.54660,226055
6.55472,223490
6.56285,230752
6.57097,260903
6.57910,313580
6.58722,391566
6.59533,414056
6.60347,376534
6.61158,335284
6.61970,279713
6.62783,249304
6.63595,233907
6.64408,235798
6.65220,248271
6.66032,311702
6.66845,462068
6.67657,615133
6.68470,702629
6.69282,616789
6.70093,486692
6.70907,419715
6.71718,383458
6.72530,342248
6.73343,298946
6.74155,274934
6.74968,259031
6.75780,250657
6.76592,245626
6.77405,238333
6.78217,226351
6.79030,226761
6.79842,227923
6.80653,231233
6.81467,248429
6.82278,287774
6.83092,311915
6.83903,327150
6.84715,314017
6.85528,309682
6.86340,332321
6.87152,343329
6.87965,353886
6.88777,338223
6.89590,276456
6.90402,239073
6.91213,208589
6.92027,191512
6.92838,176151
6.93652,172558
6.94463,168926
6.95275,173305
6.96088,175289
6.96900,186744
6.97713,200679
6.98525,216651
6.99337,212450
7.00150,212091
7.00962,208212
7.01773,178474
7.02587,176867
7.03398,172096
7.04212,163325
7.05023,163228
7.05835,170971
7.06648,178499
7.07460,183085
7.08273,194478
7.09085,191295
7.09897,175049
7.10710,176673
7.11522,168337
7.12333,163651
7.13147,154558
7.13958,160676
7.14772,185622
7.15583,221946
7.16395,283930
7.17208,357524
7.18020,364780
7.18833,335079
7.19645,312571
7.20457,354761
7.21270,582013
7.22082,1077943
7.22895,1672605
7.23707,2010099
7.24518,1788016
7.25332,1249315
7.26143,786351
7.26955,485452
7.27768,339101
7.28580,253187
7.29393,215963
7.30205,191409
7.31017,198457
7.31830,195973
7.32642,195703
7.33455,197719
7.34267,204414
7.35078,205763
7.35892,198012
7.36703,195996
7.37515,189275
7.38328,187951
7.39140,179259
7.39953,169061
7.40765,165523
7.41577,171823
7.42390,166450
7.43202,162795
7.44015,169274
7.44827,157039
7.45638,162210
7.46452,160598
7.47263,162598
7.48077,157153
7.48888,160810
7.49700,147822
7.50513,150639
7.51325,152990
7.52137,153542
7.52950,176299
7.53762,264741
7.54575,418520
7.55387,666420
7.56198,993257
7.57012,1247681
7.57823,1364039
7.58637,1300186
7.59448,1071559
7.60260,802720
7.61073,581929
7.61885,422614
7.62698,332462
7.63510,275966
7.64322,235876
7.65135,223778
7.65947,191735
7.66758,182524
7.67572,173147
7.68383,162704
7.69197,153704
7.70008,152365
7.70820,148243
7.71633,146959
7.72445,150405
7.73258,153076
7.74070,148129
7.74882,153300
7.75695,162965
7.76507,170192
7.77320,172745
7.78132,180678
7.78943,180774
7.79757,187724
7.80568,202614
7.81380,205954
7.82193,215129
7.83005,204925
7.83818,188218
7.84630,169242
7.85442,161338
7.86255,160200
7.87067,158867
7.87880,157930
7.88692,177513
7.89503,182007
7.90317,188950
7.91128,187213
7.91940,175194
7.92753,166673
7.93565,169559
7.94378,182616
7.95190,207369
7.96002,221126
7.96815,225939
7.97627,236850
7.98440,228413
7.99252,219734
8.00063,193751
8.00877,179926
8.01688,164157
8.02502,160216
8.03313,162676
8.04125,163832
8.04938,156071
8.05750,148158
8.06562,147334
8.07375,146774
8.08187,147689
8.09000,137416
8.09812,144474
8.10623,142703
8.11437,137408
8.12248,139664
8.13062,142878
8.13873,140312
8.14685,153384
8.15498,159390
8.16310,165138
8.17122,158554
8.17935,157308
8.18747,149112
8.19560,139327
8.20372,137186
8.21183,134833
8.21997,134280
8.22808,137033
8.23622,132014
8.24433,133034
8.25245,126610
8.26058,133180
8.26870,127367
8.27683,132525
8.28495,127468
8.29307,129618
8.30120,124328
8.30932,126506
8.31743,131057
8.32557,125162
8.33368,127459
8.34182,133494
8.34993,139385
8.35805,132180
8.36618,138896
8.37430,149086
8.38243,166855
8.39055,179044
8.39867,191975
8.40680,185079
8.41492,168941
8.42303,155527
8.43117,142245
8.43928,125487
8.44742,124224
8.45553,125852
8.46365,123986
8.47178,122258
8.47990,119419
8.48803,117910
8.49615,124724
8.50427,123021
8.51240,137765
8.52052,221367
8.52865,466623
8.53677,1031225
8.54488,1849532
8.55302,2534622
8.56113,2525540
8.56925,1994671
8.57738,1249640
8.58550,698101
8.59363,439573
8.60175,370722
8.60987,384876
8.61800,401068
8.62612,383793
8.63425,326559
8.64237,279127
8.65048,252133
8.65862,233435
8.66673,206353
8.67487,189483
8.68298,179646
8.69110,190422
8.69923,175726
8.70735,176821
8.71547,174684
8.72360,169760
8.73172,168705
8.73985,165119
8.74797,154428
8.75608,162162
8.76422,203830
8.77233,295268
8.78047,525027
8.78858,855843
8.79670,1207619
8.80483,1324142
8.81295,1186884
8.82108,903408
8.82920,648839
8.83732,474391
8.84545,398197
8.85357,375823
8.86168,364392
8.86982,357963
8.87793,320344
8.88607,311060
8.89418,292100
8.90230,278141
8.91043,262219
8.91855,255768
8.92668,250654
8.93480,251764
8.94292,252783
8.95105,272357
8.95917,259473
8.96728,251465
8.97542,237854
8.98353,228198
8.99167,224923
8.99978,216295
9.00790,215800
9.01603,209469
9.02415,192472
9.03228,192316
9.04040,186324
9.04852,174764
9.05665,174269
9.06477,167844
9.07290,171057
9.08102,166184
9.08913,167885
9.09727,167963
9.10538,177497
9.11350,191432
9.12163,202019
9.12975,208020
9.13788,204283
9.14600,197542
9.15412,183483
9.16225,168699
9.17037,160586
9.17850,164351
9.18662,157061
9.19473,166398
9.20287,158673
9.21098,162095
9.21910,163685
9.22723,156015
9.23535,157989
9.24348,153547
9.25160,149811
9.25972,145202
9.26785,146687
9.27597,139260
9.28410,142958
9.29222,139740
9.30033,144453
9.30847,143136
9.31658,139110
9.32472,136781
9.33283,145223
9.34095,140651
9.34908,128957
9.35720,130022
9.36532,128087
9.37345,133587
9.38157,129331
9.38970,127734
9.39782,130033
9.40593,128906
9.41407,139469
9.42218,153840
9.43032,163407
9.43843,185671
9.44655,216446
9.45468,226528
9.46280,232497
9.47093,205845
9.47905,184929
9.48717,156480
9.49530,142372
9.50342,138538
9.51153,140421
9.51967,149881
9.52778,161697
9.53592,173335
9.54403,164769
9.55215,169332
9.56028,163300
9.56840,156995
9.57653,154136
9.58465,155331
9.59277,160372
9.60090,165692
9.60902,159467
9.61713,144537
9.62527,130496
9.63338,114931
9.64152,104520
9.64963,98181
9.65775,95918
9.66588,96665
9.67400,95813
9.68213,98006
9.69025,96166
9.69837,99720
9.70650,91414
9.71462,91475
9.72275,89321
9.73087,89075
9.73898,82319
9.74712,84158
9.75523,83040
9.76335,84756
9.77148,77980
9.77960,85891
9.78773,76882
9.79585,84268
9.80397,78877
9.81210,79782
9.82022,79438
9.82835,72700
9.83647,81159
9.84458,79031
9.85272,84483
9.86083,87024
9.86897,90970
9.87708,92991
9.88520,92710
9.89333,81781
9.90145,84404
9.90957,78747
9.91770,74952
9.92582,85329
9.93395,91518
9.94207,125862
9.95018,183183
9.95832,244774
9.96643,295882
9.97457,324595
9.98268,295769
9.99080,250305
9.99893,205390
10.00705,192221
10.01517,176504
10.02330,164914
10.03142,155564
10.03955,147874
10.04767,138793
10.05578,128392
10.06392,124417
10.07203,124166
10.08017,124343
10.08828,115354
10.09640,122356
10.10453,119796
10.11265,118599
10.12078,110110
10.12890,109173
10.13702,108472
10.14515,107745
10.15327,96209
10.16138,93960
10.16952,94968
10.17763,105395
10.18577,92730
10.19388,92725
10.20200,87053
10.21013,94758
10.21825,93457
10.22638,90887
10.23450,93224
10.24262,98037
10.25075,99320
10.25887,111653
10.26698,172493
10.27512,326809
10.28323,713681
10.29137,1339076
10.29948,2182081
10.30760,3089611
10.31573,4386404
10.32385,6262076
10.33198,8677414
10.34010,1.054296E+07
10.34822,1.067947E+07
10.35635,8812689
10.36447,6417548
10.37260,4691885
10.38072,3732829
10.38883,3068762
10.39697,2452341
10.40508,1841103
10.41320,1363545
10.42133,1068743
10.42945,917665
10.43758,812282
10.44570,786136
10.45382,750875
10.46195,701915
10.47007,655951
10.47820,626695
10.48632,576565
10.49443,538504
10.50257,482321
10.51068,464135
10.51882,439143
10.52693,398591
10.53505,394032
10.54318,374830
10.55130,367143
10.55942,348498
10.56755,335432
10.57567,318570
10.58380,314272
10.59192,299306
10.60003,279088
10.60817,274803
10.61628,267734
10.62442,264052
10.63253,240122
10.64065,240663
10.64878,237013
10.65690,224894
10.66502,217597
10.67315,212906
10.68127,207302
10.68940,200921
10.69752,195057
10.70563,197100
10.71377,202344
10.72188,192911
10.73002,198155
10.73813,182859
10.74625,181758
10.75438,177771
10.76250,178926
10.77063,168385
10.77875,165488
10.78687,166486
10.79500,159125
10.80312,168109
10.81123,167239
10.81937,159746
10.82748,160454
10.83562,156966
10.84373,149282
10.85185,149782
10.85998,142937
10.86810,140129
10.87623,132447
10.88435,134407
10.89247,130273
10.90060,129231
10.90872,126670
10.91685,129394
10.92497,126951
10.93308,126268
10.94122,122751
10.94933,128999
10.95745,123659
10.96558,118593
10.97370,129923
10.98183,128619
10.98995,137377
10.99807,130587
11.00620,126766
11.01432,124596
11.02245,122123
11.03057,113997
11.03868,110582
11.04682,107737
11.05493,106125
11.06305,109330
11.07118,101325
11.07930,112859
11.08743,115490
11.09555,115121
11.10367,114970
11.11180,111995
11.11992,112758
11.12805,108395
11.13617,103560
11.14428,106448
11.15242,103953
11.16053,94443
11.16867,100716
11.17678,99157
11.18490,101070
11.19303,103489
11.20115,101623
11.20927,106806
11.21740,102256
11.22552,98335
11.23365,96405
11.24177,96036
11.24988,89611
11.25802,84858
11.26613,79614
11.27427,80287
11.28238,82695
11.29050,78854
11.29863,83581
11.30675,91860
11.31488,127773
11.32300,191853
11.33112,306128
11.33925,467628
11.34737,645702
11.35548,734935
11.36362,704558
11.37173,605170
11.37987,459941
11.38798,360175
11.39610,294870
11.40423,269343
11.41235,265810
11.42048,252053
11.42860,233904
11.43672,212427
11.44485,202983
11.45297,182664
11.46108,170624
11.46922,159079
11.47733,154506
11.48547,161976
11.49358,166251
11.50170,181370
11.50983,199131
11.51795,202547
11.52608,196784
11.53420,184768
11.54232,170771
11.55045,157908
11.55857,149084
11.56670,138356
11.57482,128808
11.58293,134402
11.59107,131574
11.59918,138738
11.60730,151411
11.61543,169136
11.62355,197270
11.63168,196958
11.63980,191037
11.64792,167543
11.65605,145164
11.66417,144908
11.67230,136615
11.68042,136497
11.68853,125371
11.69667,123750
11.70478,120513
11.71290,115260
11.72103,111698
11.72915,115170
11.73728,110686
11.74540,114451
11.75352,118939
11.76165,113098
11.76977,112128
11.77790,111497
11.78602,97344
11.79413,102084
11.80227,99846
11.81038,98082
11.81852,99123
11.82663,103115
11.83475,105352
11.84288,111829
11.85100,108510
11.85912,100010
11.86725,102233
11.87537,93505
11.88350,91987
11.89162,94451
11.89973,91627
11.90787,108159
11.91598,140588
11.92412,201056
11.93223,270721
11.94035,322830
11.94848,308360
11.95660,272419
11.96473,217552
11.97285,199227
11.98097,265251
11.98910,561126
11.99722,1231762
12.00533,2320394
12.01347,3739783
12.02158,4590369
12.02972,4446486
12.03783,3973817
12.04595,3102672
12.05408,2262044
12.06220,1754254
12.07033,1537882
12.07845,1303005
12.08657,1180440
12.09470,1127314
12.10282,1059532
12.11093,981827
12.11907,950089
12.12718,919724
12.13532,924419
12.14343,935014
12.15155,936462
12.15968,877260
12.16780,807365
12.17593,728396
12.18405,720133
12.19217,676573
12.20030,644760
12.20842,635699
12.21655,601471
12.22467,586312
12.23278,570187
12.24092,548995
12.24903,519045
12.25715,507874
12.26528,507704
12.27340,500985
12.28153,481782
12.28965,448079
12.29777,449643
12.30590,450167
12.31402,428851
12.32215,430610
12.33027,406208
12.33838,412773
12.34652,395644
12.35463,381461
12.36277,367757
12.37088,381959
12.37900,380661
12.38713,390307
12.39525,417607
12.40337,449615
12.41150,505912
12.41962,514973
12.42775,486385
12.43587,471490
12.44398,432547
12.45212,399781
12.46023,378146
12.46837,357271
12.47648,342573
12.48460,360331
12.49273,344507
12.50085,316850
12.50897,319078
12.51710,310144
12.52522,292722
12.53335,286783
12.54147,305680
12.54958,304750
12.55772,331040
12.56583,341250
12.57397,361417
12.58208,362647
12.59020,342931
12.59833,303197
12.60645,283881
12.61458,271082
12.62270,268021
12.63082,253992
12.63895,251413
12.64707,247786
12.65518,249346
12.66332,233048
12.67143,205886
12.67957,189384
12.68768,175733
12.69580,144222
12.70393,125145
12.71205,124442
12.72018,126157
12.72830,124843
12.73642,121898
12.74455,123839
12.75267,125613
12.76078,120121
12.76892,115080
12.77703,114816
12.78517,105226
12.79328,109130
12.80140,104153
12.80953,102324
12.81765,97454
12.82578,98908
12.83390,95278
12.84202,95115
12.85015,86621
12.85827,91116
12.86640,92984
12.87452,86343
12.88263,85179
12.89077,85802
12.89888,90579
12.90700,87539
12.91513,87773
12.92325,86276
12.93138,83033
12.93950,88706
12.94762,108484
12.95575,173688
12.96387,370388
12.97200,771731
12.98012,1427425
12.98823,1971211
12.99637,2182386
13.00448,1914992
13.01262,1384650
13.02073,889635
13.02885,572210
13.03698,387303
13.04510,299259
13.05322,256613
13.06135,224463
13.06947,195138
13.07760,182521
13.08572,168131
13.09383,158011
13.10197,149236
13.11008,141632
13.11822,134790
13.12633,128540
13.13445,121329
13.14258,115846
13.15070,114289
13.15882,113341
13.16695,117800
13.17507,109666
13.18320,112016
13.19132,103270
13.19943,103125
13.20757,110770
13.21568,104890
13.22382,110804
13.23193,104218
13.24005,101402
13.24818,97638
13.25630,96904
13.26443,92968
13.27255,93542
13.28067,93081
13.28880,88250
13.29692,86912
13.30503,86925
13.31317,85715
13.32128,84391
13.32942,83997
13.33753,79329
13.34565,83125
13.35378,79009
13.36190,82380
13.37003,74486
13.37815,78814
13.38627,76716
13.39440,78403
13.40252,82704
13.41065,75641
13.41877,73851
13.42688,71662
13.43502,73900
13.44313,75815
13.45125,69133
13.45938,71832
13.46750,76809
13.47563,72878
13.48375,72206
13.49187,76794
13.50000,70401
13.50812,74393
13.51625,74025
13.52437,70247
13.53248,79545
13.54062,71818
13.54873,68847
13.55685,68880
13.56498,73743
13.57310,70229
13.58123,72008
13.58935,70470
13.59747,72753
13.60560,77921
13.61372,79236
13.62185,85657
13.62997,83798
13.63808,81205
13.64622,79148
13.65433,78946
13.66247,74728
13.67058,71503
13.67870,71681
13.68683,69266
13.69495,69812
13.70307,68743
13.71120,66556
13.71932,67614
13.72745,67492
13.73557,78787
13.74368,103969
13.75182,206895
13.75993,418658
13.76807,867649
13.77618,1440879
13.78430,2019603
13.79243,2372185
13.80055,2360101
13.80867,2008777
13.81680,1643858
13.82492,1256162
13.83305,1108659
13.84117,973465
13.84928,932110
13.85742,903621
13.86553,781933
13.87367,743812
13.88178,656067
13.88990,599708
13.89803,555224
13.90615,528249
13.91428,490765
13.92240,470088
13.93052,454457
13.93865,472236
13.94677,454678
13.95488,509595
13.96302,605215
13.97113,897053
13.97927,1170442
13.98738,1583772
13.99550,1650852
14.00363,1637502
14.01175,1449968
14.01988,1252216
14.02800,1033100
14.03612,870216
14.04425,725543
14.05237,699355
14.06050,623144
14.06862,600032
14.07673,570871
14.08487,566715
14.09298,530137
14.10110,541800
14.10923,525051
14.11735,479772
14.12548,492791
14.13360,513409
14.14172,563440
14.14985,639477
14.15797,731597
14.16610,767890
14.17422,788371
14.18233,751721
14.19047,708749
14.19858,714758
14.20672,764455
14.21483,843859
14.22295,880358
14.23108,869380
14.23920,786062
14.24732,694549
14.25545,623338
14.26357,565596
14.27170,495974
14.27982,450616
14.28793,402718
14.29607,377087
14.30418,358806
14.31232,338267
14.32043,327543
14.32855,311408
14.33668,318337
14.34480,295860
14.35292,291003
14.36105,282467
14.36917,258312
14.37730,244018
14.38542,227107
14.39353,222510
14.40167,219571
14.40978,201662
14.41792,203868
14.42603,199282
14.43415,198878
14.44228,192309
14.45040,179404
14.45853,162433
14.46665,155387
14.47477,148727
14.48290,149156
14.49102,146749
14.49913,153576
14.50727,160474
14.51538,173974
14.52352,181637
14.53163,209957
14.53975,227132
14.54788,226090
14.55600,206330
14.56413,179997
14.57225,165858
14.58037,159483
14.58850,139515
14.59662,136936
14.60473,124400
14.61287,128840
14.62098,115417
14.62912,119651
14.63723,111434
14.64535,107830
14.65348,100491
14.66160,101173
14.66973,100720
14.67785,101192
14.68597,96103
14.69410,92260
14.70222,95207
14.71035,101863
14.71847,97055
14.72658,94092
14.73472,94589
14.74283,105203
14.75095,108724
14.75908,114459
14.76720,109448
14.77533,110672
14.78345,116327
14.79157,130649
14.79970,181762
14.80782,357178
14.81595,769464
14.82407,1570942
14.83218,2519129
14.84032,3322573
14.84843,3587107
14.85657,3226001
14.86468,2540367
14.87280,1793846
14.88093,1290963
14.88905,947715
14.89717,731255
14.90530,624635
14.91342,533572
14.92155,470111
14.92967,420447
14.93778,387712
14.94592,363939
14.95403,326519
14.96217,313006
14.97028,293094
14.97840,272474
14.98653,251096
14.99465,242520
15.00277,237202
15.01090,225850
15.01902,215834
15.02715,202997
15.03527,196626
15.04338,187580
15.05152,191400
15.05963,183480
15.06777,175647
15.07588,163751
15.08400,160289
15.09213,160341
15.10025,149175
15.10838,153786
15.11650,147221
15.12462,146664
15.13275,143202
15.14087,148405
15.14898,149512
15.15712,142683
15.16523,140757
15.17337,125298
15.18148,113208
15.18960,100630
15.19773,101843
15.20585,94096
15.21398,91691
15.22210,89663
15.23022,86626
15.23835,84026
15.24647,81215
15.25460,86607
15.26272,79478
15.27083,79739
15.27897,77961
15.28708,74552
15.29520,74247
15.30333,79169
15.31145,81516
15.31958,83510
15.32770,77314
15.33582,77667
15.34395,75571
15.35207,76020
15.36020,75950
15.36832,78570
15.37643,73622
15.38457,69748
15.39268,75490
15.40080,72234
15.40893,72896
15.41705,77130
15.42518,73438
15.43330,73322
15.44142,72242
15.44955,70610
15.45767,73782
15.46580,72101
15.47392,74865
15.48203,81744
15.49017,91178
15.49828,110024
15.50642,126111
15.51453,133162
15.52265,134724
15.53078,137657
15.53890,137253
15.54702,122523
15.55515,114663
15.56327,114470
15.57140,102236
15.57952,92265
15.58763,86028
15.59577,86519
15.60388,78670
15.61202,78387
15.62013,73972
15.62825,75987
15.63638,83444
15.64450,81475
15.65262,80876
15.66075,75042
15.66887,74130
15.67700,78962
15.68512,75439
15.69323,72072
15.70137,70671
15.70948,70870
15.71762,67817
15.72573,68865
15.73385,68347
15.74198,70013
15.75010,73031
15.75823,79961
15.76635,95095
15.77447,133532
15.78260,204263
15.79072,270291
15.79883,334334
15.80697,360684
15.81508,334870
15.82322,291757
15.83133,239076
15.83945,193036
15.84758,163427
15.85570,151347
15.86383,136754
15.87195,133302
15.88007,123724
15.88820,113799
15.89632,104681
15.90445,109479
15.91257,101048
15.92068,102871
15.92882,100643
15.93693,95164
15.94505,103976
15.95318,101706
15.96130,119419
15.96943,139451
15.97755,182875
15.98567,218845
15.99380,235091
16.00192,239356
16.01005,225334
16.01817,212909
16.02628,198435
16.03442,188854
16.04253,181554
16.05065,168321
16.05878,158282
16.06690,154325
16.07503,145384
16.08315,126444
16.09127,126809
16.09940,119037
16.10752,114301
16.11565,108809
16.12377,106681
16.13188,107031
16.14002,105115
16.14813,107993
16.15627,104248
16.16438,102549
16.17250,109785
16.18063,101600
16.18875,91257
16.19687,92258
16.20500,87643
16.21312,88640
16.22125,84564
16.22937,83801
16.23748,86177
16.24562,80223
16.25373,81221
16.26187,81163
16.26998,86449
16.27810,88106
16.28623,84494
16.29435,79680
16.30248,84045
16.31060,83514
16.31872,90324
16.32685,85879
16.33497,77531
16.34308,81615
16.35122,83380
16.35933,98079
16.36747,117359
16.37558,147850
16.38370,190232
16.39183,238251
16.39995,257976
16.40808,257360
16.41620,227156
16.42432,187698
16.43245,165708
16.44057,147949
16.44868,135141
16.45682,140063
16.46493,163058
16.47307,244376
16.48118,395980
16.48930,575144
16.49743,737715
16.50555,783233
16.51368,695252
16.52180,534705
16.52992,402446
16.53805,302807
16.54617,233821
16.55430,207807
16.56242,178810
16.57053,166414
16.57867,154636
16.58678,151941
16.59490,142505
16.60303,138216
16.61115,126902
16.61928,123977
16.62740,125226
16.63552,118499
16.64365,115635
16.65177,116486
16.65990,116185
16.66802,103109
16.67613,95248
16.68427,99973
16.69238,97019
16.70050,94755
16.70863,89904
16.71675,87458
16.72488,82218
16.73300,79233
16.74112,80341
16.74925,77447
16.75737,77042
16.76550,80758
16.77362,76773
16.78173,81845
16.78987,86728
16.79798,80450
16.80612,75250
16.81423,72002
16.82235,73121
16.83048,71546
16.83860,71866
16.84672,73758
16.85485,68102
16.86297,76222
16.87110,68376
16.87922,78016
16.88733,76989
16.89547,78965
16.90358,74920
16.91172,69884
16.91983,75151
16.92795,77235
16.93608,70408
16.94420,64308
16.95233,65429
16.96045,67020
16.96857,66253
16.97670,65974
16.98482,66867
16.99293,67289
17.00107,60890
17.00918,65404
17.01732,63735
17.02543,68147
17.03355,66183
17.04168,64944
17.04980,68578
17.05793,70003
17.06605,69536
17.07417,67919
17.08230,72075
17.09042,72205
17.09853,68865
17.10667,69752
17.11478,72366
17.12292,75062
17.13103,77139
17.13915,77643
17.14728,79793
17.15540,84290
17.16353,84162
17.17165,80225
17.17977,81601
17.18790,79484
17.19602,73957
17.20415,78552
17.21227,72773
17.22038,68415
17.22852,70398
17.23663,65473
17.24475,69890
17.25288,66776
17.26100,69912
17.26913,68755
17.27725,68123
17.28537,64096
17.29350,67077
17.30162,67626
17.30975,70081
17.31787,77929
17.32598,89219
17.33412,114589
17.34223,121223
17.35037,139209
17.35848,145519
17.36660,142560
17.37473,138877
17.38285,114655
17.39097,115287
17.39910,108494
17.40722,104091
17.41535,103992
17.42347,99823
17.43158,94653
17.43972,96228
17.44783,91272
17.45597,95380
17.46408,90654
17.47220,87957
17.48033,83396
17.48845,84279
17.49657,80706
17.50470,72499
17.51282,78180
17.52095,78195
17.52907,79077
17.53718,76275
17.54532,74800
17.55343,76286
17.56157,73242
17.56968,72850
17.57780,78567
17.58593,86712
17.59405,107842
17.60218,147038
17.61030,196449
17.61842,279265
17.62655,372190
17.63467,452219
17.64278,968338
17.65092,7258540
17.65903,2.136471E+07
17.66717,2.52933E+07
17.67528,2.521361E+07
17.68340,2.405518E+07
17.69153,2.271305E+07
17.69965,2.127332E+07
17.70778,1.978245E+07
17.71590,1.895343E+07
17.72402,1.742105E+07
17.73215,1.627426E+07
17.74027,1.538081E+07
17.74840,1.435741E+07
17.75652,1.316161E+07
17.76463,1.214976E+07
17.77277,1.128913E+07
17.78088,1.047975E+07
17.78900,9791288
17.79713,9178468
17.80525,8899595
17.81338,8190390
17.82150,7549954
17.82962,7215357
17.83775,6697134
17.84587,6507598
17.85400,6172885
17.86212,5847976
17.87023,5593316
17.87837,5325741
17.88648,5061818
17.89460,4745819
17.90273,4579862
17.91085,4347375
17.91898,4168286
17.92710,3966776
17.93522,3775503
17.94335,3617885
17.95147,3535170
17.95960,3362395
17.96772,3182974
17.97583,3046342
17.98397,2968915
17.99208,2914058
18.00022,2754494
18.00833,2645363
18.01645,2551952
18.02458,2467066
18.03270,2427519
18.04082,2380573
18.04895,2299997
18.05707,2222887
18.06520,2181845
18.07332,2250408
18.08143,2413970
18.08957,2679787
18.09768,3013956
18.10582,3245455
18.11393,3269115
18.12205,3110371
18.13018,2882057
18.13830,2604123
18.14642,2379027
18.15455,2229815
18.16267,2112082
18.17080,1998816
18.17892,1905060
18.18703,1815764
18.19517,1740159
18.20328,1654910
18.21142,1574940
18.21953,1525713
18.22765,1469353
18.23578,1389192
18.24390,1367692
18.25203,1305491
18.26015,1279979
18.26827,1210195
18.27640,1159793
18.28452,1117539
18.29263,1072484
18.30077,1026861
18.30888,964831
18.31702,946539
18.32513,910556
18.33325,887208
18.34138,883399
18.34950,879396
18.35763,849285
18.36575,817747
18.37387,803250
18.38200,802427
18.39012,783977
18.39825,767464
18.40637,749399
18.41448,736996
18.42262,730438
18.43073,721903
18.43885,706968
18.44698,694656
18.45510,705274
18.46323,714900
18.47135,720907
18.47947,748056
18.48760,785920
18.49572,789698
18.50385,783157
18.51197,748513
18.52008,729553
18.52822,679961
18.53633,643309
18.54445,607859
18.55258,581995
18.56070,568957
18.56883,570379
18.57695,567385
18.58507,538538
18.59320,535136
18.60132,532101
18.60945,524405
18.61757,528708
18.62568,517023
18.63382,510364
18.64193,499382
18.65007,487126
18.65818,484745
18.66630,481089
18.67443,483617
18.68255,452015
18.69067,449454
18.69880,445841
18.70692,436567
18.71505,433537
18.72317,416115
18.73128,422282
18.73942,408153
18.74753,403427
18.75567,404613
18.76378,401914
18.77190,396553
18.78003,382778
18.78815,373302
18.79628,388224
18.80440,373247
18.81252,378587
18.82065,367921
18.82877,363889
18.83688,367870
18.84502,368902
18.85313,353797
18.86127,360574
18.86938,354390
18.87750,354052
18.88563,359745
18.89375,344332
18.90188,338237
18.91000,339563
18.91812,335958
18.92625,343930
18.93437,342603
18.94248,358624
18.95062,364807
18.95873,383828
18.96687,430034
18.97498,429360
18.98310,431459
18.99123,408966
18.99935,403231
19.00748,371450
19.01560,368357
19.02372,339338
19.03185,333542
19.03997,325081
19.04810,311240
19.05622,311539
19.06433,306198
19.07247,313178
19.08058,320820
19.08870,335351
19.09683,359216
19.10495,407615
19.11308,429193
19.12120,446390
19.12932,436280
19.13745,404348
19.14557,367343
19.15370,352274
19.16182,341788
19.16993,327497
19.17807,320305
19.18618,311818
19.19430,306069
19.20243,299584
19.21055,291142
19.21868,275292
19.22680,281786
19.23492,267401
19.24305,257949
19.25117,259399
19.25930,246658
19.26742,248741
19.27553,237383
19.28367,249100
19.29178,245752
19.29992,250482
19.30803,251086
19.31615,249527
19.32428,246530
19.33240,243186
19.34052,246771
19.34865,252136
19.35677,267732
19.36490,284648
19.37302,307900
19.38113,334606
19.38927,348237
19.39738,344636
19.40552,324352
19.41363,301466
19.42175,280923
19.42988,280158
19.43800,258221
19.44613,264293
19.45425,248933
19.46237,255520
19.47050,277827
19.47862,286167
19.48673,314799
19.49487,342202
19.50298,370604
19.51112,408788
19.51923,447563
19.52735,486888
19.53548,471041
19.54360,415076
19.55173,357252
19.55985,301674
19.56797,283849
19.57610,257572
19.58422,246396
19.59235,241223
19.60047,229159
19.60858,234469
19.61672,225176
19.62483,229578
19.63295,229350
19.64108,244132
19.64920,280161
19.65733,333246
19.66545,428791
19.67357,514075
19.68170,577105
19.68982,603180
19.69795,558640
19.70607,497749
19.71418,440844
19.72232,369136
19.73043,339851
19.73855,319353
19.74668,289212
19.75480,273579
19.76293,259140
19.77105,250309
19.77917,228246
19.78730,231491
19.79542,230972
19.80355,235434
19.81167,225160
19.81978,231416
19.82792,230379
19.83603,220660
19.84417,222404
19.85228,223951
19.86040,229044
19.86853,285671
19.87665,454492
19.88477,764147
19.89290,1238974
19.90102,1829077
19.90915,2365329
19.91727,2575712
19.92538,2536886
19.93352,2218612
19.94163,1823610
19.94977,1531118
19.95788,1327475
19.96600,1139225
19.97413,1036938
19.98225,941156
19.99037,870601
19.99850,825686
20.00662,762172
20.01475,732068
20.02287,696934
20.03098,646593
20.03912,622089
20.04723,573139
20.05537,516094
20.06348,448262
20.07160,392854
20.07973,348171
20.08785,320356
20.09598,315583
20.10410,306139
20.11222,286482
20.12035,286586
20.12847,263563
20.13658,257634
20.14472,254349
20.15283,244296
20.16097,245798
20.16908,263981
20.17720,287060
20.18533,320579
20.19345,353817
20.20158,395620
20.20970,421108
20.21782,425527
20.22595,421570
20.23407,387826
20.24220,377682
20.25032,366132
20.25843,366140
20.26657,415246
20.27468,456684
20.28280,536953
20.29093,592834
20.29905,606884
20.30718,552561
20.31530,520214
20.32342,455366
20.33155,385689
20.33967,325949
20.34780,287231
20.35592,252680
20.36403,236709
20.37217,215473
20.38028,209121
20.38840,210879
20.39653,204306
20.40465,196168
20.41278,196646
20.42090,198055
20.42902,199619
20.43715,211055
20.44527,213347
20.45340,225016
20.46152,224757
20.46963,219564
20.47777,221586
20.48588,213512
20.49402,205248
20.50213,187168
20.51025,180303
20.51838,175831
20.52650,169337
20.53462,160715
20.54275,162395
20.55087,153925
20.55900,155872
20.56712,150326
20.57523,150538
20.58337,154045
20.59148,146085
20.59962,150842
20.60773,145295
20.61585,146566
20.62398,136669
20.63210,139410
20.64023,142831
20.64835,145309
20.65647,138886
20.66460,135515
20.67272,132670
20.68083,132965
20.68897,133392
20.69708,135768
20.70522,133267
20.71333,133394
20.72145,127537
20.72958,135788
20.73770,129506
20.74583,127978
20.75395,132478
20.76207,137200
20.77020,136290
20.77832,137765
20.78643,143862
20.79457,155354
20.80268,179349
20.81082,218979
20.81893,263788
20.82705,310328
20.83518,324340
20.84330,293545
20.85143,248369
20.85955,217309
20.86767,181026
20.87580,164141
20.88392,153292
20.89205,146290
20.90017,141794
20.90828,138322
20.91642,138258
20.92453,137836
20.93265,134876
20.94078,140042
20.94890,135607
20.95703,136748
20.96515,132070
20.97327,130031
20.98140,132582
20.98952,127660
20.99765,126165
21.00577,125157
21.01388,126699
21.02202,119406
21.03013,131796
21.03825,128459
21.04638,131574
21.05450,129167
21.06263,131516
21.07075,139734
21.07887,141987
21.08700,142483
21.09512,143234
21.10325,133629
21.11137,130393
21.11948,125994
21.12762,130229
21.13573,129376
21.14387,133985
21.15198,137883
21.16010,141229
21.16823,156259
21.17635,165668
21.18447,161714
21.19260,152873
21.20072,145108
21.20885,143702
21.21697,136963
21.22508,137907
21.23322,127205
21.24133,128077
21.24947,126668
21.25758,119213
21.26570,117871
21.27383,118760
21.28195,114808
21.29008,118159
21.29820,113608
21.30632,117246
21.31445,119359
21.32257,120439
21.33068,113012
21.33882,109340
21.34693,112018
21.35507,108146
21.36318,108642
21.37130,109064
21.37943,109369
21.38755,110867
21.39568,117160
21.40380,128848
21.41192,139057
21.42005,144410
21.42817,154207
21.43628,152900
21.44442,150738
21.45253,146548
21.46067,144468
21.46878,132193
21.47690,124003
21.48503,120769
21.49315,121524
21.50128,119791
21.50940,118967
21.51752,111796
21.52565,115398
21.53377,122214
21.54190,116614
21.55002,117604
21.55813,112674
21.56627,121273
21.57438,119799
21.58250,117002
21.59063,112387
21.59875,117144
21.60688,126638
21.61500,131858
21.62312,133124
21.63125,148084
21.63937,157076
21.64750,169230
21.65562,177181
21.66373,183792
21.67187,173953
21.67998,178597
21.68812,153522
21.69623,153527
21.70435,142349
21.71248,135361
21.72060,136104
21.72872,126619
21.73685,123648
21.74497,120704
21.75310,123303
21.76122,125734
21.76933,120195
21.77747,119155
21.78558,120363
21.79372,127383
21.80183,125819
21.80995,135048
21.81808,138059
21.82620,152559
21.83432,163204
21.84245,163756
21.85057,158887
21.85870,172157
21.86682,155779
21.87493,145809
21.88307,127755
21.89118,121089
21.89932,112852
21.90743,114543
21.91555,112919
21.92368,105033
21.93180,101245
21.93993,102412
21.94805,101142
21.95617,100301
21.96430,97633
21.97242,93966
21.98053,88546
21.98867,92576
21.99678,85240
22.00492,83456
22.01303,85609
22.02115,82763
22.02928,92806
22.03740,88061
22.04553,85820
22.05365,89699
22.06177,88019
22.06990,87402
22.07802,89416
22.08615,84730
22.09427,84014
22.10238,91069
22.11052,82413
22.11863,84552
22.12675,83486
22.13488,87124
22.14300,87417
22.15113,94268
22.15925,87665
22.16737,91789
22.17550,94660
22.18362,91830
22.19175,92311
22.19987,93382
22.20798,89874
22.21612,88579
22.22423,93142
22.23235,88827
22.24048,95828
22.24860,97068
22.25673,94882
22.26485,93654
22.27297,89796
22.28110,87550
22.28922,85397
22.29735,86877
22.30547,90587
22.31358,92285
22.32172,92488
22.32983,93901
22.33797,93774
22.34608,89839
22.35420,92737
22.36233,89176
22.37045,87701
22.37857,88409
22.38670,86267
22.39482,88702
22.40295,93685
22.41107,106080
22.41918,118503
22.42732,132590
22.43543,142749
22.44357,145717
22.45168,140828
22.45980,135049
22.46793,124033
22.47605,121324
22.48417,117314
22.49230,115767
22.50042,118145
22.50855,121266
22.51667,122786
22.52478,120544
22.53292,124502
22.54103,126640
22.54917,127127
22.55728,128697
22.56540,120092
22.57353,124623
22.58165,117821
22.58978,115774
22.59790,111835
22.60602,107106
22.61415,110521
22.62227,110695
22.63038,102669
22.63852,106070
22.64663,104160
22.65477,105343
22.66288,106533
22.67100,106667
22.67913,106691
22.68725,109905
22.69538,108312
22.70350,108093
22.71162,109348
22.71975,111408
22.72787,113472
22.73600,125270
22.74412,112317
22.75223,112223
22.76037,115893
22.76848,115899
22.77660,114356
22.78473,110462
22.79285,117065
22.80098,118213
22.80910,118965
22.81722,130079
22.82535,135081
22.83347,136053
22.84160,133258
22.84972,129010
22.85783,123964
22.86597,121548
22.87408,123254
22.88220,129417
22.89033,134382
22.89845,135080
22.90658,144051
22.91470,169223
22.92282,186907
22.93095,204658
22.93907,207353
22.94720,204965
22.95532,189249
22.96343,169827
22.97157,159766
22.97968,146903
22.98782,132098
22.99593,127152
23.00405,126960
23.01218,114269
23.02030,112671
23.02842,114770
23.03655,111067
23.04467,101017
23.05280,94526
23.06092,96882
23.06903,98740
23.07717,97277
23.08528,91792
23.09342,92096
23.10153,94210
23.10965,100540
23.11778,102055
23.12590,103277
23.13403,104873
23.14215,111756
23.15027,116271
23.15840,115934
23.16652,119838
23.17463,113589
23.18277,117881
23.19088,116309
23.19902,118997
23.20713,122482
23.21525,126041
23.22338,118908
23.23150,118379
23.23963,120822
23.24775,125795
23.25587,119631
23.26400,122707
23.27212,129423
23.28023,133802
23.28837,130153
23.29648,135945
23.30462,132456
23.31273,126105
23.32085,125805
23.32898,127668
23.33710,123436
23.34523,134935
23.35335,150443
23.36147,171246
23.36960,210666
23.37772,239012
23.38585,280373
23.39397,320961
23.40208,373350
23.41022,411121
23.41833,430664
23.42645,464162
23.43458,478332
23.44270,476905
23.45083,486875
23.45895,461469
23.46707,460829
23.47520,429936
23.48332,418051
23.49145,404419
23.49957,364377
23.50768,353449
23.51582,336469
23.52393,315068
23.53205,293224
23.54018,288330
23.54830,276838
23.55643,261398
23.56455,251215
23.57267,256104
23.58080,261708
23.58892,265810
23.59705,289761
23.60517,315079
23.61328,327429
23.62142,331802
23.62953,309484
23.63767,289749
23.64578,260062
23.65390,236618
23.66203,232124
23.67015,219321
23.67827,205199
23.68640,193556
23.69452,191309
23.70265,184818
23.71077,179174
23.71888,165805
23.72702,161324
23.73513,164520
23.74327,167711
23.75138,195238
23.75950,321391
23.76763,588582
23.77575,1217550
23.78388,2209088
23.79200,3226499
23.80012,3963202
23.80825,4081102
23.81637,3587773
23.82448,2816419
23.83262,2149447
23.84073,1593297
23.84887,1216870
23.85698,935661
23.86510,764637
23.87323,635154
23.88135,555829
23.88948,487712
23.89760,457572
23.90572,427170
23.91385,388440
23.92197,363410
23.93008,341964
23.93822,327530
23.94633,311562
23.95447,300580
23.96258,275586
23.97070,265774
23.97883,257663
23.98695,255995
23.99508,261508
24.00320,323343
24.01132,490003
24.01945,813685
24.02757,1388218
24.03570,2009451
24.04382,2428684
24.05193,2474306
24.06007,2106859
24.06818,1433035
24.07630,923771
24.08443,573985
24.09255,385844
24.10068,283364
24.10880,248987
24.11692,216708
24.12505,208952
24.13317,201943
24.14130,202109
24.14942,200272
24.15753,195855
24.16567,192334
24.17378,196407
24.18192,183885
24.19003,175725
24.19815,178253
24.20628,173138
24.21440,173019
24.22252,172451
24.23065,181483
24.23877,163918
24.24690,164315
24.25502,156463
24.26313,144323
24.27127,144107
24.27938,138307
24.28752,132284
24.29563,134086
24.30375,134596
24.31188,130907
24.32000,128061
24.32812,131072
24.33625,123408
24.34437,123179
24.35250,122461
24.36062,120349
24.36873,118895
24.37687,125931
24.38498,130899
24.39312,160036
24.40123,184459
24.40935,225262
24.41748,236114
24.42560,231421
24.43373,200808
24.44185,183772
24.44997,151108
24.45810,130444
24.46622,126664
24.47433,131655
24.48247,130248
24.49058,132658
24.49872,136293
24.50683,142257
24.51495,145365
24.52308,148909
24.53120,153759
24.53933,153839
24.54745,152506
24.55557,143486
24.56370,141662
24.57182,132481
24.57993,130818
24.58807,126031
24.59618,122322
24.60432,120331
24.61243,107988
24.62055,116262
24.62868,116665
24.63680,109185
24.64493,117226
24.65305,119584
24.66117,105418
24.66930,106598
24.67742,109411
24.68555,108559
24.69367,98873
24.70178,101572
24.70992,100050
24.71803,104739
24.72615,100488
24.73428,92952
24.74240,96360
24.75053,99110
24.75865,94337
24.76677,97430
24.77490,100040
24.78302,109479
24.79115,120855
24.79927,130121
24.80738,137385
24.81552,140637
24.82363,141300
24.83177,154117
24.83988,153729
24.84800,177804
24.85613,198310
24.86425,238469
24.87237,289824
24.88050,361242
24.88862,462387
24.89675,539710
24.90487,580929
24.91298,556943
24.92112,493634
24.92923,391784
24.93737,313969
24.94548,253345
24.95360,209305
24.96173,187919
24.96985,182036
24.97798,167908
24.98610,174040
24.99422,166222
25.00235,169505
25.01047,172875
25.01858,158499
25.02672,166454
25.03483,162194
25.04297,166814
25.05108,160594
25.05920,166102
25.06733,163724
25.07545,158852
25.08358,166826
25.09170,168423
25.09982,185974
25.10795,203736
25.11607,290625
25.12418,455942
25.13232,742702
25.14043,1200693
25.14857,1600548
25.15668,1844289
25.16480,1789794
25.17293,1632530
25.18105,1273266
25.18918,909112
25.19730,621281
25.20542,445077
25.21355,338470
25.22167,261933
25.22980,232393
25.23792,211431
25.24603,219505
25.25417,230900
25.26228,244641
25.27040,265551
25.27853,277176
25.28665,273837
25.29478,252322
25.30290,239176
25.31102,209861
25.31915,190533
25.32727,180617
25.33540,177529
25.34352,177639
25.35163,166773
25.35977,159509
25.36788,164479
25.37600,152432
25.38413,154650
25.39225,149974
25.40038,149337
25.40850,150763
25.41662,155133
25.42475,143933
25.43287,140848
25.44100,143148
25.44912,151524
25.45723,140971
25.46537,144493
25.47348,147946
25.48162,147799
25.48973,155137
25.49785,147888
25.50598,149559
25.51410,148423
25.52222,146635
25.53035,136262
25.53847,132617
25.54660,132906
25.55472,132250
25.56283,131669
25.57097,136390
25.57908,131954
25.58722,126610
25.59533,126112
25.60345,127790
25.61158,124683
25.61970,122359
25.62783,121007
25.63595,123485
25.64407,119206
25.65220,116726
25.66032,114485
25.66843,116474
25.67657,109760
25.68468,110988
25.69282,115043
25.70093,113500
25.70905,109860
25.71718,110656
25.72530,107550
25.73343,106339
25.74155,104038
25.74967,104491
25.75780,108979
25.76592,120168
25.77403,134917
25.78217,168758
25.79028,200913
25.79842,227336
25.80653,207484
25.81465,188070
25.82278,157074
25.83090,138391
25.83903,124269
25.84715,124947
25.85527,129832
25.86340,136726
25.87152,131177
25.87965,127968
25.88777,113473
25.89588,103596
25.90402,99264
25.91213,94614
25.92025,89024
25.92838,88927
25.93650,85419
25.94463,87498
25.95275,88922
25.96087,89052
25.96900,84064
25.97712,85545
25.98525,87748
25.99337,82642
26.00148,83153
26.00962,79866
26.01773,81760
26.02587,79911
26.03398,73726
26.04210,79866
26.05023,76444
26.05835,82146
26.06647,82307
26.07460,80851
26.08272,81710
26.09085,85844
26.09897,95030
26.10708,93240
26.11522,105470
26.12333,105055
26.13147,121759
26.13958,123237
26.14770,126208
26.15583,126906
26.16395,132080
26.17207,124078
26.18020,127699
26.18832,129333
26.19645,125669
26.20457,126745
26.21268,136576
26.22082,132978
26.22893,139201
26.23707,135764
26.24518,132548
26.25330,139996
26.26143,137679
26.26955,136417
26.27768,130882
26.28580,133979
26.29392,131591
26.30205,124887
26.31017,130016
26.31828,125715
26.32642,130503
26.33453,128969
26.34267,129269
26.35078,130277
26.35890,127790
26.36703,130548
26.37515,144699
26.38328,148232
26.39140,163695
26.39952,173379
26.40765,181764
26.41577,181185
26.42388,188301
26.43202,176012
26.44013,173613
26.44827,159293
26.45638,148396
26.46450,146580
26.47263,142377
26.48075,145703
26.48888,143597
26.49700,135599
26.50512,133577
26.51325,125279
26.52137,119073
26.52950,117116
26.53762,122593
26.54573,124040
26.55387,121752
26.56198,111356
26.57010,110503
26.57823,116003
26.58635,112317
26.59448,122104
26.60260,112935
26.61072,109957
26.61885,110624
26.62697,108373
26.63510,109008
26.64322,108965
26.65133,108284
26.65947,114906
26.66758,110859
26.67572,114113
26.68383,113154
26.69195,114316
26.70008,105344
26.70820,106137
26.71632,108254
26.72445,103845
26.73257,100603
26.74070,108284
26.74882,101849
26.75693,102073
26.76507,99596
26.77318,102146
26.78132,99079
26.78943,97361
26.79755,107590
26.80568,103636
26.81380,107518
26.82192,109345
26.83005,105396
26.83817,101914
26.84630,102421
26.85442,99262
26.86253,101844
26.87067,101727
26.87878,106801
26.88692,103683
26.89503,96636
26.90315,102692
26.91128,95778
26.91940,94014
26.92753,89800
26.93565,93559
26.94377,100233
26.95190,97180
26.96002,94622
26.96813,100324
26.97627,105895
26.98438,131935
26.99252,185719
27.00063,255007
27.00875,353812
27.01688,474288
27.02500,611724
27.03313,673862
27.04125,680204
27.04937,633880
27.05750,546781
27.06562,456872
27.07375,381275
27.08187,326197
27.08998,268462
27.09812,234387
27.10623,213713
27.11435,197098
27.12248,178502
27.13060,169618
27.13873,161416
27.14685,166726
27.15497,158175
27.16310,146383
27.17122,145557
27.17935,139119
27.18747,140645
27.19558,138084
27.20372,133802
27.21183,125906
27.21995,129719
27.22808,130214
27.23620,126236
27.24433,120545
27.25245,122302
27.26057,119987
27.26870,119360
27.27682,111265
27.28495,108233
27.29307,108841
27.30118,110149
27.30932,105554
27.31743,98745
27.32557,102755
27.33368,100662
27.34180,99423
27.34993,96632
27.35805,96034
27.36617,100929
27.37430,97754
27.38242,93192
27.39055,97532
27.39867,93292
27.40678,94463
27.41492,90227
27.42303,90323
27.43117,94984
27.43928,98996
27.44740,90799
27.45553,89946
27.46365,87343
27.47177,85216
27.47990,88775
27.48802,81436
27.49615,85662
27.50427,87241
27.51238,87333
27.52052,87320
27.52863,88314
27.53677,85387
27.54488,88113
27.55300,91298
27.56113,87172
27.56925,91215
27.57738,93886
27.58550,95346
27.59362,102564
27.60175,108764
27.60987,112606
27.61798,111074
27.62612,102854
27.63423,96809
27.64237,85256
27.65048,86821
27.65860,82695
27.66673,84623
27.67485,77208
27.68298,81476
27.69110,81072
27.69922,80559
27.70735,81010
27.71547,76839
27.72360,73710
27.73172,74581
27.73983,74593
27.74797,71271
27.75608,73996
27.76420,77575
27.77233,76084
27.78045,76171
27.78858,74767
27.79670,80478
27.80482,76599
27.81295,79748
27.82107,79876
27.82920,77588
27.83732,79483
27.84543,75801
27.85357,80431
27.86168,75722
27.86980,72531
27.87793,71868
27.88605,76584
27.89418,74306
27.90230,72894
27.91042,73087
27.91855,72929
27.92667,71394
27.93480,72324
27.94292,75622
27.95103,69808
27.95917,67037
27.96728,71869
27.97542,69875
27.98353,72323
27.99165,67948
27.99978,69977
28.00790,72298
28.01602,70963
28.02415,78373
28.03227,69532
28.04040,73209
28.04852,75733
28.05663,75691
28.06477,73157
28.07288,76255
28.08102,78872
28.08913,76494
28.09725,80407
28.10538,78403
28.11350,81812
28.12163,84934
28.12975,81409
28.13787,72054
28.14600,68366
28.15412,75800
28.16223,67247
28.17037,66462
28.17848,69212
28.18662,71940
28.19473,80286
28.20285,84525
28.21098,93965
28.21910,101313
28.22723,107641
28.23535,110663
28.24347,106080
28.25160,100128
28.25972,91512
28.26783,83686
28.27597,78195
28.28408,78336
28.29222,75556
28.30033,73726
28.30845,73730
28.31658,75321
28.32470,81103
28.33283,89966
28.34095,91726
28.34907,97506
28.35720,104804
28.36532,111010
28.37345,115660
28.38157,131986
28.38968,135052
28.39782,133214
28.40593,138285
28.41405,134088
28.42218,132872
28.43030,130487
28.43843,123654
28.44655,117630
28.45467,106902
28.46280,101596
28.47092,105186
28.47905,101080
28.48717,100624
28.49528,97363
28.50342,94339
28.51153,97768
28.51967,91778
28.52778,88469
28.53590,87463
28.54403,84429
28.55215,81889
28.56027,87297
28.56840,80185
28.57652,81694
28.58465,83672
28.59277,76293
28.60088,78698
28.60902,84910
28.61713,85670
28.62527,91495
28.63338,88465
28.64150,95123
28.64963,96641
28.65775,94533
28.66587,104381
28.67400,96458
28.68212,98479
28.69025,91076
28.69837,92590
28.70648,84445
28.71462,89221
28.72273,86066
28.73087,80901
28.73898,84867
28.74710,86991
28.75523,86946
28.76335,93353
28.77148,108393
28.77960,110825
28.78772,127866
28.79585,127240
28.80397,123282
28.81208,118698
28.82022,108672
28.82833,108594
28.83647,92038
28.84458,90629
28.85270,85044
28.86083,89521
28.86895,86925
28.87708,85154
28.88520,80760
28.89332,84322
28.90145,85022
28.90957,87777
28.91768,86478
28.92582,83633
28.93393,80251
28.94207,91580
28.95018,83433
28.95830,80194
28.96643,84142
28.97455,87554
28.98268,82241
28.99080,80297
28.99892,81341
29.00705,75678
29.01517,79789
29.02330,73256
29.03142,77191
29.03953,75433
29.04767,69292
29.05578,72307
29.06390,74272
29.07203,75051
29.08015,74699
29.08828,81334
29.09640,82653
29.10452,75823
29.11265,79064
29.12077,77756
29.12890,77657
29.13702,76920
29.14513,71734
29.15327,71658
29.16138,71691
29.16952,74893
29.17763,69556
29.18575,77216
29.19388,76600
29.20200,77761
29.21012,82267
29.21825,88639
29.22637,104396
29.23450,97480
29.24262,106115
29.25073,120500
29.25887,131076
29.26698,132867
29.27512,144830
29.28323,147663
29.29135,140968
29.29948,133903
29.30760,124754
29.31572,102361
29.32385,93098
29.33197,84754
29.34010,78753
29.34822,75895
29.35633,74249
29.36447,75821
29.37258,72680
29.38072,70141
29.38883,71508
29.39695,68195
29.40508,72441
29.41320,71448
29.42133,67612
29.42945,72956
29.43757,72018
29.44570,71606
29.45382,75932
29.46193,70465
29.47007,73181
29.47818,73724
29.48632,77186
29.49443,79444
29.50255,83158
29.51068,85000
29.51880,79837
29.52693,79225
29.53505,77873
29.54317,76988
29.55130,77528
29.55942,72440
29.56755,71711
29.57567,70637
29.58378,77528
29.59192,73767
29.60003,69479
29.60815,72537
29.61628,74977
29.62440,72181
29.63253,71121
29.64065,67902
29.64877,67665
29.65690,64484
29.66502,64030
29.67315,64796
29.68127,68576
29.68938,65256
29.69752,70408
29.70563,64661
29.71375,68935
29.72188,66964
29.73000,65633
29.73813,67932
29.74625,63220
29.75437,64461
29.76250,67832
29.77062,67653
29.77875,63648
29.78687,62418
29.79498,63776
29.80312,62961
29.81123,64638
29.81937,60770
29.82748,62066
29.83560,65932
29.84373,62803
29.85185,58688
29.85997,66325
29.86810,60461
29.87622,67358
29.88435,71929
29.89247,78769
29.90058,89957
29.90872,99657
29.91683,95330
29.92497,92525
29.93308,87515
29.94120,78506
29.94933,70652
29.95745,69234
29.96557,66829
29.97370,68211
29.98182,72713
29.98995,74296
29.99807,79483
30.00618,87295
30.01432,86330
30.02243,94196
30.03057,92738
30.03868,93920
30.04680,92990
30.05493,96176
30.06305,93408
30.07118,100404
30.07930,97554
30.08742,95814
30.09555,95089
30.10367,99834
30.11178,94576
30.11992,94573
30.12803,92540
30.13617,93023
30.14428,83808
30.15240,89806
30.16053,88794
30.16865,86534
30.17678,82614
30.18490,82738
30.19302,80397
30.20115,86886
30.20927,80004
30.21740,83883
30.22552,75801
30.23363,78053
30.24177,74900
30.24988,74490
30.25800,78812
30.26613,71463
30.27425,71244
30.28238,71776
30.29050,74365
30.29862,70387
30.30675,70373
30.31487,67902
30.32300,68714
30.33112,65332
30.33923,70446
30.34737,64906
30.35548,64056
30.36362,67537
30.37173,66697
30.37985,68080
30.38798,64888
30.39610,61793
30.40422,67400
30.41235,65500
30.42047,64346
30.42860,64300
30.43672,62131
30.44483,61676
30.45297,58325
30.46108,62059
30.46922,65521
30.47733,68367
30.48545,67376
30.49358,69389
30.50170,67222
30.50982,68922
30.51795,69941
30.52607,66876
30.53420,65177
30.54232,62235
30.55043,59542
30.55857,65393
30.56668,68183
30.57482,65450
30.58293,59264
30.59105,61675
30.59918,62211
30.60730,60450
30.61543,69938
30.62355,65180
30.63167,69573
30.63980,64676
30.64792,66224
30.65603,63197
30.66417,64297
30.67228,63219
30.68042,61283
30.68853,67817
30.69665,61084
30.70478,61628
30.71290,63221
30.72103,62712
30.72915,59680
30.73727,65523
30.74540,61632
30.75352,62684
30.76163,63332
30.76977,61776
30.77788,64106
30.78602,70309
30.79413,72358
30.80225,78626
30.81038,86316
30.81850,93612
30.82663,90775
30.83475,87084
30.84287,80515
30.85100,72023
30.85912,74323
30.86725,67980
30.87537,62655
30.88348,68290
30.89162,63239
30.89973,64226
30.90785,64226
30.91598,66029
30.92410,65472
30.93223,67115
30.94035,60149
30.94847,66393
30.95660,64417
30.96472,62432
30.97285,60255
30.98097,63666
30.98908,68740
30.99722,63341
31.00533,62316
31.01347,58181
31.02158,65986
31.02970,66174
31.03783,64995
31.04595,64016
31.05407,61958
31.06220,62849
31.07032,69555
31.07845,62481
31.08657,66872
31.09468,75484
31.10282,81966
31.11093,87958
31.11907,89879
31.12718,81449
31.13530,75256
31.14343,72387
31.15155,69970
31.15967,71024
31.16780,73296
31.17592,70946
31.18405,71745
31.19217,77545
31.20028,92031
31.20842,108403
31.21653,118334
31.22467,140599
31.23278,144188
31.24090,141885
31.24903,133995
31.25715,120015
31.26528,102464
31.27340,91391
31.28152,82171
31.28965,73726
31.29777,76012
31.30588,75426
31.31402,64766
31.32213,66716
31.33027,66440
31.33838,67169
31.34650,63192
31.35463,64772
31.36275,62197
31.37088,65186
31.37900,65803
31.38712,61790
31.39525,66431
31.40337,66215
31.41150,66874
31.41962,64587
31.42773,69008
31.43587,65148
31.44398,65179
31.45210,63171
31.46023,61958
31.46835,62620
31.47648,64964
31.48460,59868
31.49272,62852
31.50085,66009
31.50897,61045
31.51710,68065
31.52522,64706
31.53333,71068
31.54147,68556
31.54958,71001
31.55770,68516
31.56583,72008
31.57395,70861
31.58208,67507
31.59020,66377
31.59832,65518
31.60645,66175
31.61457,68251
31.62270,63043
31.63082,64808
31.63893,65925
31.64707,69296
31.65518,66793
31.66332,69180
31.67143,71129
31.67955,69185
31.68768,71789
31.69580,69326
31.70392,68214
31.71205,68723
31.72017,60160
31.72830,64569
31.73642,64313
31.74453,67236
31.75267,64486
31.76078,67165
31.76892,67588
31.77703,66274
31.78515,68941
31.79328,77110
31.80140,75503
31.80952,75630
31.81765,73453
31.82577,70198
31.83390,69200
31.84202,69529
31.85013,74000
31.85827,69246
31.86638,68562
31.87452,71724
31.88263,66003
31.89075,67731
31.89888,70157
31.90700,66771
31.91513,70579
31.92325,72078
31.93137,72952
31.93950,72844
31.94762,80264
31.95573,81772
31.96387,87498
31.97198,94273
31.98012,92885
31.98823,87770
31.99635,102541
32.00448,95409
32.01260,97264
32.02073,96292
32.02885,98642
32.03697,89656
32.04510,92355
32.05322,96394
32.06135,89350
32.06947,94010
32.07758,85916
32.08572,93839
32.09383,98930
32.10195,92507
32.11008,87570
32.11820,78488
32.12633,83899
32.13445,78024
32.14257,75302
32.15070,76436
32.15882,78364
32.16695,71611
32.17507,72313
32.18318,70359
32.19132,73621
32.19943,73906
32.20755,71390
32.21568,70001
32.22380,70395
32.23193,69383
32.24005,70691
32.24817,70625
32.25630,76103
32.26442,79776
32.27255,89252
32.28067,91097
32.28878,85425
32.29692,83372
32.30503,77537
32.31317,74514
32.32128,73498
32.32940,69746
32.33753,72997
32.34565,68273
32.35377,66412
32.36190,72481
32.37002,73298
32.37815,72105
32.38627,71346
32.39438,70576
32.40252,66575
32.41063,68220
32.41877,68649
32.42688,62812
32.43500,64341
32.44313,72195
32.45125,66022
32.45938,68451
32.46750,65017
32.47562,63988
32.48375,58655
32.49187,61937
32.49998,67722
32.50812,62708
32.51623,67269
32.52437,67009
32.53248,59179
32.54060,59964
32.54873,68098
32.55685,66028
32.56498,68532
32.57310,69127
32.58122,66332
32.58935,68342
32.59747,63391
32.60558,62102
32.61372,59341
32.62183,63068
32.62997,59041
32.63808,61866
32.64620,64155
32.65433,69908
32.66245,74920
32.67058,80989
32.67870,86723
32.68682,93702
32.69495,93171
32.70307,90587
32.71120,83408
32.71932,80189
32.72743,81137
32.73557,79811
32.74368,74538
32.75180,71693
32.75993,62341
32.76805,64106
32.77618,68513
32.78430,63491
32.79242,62208
32.80055,63067
32.80867,61382
32.81680,64977
32.82492,62958
32.83303,61246
32.84117,63797
32.84928,65863
32.85742,62543
32.86553,64828
32.87365,63530
32.88178,65644
32.88990,65070
32.89802,62754
32.90615,63001
32.91427,60411
32.92240,61386
32.93052,66000
32.93863,60004
32.94677,60945
32.95488,63088
32.96302,63940
32.97113,62676
32.97925,61711
32.98738,67958
32.99550,65131
33.00362,71138
33.01175,68561
33.01987,71366
33.02800,73065
33.03612,73013
33.04423,70892
33.05237,70091
33.06048,66409
33.06862,68395
33.07673,71604
33.08485,71336
33.09298,81222
33.10110,76385
33.10923,90534
33.11735,94277
33.12547,100538
33.13360,98144
33.14172,89421
33.14983,83100
33.15797,82931
33.16608,72376
33.17422,65413
33.18233,66840
33.19045,62448
33.19858,66558
33.20670,67082
33.21483,71284
33.22295,73626
33.23107,71088
33.23920,72547
33.24732,65544
33.25543,67987
33.26357,68888
33.27168,69126
33.27982,68854
33.28793,62153
33.29605,66078
33.30418,65742
33.31230,58376
33.32043,68976
33.32855,64447
33.33667,67650
33.34480,63357
33.35292,65429
33.36105,65891
33.36917,63381
33.37728,62473
33.38542,66066
33.39353,66964
33.40165,67838
33.40978,69926
33.41790,69096
33.42603,74100
33.43415,79248
33.44227,83422
33.45040,79799
33.45852,75254
33.46665,76982
33.47477,75211
33.48288,69102
33.49102,71318
33.49913,65636
33.50727,64797
33.51538,67961
33.52350,61583
33.53163,65073
33.53975,69491
33.54787,68792
33.55600,73703
33.56412,67948
33.57225,79022
33.58037,75630
33.58848,69830
33.59662,65850
33.60473,65137
33.61287,62312
33.62098,65840
33.62910,64954
33.63723,69636
33.64535,67748
33.65347,71529
33.66160,74325
33.66972,71153
33.67785,72227
33.68597,72859
33.69408,74886
33.70222,64867
33.71033,70640
33.71847,66643
33.72658,73171
33.73470,74664
33.74283,84138
33.75095,89227
33.75908,95199
33.76720,89648
33.77532,80242
33.78345,81051
33.79157,69589
33.79968,71693
33.80782,67426
33.81593,62740
33.82407,69747
33.83218,68114
33.84030,74850
33.84843,70796
33.85655,72515
33.86468,82309
33.87280,80348
33.88092,82091
33.88905,83071
33.89717,83619
33.90530,83393
33.91342,92747
33.92153,93544
33.92967,88428
33.93778,88676
33.94590,85458
33.95403,78754
33.96215,79236
33.97028,74502
33.97840,73395
33.98652,63086
33.99465,75903
34.00277,68825
34.01090,69185
34.01902,65869
34.02713,70911
34.03527,68371
34.04338,69796
34.05150,71223
34.05963,75753
34.06775,68242
34.07588,72193
34.08400,71606
34.09212,70043
34.10025,67674
34.10837,66889
34.11650,67617
34.12462,68916
34.13273,64450
34.14087,62452
34.14898,66222
34.15712,66230
34.16523,65581
34.17335,72163
34.18148,67865
34.18960,85181
34.19772,81937
34.20585,75217
34.21397,78129
34.22210,79442
34.23022,74191
34.23833,75116
34.24647,77106
34.25458,67983
34.26272,71214
34.27083,68898
34.27895,69735
34.28708,66685
34.29520,62537
34.30332,64300
34.31145,70325
34.31957,60964
34.32770,64523
34.33582,64583
34.34393,63404
34.35207,65021
34.36018,65949
34.36832,68117
34.37643,66815
34.38455,64748
34.39268,66847
34.40080,67494
34.40893,65066
34.41705,59954
34.42517,64496
34.43330,65772
34.44142,62132
34.44953,59331
34.45767,65296
34.46578,63989
34.47392,64336
34.48203,62642
34.49015,64874
34.49828,57833
34.50640,58891
34.51453,61399
34.52265,67628
34.53077,72402
34.53890,72432
34.54702,83662
34.55515,87527
34.56327,90652
34.57138,95384
34.57952,95230
34.58763,93834
34.59575,91430
34.60388,95723
34.61200,85889
34.62013,89351
34.62825,90325
34.63637,92325
34.64450,90309
34.65262,93303
34.66075,82115
34.66887,84590
34.67698,89441
34.68512,83153
34.69323,80017
34.70135,78574
34.70948,76103
34.71760,75594
34.72573,76673
34.73385,76344
34.74197,72214
34.75010,76468
34.75822,73472
34.76635,67698
34.77447,70382
34.78258,74102
34.79072,70068
34.79883,74648
34.80697,71826
34.81508,71294
34.82320,72161
34.83133,74738
34.83945,71432
34.84757,72677
34.85570,73900
34.86382,72893
34.87195,72603
34.88007,68540
34.88818,73433
34.89632,66788
34.90443,78450
34.91257,74843
34.92068,74357
34.92880,72148
34.93693,71820
34.94505,76989
34.95318,74867
34.96130,85179
34.96942,83701
34.97755,84707
34.98567,78619
34.99378,85785
35.00192,81191
35.01003,85936
35.01817,89051
35.02628,88351
35.03440,90066
35.04253,91751
35.05065,97910
35.05878,93995
35.06690,92003
35.07502,83888
35.08315,83605
35.09127,77278
35.09938,81667
35.10752,72489
35.11563,71065
35.12377,71608
35.13188,75310
35.14000,71651
35.14813,70028
35.15625,68278
35.16438,74142
35.17250,75261
35.18062,75635
35.18875,71093
35.19687,75638
35.20500,70170
35.21312,69320
35.22123,70863
35.22937,71927
35.23748,77097
35.24560,79705
35.25373,74307
35.26185,77040
35.26998,76914
35.27810,79743
35.28622,76258
35.29435,83052
35.30247,75989
35.31060,78308
35.31872,74490
35.32683,74081
35.33497,78273
35.34308,76950
35.35120,72839
35.35933,74442
35.36745,74988
35.37558,82781
35.38370,84710
35.39182,86345
35.39995,92607
35.40807,104181
35.41620,109861
35.42432,107194
35.43243,110850
35.44057,116977
35.44868,109264
35.45682,103235
35.46493,93721
35.47305,89168
35.48118,84679
35.48930,78506
35.49742,77913
35.50555,74946
35.51367,77299
35.52180,76123
35.52992,73209
35.53803,76749
35.54617,70634
35.55428,73390
35.56242,76469
35.57053,75302
35.57865,76101
35.58678,76388
35.59490,75466
35.60303,71822
35.61115,68611
35.61927,68266
35.62740,71675
35.63552,74450
35.64363,66373
35.65177,68869
35.65988,72726
35.66802,70558
35.67613,76549
35.68425,76325
35.69238,78093
35.70050,89449
35.70863,83951
35.71675,82021
35.72487,84054
35.73300,83475
35.74112,85738
35.74925,81327
35.75737,87816
35.76548,83543
35.77362,83214
35.78173,81413
35.78985,79372
35.79798,83264
35.80610,76560
35.81423,82701
35.82235,77740
35.83047,73698
35.83860,73518
35.84672,79370
35.85485,76630
35.86297,75385
35.87108,81288
35.87922,78426
35.88733,82654
35.89545,79441
35.90358,76066
35.91170,72995
35.91983,75803
35.92795,70531
35.93607,75726
35.94420,73413
35.95232,73153
35.96045,72473
35.96857,76096
35.97668,72927
35.98482,71946
35.99293,76169
36.00107,73596
36.00918,75324
36.01730,71452
36.02543,80272
36.03355,81038
36.04167,75032
36.04980,76499
36.05792,79339
36.06605,79160
36.07417,76966
36.08228,77097
36.09042,71577
36.09853,73327
36.10667,74223
36.11478,77748
36.12290,76183
36.13103,80011
36.13915,73746
36.14727,74463
36.15540,72728
36.16352,75731
36.17165,69992
36.17977,71575
36.18788,67861
36.19602,68957
36.20413,70562
36.21227,68675
36.22038,75000
36.22850,76291
36.23663,71458
36.24475,74788
36.25288,76025
36.26100,81688
36.26912,77199
36.27725,74429
36.28537,86560
36.29348,85027
36.30162,86392
36.30973,85959
36.31787,85899
36.32598,89285
36.33410,87575
36.34223,86145
36.35035,82631
36.35848,83881
36.36660,72290
36.37472,78407
36.38285,75901
36.39097,70896
36.39910,75801
36.40722,74255
36.41533,80239
36.42347,81639
36.43158,78306
36.43970,81473
36.44783,87557
36.45595,91319
36.46408,87923
36.47220,92747
36.48032,91176
36.48845,91427
36.49657,91557
36.50470,90533
36.51282,93037
36.52093,93368
36.52907,101246
36.53718,91570
36.54530,88594
36.55343,82755
36.56155,82601
36.56968,80793
36.57780,78792
36.58592,73777
36.59405,68919
36.60217,77867
36.61030,76605
36.61842,79657
36.62653,82207
36.63467,84090
36.64278,88036
36.65092,91983
36.65903,94459
36.66715,99188
36.67528,94638
36.68340,91418
36.69152,84618
36.69965,80671
36.70777,83342
36.71590,81205
36.72402,76975
36.73213,78510
36.74027,78675
36.74838,81397
36.75652,74196
36.76463,75899
36.77275,78969
36.78088,79370
36.78900,77160
36.79713,75516
36.80525,73743
36.81337,82965
36.82150,75212
36.82962,74240
36.83773,72358
36.84587,75428
36.85398,72165
36.86212,78509
36.87023,75418
36.87835,82071
36.88648,78462
36.89460,78501
36.90273,77160
36.91085,79360
36.91897,72237
36.92710,77102
36.93522,77205
36.94333,77163
36.95147,76958
36.95958,79645
36.96772,79351
36.97583,74208
36.98395,81190
36.99208,77948
37.00020,76416
37.00833,86974
37.01645,76777
37.02457,79368
37.03270,78704
37.04082,81693
37.04895,72364
37.05707,78490
37.06518,78092
37.07332,77444
37.08143,82973
37.08955,85749
37.09768,82992
37.10580,89235
37.11393,89138
37.12205,91431
37.13017,93136
37.13830,94012
37.14642,95742
37.15455,98671
37.16267,91190
37.17078,92356
37.17892,86920
37.18703,81144
37.19515,80424
37.20328,80893
37.21140,83165
37.21953,78603
37.22765,82486
37.23577,83201
37.24390,85513
37.25202,76460
37.26015,75389
37.26827,80135
37.27638,78932
37.28452,76010
37.29263,77239
37.30077,81527
37.30888,84429
37.31700,78978
37.32513,88162
37.33325,88112
37.34137,95224
37.34950,97307
37.35762,90440
37.36575,90437
37.37387,92038
37.38198,96275
37.39012,91257
37.39823,97121
37.40637,93811
37.41448,87841
37.42260,89274
37.43073,88878
37.43885,87704
37.44698,86721
37.45510,91472
37.46322,90947
37.47135,89015
37.47947,87104
37.48758,88573
