Z:\data\JTB-E02\BACandBLUE\JTB-E02-192-14.D Tue Dec 18 13:59:13 2018
Start of data points
2.09532	85908
2.10343	91292
2.11157	96015
2.11968	95606
2.12780	95829
2.13593	95544
2.14405	96677
2.15217	98844
2.16030	87200
2.16842	89503
2.17655	85454
2.18467	83828
2.19278	95123
2.20092	84782
2.20903	80902
2.21717	82276
2.22528	89589
2.23340	79339
2.24153	79214
2.24965	131637
2.25778	636776
2.26590	1377328
2.27402	2240389
2.28215	1708935
2.29027	910061
2.29838	618280
2.30652	495073
2.31463	417517
2.32277	369293
2.33088	328491
2.33900	293288
2.34713	279342
2.35525	255987
2.36338	244528
2.37150	240559
2.37962	218706
2.38775	212489
2.39587	211842
2.40400	212384
2.41212	210689
2.42023	192279
2.42837	191956
2.43648	178923
2.44460	173783
2.45273	165969
2.46085	160731
2.46898	159572
2.47710	160304
2.48522	172657
2.49335	181064
2.50147	165418
2.50960	163664
2.51772	156278
2.52583	153029
2.53397	149520
2.54208	156706
2.55020	156746
2.55833	151664
2.56645	140491
2.57458	138232
2.58270	139709
2.59082	164164
2.59895	241928
2.60707	352036
2.61520	349635
2.62332	270353
2.63143	218895
2.63957	184738
2.64768	178312
2.65582	159166
2.66393	155381
2.67205	148144
2.68018	142093
2.68830	133397
2.69642	139847
2.70455	130411
2.71267	126373
2.72080	127223
2.72892	126868
2.73703	119807
2.74517	119061
2.75328	143207
2.76142	682444
2.76953	3260852
2.77765	6107502
2.78578	7266302
2.79390	5076922
2.80203	2947729
2.81015	2076344
2.81827	1675221
2.82640	1330948
2.83452	1064410
2.84263	889581
2.85077	769637
2.85888	648955
2.86702	574054
2.87513	519496
2.88325	469202
2.89138	416733
2.89950	377372
2.90763	354462
2.91575	329165
2.92387	304515
2.93200	296031
2.94012	271901
2.94823	263107
2.95637	262553
2.96448	253025
2.97262	245722
2.98073	236485
2.98885	243976
2.99698	245136
3.00510	249929
3.01323	242139
3.02135	222340
3.02947	204959
3.03760	188065
3.04572	177578
3.05385	184394
3.06197	183269
3.07008	204668
3.07822	347179
3.08633	736875
3.09445	1693081
3.10258	2760084
3.11070	3166026
3.11883	2430401
3.12695	1603788
3.13507	1166460
3.14320	922009
3.15132	813971
3.15945	847754
3.16757	1166719
3.17568	2490051
3.18382	5132944
3.19193	7312315
3.20005	6789513
3.20818	4757104
3.21630	3383535
3.22443	2677597
3.23255	2197869
3.24067	1828977
3.24880	1576801
3.25692	1370782
3.26505	1192076
3.27317	1108454
3.28128	1345830
3.28942	2684944
3.29753	5729618
3.30567	8983264
3.31378	1.003072E+07
3.32190	8405719
3.33003	6127350
3.33815	4483972
3.34627	3496373
3.35440	2819839
3.36252	2375954
3.37065	2033659
3.37877	1777852
3.38688	1580180
3.39502	1430517
3.40313	1303730
3.41127	1203762
3.41938	1130997
3.42750	1132788
3.43563	1102837
3.44375	1045198
3.45188	1030322
3.46000	1143974
3.46812	1266818
3.47625	1223905
3.48437	1024523
3.49248	847876
3.50062	749974
3.50873	689818
3.51687	670614
3.52498	682310
3.53310	734194
3.54123	752371
3.54935	686991
3.55748	605806
3.56560	551606
3.57372	532574
3.58185	498824
3.58997	482089
3.59808	461720
3.60622	460749
3.61433	464163
3.62247	461585
3.63058	479775
3.63870	490031
3.64683	990146
3.65495	6034238
3.66308	2.276726E+07
3.67120	4.390038E+07
3.67932	5.595285E+07
3.68745	5.556047E+07
3.69557	4.382809E+07
3.70370	3.102309E+07
3.71182	2.363525E+07
3.71993	1.953551E+07
3.72807	1.645876E+07
3.73618	1.425648E+07
3.74430	1.254691E+07
3.75243	1.110638E+07
3.76055	9830581
3.76868	8783133
3.77680	7992648
3.78492	7411556
3.79305	6976787
3.80117	6824309
3.80930	6928831
3.81742	6931593
3.82553	6453606
3.83367	5768354
3.84178	5203729
3.84992	4845990
3.85803	4510022
3.86615	4256908
3.87428	4040208
3.88240	3818031
3.89052	3608574
3.89865	3474221
3.90677	3480457
3.91490	3833381
3.92302	4438530
3.93113	4667470
3.93927	4141795
3.94738	3563903
3.95552	3228763
3.96363	3024245
3.97175	2889994
3.97988	2640425
3.98800	2454453
3.99612	2359769
4.00425	2398678
4.01237	2451175
4.02050	2387327
4.02862	2220772
4.03673	2024907
4.04487	1903702
4.05298	1808163
4.06112	1769273
4.06923	1718132
4.07735	1684401
4.08548	1669530
4.09360	1661452
4.10173	1593657
4.10985	1546926
4.11797	1476096
4.12610	1411637
4.13422	1415079
4.14233	1412984
4.15047	1400208
4.15858	1376784
4.16672	1366545
4.17483	1354931
4.18295	1330402
4.19108	1321791
4.19920	1585623
4.20733	3605543
4.21545	9437552
4.22357	1.835242E+07
4.23170	2.578144E+07
4.23982	3.095387E+07
4.24795	3.409912E+07
4.25607	3.539456E+07
4.26418	3.071779E+07
4.27232	1.963776E+07
4.28043	1.234527E+07
4.28855	9235637
4.29668	7397102
4.30480	6070973
4.31293	5095711
4.32105	4350330
4.32917	3829575
4.33730	3442602
4.34542	3142059
4.35355	3164454
4.36167	3486755
4.36978	3745329
4.37792	3589528
4.38603	2966896
4.39415	2381600
4.40228	2043698
4.41040	1843082
4.41853	1678716
4.42665	1582649
4.43477	1497480
4.44290	1399665
4.45102	1343198
4.45915	1267205
4.46727	1215558
4.47538	1196867
4.48352	1151901
4.49163	1122175
4.49977	1097523
4.50788	1069656
4.51600	1065712
4.52413	1057857
4.53225	1044595
4.54037	1096509
4.54850	1163163
4.55662	1150554
4.56475	1071214
4.57287	988361
4.58098	923487
4.58912	876681
4.59723	866935
4.60537	862435
4.61348	940555
4.62160	1341587
4.62973	2326203
4.63785	3724747
4.64597	4450885
4.65410	3947654
4.66222	2970233
4.67035	2203087
4.67847	1859011
4.68658	1638233
4.69472	1399936
4.70283	1175899
4.71097	1016416
4.71908	895660
4.72720	843534
4.73533	786236
4.74345	766046
4.75158	726558
4.75970	716980
4.76782	690689
4.77595	682228
4.78407	693392
4.79218	797498
4.80032	975466
4.80843	1068987
4.81657	1009454
4.82468	885083
4.83280	882093
4.84093	951932
4.84905	1097766
4.85718	1108161
4.86530	1000736
4.87342	863411
4.88155	769955
4.88967	707078
4.89780	648787
4.90592	641103
4.91403	608230
4.92217	589326
4.93028	604988
4.93840	676265
4.94653	927601
4.95465	1478146
4.96278	2204185
4.97090	2702136
4.97902	2715612
4.98715	2353460
4.99527	1942697
5.00340	1671122
5.01152	1488411
5.01963	1483842
5.02777	1745488
5.03588	2315738
5.04400	2783664
5.05213	2740265
5.06025	2302561
5.06838	1868651
5.07650	1616670
5.08462	1416246
5.09275	1319157
5.10087	1227091
5.10900	1129826
5.11712	1073650
5.12523	994571
5.13337	976595
5.14148	995517
5.14962	1176317
5.15773	1586082
5.16585	2045160
5.17398	2182125
5.18210	2026798
5.19022	1752125
5.19835	1768779
5.20647	2012173
5.21460	2128767
5.22272	1974812
5.23083	1641422
5.23897	1302893
5.24708	1143867
5.25522	926795
5.26333	850422
5.27145	774754
5.27958	672474
5.28770	665137
5.29583	647968
5.30395	617836
5.31207	589808
5.32020	589166
5.32832	602193
5.33643	668342
5.34457	664871
5.35268	657882
5.36082	613614
5.36893	568407
5.37705	567018
5.38518	632740
5.39330	786412
5.40143	919857
5.40955	975366
5.41767	852386
5.42580	706740
5.43392	637798
5.44203	673647
5.45017	812275
5.45828	1020541
5.46642	1073555
5.47453	946747
5.48265	763174
5.49078	611588
5.49890	524808
5.50703	483521
5.51515	473309
5.52327	474677
5.53140	462642
5.53952	495308
5.54765	635589
5.55577	1135960
5.56388	2192838
5.57202	3443724
5.58013	4154254
5.58825	3800701
5.59638	2778774
5.60450	1781308
5.61263	1172482
5.62075	886709
5.62887	734901
5.63700	644077
5.64512	578189
5.65325	546129
5.66137	511677
5.66948	496389
5.67762	508091
5.68573	542716
5.69385	609252
5.70198	681740
5.71010	703979
5.71823	681690
5.72635	598889
5.73447	529216
5.74260	472882
5.75072	429229
5.75885	421460
5.76697	415252
5.77508	393923
5.78322	378702
5.79133	374773
5.79947	363437
5.80758	368155
5.81570	368908
5.82383	357335
5.83195	362826
5.84007	361466
5.84820	350622
5.85632	352159
5.86445	354521
5.87257	334406
5.88068	336565
5.88882	334397
5.89693	356344
5.90507	400497
5.91318	487526
5.92130	575388
5.92943	612673
5.93755	550090
5.94568	493439
5.95380	468387
5.96192	521234
5.97005	658310
5.97817	809042
5.98628	1005348
5.99442	1145460
6.00253	1157086
6.01067	1047307
6.01878	865952
6.02690	680287
6.03503	521116
6.04315	432707
6.05128	383795
6.05940	369102
6.06752	363209
6.07565	359540
6.08377	353756
6.09188	337970
6.10002	326175
6.10813	314748
6.11627	336193
6.12438	496123
6.13250	978465
6.14063	1773499
6.14875	2533697
6.15688	2689827
6.16500	2188413
6.17312	1543990
6.18125	1119241
6.18937	883077
6.19750	736162
6.20562	643017
6.21373	570194
6.22187	524084
6.22998	478023
6.23810	504868
6.24623	549467
6.25435	722910
6.26248	938066
6.27060	994825
6.27872	897180
6.28685	681725
6.29497	555113
6.30310	486722
6.31122	467502
6.31933	446976
6.32747	436631
6.33558	418328
6.34372	407066
6.35183	381802
6.35995	378888
6.36808	376221
6.37620	387240
6.38432	413853
6.39245	406726
6.40057	387818
6.40870	371935
6.41682	343551
6.42493	336180
6.43307	337092
6.44118	356553
6.44932	377626
6.45743	415544
6.46555	435950
6.47368	407514
6.48180	388347
6.48992	359904
6.49805	351777
6.50617	349476
6.51430	357170
6.52242	378552
6.53053	399092
6.53867	385255
6.54678	380264
6.55492	452906
6.56303	818084
6.57115	1722805
6.57928	3193640
6.58740	4263104
6.59553	4135066
6.60365	2957396
6.61177	1807271
6.61990	1067523
6.62802	753845
6.63613	589088
6.64427	493355
6.65238	429485
6.66052	397354
6.66863	387714
6.67675	390692
6.68488	360635
6.69300	333146
6.70113	296696
6.70925	286671
6.71737	283358
6.72550	280364
6.73362	273805
6.74173	269730
6.74987	252458
6.75798	256693
6.76612	248318
6.77423	252822
6.78235	247362
6.79048	248553
6.79860	234991
6.80673	216726
6.81485	201131
6.82297	196165
6.83110	197624
6.83922	208651
6.84735	222043
6.85547	244837
6.86358	254861
6.87172	277429
6.87983	292515
6.88795	302720
6.89608	280524
6.90420	239131
6.91233	203995
6.92045	190740
6.92857	189648
6.93670	182656
6.94482	175981
6.95295	176854
6.96107	182881
6.96918	206758
6.97732	231624
6.98543	255483
6.99357	265224
7.00168	239097
7.00980	226543
7.01793	217179
7.02605	218753
7.03417	206862
7.04230	199918
7.05042	196367
7.05855	239277
7.06667	345177
7.07478	576384
7.08292	845571
7.09103	1119466
7.09917	1226384
7.10728	1140553
7.11540	869231
7.12353	629816
7.13165	461494
7.13978	397880
7.14790	400528
7.15602	422615
7.16415	507311
7.17227	703721
7.18038	1407746
7.18852	3171342
7.19663	6059093
7.20477	8962941
7.21288	1.004808E+07
7.22100	8127626
7.22913	4772926
7.23725	2124665
7.24538	824865
7.25350	373976
7.26162	236970
7.26975	221298
7.27787	214533
7.28598	232888
7.29412	233244
7.30223	244324
7.31037	249036
7.31848	230145
7.32660	236004
7.33473	256064
7.34285	314240
7.35098	410113
7.35910	479039
7.36722	536843
7.37535	517281
7.38347	446768
7.39160	370521
7.39972	310507
7.40783	263181
7.41597	234157
7.42408	213049
7.43220	196223
7.44033	188927
7.44845	175494
7.45658	174897
7.46470	184173
7.47282	203472
7.48095	215003
7.48907	213562
7.49720	201966
7.50532	189738
7.51343	190474
7.52157	194983
7.52968	252781
7.53780	461700
7.54593	1096423
7.55405	2654494
7.56218	5678610
7.57030	1.050244E+07
7.57842	1.616079E+07
7.58655	2.099328E+07
7.59467	2.305262E+07
7.60280	2.14153E+07
7.61092	1.663844E+07
7.61903	1.118188E+07
7.62717	6554884
7.63528	3726363
7.64342	2171058
7.65153	1360226
7.65965	931681
7.66778	688808
7.67590	489147
7.68402	369974
7.69215	280052
7.70027	268701
7.70840	320572
7.71652	436660
7.72463	591800
7.73277	728743
7.74088	836684
7.74902	838194
7.75713	753925
7.76525	664421
7.77338	563707
7.78150	475411
7.78963	416691
7.79775	391167
7.80587	409972
7.81400	466475
7.82212	532366
7.83023	550703
7.83837	506769
7.84648	422877
7.85462	358377
7.86273	351354
7.87085	398926
7.87898	481211
7.88710	626784
7.89523	849308
7.90335	1043255
7.91147	1119764
7.91960	1017311
7.92772	787737
7.93583	596578
7.94397	490054
7.95208	461164
7.96022	448219
7.96833	422327
7.97645	394911
7.98458	330632
7.99270	283084
8.00083	244309
8.00895	212932
8.01707	201179
8.02520	185585
8.03332	169636
8.04145	159601
8.04957	161709
8.05768	164676
8.06582	167987
8.07393	175369
8.08205	187695
8.09018	178035
8.09830	171790
8.10643	161890
8.11455	154164
8.12267	160075
8.13080	173499
8.13892	225850
8.14705	326565
8.15517	449978
8.16328	530427
8.17142	531305
8.17953	446797
8.18767	358860
8.19578	276170
8.20390	232676
8.21203	210673
8.22015	193082
8.22827	182250
8.23640	162265
8.24452	160614
8.25265	144697
8.26077	135721
8.26888	141369
8.27702	133431
8.28513	128454
8.29327	136868
8.30138	131782
8.30950	136008
8.31763	150717
8.32575	186554
8.33387	234667
8.34200	287079
8.35012	308475
8.35825	277592
8.36637	232598
8.37448	181806
8.38262	151917
8.39073	135184
8.39887	124278
8.40698	118717
8.41510	115796
8.42323	109972
8.43135	111753
8.43948	115877
8.44760	118239
8.45572	125799
8.46385	119941
8.47197	123141
8.48008	120585
8.48822	124519
8.49633	112956
8.50447	113754
8.51258	127530
8.52070	166797
8.52883	251279
8.53695	301479
8.54508	322471
8.55320	278832
8.56132	216358
8.56945	164108
8.57757	133001
8.58568	123469
8.59382	122343
8.60193	114589
8.61007	128713
8.61818	147027
8.62630	167710
8.63443	194728
8.64255	216020
8.65068	216936
8.65880	195839
8.66692	168996
8.67505	141530
8.68317	129508
8.69130	122466
8.69942	116379
8.70753	120609
8.71567	123939
8.72378	122494
8.73190	125096
8.74003	122754
8.74815	115451
8.75628	111087
8.76440	115970
8.77252	124487
8.78065	173374
8.78877	283616
8.79690	424936
8.80502	619634
8.81313	708851
8.82127	683597
8.82938	590242
8.83752	473805
8.84563	402435
8.85375	338410
8.86188	320476
8.87000	289439
8.87812	275594
8.88625	261290
8.89437	236934
8.90250	237409
8.91062	229941
8.91873	262024
8.92687	333068
8.93498	436183
8.94312	511286
8.95123	503924
8.95935	421733
8.96748	343082
8.97560	312637
8.98372	379830
8.99185	471583
8.99997	540691
9.00810	550114
9.01622	477896
9.02433	394300
9.03247	310854
9.04058	264701
9.04872	231961
9.05683	205129
9.06495	193933
9.07308	194033
9.08120	184824
9.08933	195614
9.09745	233751
9.10557	332738
9.11370	510592
9.12182	747583
9.12993	906356
9.13807	940564
9.14618	804068
9.15432	625640
9.16243	443990
9.17055	342451
9.17868	295531
9.18680	278445
9.19493	252454
9.20305	248366
9.21117	238202
9.21930	223952
9.22742	217655
9.23555	219724
9.24367	236803
9.25178	240003
9.25992	245775
9.26803	250939
9.27615	232808
9.28428	220169
9.29240	205860
9.30053	190952
9.30865	184134
9.31677	184434
9.32490	174833
9.33302	172562
9.34115	172578
9.34927	162231
9.35738	165604
9.36552	151777
9.37363	165141
9.38175	168172
9.38988	190842
9.39800	276165
9.40613	448392
9.41425	723072
9.42237	1021946
9.43050	1331761
9.43862	1550641
9.44675	1719652
9.45487	1814588
9.46298	1747433
9.47112	1497015
9.47923	1129593
9.48737	777636
9.49548	542104
9.50360	416295
9.51173	390463
9.51985	425183
9.52797	494471
9.53610	576267
9.54422	587642
9.55235	579180
9.56047	511883
9.56858	420359
9.57672	332607
9.58483	257687
9.59297	215078
9.60108	192956
9.60920	183706
9.61733	174311
9.62545	170062
9.63357	165760
9.64170	166442
9.64982	152490
9.65795	144485
9.66607	155791
9.67418	158025
9.68232	159973
9.69043	160952
9.69857	160887
9.70668	159989
9.71480	148444
9.72293	139933
9.73105	139828
9.73918	134620
9.74730	127642
9.75542	123887
9.76355	121739
9.77167	118366
9.77978	107348
9.78792	109602
9.79603	113089
9.80417	110232
9.81228	108287
9.82040	105985
9.82853	106711
9.83665	111161
9.84478	114722
9.85290	107255
9.86102	111852
9.86915	113106
9.87727	109161
9.88540	101862
9.89352	100601
9.90163	97505
9.90977	97396
9.91788	104841
9.92600	112878
9.93413	139097
9.94225	187844
9.95038	363690
9.95850	681414
9.96662	1160944
9.97475	1722330
9.98287	2090086
9.99100	2018663
9.99912	1603117
10.00723	1101180
10.01537	663719
10.02348	398847
10.03160	301833
10.03973	291095
10.04785	324070
10.05598	362444
10.06410	397327
10.07222	391623
10.08035	385587
10.08847	352032
10.09660	320432
10.10472	299736
10.11283	278188
10.12097	256443
10.12908	241742
10.13722	234887
10.14533	220672
10.15345	215599
10.16158	205804
10.16970	202149
10.17782	193590
10.18595	187543
10.19407	183018
10.20220	174924
10.21032	172152
10.21843	167243
10.22657	167478
10.23468	156629
10.24282	168031
10.25093	190853
10.25905	267274
10.26718	520292
10.27530	1271040
10.28343	2847538
10.29155	5396893
10.29967	8835544
10.30780	1.268037E+07
10.31592	1.697107E+07
10.32403	2.1802E+07
10.33217	2.810235E+07
10.34028	3.584748E+07
10.34842	4.437014E+07
10.35653	5.173614E+07
10.36465	5.563122E+07
10.37278	4.98997E+07
10.38090	3.532277E+07
10.38903	2.558545E+07
10.39715	2.199843E+07
10.40527	1.847279E+07
10.41340	1.364559E+07
10.42152	8802988
10.42963	5565690
10.43777	3947562
10.44588	3457274
10.45402	3439493
10.46213	3464224
10.47025	3320693
10.47838	2990002
10.48650	2462999
10.49463	1884290
10.50275	1476369
10.51087	1201068
10.51900	1046675
10.52712	928958
10.53525	855681
10.54337	782426
10.55148	750610
10.55962	726827
10.56773	685576
10.57585	652844
10.58398	635719
10.59210	617089
10.60023	584825
10.60835	542499
10.61647	503238
10.62460	478502
10.63272	482731
10.64085	447977
10.64897	430068
10.65708	419885
10.66522	406925
10.67333	382803
10.68147	361971
10.68958	380832
10.69770	401962
10.70583	442217
10.71395	502020
10.72207	524782
10.73020	537021
10.73832	508513
10.74645	446651
10.75457	407882
10.76268	366025
10.77082	338124
10.77893	306991
10.78707	312055
10.79518	288044
10.80330	303054
10.81143	343101
10.81955	420632
10.82767	487296
10.83580	513226
10.84392	486458
10.85205	416265
10.86017	344155
10.86828	282923
10.87642	262376
10.88453	241113
10.89267	225124
10.90078	215328
10.90890	219312
10.91703	226118
10.92515	210414
10.93328	223257
10.94140	207906
10.94952	210273
10.95765	199883
10.96577	196687
10.97388	187554
10.98202	189717
10.99013	194641
10.99827	217344
11.00638	254735
11.01450	316962
11.02263	371180
11.03075	427264
11.03888	430182
11.04700	398106
11.05512	347320
11.06325	305897
11.07137	300279
11.07948	336637
11.08762	413027
11.09573	505668
11.10387	579409
11.11198	604392
11.12010	586704
11.12823	540614
11.13635	463070
11.14448	391290
11.15260	324510
11.16072	290450
11.16885	270902
11.17697	269301
11.18510	248161
11.19322	223366
11.20133	199849
11.20947	187705
11.21758	180310
11.22570	165045
11.23383	156937
11.24195	139898
11.25008	130436
11.25820	127481
11.26632	122299
11.27445	113917
11.28257	109302
11.29070	114011
11.29882	126254
11.30693	197045
11.31507	447227
11.32318	1175526
11.33132	2910944
11.33943	6111119
11.34755	1.056173E+07
11.35568	1.51058E+07
11.36380	1.797583E+07
11.37192	1.816703E+07
11.38005	1.598257E+07
11.38817	1.231058E+07
11.39630	8824200
11.40442	6427488
11.41253	4746474
11.42067	3691156
11.42878	2830392
11.43692	2194974
11.44503	1738815
11.45315	1393287
11.46128	1133949
11.46940	990315
11.47752	849894
11.48565	752898
11.49377	712048
11.50190	740954
11.51002	805982
11.51813	934818
11.52627	1020762
11.53438	1034927
11.54252	988715
11.55063	902020
11.55875	807199
11.56688	761720
11.57500	715637
11.58313	708218
11.59125	689847
11.59937	703021
11.60750	773191
11.61562	907313
11.62373	1024561
11.63187	1034305
11.63998	954149
11.64812	784128
11.65623	596638
11.66435	447474
11.67248	357546
11.68060	323268
11.68873	307596
11.69685	318798
11.70497	331924
11.71310	358153
11.72122	391918
11.72935	444952
11.73747	463759
11.74558	430064
11.75372	368056
11.76183	309065
11.76995	250652
11.77808	216832
11.78620	191737
11.79433	179940
11.80245	166166
11.81057	156551
11.81870	157788
11.82682	144313
11.83495	144240
11.84307	144647
11.85118	138435
11.85932	137727
11.86743	137179
11.87555	131509
11.88368	131017
11.89180	122437
11.89993	125739
11.90805	119312
11.91617	117947
11.92430	128785
11.93242	128994
11.94055	126925
11.94867	130103
11.95678	124891
11.96492	117314
11.97303	114361
11.98117	116710
11.98928	104301
11.99740	101544
12.00553	102507
12.01365	105491
12.02177	98241
12.02990	101323
12.03802	96944
12.04615	98034
12.05427	97629
12.06238	106748
12.07052	118093
12.07863	126536
12.08677	154828
12.09488	206689
12.10300	299374
12.11113	520998
12.11925	1044799
12.12737	2099327
12.13550	3920043
12.14362	6152054
12.15175	7922279
12.15987	8661617
12.16798	7894863
12.17612	6186902
12.18423	4376013
12.19237	3088050
12.20048	2332059
12.20860	1895596
12.21673	1603353
12.22485	1374289
12.23298	1172315
12.24110	1021911
12.24922	892214
12.25735	819908
12.26547	751919
12.27358	734866
12.28172	699321
12.28983	676170
12.29797	624910
12.30608	576488
12.31420	531141
12.32233	491078
12.33045	464641
12.33858	441340
12.34670	411995
12.35482	409142
12.36295	369141
12.37107	375868
12.37920	378768
12.38732	373428
12.39543	404129
12.40357	489329
12.41168	730902
12.41980	1178819
12.42793	1734782
12.43605	2128445
12.44418	2115989
12.45230	1820090
12.46042	1339941
12.46855	959909
12.47667	694916
12.48480	573136
12.49292	489162
12.50103	456717
12.50917	428686
12.51728	396335
12.52542	371709
12.53353	405615
12.54165	473498
12.54978	593680
12.55790	759813
12.56602	870641
12.57415	920513
12.58227	814488
12.59040	673612
12.59852	544805
12.60663	458737
12.61477	410979
12.62288	363831
12.63102	337511
12.63913	311608
12.64725	288222
12.65538	273586
12.66350	248062
12.67162	240078
12.67975	232254
12.68787	220203
12.69600	229671
12.70412	212027
12.71223	211639
12.72037	223281
12.72848	208982
12.73662	215165
12.74473	215882
12.75285	211146
12.76098	204737
12.76910	206830
12.77723	186051
12.78535	180736
12.79347	181883
12.80160	168052
12.80972	164396
12.81783	159131
12.82597	144285
12.83408	133652
12.84222	123130
12.85033	106012
12.85845	100376
12.86658	91522
12.87470	91180
12.88283	87831
12.89095	92314
12.89907	90178
12.90720	100013
12.91532	93587
12.92343	92366
12.93157	95354
12.93968	90228
12.94782	95566
12.95593	91509
12.96405	100842
12.97218	104980
12.98030	116064
12.98843	124171
12.99655	125333
13.00467	127926
13.01280	105369
13.02092	104049
13.02905	92337
13.03717	92862
13.04528	89047
13.05342	90865
13.06153	87781
13.06965	86209
13.07778	95123
13.08590	96286
13.09403	105301
13.10215	101670
13.11027	101524
13.11840	100514
13.12652	92595
13.13465	89339
13.14277	91106
13.15088	91594
13.15902	83423
13.16713	90719
13.17527	97209
13.18338	104029
13.19150	108887
13.19963	113431
13.20775	106204
13.21587	113434
13.22400	124164
13.23212	128382
13.24025	145752
13.24837	152670
13.25648	153155
13.26462	149683
13.27273	148625
13.28087	136498
13.28898	129718
13.29710	122496
13.30523	100670
13.31335	92602
13.32147	91921
13.32960	79453
13.33772	82962
13.34585	83338
13.35397	81674
13.36208	77270
13.37022	77508
13.37833	76364
13.38647	74829
13.39458	79145
13.40270	83723
13.41083	78839
13.41895	81186
13.42708	79875
13.43520	79968
13.44332	75987
13.45145	89334
13.45957	98625
13.46768	98052
13.47582	119900
13.48393	133051
13.49207	137334
13.50018	143134
13.50830	129696
13.51643	128847
13.52455	121896
13.53268	122182
13.54080	112699
13.54892	111171
13.55705	97061
13.56517	94099
13.57330	96999
13.58142	113141
13.58953	133415
13.59767	164130
13.60578	200237
13.61390	238734
13.62203	263091
13.63015	264583
13.63828	258726
13.64640	226143
13.65452	189142
13.66265	157350
13.67077	128182
13.67890	117265
13.68702	92101
13.69513	85000
13.70327	76588
13.71138	80597
13.71950	67995
13.72763	73316
13.73575	70785
13.74388	71407
13.75200	80468
13.76012	96145
13.76825	129554
13.77637	182232
13.78450	262149
13.79262	386599
13.80073	595429
13.80887	818434
13.81698	1046034
13.82512	1367213
13.83323	1813945
13.84135	2419036
13.84948	2972967
13.85760	3328446
13.86572	3147073
13.87385	2633995
13.88197	1965675
13.89010	1325674
13.89822	894705
13.90633	598783
13.91447	419033
13.92258	307927
13.93072	245953
13.93883	209235
13.94695	179528
13.95508	158606
13.96320	145442
13.97132	131194
13.97945	127920
13.98757	116714
13.99570	115783
14.00382	119965
14.01193	122479
14.02007	127773
14.02818	125078
14.03632	117997
14.04443	114493
14.05255	101912
14.06068	102816
14.06880	95521
14.07693	102398
14.08505	106586
14.09317	112370
14.10130	110587
14.10942	105023
14.11753	100113
14.12567	89481
14.13378	96348
14.14192	100365
14.15003	115095
14.15815	149287
14.16628	194543
14.17440	236793
14.18253	278009
14.19065	292353
14.19877	294651
14.20690	291571
14.21502	306396
14.22315	318919
14.23127	364124
14.23938	388037
14.24752	420465
14.25563	471655
14.26375	523624
14.27188	560253
14.28000	545273
14.28813	482788
14.29625	390683
14.30437	296218
14.31250	239383
14.32062	197009
14.32875	174882
14.33687	163361
14.34498	155200
14.35312	149238
14.36123	150269
14.36935	142848
14.37748	138848
14.38560	125168
14.39373	120445
14.40185	123874
14.40997	142481
14.41810	185475
14.42622	232920
14.43435	280048
14.44247	293895
14.45058	280180
14.45872	238422
14.46683	207672
14.47497	200021
14.48308	225163
14.49120	244950
14.49933	276422
14.50745	292412
14.51557	269102
14.52370	255944
14.53182	212272
14.53995	181245
14.54807	174925
14.55618	155753
14.56432	151680
14.57243	135836
14.58057	125584
14.58868	118510
14.59680	112697
14.60493	97496
14.61305	91846
14.62118	86760
14.62930	82996
14.63742	74900
14.64555	74540
14.65367	77834
14.66178	79922
14.66992	76990
14.67803	83536
14.68617	78807
14.69428	74737
14.70240	70826
14.71053	69221
14.71865	79841
14.72678	83502
14.73490	88286
14.74302	102612
14.75115	108127
14.75927	112321
14.76738	122184
14.77552	129208
14.78363	143356
14.79177	170608
14.79988	267044
14.80800	641418
14.81613	1752883
14.82425	4295772
14.83238	8714211
14.84050	1.454786E+07
14.84862	2.066695E+07
14.85675	2.579169E+07
14.86487	2.714358E+07
14.87300	2.318037E+07
14.88112	1.549191E+07
14.88923	8533522
14.89737	4503860
14.90548	2709464
14.91360	1960260
14.92173	1632989
14.92985	1404023
14.93798	1292702
14.94610	1167257
14.95422	1076504
14.96235	1005880
14.97047	916558
14.97860	827696
14.98672	751782
14.99483	697646
15.00297	627169
15.01108	604045
15.01922	583383
15.02733	570701
15.03545	560849
15.04358	557050
15.05170	543876
15.05982	528980
15.06795	513295
15.07607	462452
15.08420	434019
15.09232	408008
15.10043	364317
15.10857	354563
15.11668	341558
15.12482	323225
15.13293	342783
15.14105	364568
15.14918	441734
15.15730	482155
15.16542	513327
15.17355	462513
15.18167	387386
15.18980	284969
15.19792	215551
15.20603	178254
15.21417	154233
15.22228	146307
15.23042	147030
15.23853	144073
15.24665	140117
15.25478	136806
15.26290	141419
15.27103	143042
15.27915	132729
15.28727	129895
15.29540	123414
15.30352	123920
15.31163	116582
15.31977	112064
15.32788	109754
15.33602	104206
15.34413	100149
15.35225	97603
15.36038	95506
15.36850	97165
15.37663	98414
15.38475	111710
15.39287	120825
15.40100	119891
15.40912	114343
15.41723	113666
15.42537	107358
15.43348	108450
15.44162	106767
15.44973	105216
15.45785	114599
15.46598	125338
15.47410	183336
15.48223	328824
15.49035	625489
15.49847	1178886
15.50660	1920478
15.51472	2715615
15.52285	3221330
15.53097	3336375
15.53908	3059992
15.54722	2498119
15.55533	1837858
15.56345	1304543
15.57158	907968
15.57970	643310
15.58783	474241
15.59595	378032
15.60407	325373
15.61220	295068
15.62032	269423
15.62845	246900
15.63657	231725
15.64468	224315
15.65282	201780
15.66093	191881
15.66907	171559
15.67718	164430
15.68530	156601
15.69343	146289
15.70155	131166
15.70967	121962
15.71780	123484
15.72592	114712
15.73405	115727
15.74217	113743
15.75028	119858
15.75842	141534
15.76653	217427
15.77467	386396
15.78278	744362
15.79090	1267447
15.79903	1796672
15.80715	2090139
15.81527	1966831
15.82340	1533601
15.83152	1054500
15.83965	678839
15.84777	454825
15.85588	323750
15.86402	276105
15.87213	241404
15.88027	235196
15.88838	209910
15.89650	208651
15.90463	202377
15.91275	191635
15.92088	186757
15.92900	173294
15.93712	177902
15.94525	170301
15.95337	165637
15.96148	168071
15.96962	149337
15.97773	146030
15.98587	146214
15.99398	141300
16.00210	148371
16.01023	168671
16.01835	205025
16.02648	249079
16.03460	274712
16.04272	292085
16.05085	292385
16.05897	256292
16.06710	221113
16.07522	188554
16.08333	158465
16.09147	139344
16.09958	127577
16.10770	120064
16.11583	115572
16.12395	125676
16.13208	148935
16.14020	177563
16.14832	215398
16.15645	256869
16.16457	291895
16.17270	305107
16.18082	293753
16.18893	251413
16.19707	216635
16.20518	183157
16.21330	163758
16.22143	155323
16.22955	159368
16.23768	157159
16.24580	155723
16.25392	142735
16.26205	126618
16.27017	118284
16.27830	115258
16.28642	130473
16.29453	149223
16.30267	192145
16.31078	239132
16.31892	267464
16.32703	298741
16.33515	291189
16.34328	268080
16.35140	249699
16.35952	229447
16.36765	214202
16.37577	208348
16.38390	184467
16.39202	171088
16.40013	151788
16.40827	143773
16.41638	138499
16.42452	132910
16.43263	118199
16.44075	132446
16.44888	147768
16.45700	252226
16.46512	556148
16.47325	1300055
16.48137	2655417
16.48950	4452299
16.49762	5881542
16.50573	6179379
16.51387	5594372
16.52198	4014088
16.53012	2476379
16.53823	1411458
16.54635	855353
16.55448	606141
16.56260	468568
16.57073	392826
16.57885	348852
16.58697	321269
16.59510	317257
16.60322	302048
16.61133	297593
16.61947	282085
16.62758	264090
16.63572	255129
16.64383	246020
16.65195	228264
16.66008	203688
16.66820	192042
16.67633	188084
16.68445	175842
16.69257	170331
16.70070	165428
16.70882	157581
16.71695	155867
16.72507	144221
16.73318	133668
16.74132	128776
16.74943	128663
16.75755	135057
16.76568	158747
16.77380	188012
16.78193	205002
16.79005	206396
16.79817	185053
16.80630	157740
16.81442	131684
16.82255	110747
16.83067	99577
16.83878	94736
16.84692	96795
16.85503	90268
16.86317	92269
16.87128	89048
16.87940	95297
16.88753	86655
16.89565	85643
16.90377	87675
16.91190	77891
16.92002	85339
16.92815	84222
16.93627	86480
16.94438	89997
16.95252	84898
16.96063	87921
16.96877	91079
16.97688	88606
16.98500	91945
16.99313	83790
17.00125	94054
17.00937	103303
17.01750	109157
17.02562	107851
17.03375	120359
17.04187	127011
17.04998	142922
17.05812	168483
17.06623	195814
17.07437	211374
17.08248	212144
17.09060	181134
17.09873	161365
17.10685	132093
17.11498	111960
17.12310	121369
17.13122	123239
17.13935	144946
17.14747	154752
17.15558	158504
17.16372	156326
17.17183	158121
17.17997	150446
17.18808	145748
17.19620	129862
17.20433	123913
17.21245	114866
17.22058	102766
17.22870	95938
17.23682	94710
17.24495	90749
17.25307	93700
17.26118	103681
17.26932	102252
17.27743	106756
17.28557	105419
17.29368	97888
17.30180	97633
17.30993	85946
17.31805	95179
17.32618	111314
17.33430	149995
17.34242	192870
17.35055	256818
17.35867	303939
17.36680	340857
17.37492	331821
17.38303	324672
17.39117	301927
17.39928	282599
17.40740	265698
17.41553	262722
17.42365	268514
17.43178	282319
17.43990	286183
17.44802	302676
17.45615	282552
17.46427	262878
17.47240	224585
17.48052	199705
17.48863	163409
17.49677	142355
17.50488	131804
17.51302	126256
17.52113	117332
17.52925	115103
17.53738	111218
17.54550	118483
17.55362	121806
17.56175	130630
17.56987	170805
17.57800	311633
17.58612	660824
17.59423	1433333
17.60237	2669035
17.61048	4297264
17.61862	5626816
17.62673	6112680
17.63485	5670012
17.64298	4499088
17.65110	3021963
17.65922	1838477
17.66735	1084372
17.67547	653508
17.68360	418188
17.69172	327079
17.69983	295149
17.70797	287919
17.71608	268879
17.72422	276677
17.73233	283521
17.74045	297345
17.74858	307382
17.75670	312326
17.76483	309139
17.77295	303360
17.78107	277049
17.78920	243713
17.79732	206745
17.80543	180455
17.81357	156538
17.82168	153905
17.82982	151464
17.83793	163081
17.84605	190998
17.85418	235425
17.86230	308233
17.87043	398992
17.87855	492322
17.88667	529971
17.89480	491529
17.90292	418375
17.91105	319788
17.91917	237352
17.92728	177768
17.93542	139233
17.94353	126462
17.95165	123659
17.95978	130368
17.96790	116828
17.97603	110147
17.98415	104566
17.99227	100727
18.00040	104615
18.00852	106132
18.01665	117139
18.02477	160694
18.03288	232991
18.04102	355121
18.04913	507138
18.05725	643487
18.06538	787904
18.07350	1061453
18.08163	1873510
18.08975	3432296
18.09787	5663856
18.10600	7870644
18.11412	9074718
18.12225	9045375
18.13037	7535767
18.13848	5613787
18.14662	3908692
18.15473	2907761
18.16287	2332259
18.17098	1927767
18.17910	1628524
18.18723	1404231
18.19535	1222851
18.20347	1070599
18.21160	953159
18.21972	853743
18.22785	790342
18.23597	732774
18.24408	655180
18.25222	619681
18.26033	581602
18.26847	553749
18.27658	511474
18.28470	459017
18.29283	392377
18.30095	320594
18.30907	257142
18.31720	207537
18.32532	176987
18.33345	151921
18.34157	136629
18.34968	138019
18.35782	133490
18.36593	129676
18.37407	125797
18.38218	121916
18.39030	119779
18.39843	125446
18.40655	130695
18.41468	147666
18.42280	186079
18.43092	263592
18.43905	408972
18.44717	569779
18.45528	791814
18.46342	1022949
18.47153	1293038
18.47967	1600725
18.48778	1991836
18.49590	2238598
18.50403	2299038
18.51215	2047502
18.52028	1615467
18.52840	1111922
18.53652	699417
18.54465	461490
18.55277	316164
18.56090	243949
18.56902	194731
18.57713	182955
18.58527	156047
18.59338	170765
18.60150	178530
18.60963	198922
18.61775	251597
18.62588	295362
18.63400	344856
18.64212	384424
18.65025	389026
18.65837	371282
18.66650	319451
18.67462	274107
18.68273	214586
18.69087	184488
18.69898	162699
18.70710	145661
18.71523	148318
18.72335	159652
18.73148	157753
18.73960	159551
18.74772	156317
18.75585	144263
18.76397	138203
18.77210	132740
18.78022	119009
18.78833	114459
18.79647	111767
18.80458	114277
18.81272	114488
18.82083	121396
18.82895	118851
18.83708	108916
18.84520	121453
18.85332	114707
18.86145	121656
18.86957	138039
18.87770	189235
18.88582	226020
18.89393	268035
18.90207	286220
18.91018	286664
18.91832	275111
18.92643	252842
18.93455	219297
18.94268	212200
18.95080	244196
18.95893	284564
18.96705	327229
18.97517	391596
18.98330	427285
18.99142	420853
18.99953	364327
19.00767	306248
19.01578	243730
19.02392	207273
19.03203	182826
19.04015	160501
19.04828	148069
19.05640	144594
19.06453	138032
19.07265	130764
19.08077	120805
19.08890	132184
19.09702	159769
19.10513	217184
19.11327	281049
19.12138	341638
19.12952	372599
19.13763	342181
19.14575	287548
19.15388	225965
19.16200	180585
19.17013	148049
19.17825	130771
19.18637	113770
19.19450	112476
19.20262	107000
19.21075	103975
19.21887	101094
19.22698	97647
19.23512	98266
19.24323	102204
19.25135	105611
19.25948	100321
19.26760	101728
19.27573	102704
19.28385	109633
19.29197	120162
19.30010	142569
19.30822	166797
19.31635	174619
19.32447	185685
19.33258	184458
19.34072	171296
19.34883	146508
19.35695	145411
19.36508	170454
19.37320	222839
19.38133	302960
19.38945	383598
19.39757	431283
19.40570	407340
19.41382	350334
19.42195	280343
19.43007	222320
19.43818	182024
19.44632	160625
19.45443	150530
19.46257	150903
19.47068	138646
19.47880	130567
19.48693	130453
19.49505	138706
19.50317	149134
19.51130	179132
19.51942	218148
19.52755	267243
19.53567	314648
19.54378	365249
19.55192	393174
19.56003	394462
19.56817	381398
19.57628	337097
19.58440	290054
19.59253	232224
19.60065	187224
19.60878	150705
19.61690	128382
19.62502	114400
19.63315	107552
19.64127	121131
19.64938	154645
19.65752	227756
19.66563	386180
19.67377	657923
19.68188	986021
19.69000	1350895
19.69813	1564594
19.70625	1542882
19.71438	1353854
19.72250	1068163
19.73062	859978
19.73875	687450
19.74687	551527
19.75498	482129
19.76312	433076
19.77123	424044
19.77937	424579
19.78748	472569
19.79560	575867
19.80373	761094
19.81185	974481
19.81998	1146487
19.82810	1184328
19.83622	1092174
19.84435	879613
19.85247	693074
19.86060	532381
19.86872	432317
19.87683	396249
19.88497	414172
19.89308	499724
19.90120	600679
19.90933	744199
19.91745	840957
19.92558	843312
19.93370	781010
19.94182	670498
19.94995	555254
19.95807	456825
19.96620	387666
19.97432	355957
19.98243	328962
19.99057	316167
19.99868	299885
20.00682	294693
20.01493	294769
20.02305	318831
20.03118	316348
20.03930	331156
20.04742	340609
20.05555	358705
20.06367	402433
20.07180	537504
20.07992	766015
20.08803	1108927
20.09617	1459180
20.10428	1674252
20.11242	1710618
20.12053	1570966
20.12865	1321380
20.13678	1014031
20.14490	835012
20.15302	806859
20.16115	1127547
20.16927	1966373
20.17740	3564454
20.18552	5974580
20.19363	9123660
20.20177	1.219918E+07
20.20988	1.426054E+07
20.21802	1.495748E+07
20.22613	1.370338E+07
20.23425	1.139698E+07
20.24238	8729433
20.25050	6535895
20.25863	5596434
20.26675	5788873
20.27487	6947758
20.28300	8573424
20.29112	9798251
20.29923	1.023667E+07
20.30737	9329907
20.31548	7717066
20.32362	5743782
20.33173	3952427
20.33985	2589545
20.34798	1664988
20.35610	1121521
20.36423	816676
20.37235	631544
20.38047	548713
20.38860	457407
20.39672	398638
20.40485	357763
20.41297	327558
20.42108	308284
20.42922	289475
20.43733	297976
20.44545	320206
20.45358	358176
20.46170	410020
20.46983	454118
20.47795	456205
20.48607	421967
20.49420	380004
20.50232	348624
20.51045	301129
20.51857	259328
20.52668	241000
20.53482	226747
20.54293	226369
20.55105	230165
20.55918	232636
20.56730	247144
20.57543	234034
20.58355	230417
20.59167	225817
20.59980	208152
20.60792	207791
20.61605	200828
20.62417	201171
20.63228	204971
20.64042	214543
20.64853	243764
20.65667	272356
20.66478	309719
20.67290	324720
20.68103	309130
20.68915	285572
20.69727	261801
20.70540	228238
20.71352	204758
20.72165	186241
20.72977	179265
20.73788	177746
20.74602	185548
20.75413	187566
20.76227	213194
20.77038	246037
20.77850	274495
20.78663	338087
20.79475	456523
20.80287	760734
20.81100	1393910
20.81912	2423159
20.82725	3640104
20.83537	4513670
20.84348	4634634
20.85162	3918408
20.85973	2982000
20.86787	1778156
20.87598	1039458
20.88410	617807
20.89223	409852
20.90035	329605
20.90848	311302
20.91660	336731
20.92472	424175
20.93285	516176
20.94097	617585
20.94908	712624
20.95722	747232
20.96533	718348
20.97347	634755
20.98158	521631
20.98970	423653
20.99783	340092
21.00595	283808
21.01408	242785
21.02220	232010
21.03032	228331
21.03845	225704
21.04657	243795
21.05470	252844
21.06282	252652
21.07093	242087
21.07907	222815
21.08718	206047
21.09530	195991
21.10343	183505
21.11155	179505
21.11968	172823
21.12780	176057
21.13592	202340
21.14405	253966
21.15217	384852
21.16030	627556
21.16842	967582
21.17653	1233039
21.18467	1355203
21.19278	1318272
21.20090	1063404
21.20903	783750
21.21715	549364
21.22528	401071
21.23340	313962
21.24152	262917
21.24965	235820
21.25777	221531
21.26590	206000
21.27402	182003
21.28213	184141
21.29027	177472
21.29838	173097
21.30652	168798
21.31463	167523
21.32275	150156
21.33088	157091
21.33900	154717
21.34712	153588
21.35525	171120
21.36337	168969
21.37150	177279
21.37962	188828
21.38773	207781
21.39587	222532
21.40398	273225
21.41212	319960
21.42023	405843
21.42835	492229
21.43648	613143
21.44460	698049
21.45273	729991
21.46085	696811
21.46897	598756
21.47710	486407
21.48522	396799
21.49333	322456
21.50147	267851
21.50958	229441
21.51772	212929
21.52583	196614
21.53395	181148
21.54208	175681
21.55020	177049
21.55833	171689
21.56645	172335
21.57457	159396
21.58270	174171
21.59082	178753
21.59893	207922
21.60707	225937
21.61518	242096
21.62332	252036
21.63143	234975
21.63955	236163
21.64768	244997
21.65580	281738
21.66393	335055
21.67205	382864
21.68017	440805
21.68830	465957
21.69642	505056
21.70455	489668
21.71267	439140
21.72078	367013
21.72892	300331
21.73703	245715
21.74515	203581
21.75328	177949
21.76140	173139
21.76953	162327
21.77765	162118
21.78577	158101
21.79390	164708
21.80202	170009
21.81015	170912
21.81827	184625
21.82638	202215
21.83452	205083
21.84263	224348
21.85075	259068
21.85888	273773
21.86700	300287
21.87513	319882
21.88325	305826
21.89137	259290
21.89950	244461
21.90762	222780
21.91575	206238
21.92387	187566
21.93198	187183
21.94012	177896
21.94823	162163
21.95637	157476
21.96448	145512
21.97260	133750
21.98073	130344
21.98885	121604
21.99697	123289
22.00510	123884
22.01322	120106
22.02135	135076
22.02947	134907
22.03758	150943
22.04572	158756
22.05383	171023
22.06197	172776
22.07008	181448
22.07820	182194
22.08633	169865
22.09445	162909
22.10258	170237
22.11070	152144
22.11882	157363
22.12695	145364
22.13507	137802
22.14318	127152
22.15132	119738
22.15943	112713
22.16757	113841
22.17568	111192
22.18380	110034
22.19193	118956
22.20005	112641
22.20818	119210
22.21630	121184
22.22442	119579
22.23255	129627
22.24067	136321
22.24880	148626
22.25692	159254
22.26503	158961
22.27317	169778
22.28128	174455
22.28940	188112
22.29753	212038
22.30565	237679
22.31378	252507
22.32190	263674
22.33002	231627
22.33815	215299
22.34627	183551
22.35440	167584
22.36252	151658
22.37063	139591
22.37877	134806
22.38688	146948
22.39500	169855
22.40313	225403
22.41125	361498
22.41938	569438
22.42750	802039
22.43562	1023141
22.44375	1082113
22.45187	999301
22.46000	824269
22.46812	598521
22.47623	427439
22.48437	301715
22.49248	262808
22.50062	283976
22.50873	353390
22.51685	437121
22.52498	542360
22.53310	610841
22.54122	641913
22.54935	619223
22.55747	563675
22.56560	446077
22.57372	362673
22.58183	289345
22.58997	245703
22.59808	210503
22.60622	195542
22.61433	169363
22.62245	159601
22.63058	146336
22.63870	132788
22.64682	137362
22.65495	140218
22.66307	146901
22.67120	164355
22.67932	159278
22.68743	179753
22.69557	188843
22.70368	212148
22.71182	254042
22.71993	326104
22.72805	397800
22.73618	442708
22.74430	453317
22.75243	410180
22.76055	343633
22.76867	281262
22.77680	242298
22.78492	226853
22.79303	235669
22.80117	274538
22.80928	339450
22.81742	444153
22.82553	517859
22.83365	548925
22.84178	516272
22.84990	440617
22.85803	380130
22.86615	330838
22.87427	337564
22.88240	396456
22.89052	520799
22.89865	661848
22.90677	807287
22.91488	902811
22.92302	975746
22.93113	991952
22.93925	996013
22.94738	978973
22.95550	902861
22.96363	791814
22.97175	610249
22.97987	487645
22.98800	382372
22.99612	308778
23.00425	265090
23.01237	245464
23.02048	210489
23.02862	193035
23.03673	177578
23.04485	157761
23.05298	157730
23.06110	160144
23.06923	162120
23.07735	184311
23.08547	195467
23.09360	207736
23.10172	215694
23.10985	200571
23.11797	198262
23.12608	186230
23.13422	179166
23.14233	168399
23.15047	179793
23.15858	189523
23.16670	192159
23.17483	183220
23.18295	166476
23.19107	149183
23.19920	130208
23.20732	117090
23.21545	119924
23.22357	107351
23.23168	103085
23.23982	105755
23.24793	117318
23.25607	127025
23.26418	161527
23.27230	207582
23.28043	244950
23.28855	271538
23.29668	266453
23.30480	240153
23.31292	193386
23.32105	166479
23.32917	152495
23.33728	145533
23.34542	192823
23.35353	264653
23.36167	379820
23.36978	526364
23.37790	658999
23.38603	715670
23.39415	724300
23.40228	634554
23.41040	496459
23.41852	375315
23.42665	267357
23.43477	193812
23.44288	157925
23.45102	139878
23.45913	117744
23.46727	107812
23.47538	107316
23.48350	96784
23.49163	98053
23.49975	102643
23.50788	99465
23.51600	100660
23.52412	103819
23.53225	115229
23.54037	106614
23.54850	125057
23.55662	135965
23.56473	165397
23.57287	214514
23.58098	292914
23.58910	458768
23.59723	717041
23.60535	1028433
23.61348	1347489
23.62160	1489624
23.62972	1449132
23.63785	1185104
23.64597	880312
23.65410	609503
23.66222	397720
23.67033	291444
23.67847	222423
23.68658	185104
23.69470	164902
23.70283	149409
23.71095	138112
23.71908	127577
23.72720	127511
23.73532	123006
23.74345	117238
23.75157	128546
23.75970	184989
23.76782	414530
23.77593	1025325
23.78407	2368561
23.79218	4282438
23.80032	6265929
23.80843	7589619
23.81655	7836707
23.82468	6781393
23.83280	5283351
23.84092	3711299
23.84905	2522312
23.85717	1778588
23.86530	1307611
23.87342	1018079
23.88153	856271
23.88967	760216
23.89778	683657
23.90592	647716
23.91403	692627
23.92215	754124
23.93028	817125
23.93840	878686
23.94653	850734
23.95465	743405
23.96277	613724
23.97090	507953
23.97902	424939
23.98713	381083
23.99527	355905
24.00338	329970
24.01152	326653
24.01963	315674
24.02775	313726
24.03588	320149
24.04400	314965
24.05213	321490
24.06025	295910
24.06837	286592
24.07650	267206
24.08462	257428
24.09273	248750
24.10087	242436
24.10898	233638
24.11712	225447
24.12523	223368
24.13335	230623
24.14148	250142
24.14960	302820
24.15773	375476
24.16585	471599
24.17397	540007
24.18210	578599
24.19022	548204
24.19835	519857
24.20647	506377
24.21458	490496
24.22272	459877
24.23083	438574
24.23895	385840
24.24708	351640
24.25520	300226
24.26333	268901
24.27145	258150
24.27957	231389
24.28770	209557
24.29582	200366
24.30395	205097
24.31207	202692
24.32018	211777
24.32832	218963
24.33643	228515
24.34457	246795
24.35268	236777
24.36080	228820
24.36893	215842
24.37705	203673
24.38517	194864
24.39330	188610
24.40142	199108
24.40955	208510
24.41767	227815
24.42578	245491
24.43392	252212
24.44203	250030
24.45017	242766
24.45828	220118
24.46640	218517
24.47453	204310
24.48265	204621
24.49077	193247
24.49890	197602
24.50702	207162
24.51515	201172
24.52327	206368
24.53138	227293
24.53952	259794
24.54763	297250
24.55577	375612
24.56388	460086
24.57200	520085
24.58013	569747
24.58825	552373
24.59638	487101
24.60450	432869
24.61262	361302
24.62075	302203
24.62887	263497
24.63698	233501
24.64512	201657
24.65323	202043
24.66137	203003
24.66948	200603
24.67760	207021
24.68573	209514
24.69385	208459
24.70198	209668
24.71010	203353
24.71822	192927
24.72635	187540
24.73447	184359
24.74260	177215
24.75072	174072
24.75883	175555
24.76697	176184
24.77508	179845
24.78320	187993
24.79133	205459
24.79945	234861
24.80758	251516
24.81570	248630
24.82382	262151
24.83195	267998
24.84007	305002
24.84820	357454
24.85632	477642
24.86443	637513
24.87257	888500
24.88068	1284327
24.88880	1835438
24.89693	2504788
24.90505	3146460
24.91318	3470852
24.92130	3414200
24.92942	2817795
24.93755	1995707
24.94567	1298049
24.95380	798755
24.96192	493495
24.97003	336355
24.97817	241924
24.98628	208470
24.99442	185019
25.00253	174400
25.01065	170056
25.01878	168821
25.02690	173666
25.03502	171369
25.04315	179673
25.05127	187687
25.05940	178622
25.06752	177424
25.07563	170824
25.08377	179878
25.09188	175028
25.10002	188534
25.10813	255450
25.11625	457366
25.12438	1092504
25.13250	2639483
25.14062	5620877
25.14875	9650174
25.15687	1.424086E+07
25.16500	1.821172E+07
25.17312	1.916925E+07
25.18123	1.702064E+07
25.18937	1.274462E+07
25.19748	8331839
25.20562	4791980
25.21373	2486672
25.22185	1286587
25.22998	726312
25.23810	467036
25.24623	373870
25.25435	405668
25.26247	518620
25.27060	685851
25.27872	910747
25.28683	1027705
25.29497	1084465
25.30308	974977
25.31122	807130
25.31933	589027
25.32745	448595
25.33558	314334
25.34370	248441
25.35183	210695
25.35995	187082
25.36807	187347
25.37620	177610
25.38432	167757
25.39245	165065
25.40057	147244
25.40868	146789
25.41682	148692
25.42493	139194
25.43305	141373
25.44118	148216
25.44930	142125
25.45743	157878
25.46555	156958
25.47367	158325
25.48180	157744
25.48992	162173
25.49805	156853
25.50617	169050
25.51428	161594
25.52242	161029
25.53053	153600
25.53865	140758
25.54678	137098
25.55490	133747
25.56303	125777
25.57115	128448
25.57927	124921
25.58740	128294
25.59552	139251
25.60365	134897
25.61177	136903
25.61988	127837
25.62802	128229
25.63613	120773
25.64427	119341
25.65238	115885
25.66050	111350
25.66863	118590
25.67675	127205
25.68487	142386
25.69300	162226
25.70112	195395
25.70925	215680
25.71737	226947
25.72548	216909
25.73362	206805
25.74173	189243
25.74987	159768
25.75798	140967
25.76610	136196
25.77423	124226
25.78235	119523
25.79048	115447
25.79860	114346
25.80672	108589
25.81485	112887
25.82297	111929
25.83108	120717
25.83922	121527
25.84733	121920
25.85547	118941
25.86358	124589
25.87170	124854
25.87983	128280
25.88795	137974
25.89608	140915
25.90420	148901
25.91232	158823
25.92045	148131
25.92857	153207
25.93668	143249
25.94482	132925
25.95293	145211
25.96107	151579
25.96918	150893
25.97730	158394
25.98543	153458
25.99355	156123
26.00168	142099
26.00980	136495
26.01792	129212
26.02605	118800
26.03417	122135
26.04230	121903
26.05042	122715
26.05853	119449
26.06667	127115
26.07478	136448
26.08290	143300
26.09103	157461
26.09915	169908
26.10728	175701
26.11540	177084
26.12352	165221
26.13165	163168
26.13977	153318
26.14790	151654
26.15602	160866
26.16413	167245
26.17227	180017
26.18038	194439
26.18850	208371
26.19663	205161
26.20475	216022
26.21288	218514
26.22100	207763
26.22912	200436
26.23725	180808
26.24537	169092
26.25350	159570
26.26162	148562
26.26973	145154
26.27787	131471
26.28598	123306
26.29412	119398
26.30223	113915
26.31035	112567
26.31848	110596
26.32660	112234
26.33472	105263
26.34285	111375
26.35097	139135
26.35910	218179
26.36722	426825
26.37533	867885
26.38347	1738604
26.39158	3138244
26.39972	4877843
26.40783	6366182
26.41595	7157968
26.42408	6974780
26.43220	6178674
26.44033	4793262
26.44845	3239262
26.45657	2076108
26.46470	1235305
26.47282	744425
26.48093	463121
26.48907	328389
26.49718	265761
26.50532	224190
26.51343	198092
26.52155	167066
26.52968	146687
26.53780	126414
26.54593	121124
26.55405	111820
26.56217	113731
26.57030	106336
26.57842	116565
26.58655	119788
26.59467	144510
26.60278	175814
26.61092	218480
26.61903	240639
26.62715	254060
26.63528	265813
26.64340	282965
26.65153	276321
26.65965	283461
26.66777	282922
26.67590	275199
26.68402	288520
26.69215	279609
26.70027	280596
26.70838	265356
26.71652	281350
26.72463	294377
26.73275	291459
26.74088	283485
26.74900	287188
26.75713	284316
26.76525	298440
26.77337	295918
26.78150	292818
26.78962	300139
26.79775	309607
26.80587	305213
26.81398	310388
26.82212	309974
26.83023	311118
26.83837	314768
26.84648	317023
26.85460	304693
26.86273	301746
26.87085	291439
26.87897	288266
26.88710	304237
26.89522	296227
26.90335	294989
26.91147	291645
26.91958	290477
26.92772	280340
26.93583	282923
26.94397	279732
26.95208	264915
26.96020	282512
26.96833	294657
26.97645	339407
26.98457	437414
26.99270	684886
27.00082	1180714
27.00895	2082835
27.01707	3323799
27.02518	4684083
27.03332	5456125
27.04143	5339903
27.04957	4717222
27.05768	3711820
27.06580	2762294
27.07393	2070370
27.08205	1535623
27.09018	1195286
27.09830	953222
27.10642	803756
27.11455	754288
27.12267	672783
27.13078	621197
27.13892	584077
27.14703	552760
27.15517	522450
27.16328	499768
27.17140	496829
27.17953	526976
27.18765	569486
27.19578	656953
27.20390	742239
27.21202	792413
27.22015	768956
27.22827	733799
27.23640	640635
27.24452	563913
27.25263	496592
27.26077	436548
27.26888	409718
27.27700	387837
27.28513	351795
27.29325	337352
27.30138	336695
27.30950	332232
27.31762	333647
27.32575	333317
27.33387	333553
27.34200	344055
27.35012	332865
27.35823	342100
27.36637	349483
27.37448	332881
27.38260	326132
27.39073	332371
27.39885	314650
27.40698	322894
27.41510	310762
27.42322	302405
27.43135	304582
27.43947	304586
27.44760	307004
27.45572	300861
27.46383	290527
27.47197	278713
27.48008	270847
27.48822	261818
27.49633	248160
27.50445	251884
27.51258	243407
27.52070	235662
27.52882	244223
27.53695	238929
27.54507	237835
27.55320	238595
27.56132	238182
27.56943	227861
27.57757	248386
27.58568	264442
27.59382	317803
27.60193	366367
27.61005	421602
27.61818	444858
27.62630	450496
27.63443	425244
27.64255	377015
27.65067	351181
27.65880	319048
27.66692	310723
27.67503	284053
27.68317	278591
27.69128	270814
27.69942	291238
27.70753	314514
27.71565	324552
27.72378	306936
27.73190	292417
27.74003	260650
27.74815	228076
27.75627	222813
27.76440	196691
27.77252	198740
27.78063	203294
27.78877	209404
27.79688	218498
27.80502	223533
27.81313	224240
27.82125	224677
27.82938	227625
27.83750	206449
27.84563	196797
27.85375	186702
27.86187	176047
27.87000	179066
27.87812	172084
27.88625	179906
27.89437	170592
27.90248	164330
27.91062	172063
27.91873	176628
27.92685	167526
27.93498	171581
27.94310	168679
27.95123	171590
27.95935	169865
27.96747	166843
27.97560	163028
27.98372	165089
27.99185	168768
27.99997	174680
28.00808	173914
28.01622	190649
28.02433	210652
28.03245	254203
28.04058	312053
28.04870	408345
28.05683	528405
28.06495	601910
28.07307	626752
28.08120	581472
28.08932	481326
28.09745	376685
28.10557	273940
28.11368	225782
28.12182	184925
28.12993	171220
28.13807	162999
28.14618	157231
28.15430	157446
28.16243	154775
28.17055	153044
28.17867	151084
28.18680	153824
28.19492	165846
28.20305	190644
28.21117	219690
28.21928	276448
28.22742	328871
28.23553	373467
28.24367	393599
28.25178	391702
28.25990	356734
28.26803	299614
28.27615	241897
28.28428	204190
28.29240	167595
28.30052	168478
28.30865	171640
28.31677	206952
28.32488	266522
28.33302	316442
28.34113	366399
28.34927	425016
28.35738	473525
28.36550	494509
28.37363	547005
28.38175	588323
28.38988	621993
28.39800	646793
28.40612	630369
28.41425	605867
28.42237	569798
28.43048	505161
28.43862	462349
28.44673	420426
28.45487	368784
28.46298	328282
28.47110	300090
28.47923	285299
28.48735	288900
28.49548	294402
28.50360	331509
28.51172	368744
28.51985	403528
28.52797	423616
28.53610	413725
28.54422	365731
28.55233	317666
28.56047	260993
28.56858	217806
28.57670	193338
28.58483	171914
28.59295	168099
28.60108	164192
28.60920	157569
28.61732	164243
28.62545	177414
28.63357	198979
28.64170	212727
28.64982	234803
28.65793	253342
28.66607	244479
28.67418	231924
28.68232	217645
28.69043	203272
28.69855	181020
28.70668	168065
28.71480	150646
28.72292	141527
28.73105	138077
28.73917	133132
28.74730	132265
28.75542	138648
28.76353	138030
28.77167	140727
28.77978	154244
28.78792	154266
28.79603	162892
28.80415	184358
28.81228	193528
28.82040	208271
28.82852	220609
28.83665	212285
28.84477	204121
28.85290	189275
28.86102	182678
28.86913	170011
28.87727	161504
28.88538	170015
28.89352	179509
28.90163	208879
28.90975	235542
28.91788	261882
28.92600	269778
28.93413	264430
28.94225	242938
28.95037	222860
28.95850	201578
28.96662	186869
28.97473	180272
28.98287	159542
28.99098	149912
28.99912	138279
29.00723	135604
29.01535	129688
29.02348	131573
29.03160	134084
29.03973	130772
29.04785	130110
29.05597	130910
29.06410	131753
29.07222	122273
29.08035	127380
29.08847	133788
29.09658	137661
29.10472	137178
29.11283	145051
29.12095	136188
29.12908	135874
29.13720	122397
29.14533	115638
29.15345	107180
29.16157	103866
29.16970	103972
29.17782	107446
29.18595	118336
29.19407	132725
29.20218	162112
29.21032	205244
29.21843	259581
29.22655	323848
29.23468	380381
29.24280	384812
29.25093	367671
29.25905	339342
29.26717	312995
29.27530	299253
29.28342	268595
29.29155	244812
29.29967	212667
29.30778	185840
29.31592	153849
29.32403	131365
29.33217	122780
29.34028	120492
29.34840	116711
29.35653	107810
29.36465	105641
29.37277	104596
29.38090	112006
29.38902	110597
29.39715	112834
29.40527	114191
29.41338	122357
29.42152	127992
29.42963	126664
29.43777	137229
29.44588	128417
29.45400	126407
29.46213	122558
29.47025	117525
29.47837	115153
29.48650	117265
29.49462	111052
29.50275	109830
29.51087	115259
29.51898	122113
29.52712	123116
29.53523	124962
29.54337	119205
29.55148	111858
29.55960	111200
29.56773	111650
29.57585	114778
29.58398	100555
29.59210	110454
29.60022	100390
29.60835	101348
29.61647	98311
29.62458	99635
29.63272	99255
29.64083	100960
29.64897	101924
29.65708	96965
29.66520	94602
29.67333	98857
29.68145	102250
29.68958	104472
29.69770	118141
29.70582	137010
29.71395	143414
29.72207	149362
29.73020	144102
29.73832	136845
29.74643	127586
29.75457	117474
29.76268	113717
29.77080	102895
29.77893	96725
29.78705	97282
29.79518	88447
29.80330	89531
29.81142	95687
29.81955	87968
29.82767	88339
29.83580	91817
29.84392	90457
29.85203	89467
29.86017	92904
29.86828	94700
29.87640	97561
29.88453	113089
29.89265	124713
29.90078	161211
29.90890	201693
29.91702	229681
29.92515	243807
29.93327	221339
29.94140	186755
29.94952	161779
29.95763	130578
29.96577	117334
29.97388	109643
29.98202	114532
29.99013	125252
29.99825	145031
30.00638	159452
30.01450	182684
30.02262	207908
30.03075	211986
30.03887	231447
30.04700	229771
30.05512	240669
30.06323	239441
30.07137	244407
30.07948	231266
30.08762	241913
30.09573	228216
30.10385	216603
30.11198	199807
30.12010	195439
30.12823	184637
30.13635	171660
30.14447	165259
30.15260	156871
30.16072	140660
30.16883	152389
30.17697	142671
30.18508	150444
30.19322	164192
30.20133	186278
30.20945	206835
30.21758	210683
30.22570	213991
30.23383	211509
30.24195	198126
30.25007	171324
30.25820	151556
30.26632	140753
30.27443	129090
30.28257	111581
30.29068	104862
30.29882	107050
30.30693	111808
30.31505	108384
30.32318	105773
30.33130	107087
30.33943	106703
30.34755	110202
30.35567	109815
30.36380	112761
30.37192	109508
30.38005	111346
30.38817	112027
30.39628	106060
30.40442	107137
30.41253	98409
30.42065	98637
30.42878	101114
30.43690	97495
30.44503	100351
30.45315	99300
30.46127	95529
30.46940	98354
30.47752	97490
30.48565	103803
30.49377	106367
30.50188	103474
30.51002	111044
30.51813	107786
30.52625	116285
30.53438	113727
30.54250	102257
30.55063	105637
30.55875	115549
30.56687	117644
30.57500	113848
30.58312	119431
30.59125	129066
30.59937	127608
30.60748	121885
30.61562	119493
30.62373	124805
30.63187	129821
30.63998	130933
30.64810	124499
30.65623	119719
30.66435	110640
30.67247	113264
30.68060	108919
30.68872	95769
30.69685	93085
30.70497	96351
30.71308	87671
30.72122	90364
30.72933	96294
30.73747	94700
30.74558	95004
30.75370	96823
30.76183	95740
30.76995	100146
30.77808	98634
30.78620	110064
30.79432	125272
30.80245	150185
30.81057	211907
30.81868	261392
30.82682	301458
30.83493	330394
30.84307	308909
30.85118	253831
30.85930	211647
30.86743	175920
30.87555	176825
30.88368	182202
30.89180	191366
30.89992	210459
30.90805	216927
30.91617	210629
30.92428	193572
30.93242	173083
30.94053	146767
30.94867	142017
30.95678	134858
30.96490	142312
30.97303	159986
30.98115	177019
30.98928	176899
30.99740	169472
31.00552	145195
31.01365	136342
31.02177	116190
31.02990	106182
31.03802	106165
31.04613	97365
31.05427	98605
31.06238	98718
31.07050	103037
31.07863	100509
31.08675	104954
31.09488	112478
31.10300	128070
31.11112	149291
31.11925	175280
31.12737	192092
31.13550	191396
31.14362	177747
31.15173	164098
31.15987	150393
31.16798	149495
31.17612	144067
31.18423	153988
31.19235	152858
31.20048	154474
31.20860	168912
31.21672	184152
31.22485	207375
31.23297	234947
31.24110	256080
31.24922	253402
31.25733	236461
31.26547	197868
31.27358	157243
31.28172	133476
31.28983	121222
31.29795	110535
31.30608	100268
31.31420	96995
31.32232	108253
31.33045	115664
31.33857	120763
31.34670	129904
31.35482	129951
31.36293	136510
31.37107	127135
31.37918	120462
31.38732	114047
31.39543	101924
31.40355	103506
31.41168	97352
31.41980	92151
31.42793	98496
31.43605	93494
31.44417	93467
31.45230	94965
31.46042	90676
31.46853	97984
31.47667	97075
31.48478	97302
31.49292	99518
31.50103	108517
31.50915	114391
31.51728	125660
31.52540	154927
31.53353	169287
31.54165	177893
31.54977	181686
31.55790	183664
31.56602	172584
31.57413	152943
31.58227	140614
31.59038	133428
31.59852	120448
31.60663	109391
31.61475	104115
31.62288	100471
31.63100	94364
31.63913	102556
31.64725	100861
31.65537	102271
31.66350	108805
31.67162	122669
31.67975	135332
31.68787	145752
31.69598	152795
31.70412	157267
31.71223	143626
31.72035	129025
31.72848	125699
31.73660	111410
31.74473	98150
31.75285	92952
31.76097	92149
31.76910	87452
31.77722	91915
31.78535	90670
31.79347	89266
31.80158	95800
31.80972	95735
31.81783	96496
31.82597	98002
31.83408	97457
31.84220	95766
31.85033	99016
31.85845	100865
31.86657	110438
31.87470	110817
31.88282	112030
31.89095	121971
31.89907	112905
31.90718	111602
31.91532	108016
31.92343	104715
31.93157	106405
31.93968	103876
31.94780	111261
31.95593	118014
31.96405	132990
31.97218	149661
31.98030	156462
31.98842	169963
31.99655	177181
32.00467	206480
32.01278	208725
32.02092	221702
32.02903	238893
32.03717	236424
32.04528	213893
32.05340	197222
32.06153	183914
32.06965	159392
32.07778	138797
32.08590	131160
32.09402	133867
32.10215	125170
32.11027	125814
32.11838	118714
32.12652	120722
32.13463	115608
32.14277	115660
32.15088	109778
32.15900	100733
32.16713	96435
32.17525	98027
32.18338	98073
32.19150	96283
32.19962	100089
32.20775	99080
32.21587	104812
32.22400	109890
32.23212	96277
32.24023	97001
32.24837	101096
32.25648	96180
32.26460	98230
32.27273	98995
32.28085	96463
32.28898	106964
32.29710	100102
32.30522	97325
32.31335	103558
32.32147	97205
32.32960	96973
32.33772	102135
32.34583	95739
32.35397	101465
32.36208	99892
32.37020	114914
32.37833	100696
32.38645	104540
32.39458	99920
32.40270	102261
32.41082	97155
32.41895	91206
32.42707	90269
32.43520	90556
32.44332	94233
32.45143	92578
32.45957	87486
32.46768	87789
32.47582	89684
32.48393	86048
32.49205	89815
32.50018	89702
32.50830	98898
32.51642	90990
32.52455	98850
32.53267	99160
32.54080	100153
32.54892	100099
32.55703	109254
32.56517	105445
32.57328	106735
32.58142	103276
32.58953	100809
32.59765	96708
32.60578	102982
32.61390	106881
32.62203	98908
32.63015	92525
32.63827	93998
32.64640	102901
32.65452	96213
32.66263	94551
32.67077	99532
32.67888	98632
32.68702	102830
32.69513	104487
32.70325	112100
32.71138	110053
32.71950	110694
32.72763	108510
32.73575	109152
32.74387	102718
32.75200	99551
32.76012	100702
32.76823	95950
32.77637	92009
32.78448	88403
32.79262	93258
32.80073	90436
32.80885	90508
32.81698	93535
32.82510	96926
32.83323	105959
32.84135	105665
32.84947	101391
32.85760	109956
32.86572	104191
32.87385	112538
32.88197	99268
32.89008	106873
32.89822	111415
32.90633	110471
32.91445	119334
32.92258	122884
32.93070	129188
32.93883	117984
32.94695	119264
32.95507	101854
32.96320	98821
32.97132	96541
32.97945	100349
32.98757	113204
32.99568	143100
33.00382	180855
33.01193	218835
33.02007	249411
33.02818	267188
33.03630	257016
33.04443	213071
33.05255	184670
33.06067	166490
33.06880	153449
33.07692	161249
33.08505	203763
33.09317	235769
33.10128	306608
33.10942	364019
33.11753	435714
33.12567	466253
33.13378	470632
33.14190	404236
33.15003	334185
33.15815	280355
33.16627	225492
33.17440	196443
33.18252	174759
33.19065	147266
33.19877	131176
33.20688	128408
33.21502	120835
33.22313	110592
33.23127	127630
33.23938	126851
33.24750	131224
33.25563	131058
33.26375	128964
33.27188	131845
33.28000	126187
33.28812	120110
33.29625	115009
33.30437	116603
33.31248	124240
33.32062	119608
33.32873	118530
33.33687	120274
33.34498	125112
33.35310	122971
33.36123	128515
33.36935	148285
33.37748	158544
33.38560	157273
33.39372	158216
33.40185	136180
33.40997	126960
33.41808	122664
33.42622	98878
33.43433	99396
33.44247	90063
33.45058	89132
33.45870	89091
33.46683	90558
33.47495	85965
33.48308	90175
33.49120	84993
33.49932	88878
33.50745	91856
33.51557	96998
33.52370	102854
33.53182	101518
33.53993	107696
33.54807	118308
33.55618	119487
33.56430	125577
33.57243	144137
33.58055	150233
33.58868	146005
33.59680	136445
33.60492	118288
33.61305	107490
33.62117	97150
33.62930	95313
33.63742	101746
33.64553	101886
33.65367	108928
33.66178	124763
33.66992	128608
33.67803	133377
33.68615	127801
33.69428	120097
33.70240	108286
33.71052	100777
33.71865	91445
33.72677	87430
33.73490	82937
33.74302	82505
33.75113	84699
33.75927	85214
33.76738	86836
33.77552	83252
33.78363	86193
33.79175	85877
33.79988	85245
33.80800	84700
33.81612	81555
33.82425	82921
33.83237	79416
33.84050	82598
33.84862	91564
33.85673	83631
33.86487	83243
33.87298	87898
33.88112	90519
33.88923	100849
33.89735	96790
33.90548	102010
33.91360	96737
33.92173	98995
33.92985	91666
33.93797	91817
33.94610	88075
33.95422	95864
33.96233	91207
33.97047	90278
33.97858	82692
33.98672	79241
33.99483	77318
34.00295	78555
34.01108	77912
34.01920	81963
34.02733	82979
34.03545	84085
34.04357	81993
34.05170	81051
34.05982	85227
34.06795	86556
34.07607	86625
34.08418	86482
34.09232	90094
34.10043	86722
34.10855	91280
34.11668	84075
34.12480	84339
34.13293	88780
34.14105	88332
34.14917	83354
34.15730	96190
34.16542	83780
34.17355	82841
34.18167	87849
34.18978	83287
34.19792	91623
34.20603	87654
34.21415	92746
34.22228	94520
34.23040	93595
34.23853	97864
34.24665	90018
34.25477	92168
34.26290	85264
34.27102	81758
34.27915	78347
34.28727	79313
34.29538	79900
34.30352	78233
34.31163	77954
34.31977	80097
34.32788	86780
34.33600	80641
34.34413	82481
34.35225	83667
34.36037	80750
34.36850	84171
34.37662	85853
34.38475	83756
34.39287	84094
34.40098	89661
34.40912	85402
34.41723	81079
34.42537	81784
34.43348	83842
34.44160	84352
34.44973	86401
34.45785	81487
34.46597	83798
34.47410	81215
34.48222	83926
34.49035	85680
34.49847	84126
34.50658	78287
34.51472	87122
34.52283	84830
34.53097	88847
34.53908	95108
34.54720	103568
34.55533	136822
34.56345	148646
34.57158	180169
34.57970	193983
34.58782	204843
34.59595	199930
34.60407	182039
34.61218	167210
34.62032	145442
34.62843	124296
34.63657	117024
34.64468	113340
34.65280	100353
34.66093	97762
34.66905	101125
34.67718	96769
34.68530	95926
34.69342	95130
34.70155	92787
34.70967	91855
34.71780	94150
34.72592	91571
34.73403	90681
34.74217	95248
34.75028	88544
34.75840	98816
34.76653	97572
34.77465	94926
34.78278	104486
34.79090	106507
34.79902	109624
34.80715	111123
34.81527	106767
34.82340	104597
34.83152	101159
34.83963	94527
34.84777	90855
34.85588	88611
34.86400	91590
34.87213	89333
34.88025	93659
34.88838	90958
34.89650	87411
34.90462	87965
34.91275	89016
34.92087	88910
34.92900	88310
34.93712	87700
34.94523	92606
34.95337	96771
34.96148	102217
34.96962	101579
34.97773	106263
34.98585	110582
34.99398	117714
35.00210	119803
35.01022	111716
35.01835	104968
35.02647	106846
35.03460	94322
35.04272	96111
35.05083	99129
35.05897	93936
35.06708	92672
35.07522	94055
35.08333	92445
35.09145	95820
35.09958	92555
35.10770	92414
35.11583	93155
35.12395	88431
35.13207	94257
35.14020	85733
35.14832	94711
35.15643	90980
35.16457	96950
35.17268	97740
35.18082	98665
35.18893	98978
35.19705	92665
35.20518	93682
35.21330	95011
35.22143	94648
35.22955	88930
35.23767	86498
35.24580	86327
35.25392	88617
35.26203	89555
35.27017	90137
35.27828	93896
35.28642	94711
35.29453	89882
35.30265	99415
35.31078	98161
35.31890	94812
35.32703	94191
35.33515	89985
35.34327	89642
35.35140	88620
35.35952	90375
35.36765	94716
35.37577	84742
35.38388	88496
35.39202	94365
35.40013	89167
35.40825	98385
35.41638	110756
35.42450	123781
35.43263	145973
35.44075	157304
35.44887	169296
35.45700	169579
35.46512	152988
35.47325	133201
35.48137	127814
35.48948	111130
35.49762	106939
35.50573	107124
35.51387	102116
35.52198	102844
35.53010	105232
35.53823	101815
35.54635	97792
35.55447	100077
35.56260	94680
35.57072	92043
35.57885	94470
35.58697	94010
35.59508	87475
35.60322	92174
35.61133	92335
35.61947	86147
35.62758	88541
35.63570	88423
35.64383	89862
35.65195	87830
35.66007	88539
35.66820	95089
35.67632	83675
35.68445	86611
35.69257	89521
35.70068	89386
35.70882	96014
35.71693	101331
35.72507	90232
35.73318	101627
35.74130	99701
35.74943	108972
35.75755	114791
35.76568	130033
35.77380	156330
35.78192	166962
35.79005	177159
35.79817	182608
35.80628	162217
35.81442	147549
35.82253	125377
35.83067	116122
35.83878	99794
35.84690	99200
35.85503	102306
35.86315	99264
35.87128	96462
35.87940	99356
35.88752	99336
35.89565	96947
35.90377	95731
35.91188	97407
35.92002	90989
35.92813	90809
35.93627	91265
35.94438	92849
35.95250	89678
35.96063	86630
35.96875	88490
35.97688	90822
35.98500	90223
35.99312	87245
36.00125	89866
36.00937	87997
36.01750	96148
36.02562	93337
36.03373	101661
36.04187	97674
36.04998	92227
36.05810	102772
36.06623	91747
36.07435	89626
36.08248	89407
36.09060	90283
36.09872	87027
36.10685	92306
36.11497	94652
36.12310	92481
36.13122	99932
36.13933	99609
36.14747	105588
36.15558	125524
36.16372	122977
36.17183	118158
36.17995	114993
36.18808	116596
36.19620	106675
36.20432	97211
36.21245	94621
36.22057	93672
36.22870	92453
36.23682	93284
36.24493	87631
36.25307	91514
36.26118	93435
36.26932	95083
36.27743	92426
36.28555	91384
36.29368	95414
36.30180	92257
36.30992	93210
36.31805	95212
36.32617	93623
36.33430	102083
36.34242	107207
36.35053	108168
36.35867	101851
36.36678	103701
36.37492	98662
36.38303	104454
36.39115	99125
36.39928	95797
36.40740	94517
36.41553	99635
36.42365	97904
36.43177	104280
36.43990	98073
36.44802	98351
36.45613	105504
36.46427	98149
36.47238	98582
36.48052	90822
36.48863	99278
36.49675	89200
36.50488	86348
36.51300	92338
36.52113	84040
36.52925	93275
36.53737	91542
36.54550	95385
36.55362	92919
36.56175	92922
36.56987	91760
36.57798	91142
36.58612	97252
36.59423	92649
36.60235	91830
36.61048	93538
36.61860	94148
36.62673	92028
36.63485	97270
36.64297	98264
36.65110	89271
36.65922	92633
36.66735	92511
36.67547	91629
36.68358	91651
36.69172	90651
36.69983	98290
36.70795	98130
36.71608	92046
36.72420	91274
36.73233	99247
36.74045	99623
36.74857	94893
36.75670	94162
36.76482	96447
36.77295	90006
36.78107	93515
36.78918	87976
36.79732	92841
36.80543	90997
36.81357	91783
36.82168	94410
36.82980	93558
36.83793	97622
36.84605	95422
36.85417	92275
36.86230	90791
36.87042	86553
36.87855	94882
36.88667	82690
36.89478	89072
36.90292	90599
36.91103	89598
36.91917	86530
36.92728	93226
36.93540	92585
36.94353	93832
36.95165	98169
36.95977	118568
36.96790	142821
36.97602	180533
36.98415	220352
36.99227	236181
37.00038	232349
37.00852	206242
37.01663	175280
37.02477	143536
37.03288	120263
37.04100	114839
37.04913	108260
37.05725	108721
37.06538	107215
37.07350	107270
37.08162	110478
37.08975	112482
37.09787	116891
37.10598	116619
37.11412	122073
37.12223	119223
37.13037	115697
37.13848	118125
37.14660	109925
37.15473	101401
37.16285	102835
37.17098	102136
37.17910	96762
37.18722	102214
37.19535	101834
37.20347	96362
37.21160	96541
37.21972	104811
37.22783	101065
37.23597	103490
37.24408	102025
37.25220	104226
37.26033	105576
37.26845	100144
37.27658	98376
37.28470	102339
37.29282	100508
37.30095	99081
37.30907	96228
37.31720	91809
37.32532	97762
37.33343	100827
37.34157	96564
37.34968	98860
37.35782	103196
37.36593	104054
37.37405	109546
37.38218	110059
37.39030	119102
37.39842	119651
37.40655	119373
37.41467	118796
37.42280	122072
37.43092	124248
37.43903	130265
37.44717	133592
37.45528	132698
37.46342	133714
37.47153	124035
37.47965	122326
37.48778	119466
