C:\MassHunter\GCMS\1\data\JTB-E02\BACandBLUE\JTB-E18-013-07.D Thu Jun 20 08:30:14 2019
Start of data points
2.09532,68203
2.10343,65105
2.11157,61433
2.11968,66310
2.12780,60294
2.13593,54700
2.14405,59471
2.15218,60679
2.16030,57653
2.16842,58153
2.17655,51283
2.18467,53113
2.19278,52230
2.20092,55303
2.20903,57542
2.21717,51103
2.22528,51125
2.23340,48169
2.24153,52616
2.24965,49884
2.25778,50767
2.26590,49940
2.27402,175458
2.28215,979641
2.29027,1499285
2.29838,768692
2.30652,375517
2.31463,269313
2.32277,224321
2.33088,202372
2.33900,172025
2.34713,161588
2.35525,152229
2.36338,142879
2.37150,139807
2.37962,125980
2.38775,119396
2.39587,121403
2.40400,118851
2.41212,110200
2.42023,106529
2.42837,105094
2.43648,115354
2.44460,102887
2.45273,107032
2.46085,101723
2.46898,97537
2.47710,92503
2.48522,93692
2.49335,94337
2.50147,98060
2.50960,104392
2.51772,95663
2.52583,92867
2.53397,96787
2.54208,92258
2.55020,91984
2.55833,103276
2.56645,161645
2.57458,230529
2.58270,194294
2.59082,153038
2.59895,130983
2.60707,146956
2.61520,491341
2.62332,1329234
2.63143,1242939
2.63957,664313
2.64768,414463
2.65582,306261
2.66393,233908
2.67205,197807
2.68018,173694
2.68830,156174
2.69642,151389
2.70455,135886
2.71267,131128
2.72080,124655
2.72892,121209
2.73703,119710
2.74517,111505
2.75328,109729
2.76142,106094
2.76953,102539
2.77765,106771
2.78578,119572
2.79390,240213
2.80203,354114
2.81015,274894
2.81827,194184
2.82640,182464
2.83452,181562
2.84263,156914
2.85077,137833
2.85888,129802
2.86702,115114
2.87513,107184
2.88325,113831
2.89138,103775
2.89950,97451
2.90763,98320
2.91575,97043
2.92387,89196
2.93200,88222
2.94012,91112
2.94823,90755
2.95637,87491
2.96448,93786
2.97262,105361
2.98073,124818
2.98885,113551
2.99698,102390
3.00510,96155
3.01323,100350
3.02135,100663
3.02947,100787
3.03760,89219
3.04572,88926
3.05385,86273
3.06197,83753
3.07008,79171
3.07822,80148
3.08633,148342
3.09445,946660
3.10258,3696360
3.11070,6056533
3.11883,6676308
3.12695,6733448
3.13507,4967066
3.14320,3196920
3.15132,2319251
3.15945,1806270
3.16757,1443761
3.17568,1188449
3.18382,1022673
3.19193,928194
3.20007,1084206
3.20818,1533342
3.21630,1545668
3.22443,1225884
3.23255,962693
3.24067,836892
3.24880,709852
3.25692,631411
3.26505,571170
3.27317,529364
3.28128,459110
3.28942,440216
3.29753,438026
3.30567,708444
3.31378,1773679
3.32190,3456545
3.33003,4341150
3.33815,3583221
3.34627,2513675
3.35440,1738486
3.36252,1345465
3.37065,1103333
3.37877,920856
3.38688,818600
3.39502,721568
3.40313,670864
3.41127,615276
3.41938,584611
3.42750,567682
3.43563,536721
3.44375,509133
3.45188,504040
3.46000,491623
3.46812,473249
3.47625,470917
3.48437,489196
3.49248,493189
3.50062,467143
3.50873,443374
3.51687,429262
3.52498,393049
3.53310,379581
3.54123,359319
3.54935,342060
3.55748,331227
3.56560,298023
3.57372,277244
3.58185,296847
3.58997,387550
3.59808,411460
3.60622,366027
3.61433,317880
3.62247,323435
3.63058,339584
3.63870,344942
3.64683,361283
3.65495,364369
3.66308,355931
3.67120,411910
3.67932,1041517
3.68745,3766407
3.69557,7834065
3.70370,8695111
3.71182,6365605
3.71993,4284156
3.72807,3318462
3.73618,2733590
3.74430,2339195
3.75243,2055211
3.76055,1791268
3.76868,1649304
3.77680,1494534
3.78492,1369469
3.79305,1272434
3.80117,1195323
3.80930,1155582
3.81742,1247790
3.82553,1714339
3.83367,2264551
3.84178,2267807
3.84992,1831909
3.85803,1510992
3.86615,1308714
3.87428,1190888
3.88240,1083349
3.89052,992391
3.89865,928953
3.90677,856676
3.91490,801286
3.92302,759688
3.93113,744595
3.93927,813703
3.94738,872926
3.95552,935582
3.96363,1814214
3.97175,5303568
3.97988,1.088777E+07
3.98800,1.345435E+07
3.99613,1.035602E+07
4.00425,6478303
4.01237,7584493
4.02050,1.910201E+07
4.02862,3.739972E+07
4.03673,4.570653E+07
4.04487,3.836029E+07
4.05298,2.157326E+07
4.06112,1.042643E+07
4.06923,6268495
4.07735,4377920
4.08548,3404279
4.09360,2786120
4.10173,2359792
4.10985,2049531
4.11797,1815604
4.12610,1643846
4.13422,1520195
4.14233,1416102
4.15047,1360023
4.15858,1418674
4.16672,1497099
4.17483,1442088
4.18295,1287872
4.19108,1153063
4.19920,1063665
4.20733,993242
4.21545,907544
4.22357,1162036
4.23170,2819513
4.23982,7483519
4.24795,1.373969E+07
4.25607,1.672612E+07
4.26418,1.480474E+07
4.27232,9749292
4.28043,5933241
4.28855,4043307
4.29668,3049443
4.30480,2406700
4.31293,2023629
4.32105,1774255
4.32917,1554662
4.33730,1414417
4.34542,1320493
4.35355,1225494
4.36167,1143827
4.36978,1096037
4.37792,1068273
4.38603,1034201
4.39415,996558
4.40228,900611
4.41040,846152
4.41853,800370
4.42665,748654
4.43477,725667
4.44290,678804
4.45102,652472
4.45915,616898
4.46727,597342
4.47538,555956
4.48352,537965
4.49163,521908
4.49977,513227
4.50788,493624
4.51600,493724
4.52413,480803
4.53225,472895
4.54037,473116
4.54850,482315
4.55662,475492
4.56475,480395
4.57287,469263
4.58098,470948
4.58912,457424
4.59723,446967
4.60537,439225
4.61348,410108
4.62160,414007
4.62973,416478
4.63785,428401
4.64598,486519
4.65410,607002
4.66222,724466
4.67035,667400
4.67847,578856
4.68658,484290
4.69472,457489
4.70283,450067
4.71097,425102
4.71908,398944
4.72720,374476
4.73533,371858
4.74345,364520
4.75158,355080
4.75970,355127
4.76782,345553
4.77595,349966
4.78407,325874
4.79218,329900
4.80032,342876
4.80843,368545
4.81657,482640
4.82468,617763
4.83280,659009
4.84093,600861
4.84905,528444
4.85718,503038
4.86530,485636
4.87342,475092
4.88155,465650
4.88967,439140
4.89780,405589
4.90592,381118
4.91403,380591
4.92217,366841
4.93028,347502
4.93840,356099
4.94653,359958
4.95465,495805
4.96278,970795
4.97090,2043970
4.97902,3403876
4.98715,4253399
4.99527,3937819
5.00340,2938334
5.01152,1988855
5.01963,1353631
5.02777,1030699
5.03588,849772
5.04402,771123
5.05213,803891
5.06025,813088
5.06838,808344
5.07650,740929
5.08462,667013
5.09275,619059
5.10087,576690
5.10900,531641
5.11712,481906
5.12523,448962
5.13337,422255
5.14148,419206
5.14962,406578
5.15773,401859
5.16585,424320
5.17398,462780
5.18210,505734
5.19022,537754
5.19835,533323
5.20647,489916
5.21460,467387
5.22272,479459
5.23083,465764
5.23897,455701
5.24708,432491
5.25522,427091
5.26333,408319
5.27145,379314
5.27958,362574
5.28770,348277
5.29583,335619
5.30395,338508
5.31207,334973
5.32020,333184
5.32832,334892
5.33643,320731
5.34457,333252
5.35268,341334
5.36082,366955
5.36893,366627
5.37705,335461
5.38518,322398
5.39330,313519
5.40143,310174
5.40955,321410
5.41767,321231
5.42580,304301
5.43392,311497
5.44203,288748
5.45017,296152
5.45828,285919
5.46642,293896
5.47453,292643
5.48265,295870
5.49078,296521
5.49890,285097
5.50703,279545
5.51515,272639
5.52327,274246
5.53140,270312
5.53952,271210
5.54765,269608
5.55577,263983
5.56388,274653
5.57202,263970
5.58013,294045
5.58825,336432
5.59638,351687
5.60450,333431
5.61263,315197
5.62075,295105
5.62887,271648
5.63700,275015
5.64512,276668
5.65325,296922
5.66137,317884
5.66948,315587
5.67762,299404
5.68573,285674
5.69387,274686
5.70198,295760
5.71010,312405
5.71823,323499
5.72635,311900
5.73447,288401
5.74260,263274
5.75072,258940
5.75885,252066
5.76697,243356
5.77508,244200
5.78322,236955
5.79133,237921
5.79947,225925
5.80758,225784
5.81570,227693
5.82383,234253
5.83195,230750
5.84007,229039
5.84820,223627
5.85632,222942
5.86445,231822
5.87257,232549
5.88068,218094
5.88882,218165
5.89693,210282
5.90507,211452
5.91318,191946
5.92130,173354
5.92943,157269
5.93755,162198
5.94568,162248
5.95380,161237
5.96192,165944
5.97005,178845
5.97817,208644
5.98628,238719
5.99442,271406
6.00253,321820
6.01067,353322
6.01878,325930
6.02690,303263
6.03503,261928
6.04315,228581
6.05128,210452
6.05940,193763
6.06752,185513
6.07565,172111
6.08377,169641
6.09190,162141
6.10002,162415
6.10813,150107
6.11627,158120
6.12438,161994
6.13250,158119
6.14063,172532
6.14875,220528
6.15688,296044
6.16500,388876
6.17312,407072
6.18125,395673
6.18937,323167
6.19750,274617
6.20562,248667
6.21373,235830
6.22187,227071
6.22998,220573
6.23810,211407
6.24623,209098
6.25435,211311
6.26248,209382
6.27060,212181
6.27872,211423
6.28685,211069
6.29497,211518
6.30310,198982
6.31122,197428
6.31933,196950
6.32747,205192
6.33558,204264
6.34372,211675
6.35183,238083
6.35995,255073
6.36808,277440
6.37620,249741
6.38432,235701
6.39245,219707
6.40057,216517
6.40870,215546
6.41682,218603
6.42493,207887
6.43307,207780
6.44118,204948
6.44932,201534
6.45743,200569
6.46555,203017
6.47368,200963
6.48180,202676
6.48993,200271
6.49805,204126
6.50617,212881
6.51430,204609
6.52242,209344
6.53053,203606
6.53867,213615
6.54678,207226
6.55492,206275
6.56303,205121
6.57115,205790
6.57928,203075
6.58740,225654
6.59553,252827
6.60365,268013
6.61177,262052
6.61990,240867
6.62802,227404
6.63613,228688
6.64427,230693
6.65238,217361
6.66052,214464
6.66863,247259
6.67675,311431
6.68488,421505
6.69300,516431
6.70113,514959
6.70925,448121
6.71737,331214
6.72550,272183
6.73362,228836
6.74175,214325
6.74987,196192
6.75798,186076
6.76612,180840
6.77423,173400
6.78235,163340
6.79048,156489
6.79860,155873
6.80673,149897
6.81485,146498
6.82297,139947
6.83110,142829
6.83922,135342
6.84735,126065
6.85547,137509
6.86358,142170
6.87172,151308
6.87983,174608
6.88795,201537
6.89608,216088
6.90420,193246
6.91233,151648
6.92045,132787
6.92857,114148
6.93670,100166
6.94482,102415
6.95295,96101
6.96107,91104
6.96918,90984
6.97732,98435
6.98543,105541
6.99357,116643
7.00168,129307
7.00980,129754
7.01793,122583
7.02605,106223
7.03417,92014
7.04230,91810
7.05042,90206
7.05855,91412
7.06667,89435
7.07478,85544
7.08292,88930
7.09103,89951
7.09917,95140
7.10728,90038
7.11540,87563
7.12353,81456
7.13165,82313
7.13978,77818
7.14790,79289
7.15602,93023
7.16415,135206
7.17227,200365
7.18038,283077
7.18852,318607
7.19663,301335
7.20477,267750
7.21288,325088
7.22100,612846
7.22913,1272169
7.23725,1991916
7.24538,2195869
7.25350,1788935
7.26162,1131050
7.26975,658336
7.27787,388214
7.28598,247756
7.29412,168553
7.30223,132268
7.31037,125543
7.31848,117223
7.32660,123710
7.33473,118986
7.34285,125039
7.35098,124877
7.35910,130558
7.36722,129992
7.37535,127439
7.38347,121793
7.39160,114547
7.39972,108498
7.40783,114917
7.41597,118448
7.42408,123935
7.43220,121998
7.44033,120848
7.44845,117249
7.45658,110115
7.46470,108139
7.47282,98888
7.48095,90588
7.48907,96393
7.49720,91310
7.50532,88288
7.51343,85491
7.52157,89331
7.52968,82763
7.53782,90530
7.54593,100222
7.55405,126128
7.56218,175707
7.57030,246376
7.57842,322960
7.58655,391971
7.59467,388006
7.60280,355242
7.61092,286268
7.61903,210589
7.62717,167073
7.63528,123373
7.64342,107375
7.65153,99934
7.65965,90535
7.66778,86723
7.67590,82160
7.68402,81839
7.69215,82312
7.70027,82909
7.70840,79494
7.71652,80726
7.72463,79693
7.73277,84604
7.74088,88165
7.74902,84493
7.75713,83831
7.76525,83747
7.77338,80934
7.78150,85388
7.78963,80245
7.79775,86156
7.80587,95101
7.81400,89957
7.82212,95694
7.83023,98546
7.83837,93548
7.84648,95769
7.85462,84335
7.86273,84038
7.87085,76200
7.87898,76076
7.88710,76656
7.89523,77812
7.90335,80438
7.91147,90334
7.91960,88293
7.92772,90387
7.93583,88877
7.94397,96225
7.95208,104317
7.96022,120289
7.96833,125716
7.97645,127296
7.98458,111879
7.99270,101764
8.00083,90163
8.00895,80967
8.01707,74599
8.02520,74095
8.03332,75837
8.04145,75307
8.04957,74963
8.05768,72722
8.06582,70003
8.07393,74476
8.08205,69354
8.09018,65515
8.09830,66139
8.10643,66371
8.11455,72133
8.12267,66636
8.13080,66125
8.13892,68420
8.14705,69841
8.15517,76746
8.16328,88945
8.17142,95520
8.17953,98644
8.18767,94230
8.19578,85053
8.20390,77169
8.21203,76964
8.22015,68894
8.22827,68290
8.23640,66330
8.24452,69626
8.25265,64514
8.26077,63767
8.26888,65964
8.27702,66481
8.28513,62357
8.29327,65373
8.30138,64258
8.30950,63661
8.31763,58232
8.32575,66023
8.33387,69496
8.34200,71515
8.35012,73954
8.35825,74252
8.36637,71730
8.37448,66573
8.38262,64189
8.39073,67714
8.39887,70135
8.40698,68168
8.41510,66066
8.42323,63435
8.43135,64190
8.43948,61053
8.44760,57896
8.45572,57604
8.46385,57683
8.47197,55675
8.48008,58520
8.48822,59729
8.49633,59829
8.50447,57441
8.51258,58277
8.52070,59252
8.52883,71027
8.53695,107286
8.54508,188032
8.55320,307978
8.56132,416019
8.56945,423357
8.57757,343607
8.58570,223814
8.59382,145418
8.60193,106439
8.61007,90380
8.61818,89806
8.62630,95169
8.63443,96837
8.64255,93683
8.65068,91807
8.65880,77272
8.66692,73815
8.67505,74392
8.68317,68404
8.69130,68478
8.69942,66140
8.70753,71040
8.71567,70667
8.72378,79942
8.73190,69046
8.74003,70928
8.74815,66186
8.75628,67057
8.76440,68151
8.77252,98496
8.78065,192455
8.78877,385442
8.79690,684699
8.80502,977585
8.81313,1048778
8.82127,921078
8.82938,681426
8.83752,449105
8.84563,319854
8.85375,245554
8.86188,218980
8.87000,195787
8.87812,179251
8.88625,177795
8.89437,171101
8.90250,168446
8.91062,160165
8.91873,156353
8.92687,146648
8.93498,145707
8.94312,152116
8.95123,168749
8.95935,185663
8.96748,191638
8.97560,171146
8.98372,155081
8.99185,145933
8.99997,141417
9.00810,143307
9.01622,144803
9.02433,133777
9.03247,125124
9.04058,119885
9.04872,116823
9.05683,119199
9.06495,112303
9.07308,110692
9.08120,110458
9.08933,104415
9.09745,103815
9.10557,107012
9.11370,114658
9.12182,121031
9.12993,126102
9.13807,131264
9.14618,135974
9.15432,125784
9.16243,125577
9.17055,118200
9.17868,111867
9.18680,104562
9.19493,103956
9.20305,108370
9.21117,98680
9.21930,100542
9.22742,100054
9.23555,92620
9.24367,104559
9.25178,103230
9.25992,96316
9.26803,94520
9.27615,99357
9.28428,98991
9.29240,90930
9.30053,91948
9.30865,90925
9.31677,93561
9.32490,86424
9.33302,89092
9.34115,88580
9.34927,92687
9.35738,85956
9.36552,87820
9.37363,86226
9.38177,81501
9.38988,82398
9.39800,81913
9.40613,83495
9.41425,89365
9.42237,88290
9.43050,92137
9.43862,99435
9.44675,107395
9.45487,118354
9.46298,123515
9.47112,125364
9.47923,121741
9.48737,101836
9.49548,97965
9.50360,88092
9.51173,85473
9.51985,84066
9.52797,92616
9.53610,97647
9.54422,104864
9.55235,105698
9.56047,102752
9.56858,99580
9.57672,88770
9.58483,81110
9.59297,75665
9.60108,78292
9.60920,73814
9.61733,71217
9.62545,70587
9.63358,72168
9.64170,58217
9.64982,60303
9.65795,55086
9.66607,55128
9.67418,58598
9.68232,55137
9.69043,55930
9.69857,55239
9.70668,50603
9.71480,49187
9.72293,53469
9.73105,52525
9.73918,54811
9.74730,54898
9.75542,53451
9.76355,53627
9.77167,49997
9.77978,45154
9.78792,48609
9.79603,46579
9.80417,44273
9.81228,43951
9.82040,45729
9.82853,45527
9.83665,45079
9.84478,44754
9.85290,48965
9.86102,45792
9.86915,47495
9.87727,51253
9.88540,51401
9.89352,52287
9.90163,58093
9.90977,53440
9.91788,52202
9.92600,52579
9.93413,53604
9.94225,65745
9.95038,89392
9.95850,133313
9.96662,205748
9.97475,261623
9.98287,277086
9.99100,247334
9.99912,196360
10.00723,153646
10.01537,130836
10.02348,112310
10.03162,103729
10.03973,93208
10.04785,86800
10.05598,78436
10.06410,74838
10.07222,73747
10.08035,75147
10.08847,75972
10.09660,73782
10.10472,72451
10.11283,70293
10.12097,68282
10.12908,69850
10.13722,63528
10.14533,64084
10.15345,61728
10.16158,59739
10.16970,62989
10.17782,60226
10.18595,57633
10.19407,56043
10.20220,58527
10.21032,59916
10.21843,52209
10.22657,56125
10.23468,61933
10.24282,59510
10.25093,55651
10.25905,64678
10.26718,78667
10.27530,138409
10.28343,305450
10.29155,702335
10.29967,1384392
10.30780,2326578
10.31592,3281401
10.32403,4673018
10.33217,6761768
10.34028,9706558
10.34842,1.195527E+07
10.35653,1.2382E+07
10.36465,1.009449E+07
10.37278,6762557
10.38090,4223837
10.38903,2824825
10.39715,2114784
10.40527,1610607
10.41340,1181868
10.42152,863469
10.42965,685720
10.43777,559420
10.44588,480899
10.45402,437074
10.46213,397008
10.47025,385829
10.47838,357626
10.48650,331671
10.49463,302102
10.50275,279080
10.51087,267783
10.51900,249238
10.52712,236686
10.53525,229130
10.54337,224069
10.55148,220139
10.55962,203046
10.56773,198868
10.57585,200415
10.58398,186224
10.59210,182723
10.60023,177361
10.60835,174494
10.61647,162013
10.62460,157277
10.63272,156191
10.64085,147159
10.64897,145024
10.65708,140330
10.66522,136072
10.67333,132366
10.68147,130486
10.68958,127817
10.69770,124331
10.70583,120693
10.71395,119947
10.72207,123245
10.73020,120423
10.73832,125683
10.74645,117519
10.75457,110996
10.76268,116229
10.77082,114262
10.77893,111709
10.78707,101911
10.79518,102998
10.80330,98124
10.81143,101031
10.81955,94738
10.82767,97868
10.83580,91897
10.84392,90958
10.85205,89173
10.86017,87963
10.86828,86952
10.87642,82938
10.88453,85110
10.89267,85609
10.90078,78652
10.90890,81212
10.91703,79331
10.92515,81672
10.93328,84252
10.94140,75998
10.94952,72465
10.95765,73335
10.96577,69573
10.97388,73173
10.98202,75796
10.99013,76682
10.99827,78207
11.00638,80854
11.01450,80087
11.02263,75974
11.03075,73643
11.03888,71056
11.04700,67559
11.05512,67592
11.06325,66953
11.07137,63133
11.07950,66309
11.08762,65025
11.09573,68195
11.10387,68290
11.11198,70892
11.12010,70436
11.12823,66590
11.13635,65026
11.14448,59165
11.15260,58873
11.16072,56842
11.16885,55018
11.17697,63828
11.18510,58426
11.19322,61328
11.20133,61883
11.20947,58336
11.21758,58555
11.22570,56640
11.23383,59051
11.24195,55762
11.25008,52176
11.25820,49319
11.26632,45231
11.27445,46196
11.28257,42723
11.29070,42909
11.29882,46461
11.30693,42434
11.31507,49786
11.32318,60101
11.33132,85724
11.33943,121816
11.34755,188914
11.35568,254108
11.36380,292142
11.37192,304159
11.38005,253477
11.38817,196576
11.39630,154727
11.40442,118898
11.41253,100800
11.42067,93228
11.42878,83570
11.43692,72998
11.44503,73663
11.45315,62794
11.46128,55504
11.46940,52018
11.47753,54076
11.48565,54585
11.49377,63639
11.50190,79621
11.51002,91319
11.51813,110913
11.52627,114699
11.53438,121471
11.54252,99292
11.55063,93882
11.55875,81597
11.56688,75735
11.57500,72415
11.58313,66183
11.59125,66950
11.59937,65674
11.60750,76145
11.61562,97514
11.62373,130028
11.63187,164535
11.63998,162700
11.64812,147981
11.65623,125037
11.66435,99698
11.67248,80105
11.68060,71563
11.68873,65886
11.69685,62085
11.70497,64775
11.71310,68958
11.72122,71529
11.72935,68875
11.73747,69122
11.74558,64215
11.75372,56286
11.76183,52666
11.76995,55058
11.77808,53561
11.78620,54620
11.79433,52308
11.80245,54021
11.81057,51777
11.81870,56093
11.82682,51670
11.83495,52049
11.84307,51101
11.85118,51984
11.85932,55756
11.86743,55933
11.87557,49219
11.88368,49006
11.89180,45572
11.89993,47972
11.90805,46693
11.91617,43645
11.92430,46402
11.93242,54872
11.94055,57326
11.94867,61075
11.95678,58686
11.96492,56879
11.97303,56230
11.98117,55333
11.98928,78956
11.99740,157573
12.00553,298310
12.01365,518584
12.02177,744753
12.02990,843444
12.03802,768914
12.04615,599403
12.05427,428687
12.06238,280634
12.07052,203802
12.07863,171111
12.08677,140154
12.09488,132481
12.10300,129465
12.11113,118865
12.11925,111965
12.12738,116760
12.13550,110834
12.14362,116008
12.15175,116558
12.15987,111656
12.16798,107351
12.17612,97676
12.18423,95538
12.19237,96090
12.20048,90401
12.20860,80243
12.21673,81936
12.22485,83373
12.23298,85657
12.24110,79533
12.24922,82582
12.25735,70567
12.26547,69036
12.27358,72201
12.28172,69899
12.28983,72217
12.29797,67039
12.30608,71322
12.31420,66108
12.32233,66452
12.33045,67595
12.33858,68046
12.34670,63319
12.35482,64964
12.36295,59706
12.37107,60937
12.37920,62528
12.38732,60740
12.39543,64992
12.40357,65824
12.41168,76808
12.41980,88267
12.42793,105774
12.43605,117124
12.44418,116465
12.45230,107872
12.46042,98539
12.46855,84083
12.47667,82722
12.48480,81615
12.49292,73650
12.50103,70952
12.50917,62777
12.51728,69354
12.52542,62758
12.53353,62934
12.54165,60196
12.54978,67583
12.55790,75457
12.56602,83814
12.57415,99317
12.58227,105712
12.59040,100166
12.59852,89424
12.60663,71763
12.61477,63009
12.62288,61364
12.63102,65810
12.63913,61878
12.64725,60245
12.65538,59680
12.66350,54727
12.67162,59172
12.67975,54354
12.68787,50174
12.69600,47747
12.70412,46241
12.71223,43779
12.72037,45226
12.72848,43879
12.73662,55494
12.74473,55013
12.75285,62797
12.76098,60983
12.76910,59427
12.77723,52328
12.78535,49036
12.79347,41263
12.80160,44452
12.80972,40710
12.81783,38629
12.82597,39300
12.83408,39835
12.84222,37348
12.85033,34794
12.85845,36753
12.86658,38095
12.87470,35450
12.88283,35101
12.89095,32418
12.89907,34435
12.90720,34805
12.91532,34108
12.92345,35562
12.93157,32914
12.93968,37049
12.94782,37099
12.95593,44207
12.96405,65920
12.97218,109230
12.98030,203191
12.98843,319304
12.99655,396449
13.00467,389098
13.01280,320939
13.02092,224732
13.02905,152164
13.03717,110120
13.04528,80172
13.05342,74996
13.06153,73425
13.06965,66470
13.07778,60056
13.08590,58588
13.09403,55377
13.10215,55977
13.11027,55023
13.11840,51708
13.12652,45932
13.13465,49524
13.14277,45476
13.15088,44362
13.15902,44477
13.16713,43381
13.17527,44384
13.18338,40523
13.19150,47918
13.19963,47563
13.20775,46680
13.21587,48687
13.22400,54081
13.23212,49457
13.24025,49256
13.24837,51591
13.25648,42868
13.26462,43558
13.27273,45828
13.28087,44954
13.28898,43713
13.29710,42040
13.30523,40483
13.31335,37865
13.32147,37045
13.32960,38392
13.33772,39695
13.34585,38030
13.35397,36359
13.36208,37919
13.37022,36942
13.37833,39858
13.38647,38817
13.39458,37559
13.40270,39405
13.41083,34584
13.41895,36282
13.42708,36396
13.43520,34207
13.44332,35673
13.45145,40314
13.45957,34083
13.46768,33494
13.47582,35967
13.48393,35744
13.49207,36879
13.50018,34571
13.50830,39698
13.51643,36215
13.52455,36824
13.53268,40567
13.54080,41549
13.54892,38612
13.55705,38042
13.56517,37398
13.57330,32359
13.58142,33505
13.58953,36205
13.59767,38253
13.60578,39546
13.61390,46516
13.62203,49087
13.63015,46213
13.63828,48346
13.64640,46902
13.65452,46961
13.66265,39725
13.67077,38298
13.67890,37333
13.68702,36559
13.69513,31385
13.70327,32633
13.71138,33760
13.71950,32730
13.72763,35768
13.73575,38373
13.74388,60845
13.75200,134349
13.76012,336233
13.76825,791406
13.77637,1534877
13.78450,2340201
13.79262,2927357
13.80073,2851986
13.80887,2436476
13.81698,1641384
13.82512,1066999
13.83323,739656
13.84135,573708
13.84948,506213
13.85760,489373
13.86572,450044
13.87385,388139
13.88197,344815
13.89010,286598
13.89822,251650
13.90633,229178
13.91447,213422
13.92258,194216
13.93072,201101
13.93883,176568
13.94695,172653
13.95508,181597
13.96320,180276
13.97133,202993
13.97945,248007
13.98757,299525
13.99570,319318
14.00382,299754
14.01193,276328
14.02007,236702
14.02818,200202
14.03632,175396
14.04443,154538
14.05255,145273
14.06068,136694
14.06880,131430
14.07693,126935
14.08505,132765
14.09317,132971
14.10130,128343
14.10942,132507
14.11753,118814
14.12567,117869
14.13378,116431
14.14192,134016
14.15003,151711
14.15815,179011
14.16628,198387
14.17440,210727
14.18253,205073
14.19065,208229
14.19877,229273
14.20690,286174
14.21502,323111
14.22315,355563
14.23127,340240
14.23938,301455
14.24752,256770
14.25563,225345
14.26375,207154
14.27188,198039
14.28000,181598
14.28813,153652
14.29625,135216
14.30437,130853
14.31250,117215
14.32062,108715
14.32875,109864
14.33687,101276
14.34498,97701
14.35312,89758
14.36123,83583
14.36935,84890
14.37748,71109
14.38560,62079
14.39373,66295
14.40185,62249
14.40997,63680
14.41810,66980
14.42622,72714
14.43435,75654
14.44247,79251
14.45058,75714
14.45872,73068
14.46683,63690
14.47497,70140
14.48308,59387
14.49120,57793
14.49933,58962
14.50745,60670
14.51557,65901
14.52370,72872
14.53182,75428
14.53995,80222
14.54807,80626
14.55618,70727
14.56432,66539
14.57243,61434
14.58057,57198
14.58868,52664
14.59680,50609
14.60493,50873
14.61305,50633
14.62118,46346
14.62930,43474
14.63742,45813
14.64555,45801
14.65367,44916
14.66178,43577
14.66992,41438
14.67803,44407
14.68617,43714
14.69428,43314
14.70240,43164
14.71053,40475
14.71865,45071
14.72678,44061
14.73490,44210
14.74302,45181
14.75115,50639
14.75927,48507
14.76740,50102
14.77552,50777
14.78363,55118
14.79177,66969
14.79988,106816
14.80800,243120
14.81613,638466
14.82425,1523588
14.83238,2860641
14.84050,4153184
14.84862,4917441
14.85675,4678932
14.86487,3532593
14.87300,2379548
14.88112,1476573
14.88923,895855
14.89737,600069
14.90548,460417
14.91360,370704
14.92173,321567
14.92985,274935
14.93798,240768
14.94610,219914
14.95422,201227
14.96235,189471
14.97047,169719
14.97860,166471
14.98672,157646
14.99483,146151
15.00297,138887
15.01108,132046
15.01922,131349
15.02733,124693
15.03545,116744
15.04358,110047
15.05170,108451
15.05982,99648
15.06795,102562
15.07607,96176
15.08420,94097
15.09232,91110
15.10043,87188
15.10857,85325
15.11668,84603
15.12482,85733
15.13293,89156
15.14105,91599
15.14918,101610
15.15730,103086
15.16542,104900
15.17355,96229
15.18167,87554
15.18980,72365
15.19792,67473
15.20603,62784
15.21417,58301
15.22228,53885
15.23042,55691
15.23853,52812
15.24665,50543
15.25478,51802
15.26290,49906
15.27103,49802
15.27915,45947
15.28727,46360
15.29540,45289
15.30352,49716
15.31163,44466
15.31977,42350
15.32788,42703
15.33602,43897
15.34413,39580
15.35225,42232
15.36038,39148
15.36850,40993
15.37663,41270
15.38475,43792
15.39287,43167
15.40100,41023
15.40912,44698
15.41725,39844
15.42537,37262
15.43348,34880
15.44162,38727
15.44973,39551
15.45785,37196
15.46598,35696
15.47410,38513
15.48223,40749
15.49035,48462
15.49847,61122
15.50660,72563
15.51472,85734
15.52285,90881
15.53097,97446
15.53908,107070
15.54722,127622
15.55533,140224
15.56345,153191
15.57158,156790
15.57970,137547
15.58783,113480
15.59595,88684
15.60407,62950
15.61220,55564
15.62032,46107
15.62845,48031
15.63657,44217
15.64468,40694
15.65282,40897
15.66093,40987
15.66907,40845
15.67718,44692
15.68530,41291
15.69343,39637
15.70155,37245
15.70967,34848
15.71780,39676
15.72592,36561
15.73405,36372
15.74217,39901
15.75028,42075
15.75842,48965
15.76653,62520
15.77467,95648
15.78278,173558
15.79090,255917
15.79903,337905
15.80715,355606
15.81528,316673
15.82340,244955
15.83152,178063
15.83965,133189
15.84777,98271
15.85588,84132
15.86402,75767
15.87213,67563
15.88027,62319
15.88838,59755
15.89650,60265
15.90463,58863
15.91275,56133
15.92088,51968
15.92900,52910
15.93712,53565
15.94525,52888
15.95337,62667
15.96148,75459
15.96962,95183
15.97773,125698
15.98587,156441
15.99398,172647
16.00210,165023
16.01023,149896
16.01835,120589
16.02648,101726
16.03460,91329
16.04272,85495
16.05085,79591
16.05897,73796
16.06710,65421
16.07522,65817
16.08333,59301
16.09147,54877
16.09958,51616
16.10770,51001
16.11583,49398
16.12395,50787
16.13208,49954
16.14020,52074
16.14832,52466
16.15645,50912
16.16457,55812
16.17270,51751
16.18082,53337
16.18893,55688
16.19707,47747
16.20518,43687
16.21330,46986
16.22143,48791
16.22955,47892
16.23768,45134
16.24580,49889
16.25392,45005
16.26205,46596
16.27017,42678
16.27830,46951
16.28642,44298
16.29453,53860
16.30267,41515
16.31078,52338
16.31892,50820
16.32703,50290
16.33515,51728
16.34328,51376
16.35140,57015
16.35952,83132
16.36765,119174
16.37577,167122
16.38390,212503
16.39202,239469
16.40013,240780
16.40827,197111
16.41638,149955
16.42452,110541
16.43263,90688
16.44075,76546
16.44888,83136
16.45700,110919
16.46513,207265
16.47325,378086
16.48137,655657
16.48950,951882
16.49762,1088165
16.50573,1029782
16.51387,815859
16.52198,552331
16.53012,349086
16.53823,235167
16.54635,179082
16.55448,133821
16.56260,127015
16.57073,106362
16.57885,101497
16.58697,110610
16.59510,98844
16.60322,99190
16.61133,106277
16.61947,109372
16.62758,113247
16.63572,107544
16.64383,103312
16.65195,91873
16.66008,84259
16.66820,72755
16.67633,70258
16.68445,65691
16.69257,65867
16.70070,62986
16.70882,62011
16.71695,61010
16.72507,51265
16.73318,48893
16.74132,54722
16.74943,50033
16.75755,52739
16.76568,57281
16.77380,62358
16.78193,63176
16.79005,59630
16.79817,53477
16.80630,56057
16.81442,49995
16.82255,49143
16.83067,47603
16.83878,43086
16.84692,43411
16.85503,42439
16.86317,39042
16.87128,41037
16.87940,38823
16.88753,38202
16.89565,40888
16.90377,39902
16.91190,43118
16.92002,44344
16.92815,41720
16.93627,39715
16.94438,38233
16.95252,37881
16.96063,40922
16.96877,41126
16.97688,37446
16.98500,39299
16.99313,40841
17.00125,40332
17.00937,40351
17.01750,41574
17.02562,37243
17.03375,39817
17.04187,42508
17.04998,44176
17.05812,43837
17.06623,49182
17.07437,55442
17.08248,47476
17.09060,46283
17.09873,46101
17.10685,40911
17.11498,41545
17.12310,44727
17.13122,42041
17.13935,47176
17.14747,46446
17.15558,43253
17.16372,43900
17.17183,44870
17.17997,44611
17.18808,38357
17.19620,39535
17.20433,39673
17.21245,36816
17.22058,38747
17.22870,38259
17.23682,39192
17.24495,35841
17.25307,38441
17.26120,39919
17.26932,40644
17.27743,40756
17.28557,42104
17.29368,38029
17.30180,42176
17.30993,42378
17.31805,42195
17.32618,45304
17.33430,51865
17.34242,57815
17.35055,59392
17.35867,62173
17.36680,62927
17.37492,58913
17.38303,57704
17.39117,56200
17.39928,52926
17.40740,52713
17.41553,52693
17.42365,47649
17.43178,52146
17.43990,49331
17.44802,52276
17.45615,46753
17.46427,45764
17.47240,42630
17.48052,44304
17.48863,40648
17.49677,41045
17.50488,43213
17.51302,42245
17.52113,42854
17.52925,43529
17.53738,42545
17.54550,43047
17.55362,46632
17.56175,48751
17.56987,63370
17.57800,87811
17.58612,149324
17.59423,253880
17.60237,384112
17.61048,532295
17.61862,657135
17.62673,665293
17.63485,561329
17.64298,420155
17.65110,325408
17.65922,259418
17.66735,239888
17.67547,246882
17.68360,243834
17.69172,225172
17.69983,195648
17.70797,156866
17.71608,135163
17.72422,107832
17.73233,92580
17.74045,80530
17.74858,75442
17.75670,74264
17.76483,74856
17.77295,69383
17.78107,69963
17.78920,76453
17.79732,98564
17.80543,163054
17.81357,312857
17.82168,579516
17.82982,914976
17.83793,1175637
17.84605,1281462
17.85418,1145163
17.86230,918223
17.87043,661740
17.87855,454543
17.88667,335382
17.89480,268820
17.90292,219827
17.91105,192260
17.91917,167693
17.92728,151865
17.93542,130889
17.94353,131036
17.95165,118183
17.95978,116394
17.96790,104379
17.97603,104798
17.98415,100177
17.99227,95476
18.00040,96639
18.00852,88577
18.01665,94112
18.02477,97416
18.03288,103632
18.04102,119186
18.04913,124108
18.05725,139964
18.06538,180299
18.07350,308758
18.08163,596351
18.08975,1027845
18.09787,1573365
18.10600,1941340
18.11412,2028523
18.12225,1769005
18.13037,1377598
18.13848,1036321
18.14662,781558
18.15473,657321
18.16287,543268
18.17098,472219
18.17910,418244
18.18723,376704
18.19535,348745
18.20347,325179
18.21160,337290
18.21972,395430
18.22785,454629
18.23597,519276
18.24408,547242
18.25222,568623
18.26033,553928
18.26847,562368
18.27658,537659
18.28470,525787
18.29283,506761
18.30095,484588
18.30908,462872
18.31720,465706
18.32532,438933
18.33345,432433
18.34157,409801
18.34968,422714
18.35782,417192
18.36593,417338
18.37407,403196
18.38218,396438
18.39030,391076
18.39843,383738
18.40655,382429
18.41468,371995
18.42280,371620
18.43092,382241
18.43905,368387
18.44717,377905
18.45528,392008
18.46342,423247
18.47153,468950
18.47967,515817
18.48778,576240
18.49590,594157
18.50403,561292
18.51215,511843
18.52028,446851
18.52840,392610
18.53652,355178
18.54465,353485
18.55277,326926
18.56090,316416
18.56902,313447
18.57713,306394
18.58527,304627
18.59338,303764
18.60150,293912
18.60963,296028
18.61775,283614
18.62588,286840
18.63400,282487
18.64212,287123
18.65025,268564
18.65837,278579
18.66650,270748
18.67462,263432
18.68273,254937
18.69087,245614
18.69898,242940
18.70710,249916
18.71523,242459
18.72335,233354
18.73148,230923
18.73960,228581
18.74772,222624
18.75585,222410
18.76397,219396
18.77210,220434
18.78022,212393
18.78833,211142
18.79647,218094
18.80458,212338
18.81272,205330
18.82083,212056
18.82895,199775
18.83708,205962
18.84520,201606
18.85332,197420
18.86145,194140
18.86957,194290
18.87770,193618
18.88582,191679
18.89393,184555
18.90207,189133
18.91018,189699
18.91832,189086
18.92643,187719
18.93455,184298
18.94268,187195
18.95080,191814
18.95893,195347
18.96705,190764
18.97517,198667
18.98330,186226
18.99142,182036
18.99953,175464
19.00767,176055
19.01578,171049
19.02392,170362
19.03203,170325
19.04015,160588
19.04828,170579
19.05640,155944
19.06453,158349
19.07265,161529
19.08077,176495
19.08890,202392
19.09702,252314
19.10515,302016
19.11327,350879
19.12138,351580
19.12952,333209
19.13763,291234
19.14575,250040
19.15388,212501
19.16200,188251
19.17013,176987
19.17825,168176
19.18637,157022
19.19450,162119
19.20262,155598
19.21075,155598
19.21887,147865
19.22698,143736
19.23512,147672
19.24323,140022
19.25135,139190
19.25948,137327
19.26760,131264
19.27573,133826
19.28385,132549
19.29197,139284
19.30010,142096
19.30822,147554
19.31635,141499
19.32447,138280
19.33258,138174
19.34072,138208
19.34883,132020
19.35697,142442
19.36508,161687
19.37320,180465
19.38133,203323
19.38945,209849
19.39757,215043
19.40570,193018
19.41382,168596
19.42195,151353
19.43007,133557
19.43818,127735
19.44632,130310
19.45443,128088
19.46257,124616
19.47068,121056
19.47880,122292
19.48693,133858
19.49505,157854
19.50317,186591
19.51130,226899
19.51942,257567
19.52755,249141
19.53567,231080
19.54378,190894
19.55192,157950
19.56003,134164
19.56817,122811
19.57628,117771
19.58440,115687
19.59253,109907
19.60065,106816
19.60878,104583
19.61690,99452
19.62502,99147
19.63315,102916
19.64127,103732
19.64938,119143
19.65752,142891
19.66563,187732
19.67377,233649
19.68188,269557
19.69000,276977
19.69813,279017
19.70625,258822
19.71438,240399
19.72250,206541
19.73062,184406
19.73875,179757
19.74687,153779
19.75500,143879
19.76312,130687
19.77123,124073
19.77937,123746
19.78748,119045
19.79560,118403
19.80373,126807
19.81185,128293
19.81998,124188
19.82810,111811
19.83622,118279
19.84435,108245
19.85247,113076
19.86060,157048
19.86872,291117
19.87683,621302
19.88497,1327661
19.89308,2462870
19.90120,3765602
19.90933,4777694
19.91745,5128751
19.92558,4553414
19.93370,3593904
19.94182,2585339
19.94995,1730369
19.95807,1240725
19.96620,973461
19.97432,832950
19.98243,742984
19.99057,685298
19.99868,618544
20.00682,565570
20.01493,534355
20.02305,513092
20.03118,473534
20.03930,441416
20.04742,392923
20.05555,344520
20.06367,293564
20.07180,247999
20.07992,222409
20.08803,193084
20.09617,180675
20.10428,165764
20.11242,154669
20.12053,151830
20.12865,142508
20.13678,132083
20.14490,122732
20.15303,121388
20.16115,128132
20.16927,134202
20.17740,142796
20.18552,160981
20.19363,179130
20.20177,193572
20.20988,195535
20.21802,180937
20.22613,170880
20.23425,155231
20.24238,144192
20.25050,141729
20.25863,163172
20.26675,190899
20.27487,241877
20.28300,272938
20.29112,308304
20.29923,318606
20.30737,292937
20.31548,250742
20.32362,211119
20.33173,179015
20.33985,146621
20.34798,132663
20.35610,118744
20.36423,109350
20.37235,105354
20.38047,100139
20.38860,95456
20.39672,92222
20.40485,91386
20.41297,89988
20.42108,88602
20.42922,89687
20.43733,95505
20.44545,94855
20.45358,104879
20.46170,111136
20.46983,117339
20.47795,116774
20.48607,124115
20.49420,116757
20.50232,102844
20.51045,96711
20.51857,87095
20.52668,82032
20.53482,83455
20.54293,81009
20.55105,78380
20.55918,81411
20.56730,74967
20.57543,71963
20.58355,75930
20.59167,68424
20.59980,65706
20.60792,70167
20.61605,68695
20.62417,60302
20.63228,60508
20.64042,66574
20.64853,64983
20.65667,61838
20.66478,57586
20.67290,61429
20.68103,63211
20.68915,63052
20.69727,57388
20.70540,60817
20.71352,58857
20.72165,57008
20.72977,60389
20.73788,55218
20.74602,55106
20.75413,58153
20.76227,61767
20.77038,63158
20.77850,62597
20.78663,71851
20.79475,87906
20.80288,112398
20.81100,163140
20.81912,207367
20.82725,236354
20.83537,243350
20.84348,207511
20.85162,160422
20.85973,118110
20.86787,93254
20.87598,77594
20.88410,70370
20.89223,65693
20.90035,65106
20.90848,63325
20.91660,60840
20.92472,65036
20.93285,64855
20.94097,68955
20.94908,67602
20.95722,67334
20.96533,62981
20.97347,63116
20.98158,63322
20.98970,55691
20.99783,57973
21.00595,51690
21.01408,56743
21.02220,58775
21.03032,56962
21.03845,56300
21.04657,59091
21.05470,57875
21.06282,61293
21.07093,62005
21.07907,65411
21.08718,62360
21.09530,67383
21.10343,60137
21.11155,57090
21.11968,59389
21.12780,58293
21.13592,59115
21.14405,66490
21.15217,72626
21.16030,89752
21.16842,93240
21.17653,100373
21.18467,89325
21.19278,82446
21.20092,80061
21.20903,73805
21.21715,66818
21.22528,66945
21.23340,62432
21.24152,66263
21.24965,57258
21.25777,61196
21.26590,54540
21.27402,55700
21.28213,60206
21.29027,55729
21.29838,58518
21.30652,55773
21.31463,56527
21.32275,50043
21.33088,52981
21.33900,54130
21.34712,50136
21.35525,53387
21.36337,55491
21.37150,52475
21.37962,56180
21.38773,57479
21.39587,66393
21.40398,73800
21.41212,84827
21.42023,92908
21.42835,94246
21.43648,82732
21.44460,74627
21.45273,72800
21.46085,66334
21.46897,66702
21.47710,65225
21.48522,59193
21.49333,62439
21.50147,59704
21.50958,55632
21.51772,56753
21.52583,55167
21.53395,52250
21.54208,52114
21.55020,50772
21.55833,52035
21.56645,50134
21.57457,53816
21.58270,60345
21.59082,58532
21.59895,68558
21.60707,66878
21.61518,70012
21.62332,68651
21.63143,72867
21.63955,74073
21.64768,83651
21.65580,82760
21.66393,84815
21.67205,93604
21.68017,85790
21.68830,82813
21.69642,85558
21.70455,76984
21.71267,70412
21.72078,65601
21.72892,61682
21.73703,57772
21.74515,56391
21.75328,59880
21.76140,54672
21.76953,54079
21.77765,55008
21.78577,59980
21.79390,61868
21.80202,59117
21.81015,65059
21.81827,66504
21.82638,66389
21.83452,72057
21.84263,77399
21.85077,76088
21.85888,76043
21.86700,72244
21.87513,67630
21.88325,62791
21.89137,59206
21.89950,59593
21.90762,53128
21.91575,55930
21.92387,51427
21.93198,53743
21.94012,50281
21.94823,50112
21.95637,49820
21.96448,50670
21.97260,42962
21.98073,45637
21.98885,44819
21.99697,44798
22.00510,41178
22.01322,43044
22.02135,43555
22.02947,47746
22.03758,51529
22.04572,48185
22.05383,50427
22.06197,48971
22.07008,50309
22.07820,48159
22.08633,50087
22.09445,47755
22.10258,45033
22.11070,42014
22.11882,44443
22.12695,43714
22.13507,45808
22.14318,46211
22.15132,50384
22.15943,48248
22.16757,46993
22.17568,48840
22.18380,49880
22.19193,47154
22.20005,46088
22.20818,45471
22.21630,45266
22.22442,44939
22.23255,49048
22.24067,47738
22.24880,47458
22.25692,47597
22.26503,47489
22.27317,43177
22.28128,48891
22.28940,50110
22.29753,56766
22.30565,52353
22.31378,52547
22.32190,55437
22.33002,56101
22.33815,57346
22.34627,53860
22.35440,52194
22.36252,53247
22.37063,54057
22.37877,56735
22.38688,59754
22.39500,62124
22.40313,71463
22.41125,94656
22.41938,111229
22.42750,134086
22.43562,122214
22.44375,129180
22.45187,114540
22.46000,97783
22.46812,75908
22.47623,73376
22.48437,71412
22.49248,76710
22.50062,77100
22.50873,84964
22.51685,83512
22.52498,86226
22.53310,80922
22.54122,79011
22.54935,76800
22.55747,72808
22.56560,65662
22.57372,66932
22.58183,61860
22.58997,59259
22.59808,54068
22.60622,50337
22.61433,53248
22.62245,47397
22.63058,49464
22.63870,49503
22.64683,51479
22.65495,48927
22.66307,51972
22.67120,55800
22.67932,49036
22.68743,54718
22.69557,52460
22.70368,59635
22.71182,60605
22.71993,62781
22.72805,62511
22.73618,65754
22.74430,61652
22.75243,59368
22.76055,57549
22.76867,53357
22.77680,53602
22.78492,58840
22.79303,60613
22.80117,70820
22.80928,80873
22.81742,91202
22.82553,91530
22.83365,82484
22.84178,80771
22.84990,68501
22.85803,64281
22.86615,62283
22.87427,61682
22.88240,60894
22.89052,69776
22.89865,77075
22.90677,89177
22.91488,102563
22.92302,125746
22.93113,141756
22.93925,145729
22.94738,157538
22.95550,142552
22.96363,129140
22.97175,119015
22.97987,105310
22.98800,103279
22.99612,97220
23.00425,93887
23.01237,90619
23.02048,89423
23.02862,82397
23.03673,83057
23.04485,80216
23.05298,74332
23.06110,78382
23.06923,77550
23.07735,81606
23.08547,81977
23.09360,75987
23.10172,73606
23.10985,77505
23.11797,68469
23.12608,69180
23.13422,71276
23.14233,71377
23.15047,71365
23.15858,63233
23.16670,70422
23.17483,70256
23.18295,70769
23.19107,62070
23.19920,68433
23.20732,66109
23.21545,66568
23.22357,65520
23.23168,63017
23.23982,66322
23.24793,66607
23.25607,66738
23.26418,74674
23.27230,76271
23.28043,78098
23.28855,79000
23.29668,70370
23.30480,67843
23.31292,66677
23.32105,70177
23.32917,68539
23.33728,74044
23.34542,94620
23.35353,122319
23.36167,190423
23.36978,278110
23.37790,416011
23.38603,589659
23.39415,753284
23.40228,935795
23.41040,1120281
23.41852,1223757
23.42665,1274804
23.43477,1298415
23.44288,1257350
23.45102,1234129
23.45913,1153640
23.46727,1073157
23.47538,1013558
23.48350,916175
23.49163,843418
23.49975,768488
23.50788,699224
23.51600,643139
23.52412,586714
23.53225,554538
23.54037,502511
23.54850,461001
23.55662,429734
23.56473,403835
23.57287,393397
23.58098,381028
23.58910,372168
23.59723,378576
23.60535,391050
23.61348,380824
23.62160,367466
23.62972,345431
23.63785,306566
23.64597,274157
23.65410,272552
23.66222,274997
23.67033,275081
23.67847,271400
23.68658,255978
23.69472,239400
23.70283,219776
23.71095,199063
23.71908,181576
23.72720,170579
23.73532,167795
23.74345,163746
23.75157,174762
23.75970,219038
23.76782,351767
23.77593,621020
23.78407,993658
23.79218,1450091
23.80032,1811975
23.80843,1958831
23.81655,1770330
23.82468,1479455
23.83280,1206541
23.84092,969407
23.84905,732883
23.85717,591250
23.86530,505251
23.87342,424404
23.88153,377489
23.88967,345550
23.89778,308301
23.90592,301575
23.91403,278818
23.92215,261145
23.93028,250605
23.93840,232987
23.94653,228899
23.95465,199373
23.96277,197027
23.97090,190737
23.97902,174591
23.98713,167724
23.99527,169852
24.00338,199319
24.01152,263121
24.01963,395528
24.02775,628489
24.03588,868933
24.04400,1041557
24.05213,1012110
24.06025,817121
24.06837,588975
24.07650,379088
24.08462,259562
24.09273,198527
24.10087,161347
24.10898,144999
24.11712,141214
24.12523,129921
24.13335,134020
24.14148,129089
24.14960,124628
24.15773,131183
24.16585,123256
24.17397,121929
24.18210,115303
24.19022,116780
24.19835,117184
24.20647,111164
24.21458,111091
24.22272,112411
24.23083,108480
24.23895,106714
24.24708,109790
24.25520,97056
24.26333,89145
24.27145,98456
24.27957,93158
24.28770,113338
24.29582,135651
24.30395,147641
24.31207,163513
24.32018,181374
24.32832,183287
24.33643,185458
24.34457,186299
24.35268,189789
24.36080,187197
24.36893,189436
24.37705,199404
24.38517,215938
24.39330,244767
24.40142,254206
24.40955,275098
24.41767,261973
24.42578,253934
24.43392,238145
24.44203,212045
24.45017,199033
24.45828,206898
24.46640,198434
24.47453,207423
24.48265,218524
24.49078,220095
24.49890,230724
24.50702,238085
24.51515,226831
24.52327,228775
24.53138,215370
24.53952,215412
24.54763,208907
24.55577,206517
24.56388,208607
24.57200,202088
24.58013,196384
24.58825,189802
24.59638,178848
24.60450,171391
24.61262,171246
24.62075,169100
24.62887,172171
24.63698,166895
24.64512,160911
24.65323,160518
24.66137,162276
24.66948,159941
24.67760,151279
24.68573,155802
24.69385,154428
24.70198,151450
24.71010,146789
24.71822,149836
24.72635,154102
24.73447,153731
24.74260,143760
24.75072,144129
24.75883,145498
24.76697,147981
24.77508,151175
24.78320,155043
24.79133,157323
24.79945,154780
24.80758,151620
24.81570,149755
24.82382,147176
24.83195,153269
24.84007,169431
24.84820,197003
24.85632,223073
24.86443,279101
24.87257,350645
24.88068,460006
24.88880,576315
24.89693,655375
24.90505,666711
24.91318,592336
24.92130,479475
24.92942,372278
24.93755,277189
24.94567,216644
24.95380,179653
24.96192,157045
24.97003,145128
24.97817,143418
24.98628,134756
24.99442,137696
25.00253,133513
25.01065,128610
25.01878,129251
25.02690,127424
25.03502,123189
25.04315,120738
25.05127,120222
25.05940,123633
25.06752,121970
25.07563,119939
25.08377,125130
25.09188,127482
25.10002,145360
25.10813,220843
25.11625,401401
25.12438,775173
25.13250,1373023
25.14063,2093462
25.14875,2699086
25.15687,2886218
25.16500,2602410
25.17312,1982032
25.18123,1316578
25.18937,781792
25.19748,443062
25.20562,268862
25.21373,181815
25.22185,139014
25.22998,120124
25.23810,117742
25.24623,133144
25.25435,146193
25.26247,166107
25.27060,185136
25.27872,187098
25.28683,195839
25.29497,170430
25.30308,151695
25.31122,128914
25.31933,109761
25.32745,106961
25.33558,99390
25.34370,84496
25.35183,84801
25.35995,76983
25.36807,78364
25.37620,77900
25.38432,73069
25.39245,68672
25.40057,72845
25.40868,65794
25.41682,72562
25.42493,65266
25.43305,66863
25.44118,66148
25.44930,60571
25.45743,68842
25.46555,68012
25.47367,64398
25.48180,65892
25.48992,63931
25.49805,60621
25.50617,63850
25.51428,62442
25.52242,63461
25.53053,62871
25.53867,57611
25.54678,55294
25.55490,59743
25.56303,58012
25.57115,64736
25.57927,79873
25.58740,93825
25.59552,111334
25.60365,132000
25.61177,149128
25.61988,158515
25.62802,156446
25.63613,156498
25.64427,166235
25.65238,167727
25.66050,171468
25.66863,170328
25.67675,168996
25.68487,174804
25.69300,172986
25.70112,169599
25.70925,167128
25.71737,172162
25.72548,171219
25.73362,169646
25.74173,165930
25.74987,163453
25.75798,161378
25.76610,165246
25.77423,171115
25.78235,169990
25.79048,174549
25.79860,170886
25.80672,166074
25.81485,168066
25.82297,165112
25.83108,171379
25.83922,181535
25.84733,188387
25.85547,192799
25.86358,191860
25.87170,189665
25.87983,178837
25.88795,171482
25.89608,154957
25.90420,143452
25.91232,149380
25.92045,139245
25.92857,138913
25.93668,141791
25.94482,134791
25.95293,135491
25.96107,132277
25.96918,133386
25.97730,130822
25.98543,125681
25.99355,123656
26.00168,125322
26.00980,120407
26.01792,121507
26.02605,120045
26.03417,117111
26.04230,115951
26.05042,115516
26.05853,117700
26.06667,117999
26.07478,117053
26.08290,111331
26.09103,112417
26.09915,106021
26.10728,111754
26.11540,107443
26.12352,110794
26.13165,108785
26.13977,112310
26.14790,114981
26.15602,110057
26.16413,111985
26.17227,110224
26.18038,105310
26.18852,103049
26.19663,99788
26.20475,112330
26.21288,96157
26.22100,91038
26.22912,93843
26.23725,92044
26.24537,90952
26.25350,90009
26.26162,91103
26.26973,86246
26.27787,88502
26.28598,78141
26.29412,84795
26.30223,85332
26.31035,88122
26.31848,78748
26.32660,77749
26.33472,85960
26.34285,77336
26.35097,75236
26.35910,74052
26.36722,81338
26.37533,82064
26.38347,81860
26.39158,89009
26.39972,92051
26.40783,95216
26.41595,92136
26.42408,89586
26.43220,89186
26.44033,83973
26.44845,79445
26.45657,77457
26.46470,81181
26.47282,75994
26.48093,80114
26.48907,75725
26.49718,72665
26.50532,73505
26.51343,69449
26.52155,67060
26.52968,64148
26.53780,66320
26.54593,65058
26.55405,61834
26.56217,59245
26.57030,63643
26.57842,62805
26.58655,69455
26.59467,67848
26.60278,60901
26.61092,65153
26.61903,58787
26.62715,60685
26.63528,63748
26.64340,62119
26.65153,66589
26.65965,63034
26.66777,67340
26.67590,70989
26.68402,67935
26.69215,71912
26.70027,69511
26.70838,62104
26.71652,64451
26.72463,59999
26.73275,58307
26.74088,53665
26.74900,56394
26.75713,58943
26.76525,55748
26.77337,56268
26.78150,54176
26.78962,59168
26.79775,56780
26.80587,62682
26.81398,59610
26.82212,60825
26.83023,54493
26.83837,54646
26.84648,59647
26.85460,58838
26.86273,56485
26.87085,56875
26.87897,56406
26.88710,51218
26.89522,54547
26.90335,53971
26.91147,52193
26.91958,52888
26.92772,53301
26.93583,49704
26.94397,55903
26.95208,53941
26.96020,56325
26.96833,57325
26.97645,63349
26.98458,80713
26.99270,97649
27.00082,131289
27.00895,181127
27.01707,233878
27.02518,277368
27.03332,317151
27.04143,307537
27.04957,294643
27.05768,255722
27.06580,234756
27.07393,194346
27.08205,176947
27.09018,146708
27.09830,144559
27.10642,123262
27.11455,120929
27.12267,108386
27.13078,111763
27.13892,104765
27.14703,96204
27.15517,95883
27.16328,91727
27.17140,90383
27.17953,93762
27.18765,93296
27.19578,97096
27.20390,90912
27.21202,80762
27.22015,81342
27.22827,81305
27.23640,84222
27.24452,82689
27.25263,78997
27.26077,75867
27.26888,75048
27.27700,71922
27.28513,71835
27.29325,69627
27.30138,64186
27.30950,65668
27.31762,62286
27.32575,64974
27.33387,64678
27.34200,60562
27.35012,60440
27.35823,61202
27.36637,62210
27.37448,61495
27.38260,64233
27.39073,58411
27.39885,59698
27.40698,58943
27.41510,56595
27.42322,55313
27.43135,54157
27.43947,54583
27.44760,59186
27.45572,55837
27.46383,56204
27.47197,58311
27.48008,51732
27.48822,51980
27.49633,54656
27.50445,52356
27.51258,52809
27.52070,48326
27.52882,52834
27.53695,50494
27.54507,49520
27.55320,53321
27.56132,50841
27.56943,57473
27.57757,61726
27.58568,64955
27.59382,69536
27.60193,71861
27.61005,76638
27.61818,73485
27.62630,71557
27.63443,62409
27.64255,57510
27.65067,53264
27.65880,50267
27.66692,53583
27.67503,49449
27.68317,53204
27.69128,49710
27.69942,51794
27.70753,48041
27.71565,50352
27.72378,45921
27.73190,44778
27.74003,56572
27.74815,48088
27.75627,46201
27.76440,42039
27.77252,50512
27.78063,52659
27.78877,51608
27.79688,52462
27.80502,53951
27.81313,50681
27.82125,53661
27.82938,51618
27.83750,50217
27.84563,53316
27.85375,52780
27.86187,48396
27.87000,49518
27.87812,49356
27.88625,47976
27.89437,43945
27.90248,44279
27.91062,47288
27.91873,45082
27.92685,46365
27.93498,47514
27.94310,41651
27.95123,46096
27.95935,44061
27.96747,40459
27.97560,45233
27.98372,46347
27.99185,46483
27.99997,47989
28.00808,45576
28.01622,48087
28.02433,46997
28.03247,53421
28.04058,50178
28.04870,51751
28.05683,58653
28.06495,56402
28.07307,52356
28.08120,58730
28.08932,53003
28.09745,54750
28.10557,54919
28.11368,58724
28.12182,51441
28.12993,51073
28.13807,45676
28.14618,44270
28.15430,45226
28.16243,46480
28.17055,43276
28.17867,49801
28.18680,50440
28.19492,59479
28.20305,71501
28.21117,75773
28.21928,80102
28.22742,82330
28.23553,79354
28.24367,80325
28.25178,72481
28.25990,66933
28.26803,57033
28.27615,55269
28.28428,54236
28.29240,56670
28.30052,52790
28.30865,54759
28.31677,57284
28.32488,65245
28.33302,68783
28.34113,74580
28.34927,73872
28.35738,85048
28.36550,87408
28.37363,96804
28.38175,103692
28.38988,104815
28.39800,108527
28.40612,108736
28.41425,105358
28.42237,101377
28.43048,100742
28.43862,96148
28.44673,85252
28.45487,82999
28.46298,83588
28.47110,77249
28.47923,75222
28.48735,72434
28.49548,68753
28.50360,70343
28.51172,67759
28.51985,66223
28.52797,66197
28.53610,61264
28.54422,60052
28.55233,60965
28.56047,57484
28.56858,59183
28.57670,54457
28.58483,57661
28.59295,58535
28.60108,53364
28.60920,56841
28.61732,57674
28.62545,52598
28.63357,54646
28.64170,59684
28.64982,61512
28.65793,62451
28.66607,61867
28.67418,60811
28.68232,63109
28.69043,60543
28.69855,58401
28.70668,54923
28.71480,54364
28.72292,51194
28.73105,51710
28.73917,48210
28.74730,51910
28.75542,54893
28.76353,61967
28.77167,68883
28.77978,71260
28.78792,70811
28.79603,68935
28.80415,66367
28.81228,61889
28.82040,59496
28.82853,56749
28.83665,57710
28.84477,57470
28.85290,50113
28.86102,54797
28.86913,52780
28.87727,56567
28.88538,59174
28.89352,61391
28.90163,64708
28.90975,68959
28.91788,66535
28.92600,58765
28.93413,52510
28.94225,54010
28.95037,54612
28.95850,58997
28.96662,57545
28.97473,60682
28.98287,51474
28.99098,51972
28.99912,49115
29.00723,53054
29.01535,50297
29.02348,46747
29.03160,48957
29.03973,47038
29.04785,45120
29.05597,44182
29.06410,42627
29.07222,48500
29.08035,46791
29.08847,51251
29.09658,55043
29.10472,52777
29.11283,47589
29.12095,47946
29.12908,48744
29.13720,45770
29.14533,48747
29.15345,48023
29.16157,48000
29.16970,51272
29.17782,52356
29.18595,54600
29.19407,64807
29.20218,74486
29.21032,87828
29.21843,101539
29.22655,98144
29.23468,95891
29.24280,90435
29.25093,89829
29.25905,91488
29.26717,96635
29.27530,106232
29.28342,100398
29.29155,92445
29.29967,76327
29.30778,66201
29.31592,58944
29.32403,51162
29.33217,51395
29.34028,50459
29.34840,52633
29.35653,43369
29.36465,48597
29.37277,41819
29.38090,44835
29.38902,43091
29.39715,46604
29.40527,47141
29.41338,46944
29.42152,48364
29.42963,45634
29.43777,43451
29.44588,46918
29.45400,45544
29.46213,44865
29.47025,45771
29.47838,45045
29.48650,49017
29.49462,47857
29.50275,50896
29.51087,47785
29.51898,48293
29.52712,50439
29.53523,49423
29.54337,50369
29.55148,47663
29.55960,45281
29.56773,42405
29.57585,45458
29.58398,43373
29.59210,42119
29.60022,40682
29.60835,44717
29.61647,43404
29.62458,45987
29.63272,42173
29.64083,39339
29.64897,42702
29.65708,43758
29.66520,45984
29.67333,48095
29.68145,46524
29.68958,45939
29.69770,52916
29.70582,51540
29.71395,48191
29.72207,43843
29.73020,46315
29.73832,46548
29.74643,43507
29.75457,40647
29.76268,41529
29.77080,39279
29.77893,41078
29.78705,42316
29.79518,36918
29.80330,42590
29.81142,39874
29.81955,39710
29.82767,43070
29.83580,39768
29.84392,40954
29.85203,41391
29.86017,40028
29.86828,40967
29.87642,48041
29.88453,55718
29.89265,68291
29.90078,77600
29.90890,81994
29.91702,79962
29.92515,71736
29.93327,59723
29.94140,52268
29.94952,51959
29.95763,51866
29.96577,49200
29.97388,50953
29.98202,58426
29.99013,58091
29.99825,64709
30.00638,65622
30.01450,66661
30.02262,75966
30.03075,72037
30.03887,73664
30.04700,73427
30.05512,73745
30.06323,75902
30.07137,80332
30.07948,75603
30.08762,80029
30.09573,76127
30.10385,74994
30.11198,71316
30.12010,71727
30.12823,70688
30.13635,63712
30.14447,68821
30.15260,65036
30.16072,67411
30.16883,65533
30.17697,66196
30.18508,66930
30.19322,58795
30.20133,60117
30.20945,59381
30.21758,57217
30.22570,53942
30.23383,54700
30.24195,50268
30.25007,50483
30.25820,49690
30.26632,51287
30.27443,50005
30.28257,48037
30.29068,51270
30.29882,45826
30.30693,49228
30.31505,47068
30.32318,45715
30.33130,49077
30.33943,47763
30.34755,49946
30.35567,48674
30.36380,47909
30.37192,49099
30.38005,47695
30.38817,46042
30.39628,43933
30.40442,46450
30.41253,44608
30.42065,41055
30.42878,39243
30.43690,41794
30.44503,40612
30.45315,43444
30.46127,41342
30.46940,48216
30.47752,38955
30.48565,43869
30.49377,41098
30.50188,41345
30.51002,41067
30.51813,44706
30.52627,40563
30.53438,40856
30.54250,47949
30.55063,56565
30.55875,65829
30.56687,73614
30.57500,77787
30.58312,83858
30.59125,87327
30.59937,88239
30.60748,88400
30.61562,94182
30.62373,89536
30.63187,92389
30.63998,99514
30.64810,94135
30.65623,95428
30.66435,98012
30.67247,103402
30.68060,101699
30.68872,96746
30.69685,99729
30.70497,103214
30.71308,104824
30.72122,100838
30.72933,105257
30.73747,103947
30.74558,103037
30.75370,108433
30.76183,98300
30.76995,106475
30.77808,116860
30.78620,122958
30.79432,133678
30.80245,148020
30.81057,170946
30.81868,162005
30.82682,157517
30.83493,144701
30.84307,127698
30.85118,118460
30.85930,111668
30.86743,106936
30.87555,103036
30.88368,103269
30.89180,105507
30.89992,99480
30.90805,105816
30.91617,100716
30.92430,97828
30.93242,94809
30.94053,97580
30.94867,99072
30.95678,96345
30.96490,96509
30.97303,88715
30.98115,93264
30.98928,90379
30.99740,89395
31.00552,89523
31.01365,88093
31.02177,95715
31.02990,94006
31.03802,94833
31.04613,94922
31.05427,92806
31.06238,87369
31.07050,99746
31.07863,89741
31.08675,104601
31.09488,105243
31.10300,108844
31.11112,113299
31.11925,113277
31.12737,106337
31.13550,105306
31.14362,96412
31.15173,93556
31.15987,93261
31.16798,89813
31.17612,84738
31.18423,101035
31.19235,103591
31.20048,129628
31.20860,149512
31.21672,170960
31.22485,191885
31.23297,195565
31.24110,185428
31.24922,168711
31.25733,138189
31.26547,114156
31.27358,94267
31.28172,84154
31.28983,79234
31.29795,81028
31.30608,73868
31.31420,74429
31.32232,75453
31.33045,77477
31.33857,71701
31.34670,77103
31.35482,73130
31.36293,75376
31.37107,76267
31.37918,73178
31.38732,73039
31.39543,77566
31.40355,71787
31.41168,71378
31.41980,71828
31.42793,71493
31.43605,68083
31.44417,63759
31.45230,60738
31.46042,65119
31.46853,61378
31.47667,67799
31.48478,61571
31.49292,60895
31.50103,55841
31.50915,57349
31.51728,62254
31.52540,66542
31.53353,63275
31.54165,60113
31.54977,64521
31.55790,58465
31.56602,62789
31.57415,62056
31.58227,58116
31.59038,61012
31.59852,59380
31.60663,58983
31.61475,58543
31.62288,58599
31.63100,58757
31.63913,57686
31.64725,66230
31.65537,60425
31.66350,60936
31.67162,64685
31.67975,60849
31.68787,66410
31.69598,62606
31.70412,57507
31.71223,60883
31.72035,58422
31.72848,57699
31.73660,55912
31.74473,54483
31.75285,53989
31.76097,56434
31.76910,55781
31.77722,53532
31.78535,53522
31.79347,53722
31.80158,53238
31.80972,57473
31.81783,51100
31.82597,54815
31.83408,55919
31.84220,53054
31.85033,59177
31.85845,58867
31.86657,56347
31.87470,61243
31.88282,60021
31.89095,59616
31.89907,65120
31.90718,64303
31.91532,71458
31.92343,75213
31.93157,78858
31.93968,79586
31.94780,81023
31.95593,76257
31.96405,80006
31.97218,82049
31.98030,86174
31.98842,83859
31.99655,89132
32.00467,89829
32.01278,85260
32.02092,81220
32.02903,89708
32.03717,82571
32.04528,83895
32.05340,77555
32.06153,75794
32.06965,73778
32.07778,76266
32.08590,76505
32.09402,71010
32.10215,70389
32.11027,72332
32.11838,66509
32.12652,66212
32.13463,60661
32.14277,62820
32.15088,57081
32.15900,62665
32.16713,61489
32.17525,54618
32.18338,54952
32.19150,58629
32.19962,56729
32.20775,54397
32.21587,57796
32.22400,53831
32.23212,57160
32.24023,55430
32.24837,56731
32.25648,57551
32.26460,60427
32.27273,59039
32.28085,62102
32.28898,59032
32.29710,57364
32.30522,57386
32.31335,57809
32.32147,51993
32.32960,56258
32.33772,51227
32.34583,55392
32.35397,57382
32.36208,57969
32.37022,56541
32.37833,55720
32.38645,51949
32.39458,51128
32.40270,51806
32.41082,51705
32.41895,50487
32.42707,53298
32.43520,51840
32.44332,50913
32.45143,51885
32.45957,51757
32.46768,46872
32.47582,50174
32.48393,51478
32.49205,53288
32.50018,50068
32.50830,50104
32.51642,49996
32.52455,51435
32.53267,52480
32.54080,51284
32.54892,49630
32.55703,48122
32.56517,49472
32.57328,45756
32.58142,52505
32.58953,48551
32.59765,48941
32.60578,52747
32.61390,48092
32.62203,48902
32.63015,46108
32.63827,49848
32.64640,54426
32.65452,57603
32.66263,62001
32.67077,63681
32.67888,66430
32.68702,65999
32.69513,59015
32.70325,61037
32.71138,54626
32.71950,54179
32.72763,55354
32.73575,53893
32.74387,54778
32.75200,51627
32.76012,50723
32.76823,53687
32.77637,47610
32.78448,45180
32.79262,47712
32.80073,47241
32.80885,50351
32.81698,49853
32.82510,48181
32.83323,48857
32.84135,48984
32.84947,45137
32.85760,47297
32.86572,48107
32.87385,44883
32.88197,48585
32.89008,48241
32.89822,49726
32.90633,47645
32.91445,48715
32.92258,52050
32.93070,52108
32.93883,50243
32.94695,54186
32.95507,49861
32.96320,52714
32.97132,52471
32.97945,55677
32.98757,61809
32.99568,67049
33.00382,70745
33.01193,75805
33.02007,70344
33.02818,67435
33.03630,64786
33.04443,57568
33.05255,56804
33.06067,57676
33.06880,59299
33.07692,62174
33.08505,63202
33.09317,70330
33.10128,66858
33.10942,71276
33.11753,75087
33.12567,72471
33.13378,69419
33.14190,75601
33.15003,67364
33.15815,59203
33.16627,59611
33.17440,58377
33.18252,53128
33.19065,54399
33.19877,51693
33.20688,58330
33.21502,53024
33.22313,50646
33.23127,54346
33.23938,53485
33.24750,48886
33.25563,48720
33.26375,50279
33.27188,50574
33.28000,47474
33.28812,48519
33.29625,50324
33.30437,50176
33.31248,51243
33.32062,51027
33.32873,49259
33.33687,53780
33.34498,54453
33.35310,55022
33.36123,56993
33.36935,54024
33.37748,55078
33.38560,54589
33.39372,50702
33.40185,53588
33.40997,50874
33.41810,49167
33.42622,48809
33.43433,47036
33.44247,49243
33.45058,45953
33.45870,50983
33.46683,47646
33.47495,45247
33.48308,46596
33.49120,47433
33.49932,49339
33.50745,51659
33.51557,56886
33.52370,49643
33.53182,53669
33.53993,58660
33.54807,56298
33.55618,62775
33.56430,60695
33.57243,59689
33.58055,58063
33.58868,56307
33.59680,53939
33.60492,48610
33.61305,54877
33.62117,49666
33.62930,51564
33.63742,50357
33.64553,51996
33.65367,51481
33.66178,55077
33.66992,53098
33.67803,54398
33.68615,50878
33.69428,53393
33.70240,51275
33.71052,50623
33.71865,48621
33.72677,48040
33.73490,51687
33.74302,49743
33.75113,50456
33.75927,46670
33.76738,51970
33.77552,46092
33.78363,51041
33.79175,49982
33.79988,47508
33.80800,49430
33.81612,45693
33.82425,47955
33.83237,50275
33.84050,51713
33.84862,54115
33.85673,53173
33.86487,52740
33.87298,59798
33.88112,52300
33.88923,55517
33.89735,55034
33.90548,52901
33.91360,52293
33.92173,56122
33.92985,52223
33.93797,52120
33.94610,50520
33.95422,50341
33.96233,52536
33.97047,53110
33.97858,50695
33.98672,52377
33.99483,50986
34.00295,51796
34.01108,52590
34.01920,55845
34.02733,52063
34.03545,49406
34.04357,52007
34.05170,57277
34.05982,54323
34.06795,54188
34.07607,55798
34.08418,56728
34.09232,56783
34.10043,59431
34.10855,61393
34.11668,63319
34.12480,63996
34.13293,67315
34.14105,66183
34.14917,70188
34.15730,70977
34.16542,68186
34.17355,71331
34.18167,71896
34.18978,68085
34.19792,68100
34.20603,70837
34.21417,70926
34.22228,70569
34.23040,71024
34.23853,71383
34.24665,70484
34.25477,71422
34.26290,71281
34.27102,68080
34.27915,72647
34.28727,69180
34.29538,70624
34.30352,74611
34.31163,65928
34.31977,72936
34.32788,65938
34.33600,67098
34.34413,68516
34.35225,66447
34.36037,65005
34.36850,63986
34.37662,64865
34.38475,65235
34.39287,62863
34.40098,64376
34.40912,62189
34.41723,65061
34.42537,59498
34.43348,58357
34.44160,61153
34.44973,59602
34.45785,60986
34.46598,60400
34.47410,60588
34.48222,61904
34.49035,67866
34.49847,62022
34.50658,63769
34.51472,67585
34.52283,70574
34.53097,80842
34.53908,86236
34.54720,83836
34.55533,87859
34.56345,89235
34.57158,95699
34.57970,85447
34.58782,88434
34.59595,79558
34.60407,84645
34.61218,76881
34.62032,69713
34.62843,72815
34.63657,70740
34.64468,70405
34.65280,71697
34.66093,67740
34.66905,72469
34.67718,66437
34.68530,63442
34.69342,64099
34.70155,66364
34.70967,62899
34.71780,64226
34.72592,63533
34.73403,64113
34.74217,62453
34.75028,62846
34.75840,64547
34.76653,63172
34.77465,62982
34.78278,66309
34.79090,64423
34.79902,61333
34.80715,61174
34.81527,65889
34.82340,66521
34.83152,70730
34.83963,66996
34.84777,64953
34.85588,67164
34.86402,63523
34.87213,65479
34.88025,66613
34.88838,69759
34.89650,70879
34.90462,65307
34.91275,70183
34.92087,72530
34.92900,76287
34.93712,74648
34.94523,77409
34.95337,81206
34.96148,81153
34.96962,86718
34.97773,82904
34.98585,83993
34.99398,78601
35.00210,82995
35.01022,77595
35.01835,75273
35.02647,74538
35.03460,72885
35.04272,73906
35.05083,69902
35.05897,67184
35.06708,67165
35.07522,68939
35.08333,68885
35.09145,66843
35.09958,65840
35.10770,67146
35.11583,62564
35.12395,65116
35.13207,61949
35.14020,64437
35.14832,65333
35.15643,65138
35.16457,71564
35.17268,68449
35.18082,69511
35.18893,66034
35.19705,61440
35.20518,63621
35.21330,59318
35.22143,59314
35.22955,61012
35.23767,55444
35.24580,54427
35.25392,63281
35.26205,60499
35.27017,59820
35.27828,61195
35.28642,59860
35.29453,61118
35.30265,60795
35.31078,59323
35.31890,57009
35.32703,60664
35.33515,59519
35.34327,56682
35.35140,57089
35.35952,59448
35.36765,55333
35.37577,60976
35.38388,60281
35.39202,59656
35.40013,58545
35.40825,63260
35.41638,62045
35.42450,59362
35.43263,65206
35.44075,59359
35.44887,60428
35.45700,64298
35.46512,64994
35.47325,67210
35.48137,68372
35.48948,62440
35.49762,62872
35.50573,63471
35.51387,62235
35.52198,60635
35.53010,58502
35.53823,57179
35.54635,59032
35.55447,61147
35.56260,60250
35.57072,56766
35.57885,59842
35.58697,60510
35.59508,59098
35.60322,63621
35.61133,58284
35.61947,63273
35.62758,63238
35.63570,61739
35.64383,61635
35.65195,60582
35.66007,58929
35.66820,64858
35.67632,61837
35.68445,65370
35.69257,68769
35.70068,64950
35.70882,65346
35.71693,64211
35.72507,60798
35.73318,68253
35.74130,69122
35.74943,67009
35.75755,70492
35.76568,68334
35.77380,70317
35.78192,69646
35.79005,67124
35.79817,69990
35.80628,63925
35.81442,61766
35.82253,63373
35.83067,62312
35.83878,70737
35.84690,66055
35.85503,63688
35.86315,64703
35.87128,63451
35.87940,61823
35.88752,58843
35.89565,61898
35.90377,58704
35.91190,64568
35.92002,61695
35.92813,63962
35.93627,59548
35.94438,61065
35.95250,65648
35.96063,57631
35.96875,58796
35.97688,61039
35.98500,58967
35.99312,62153
36.00125,60096
36.00937,62153
36.01750,65828
36.02562,63810
36.03373,64160
36.04187,66801
36.04998,63312
36.05810,62235
36.06623,59522
36.07435,68760
36.08248,65985
36.09060,67375
36.09872,61472
36.10685,61919
36.11497,63737
36.12310,64394
36.13122,68173
36.13933,72423
36.14747,79702
36.15558,82507
36.16372,86098
36.17183,92739
36.17995,82420
36.18808,82248
36.19620,85645
36.20432,87667
36.21245,88143
36.22057,88607
36.22870,85957
36.23682,90539
36.24493,90408
36.25307,91084
36.26118,90347
36.26932,91341
36.27743,93701
36.28555,93845
36.29368,96465
36.30180,100989
36.30993,102489
36.31805,106455
36.32617,100573
36.33430,103998
36.34242,97439
36.35053,106023
36.35867,90797
36.36678,95441
36.37492,95681
36.38303,93226
36.39115,92232
36.39928,89680
36.40740,94929
36.41553,93349
36.42365,96462
36.43177,93692
36.43990,94614
36.44802,92469
36.45613,94978
36.46427,89662
36.47238,90371
36.48052,88244
36.48863,92979
36.49675,85447
36.50488,83893
36.51300,90387
36.52113,85312
36.52925,86676
36.53737,86334
36.54550,86846
36.55362,88789
36.56175,88310
36.56987,82619
36.57798,83156
36.58612,85303
36.59423,85238
36.60235,83801
36.61048,79785
36.61860,83527
36.62673,84073
36.63485,82101
36.64297,88161
36.65110,86154
36.65922,82447
36.66735,83349
36.67547,81853
36.68358,79683
36.69172,80661
36.69983,81075
36.70797,80523
36.71608,79825
36.72420,79503
36.73233,85746
36.74045,76456
36.74857,78381
36.75670,76975
36.76482,78294
36.77295,83700
36.78107,80100
36.78918,78839
36.79732,72765
36.80543,75302
36.81357,79659
36.82168,75266
36.82980,75032
36.83793,74357
36.84605,74083
36.85417,73244
36.86230,77785
36.87042,74319
36.87855,73154
36.88667,74522
36.89478,75048
36.90292,76868
36.91103,76705
36.91917,76675
36.92728,81950
36.93540,80371
36.94353,80818
36.95165,87729
36.95978,92117
36.96790,94379
36.97602,92135
36.98415,90365
36.99227,91763
37.00038,84059
37.00852,84146
37.01663,79296
37.02477,75119
37.03288,75555
37.04100,80144
37.04913,78174
37.05725,73599
37.06538,76012
37.07350,78454
37.08162,80428
37.08975,76992
37.09787,80903
37.10598,77297
37.11412,82058
37.12223,79087
37.13037,77329
37.13848,76151
37.14660,77739
37.15473,75033
37.16285,81137
37.17098,79745
37.17910,84335
37.18722,79586
37.19535,73141
37.20347,77638
37.21160,77377
37.21972,81267
37.22783,76639
37.23597,75938
37.24408,78430
37.25220,78457
37.26033,76885
37.26845,73689
37.27658,79378
37.28470,75425
37.29282,78819
37.30095,76893
37.30907,78841
37.31720,83857
37.32532,87308
37.33343,90235
37.34157,96607
37.34968,102541
37.35782,98666
37.36593,100418
37.37405,101918
37.38218,108121
37.39030,102252
37.39842,100301
37.40655,98626
37.41467,96833
37.42280,89371
37.43092,92615
37.43903,92176
37.44717,91721
37.45528,88713
37.46342,90215
37.47153,90429
37.47965,91249
37.48778,86957
