C:\MassHunter\GCMS\1\data\JTB-E18\JTB-E18-024-09.D Wed Sep 11 14:16:35 2019
Start of data points
2.09520	135487
2.10332	134971
2.11145	139474
2.11957	137862
2.12768	144096
2.13582	133361
2.14393	130659
2.15207	135700
2.16018	133956
2.16830	129606
2.17643	126215
2.18455	130138
2.19268	126578
2.20080	123108
2.20892	114356
2.21705	113987
2.22517	111833
2.23330	119428
2.24142	112640
2.24953	105112
2.25767	114638
2.26578	111578
2.27390	252376
2.28203	1040670
2.29015	1225805
2.29828	603854
2.30640	386287
2.31452	313684
2.32265	290926
2.33077	263961
2.33890	249751
2.34702	230018
2.35513	210358
2.36327	202171
2.37138	185581
2.37950	202612
2.38763	303653
2.39575	287349
2.40388	213493
2.41200	193658
2.42012	185867
2.42825	201559
2.43637	190991
2.44450	183042
2.45262	191359
2.46073	180151
2.46887	170607
2.47698	164049
2.48512	157635
2.49323	171113
2.50135	213540
2.50948	182983
2.51760	164421
2.52572	163623
2.53385	158395
2.54197	153869
2.55010	159766
2.55822	170821
2.56633	192065
2.57447	180076
2.58258	164676
2.59072	153871
2.59883	158677
2.60695	213003
2.61508	572856
2.62320	757027
2.63133	482306
2.63945	310041
2.64757	255878
2.65570	220123
2.66382	207714
2.67193	193680
2.68007	223367
2.68818	237137
2.69632	192370
2.70443	173743
2.71255	166155
2.72068	160132
2.72880	157555
2.73693	157594
2.74505	155574
2.75317	151079
2.76130	147871
2.76942	154055
2.77753	153761
2.78567	182761
2.79378	238342
2.80192	209125
2.81003	184954
2.81815	198373
2.82628	308129
2.83440	684525
2.84253	846024
2.85065	511004
2.85877	310247
2.86690	283843
2.87502	274587
2.88315	226668
2.89127	192783
2.89938	179890
2.90752	167437
2.91563	162918
2.92375	157994
2.93188	158728
2.94000	148750
2.94813	150776
2.95625	151320
2.96437	156954
2.97250	158939
2.98062	151120
2.98875	161277
2.99687	161370
3.00498	168560
3.01312	182703
3.02123	200639
3.02937	315087
3.03748	630818
3.04560	875195
3.05373	1977050
3.06185	5848710
3.06997	8275775
3.07810	5568496
3.08622	2771645
3.09435	2191238
3.10247	2471469
3.11058	3153362
3.11872	3641160
3.12683	2636890
3.13497	1674386
3.14308	1260562
3.15120	1000693
3.15933	854004
3.16745	747754
3.17557	721089
3.18370	723027
3.19182	994617
3.19995	1528516
3.20807	1415401
3.21618	971277
3.22432	777285
3.23243	663112
3.24057	596966
3.24868	529798
3.25680	483691
3.26493	434290
3.27305	397472
3.28118	445926
3.28930	1001616
3.29742	3263439
3.30555	7284617
3.31367	9458967
3.32178	7832761
3.32992	4917859
3.33803	3086850
3.34617	2183605
3.35428	1707901
3.36240	1388581
3.37053	1237630
3.37865	1333616
3.38678	1448547
3.39490	1300602
3.40302	1219308
3.41115	2179383
3.41927	3774625
3.42738	3908652
3.43552	2561723
3.44363	1470893
3.45177	998693
3.45988	839120
3.46800	749879
3.47613	680142
3.48425	620125
3.49238	567632
3.50050	520979
3.50862	495020
3.51675	474931
3.52487	462315
3.53300	445575
3.54112	450440
3.54923	447519
3.55737	425874
3.56548	411638
3.57360	445079
3.58173	498262
3.58985	483583
3.59798	419863
3.60610	387616
3.61422	414996
3.62235	657286
3.63047	1360376
3.63860	2198704
3.64672	2212011
3.65483	1500747
3.66297	1038813
3.67108	1779353
3.67922	4455190
3.68733	6277597
3.69545	4742942
3.70358	2654680
3.71170	1677944
3.71982	1295075
3.72795	1111202
3.73607	965653
3.74420	872803
3.75232	801695
3.76043	738964
3.76857	696583
3.77668	650766
3.78482	630570
3.79293	593048
3.80105	624761
3.80918	958276
3.81730	1701161
3.82543	2065897
3.83355	1597262
3.84167	1080337
3.84980	823042
3.85792	711901
3.86603	644958
3.87417	587843
3.88228	564359
3.89042	539748
3.89853	513782
3.90665	497552
3.91478	503463
3.92290	576758
3.93103	692014
3.93915	736086
3.94727	704125
3.95540	1011553
3.96352	1938823
3.97163	2662675
3.97977	2337542
3.98788	1560297
3.99602	1710456
4.00413	4979481
4.01225	1.229458E+07
4.02038	1.772287E+07
4.02850	1.521853E+07
4.03663	8514186
4.04475	4291838
4.05287	2611361
4.06100	1923292
4.06912	1490530
4.07725	1227159
4.08537	1038393
4.09348	905221
4.10162	797589
4.10973	733588
4.11785	667895
4.12598	620218
4.13410	600096
4.14223	637177
4.15035	744680
4.15847	831020
4.16660	766446
4.17472	655695
4.18285	569253
4.19097	522654
4.19908	480790
4.20722	490767
4.21533	895654
4.22345	2875533
4.23158	7326987
4.23970	1.182547E+07
4.24783	1.266932E+07
4.25595	9337810
4.26407	5611467
4.27220	3661037
4.28032	2614091
4.28845	2007874
4.29657	1605656
4.30468	1339933
4.31282	1154379
4.32093	1006896
4.32907	907377
4.33718	827905
4.34530	783850
4.35343	777561
4.36155	764437
4.36967	721096
4.37780	685016
4.38592	616196
4.39405	572177
4.40217	535191
4.41028	514408
4.41842	495965
4.42653	463117
4.43467	452707
4.44278	451551
4.45090	452802
4.45903	443773
4.46715	447216
4.47528	428236
4.48340	410920
4.49152	403313
4.49965	383937
4.50777	378652
4.51588	359651
4.52402	356304
4.53213	363577
4.54027	343927
4.54838	352498
4.55650	340778
4.56463	321082
4.57275	324142
4.58088	318075
4.58900	296440
4.59712	309039
4.60525	300538
4.61337	299451
4.62148	334387
4.62962	426530
4.63773	596339
4.64587	720962
4.65398	684868
4.66210	527196
4.67023	432454
4.67835	357369
4.68648	340361
4.69460	329858
4.70272	309428
4.71085	302756
4.71897	294121
4.72710	270540
4.73522	269030
4.74333	274477
4.75147	276219
4.75958	266837
4.76770	254535
4.77583	261369
4.78395	257481
4.79208	260754
4.80020	303326
4.80832	356275
4.81645	361312
4.82457	334067
4.83270	311298
4.84082	307629
4.84893	306457
4.85707	315655
4.86518	312709
4.87332	300634
4.88143	284662
4.88955	266694
4.89768	256004
4.90580	259665
4.91392	275459
4.92205	366006
4.93017	747701
4.93830	1631254
4.94642	2873006
4.95453	3829534
4.96267	3746273
4.97078	2944089
4.97892	2031867
4.98703	1404768
4.99515	1031064
5.00328	830496
5.01140	701179
5.01952	634693
5.02765	672764
5.03577	904893
5.04390	1142885
5.05202	1163798
5.06013	962440
5.06827	750221
5.07638	631895
5.08452	563962
5.09263	517917
5.10075	530277
5.10888	527869
5.11700	566481
5.12513	556974
5.13325	515094
5.14137	480173
5.14950	451407
5.15762	457470
5.16573	493477
5.17387	538903
5.18198	559094
5.19012	570733
5.19823	574401
5.20635	540888
5.21448	497717
5.22260	470225
5.23073	428310
5.23885	391894
5.24697	386373
5.25510	366569
5.26322	338058
5.27133	321586
5.27947	310265
5.28758	309887
5.29572	305720
5.30383	300538
5.31195	291962
5.32008	286285
5.32820	293405
5.33633	303610
5.34445	317304
5.35257	309809
5.36070	293745
5.36882	274477
5.37695	267322
5.38507	263109
5.39318	269430
5.40132	275749
5.40943	283090
5.41755	257727
5.42568	246565
5.43380	240628
5.44193	247568
5.45005	244940
5.45817	262021
5.46630	252706
5.47442	246187
5.48255	240932
5.49067	224494
5.49878	235560
5.50692	238584
5.51503	235404
5.52317	231982
5.53128	242964
5.53940	236317
5.54753	227453
5.55565	238250
5.56377	263501
5.57190	303043
5.58002	313064
5.58815	298278
5.59627	280340
5.60438	247112
5.61252	241018
5.62063	232502
5.62877	249655
5.63688	267283
5.64500	264089
5.65313	252503
5.66125	251805
5.66937	236693
5.67750	245014
5.68562	275406
5.69375	312499
5.70187	328403
5.70998	327010
5.71812	309827
5.72623	306750
5.73437	294299
5.74248	291517
5.75060	273641
5.75873	276853
5.76685	287906
5.77498	295010
5.78310	287659
5.79122	273809
5.79935	279523
5.80747	338626
5.81558	514947
5.82372	810151
5.83183	1118427
5.83997	1215169
5.84808	1095256
5.85620	803337
5.86433	562099
5.87245	417543
5.88058	326887
5.88870	289134
5.89682	265893
5.90495	274975
5.91307	330000
5.92120	420364
5.92932	533811
5.93743	615102
5.94557	575474
5.95368	480735
5.96180	376372
5.96993	324273
5.97805	302034
5.98618	330543
5.99430	327081
6.00242	296957
6.01055	262690
6.01867	242747
6.02680	210928
6.03492	194562
6.04303	185884
6.05117	170642
6.05928	170361
6.06740	169744
6.07553	164583
6.08365	163880
6.09178	159686
6.09990	157524
6.10802	162362
6.11615	167060
6.12427	187038
6.13240	256185
6.14052	368790
6.14863	469504
6.15677	470912
6.16488	391218
6.17302	298206
6.18113	253639
6.18925	223689
6.19738	232659
6.20550	239293
6.21362	237771
6.22175	220826
6.22987	205550
6.23800	187668
6.24612	197984
6.25423	197371
6.26237	199896
6.27048	205605
6.27862	197573
6.28673	191777
6.29485	193654
6.30298	196943
6.31110	193597
6.31923	198040
6.32735	204547
6.33547	204141
6.34360	208677
6.35172	209207
6.35983	219425
6.36797	219149
6.37608	222266
6.38422	215988
6.39233	216529
6.40045	211825
6.40858	214796
6.41670	215848
6.42483	212622
6.43295	223747
6.44107	221690
6.44920	229420
6.45732	231188
6.46543	226360
6.47357	235076
6.48168	234240
6.48982	237210
6.49793	236775
6.50605	236001
6.51418	244691
6.52230	239582
6.53043	248442
6.53855	253979
6.54667	255230
6.55480	256804
6.56292	264515
6.57105	280026
6.57917	299283
6.58728	321223
6.59542	318952
6.60353	292301
6.61165	280003
6.61978	271073
6.62790	260354
6.63603	269536
6.64415	277302
6.65227	287766
6.66040	332859
6.66852	418104
6.67665	470366
6.68477	451389
6.69288	418829
6.70102	366051
6.70913	332550
6.71725	276624
6.72538	229723
6.73350	207271
6.74163	182609
6.74975	169384
6.75787	160956
6.76600	160550
6.77412	160030
6.78225	163599
6.79037	182973
6.79848	232589
6.80662	346780
6.81473	535626
6.82287	749700
6.83098	838128
6.83910	785863
6.84723	626693
6.85535	462981
6.86347	335752
6.87160	276722
6.87972	245534
6.88785	197755
6.89597	154679
6.90408	126525
6.91222	123470
6.92033	112812
6.92847	108832
6.93658	114659
6.94470	131442
6.95283	169832
6.96095	237663
6.96908	334217
6.97720	402004
6.98532	414090
6.99345	368257
7.00157	282805
7.00968	215089
7.01782	167598
7.02593	136909
7.03407	119132
7.04218	115959
7.05030	113637
7.05843	113325
7.06655	110581
7.07468	115205
7.08280	109711
7.09092	103402
7.09905	98678
7.10717	98928
7.11528	91348
7.12342	90616
7.13153	94560
7.13967	103130
7.14778	131744
7.15590	161981
7.16403	184829
7.17215	188205
7.18028	166361
7.18840	181538
7.19652	257669
7.20465	484846
7.21277	884261
7.22090	1198100
7.22902	1212085
7.23713	899376
7.24527	582495
7.25338	360076
7.26150	252368
7.26963	198028
7.27775	174079
7.28588	163799
7.29400	143841
7.30212	138002
7.31025	130167
7.31837	139587
7.32650	175658
7.33462	232069
7.34273	274592
7.35087	302051
7.35898	291635
7.36712	247757
7.37523	199476
7.38335	163098
7.39148	137370
7.39960	116274
7.40772	120843
7.41585	121370
7.42397	130074
7.43210	136496
7.44022	169517
7.44833	197035
7.45647	207463
7.46458	209996
7.47272	188600
7.48083	152494
7.48895	131493
7.49708	115027
7.50520	105226
7.51332	100679
7.52145	103781
7.52957	116899
7.53770	160094
7.54582	222576
7.55393	302711
7.56207	376522
7.57018	419666
7.57832	390559
7.58643	322565
7.59455	249128
7.60268	186670
7.61080	142985
7.61893	131695
7.62705	112857
7.63517	103593
7.64330	99761
7.65142	97307
7.65953	86654
7.66767	92205
7.67578	89028
7.68392	84588
7.69203	89196
7.70015	86822
7.70828	92996
7.71640	88833
7.72453	89434
7.73265	84377
7.74077	91295
7.74890	91584
7.75702	89877
7.76513	89906
7.77327	91029
7.78138	86329
7.78952	92150
7.79763	89837
7.80575	92124
7.81388	94491
7.82200	97861
7.83013	93639
7.83825	91421
7.84637	88117
7.85450	84848
7.86262	92168
7.87075	90913
7.87887	95762
7.88698	103481
7.89512	98434
7.90323	102656
7.91135	93703
7.91948	96364
7.92760	104251
7.93573	126012
7.94385	155859
7.95197	151551
7.96010	149342
7.96822	126508
7.97635	108256
7.98447	89955
7.99258	88540
8.00072	83001
8.00883	79631
8.01697	78351
8.02508	77725
8.03320	74328
8.04133	76577
8.04945	76307
8.05757	74248
8.06570	77382
8.07382	77701
8.08195	77716
8.09007	77574
8.09818	74091
8.10632	79142
8.11443	79411
8.12257	73324
8.13068	82172
8.13880	87856
8.14693	97997
8.15505	101695
8.16317	103432
8.17130	88975
8.17942	90143
8.18755	78084
8.19567	77040
8.20378	75833
8.21192	74285
8.22003	73513
8.22817	74863
8.23628	75598
8.24440	76126
8.25253	74734
8.26065	74432
8.26878	71440
8.27690	73124
8.28502	71700
8.29315	71825
8.30127	73443
8.30938	75471
8.31752	81951
8.32563	83246
8.33377	88946
8.34188	90349
8.35000	78420
8.35813	83062
8.36625	72419
8.37438	74924
8.38250	77687
8.39062	72441
8.39875	73064
8.40687	75620
8.41500	75353
8.42312	69205
8.43123	72232
8.43937	67626
8.44748	74334
8.45560	71442
8.46373	69932
8.47185	76717
8.47998	70811
8.48810	74567
8.49622	74098
8.50435	80365
8.51247	85263
8.52060	106776
8.52872	157717
8.53683	212226
8.54497	233028
8.55308	226702
8.56120	173888
8.56933	124806
8.57745	102560
8.58558	87194
8.59370	82181
8.60182	88564
8.60995	81724
8.61807	81429
8.62620	83629
8.63432	77985
8.64243	78776
8.65057	76647
8.65868	71413
8.66682	74471
8.67493	74001
8.68305	77056
8.69118	81380
8.69930	81222
8.70742	79032
8.71555	82233
8.72367	93109
8.73180	137098
8.73992	265498
8.74803	545354
8.75617	915956
8.76428	1256872
8.77242	1366876
8.78053	1108926
8.78865	775237
8.79678	487848
8.80490	310573
8.81302	226501
8.82115	202668
8.82927	186945
8.83740	178612
8.84552	165064
8.85363	159838
8.86177	153563
8.86988	144559
8.87802	141066
8.88613	134579
8.89425	134255
8.90238	124870
8.91050	127876
8.91863	132468
8.92675	123330
8.93487	138885
8.94300	143044
8.95112	136621
8.95923	134266
8.96737	127194
8.97548	126935
8.98362	129557
8.99173	122768
8.99985	129072
9.00798	119876
9.01610	112742
9.02423	112291
9.03235	103712
9.04047	103515
9.04860	99758
9.05672	99348
9.06485	106026
9.07297	96865
9.08108	99038
9.08922	109721
9.09733	106346
9.10545	116641
9.11358	133132
9.12170	131155
9.12983	129029
9.13795	127594
9.14607	109047
9.15420	106193
9.16232	104159
9.17045	105250
9.17857	94134
9.18668	90655
9.19482	89602
9.20293	93320
9.21107	92130
9.21918	93707
9.22730	90333
9.23543	94532
9.24355	88513
9.25167	93948
9.25980	91428
9.26792	92495
9.27605	96021
9.28417	103837
9.29228	101649
9.30042	91834
9.30853	90757
9.31667	91997
9.32478	92546
9.33290	87460
9.34103	87968
9.34915	88649
9.35727	86793
9.36540	86636
9.37352	79057
9.38165	81239
9.38977	82434
9.39788	88460
9.40602	86420
9.41413	100864
9.42227	102399
9.43038	110269
9.43850	118326
9.44663	128436
9.45475	124472
9.46288	104225
9.47100	97774
9.47912	89659
9.48725	83296
9.49537	83175
9.50348	87131
9.51162	94171
9.51973	98189
9.52787	101956
9.53598	97924
9.54410	87726
9.55223	78577
9.56035	69562
9.56848	65968
9.57660	66403
9.58472	71831
9.59285	70407
9.60097	74310
9.60908	66484
9.61722	69563
9.62533	64393
9.63347	64079
9.64158	68919
9.64970	70594
9.65783	67090
9.66595	64629
9.67408	58497
9.68220	59506
9.69032	50782
9.69845	55143
9.70657	53277
9.71470	52173
9.72282	51258
9.73093	49994
9.73907	52482
9.74718	50454
9.75530	53058
9.76343	49303
9.77155	49714
9.77968	49775
9.78780	46431
9.79592	49355
9.80405	45320
9.81217	47743
9.82030	46300
9.82842	48296
9.83653	50009
9.84467	51644
9.85278	51869
9.86092	54701
9.86903	58145
9.87715	55663
9.88528	50322
9.89340	51073
9.90152	45712
9.90965	51539
9.91777	48974
9.92590	49192
9.93402	58445
9.94213	70717
9.95027	78915
9.95838	86189
9.96652	88943
9.97463	88589
9.98275	83388
9.99088	76095
9.99900	68885
10.00712	62398
10.01525	58976
10.02337	56909
10.03150	53306
10.03962	48973
10.04773	49749
10.05587	48918
10.06398	52816
10.07212	46695
10.08023	54245
10.08835	50808
10.09648	57982
10.10460	53189
10.11273	50246
10.12085	46000
10.12897	47315
10.13710	51216
10.14522	49721
10.15333	54813
10.16147	51573
10.16958	51726
10.17772	50421
10.18583	48941
10.19395	46269
10.20208	49618
10.21020	47269
10.21833	47676
10.22645	53995
10.23457	58275
10.24270	56109
10.25082	68931
10.25895	101852
10.26707	183999
10.27518	390576
10.28332	691604
10.29143	1062601
10.29955	1501978
10.30768	2044832
10.31580	3002411
10.32393	4068011
10.33205	4552200
10.34017	4190513
10.34830	3074559
10.35642	1951363
10.36455	1286093
10.37267	948406
10.38078	733814
10.38892	547300
10.39703	387806
10.40515	293802
10.41328	223281
10.42140	187913
10.42953	169763
10.43765	155230
10.44577	149041
10.45390	140864
10.46202	131793
10.47015	123352
10.47827	127415
10.48638	109968
10.49452	108523
10.50263	105157
10.51077	105491
10.51888	106626
10.52700	102445
10.53513	93049
10.54325	96335
10.55137	88514
10.55950	90375
10.56762	87207
10.57575	93882
10.58387	86268
10.59198	87756
10.60012	78291
10.60823	75952
10.61637	77925
10.62448	83906
10.63260	71064
10.64073	73943
10.64885	73404
10.65697	72652
10.66510	70137
10.67322	74046
10.68135	70426
10.68947	77870
10.69758	70220
10.70572	76977
10.71383	71739
10.72197	74243
10.73008	70756
10.73820	73147
10.74633	67575
10.75445	64779
10.76258	70863
10.77070	66163
10.77882	60616
10.78695	61508
10.79507	65865
10.80318	63983
10.81132	66346
10.81943	66226
10.82757	65767
10.83568	62910
10.84380	59863
10.85193	60456
10.86005	55546
10.86818	58704
10.87630	53263
10.88442	56007
10.89255	57748
10.90067	52950
10.90880	52850
10.91692	58179
10.92503	53320
10.93317	59148
10.94128	55135
10.94940	51209
10.95753	57980
10.96565	59230
10.97378	60497
10.98190	60767
10.99002	62009
10.99815	60339
11.00627	59625
11.01440	55636
11.02252	58509
11.03063	53881
11.03877	52840
11.04688	53029
11.05500	55585
11.06313	55582
11.07125	55062
11.07938	56337
11.08750	59612
11.09562	61791
11.10375	60582
11.11187	57906
11.12000	63234
11.12812	60595
11.13623	58891
11.14437	57203
11.15248	56401
11.16062	55712
11.16873	60574
11.17685	58779
11.18498	54981
11.19310	56195
11.20122	58897
11.20935	57843
11.21747	54333
11.22560	55934
11.23372	53364
11.24183	48063
11.24997	53570
11.25808	57372
11.26622	64729
11.27433	78646
11.28245	109462
11.29058	129592
11.29870	164096
11.30683	188530
11.31495	234493
11.32307	314544
11.33120	417011
11.33932	492431
11.34743	521224
11.35557	479887
11.36368	385009
11.37182	269022
11.37993	208495
11.38805	161205
11.39618	137148
11.40430	127656
11.41243	110645
11.42055	106861
11.42867	97490
11.43680	83886
11.44492	85963
11.45303	72122
11.46117	77513
11.46928	79880
11.47742	82640
11.48553	95923
11.49365	106441
11.50178	119646
11.50990	114114
11.51803	103562
11.52615	99270
11.53427	94886
11.54240	94414
11.55052	99223
11.55865	95036
11.56677	87054
11.57488	82828
11.58302	76353
11.59113	81976
11.59925	88176
11.60738	96437
11.61550	103797
11.62363	105771
11.63175	96097
11.63987	83641
11.64800	75787
11.65612	68860
11.66425	65363
11.67237	65324
11.68048	67237
11.68862	73047
11.69673	80867
11.70487	93706
11.71298	88741
11.72110	93123
11.72923	98803
11.73735	86424
11.74547	85822
11.75360	78813
11.76172	71819
11.76985	69229
11.77797	69606
11.78608	61707
11.79422	64497
11.80233	64831
11.81047	62031
11.81858	61336
11.82670	61030
11.83483	61114
11.84295	64322
11.85107	67632
11.85920	68867
11.86732	67032
11.87545	66331
11.88357	57803
11.89168	56597
11.89982	55605
11.90793	55874
11.91607	63198
11.92418	67895
11.93230	76516
11.94043	75665
11.94855	78288
11.95668	74737
11.96480	72456
11.97292	63780
11.98105	62111
11.98917	74830
11.99728	88070
12.00542	98600
12.01353	111737
12.02167	105661
12.02978	94498
12.03790	75212
12.04603	67284
12.05415	64942
12.06228	63314
12.07040	64464
12.07852	58108
12.08665	60724
12.09477	60156
12.10288	57591
12.11102	56445
12.11913	61079
12.12727	63198
12.13538	64978
12.14350	62772
12.15163	58694
12.15975	56897
12.16788	52606
12.17600	47437
12.18412	49093
12.19225	49256
12.20037	48223
12.20850	45414
12.21662	53904
12.22473	46593
12.23287	49506
12.24098	49772
12.24910	47380
12.25723	48091
12.26535	47185
12.27348	48802
12.28160	44813
12.28972	44480
12.29785	47587
12.30597	48168
12.31410	47020
12.32222	46068
12.33033	53320
12.33847	48075
12.34658	48105
12.35472	47001
12.36283	49101
12.37095	46998
12.37908	47757
12.38720	46773
12.39532	61657
12.40345	68039
12.41157	81840
12.41970	105063
12.42782	105756
12.43593	99853
12.44407	89353
12.45218	74240
12.46032	69162
12.46843	61506
12.47655	61342
12.48468	56942
12.49280	52795
12.50092	52988
12.50905	48127
12.51717	48524
12.52530	52126
12.53342	58071
12.54153	66246
12.54967	73824
12.55778	94173
12.56592	99382
12.57403	99284
12.58215	88488
12.59028	77641
12.59840	63617
12.60653	55273
12.61465	54219
12.62277	52164
12.63090	48735
12.63902	51205
12.64713	51381
12.65527	51562
12.66338	42270
12.67152	46768
12.67963	47068
12.68775	46761
12.69588	45173
12.70400	52087
12.71213	46733
12.72025	49434
12.72837	54700
12.73650	57928
12.74462	55242
12.75275	54540
12.76087	48456
12.76898	49246
12.77712	51248
12.78523	57316
12.79335	52599
12.80148	59121
12.80960	51688
12.81773	55994
12.82585	52884
12.83397	48350
12.84210	45740
12.85022	47573
12.85835	47503
12.86647	47526
12.87458	46068
12.88272	45926
12.89083	48988
12.89895	43706
12.90708	42978
12.91520	42028
12.92333	44752
12.93145	48267
12.93957	58662
12.94770	68605
12.95582	94514
12.96395	115662
12.97207	132735
12.98018	134155
12.98832	124384
12.99643	107756
13.00457	97432
13.01268	89113
13.02080	83134
13.02893	82031
13.03705	81773
13.04517	70787
13.05330	63612
13.06142	69787
13.06955	57535
13.07767	55453
13.08578	53916
13.09392	53030
13.10203	55387
13.11017	53589
13.11828	50945
13.12640	49785
13.13453	49975
13.14265	44562
13.15077	52444
13.15890	50352
13.16702	51253
13.17515	51838
13.18327	49536
13.19138	50164
13.19952	47770
13.20763	47092
13.21577	47551
13.22388	47775
13.23200	47054
13.24013	53993
13.24825	53907
13.25638	61542
13.26450	66525
13.27262	65122
13.28075	62678
13.28887	62666
13.29698	61507
13.30512	62955
13.31323	61172
13.32137	67117
13.32948	67878
13.33760	67245
13.34573	58196
13.35385	57153
13.36198	57663
13.37010	53638
13.37822	53743
13.38635	54856
13.39447	51437
13.40260	48820
13.41072	51379
13.41883	51277
13.42697	47243
13.43508	47775
13.44320	46785
13.45133	46632
13.45945	44802
13.46758	44442
13.47570	45414
13.48382	46500
13.49195	43658
13.50007	44861
13.50820	44764
13.51632	45453
13.52443	45415
13.53257	48495
13.54068	47834
13.54882	51305
13.55693	57449
13.56505	61250
13.57318	63194
13.58130	66435
13.58942	62552
13.59755	76146
13.60567	92334
13.61380	111314
13.62192	130557
13.63003	139042
13.63817	122427
13.64628	103569
13.65442	87876
13.66253	74656
13.67065	70179
13.67878	64709
13.68690	59277
13.69502	58091
13.70315	55160
13.71127	53685
13.71940	54578
13.72752	56355
13.73563	73471
13.74377	107423
13.75188	194634
13.76002	322979
13.76813	505789
13.77625	613557
13.78438	665331
13.79250	585863
13.80063	447365
13.80875	341738
13.81687	283826
13.82500	270339
13.83312	266948
13.84123	257729
13.84937	219775
13.85748	192051
13.86562	156919
13.87373	136170
13.88185	118303
13.88998	117309
13.89810	101594
13.90623	109343
13.91435	102999
13.92247	101933
13.93060	92354
13.93872	86410
13.94683	82179
13.95497	83586
13.96308	78368
13.97122	85955
13.97933	83924
13.98745	88282
13.99558	82877
14.00370	81481
14.01183	77433
14.01995	75002
14.02807	74352
14.03620	77556
14.04432	77900
14.05245	75408
14.06057	77906
14.06868	77628
14.07682	72808
14.08493	69044
14.09305	69485
14.10118	69346
14.10930	68251
14.11743	71187
14.12555	74492
14.13367	86860
14.14180	110337
14.14992	156031
14.15805	262323
14.16617	370415
14.17428	491096
14.18242	506632
14.19053	454730
14.19867	340546
14.20678	251642
14.21490	182942
14.22303	165024
14.23115	151280
14.23927	136809
14.24740	140905
14.25552	124600
14.26365	116579
14.27177	113621
14.27988	108210
14.28802	96089
14.29613	94076
14.30427	91292
14.31238	80030
14.32050	80902
14.32863	72235
14.33675	64753
14.34487	59262
14.35300	54058
14.36112	49681
14.36925	49194
14.37737	55736
14.38548	56282
14.39362	71317
14.40173	103014
14.40987	139385
14.41798	182900
14.42610	201622
14.43423	179583
14.44235	144547
14.45048	107246
14.45860	91443
14.46672	68906
14.47485	68734
14.48297	68227
14.49108	59773
14.49922	61789
14.50733	62289
14.51547	58416
14.52358	57222
14.53170	56036
14.53983	54351
14.54795	53784
14.55608	51934
14.56420	51137
14.57232	50650
14.58045	51392
14.58857	53540
14.59670	48370
14.60482	49324
14.61293	51144
14.62107	46781
14.62918	46922
14.63730	46169
14.64543	47766
14.65355	45222
14.66168	44386
14.66980	44243
14.67792	46987
14.68605	45383
14.69417	43248
14.70230	44491
14.71042	48602
14.71853	46844
14.72667	46915
14.73478	49025
14.74290	48835
14.75103	47597
14.75915	48735
14.76728	45933
14.77540	49535
14.78352	60584
14.79165	97321
14.79977	194043
14.80790	379835
14.81602	655991
14.82413	941767
14.83227	1106400
14.84038	1046221
14.84852	771375
14.85663	515233
14.86475	341009
14.87288	227141
14.88100	159763
14.88912	134570
14.89725	110308
14.90537	105170
14.91350	93142
14.92162	90882
14.92973	90342
14.93787	84778
14.94598	78357
14.95412	74441
14.96223	73658
14.97035	71028
14.97848	67328
14.98660	65737
14.99472	63956
15.00285	59443
15.01097	65356
15.01910	62740
15.02722	64234
15.03533	55526
15.04347	59707
15.05158	59132
15.05972	53744
15.06783	56971
15.07595	57546
15.08408	56373
15.09220	54719
15.10033	52620
15.10845	56860
15.11657	54177
15.12470	55481
15.13282	56828
15.14093	54441
15.14907	60486
15.15718	52532
15.16532	55133
15.17343	50454
15.18155	49136
15.18968	48154
15.19780	48209
15.20593	46051
15.21405	47683
15.22217	44887
15.23030	45087
15.23842	50243
15.24655	43975
15.25467	48095
15.26278	47336
15.27092	45733
15.27903	45008
15.28715	41430
15.29528	44102
15.30340	41629
15.31153	44856
15.31965	41845
15.32777	43542
15.33590	43114
15.34402	40008
15.35215	40440
15.36027	38181
15.36838	46190
15.37652	38093
15.38463	39311
15.39275	39851
15.40088	42181
15.40900	44929
15.41713	39118
15.42525	41069
15.43337	39899
15.44150	40666
15.44962	42299
15.45775	45159
15.46587	51239
15.47398	63533
15.48212	81410
15.49023	96926
15.49837	108718
15.50648	115132
15.51460	106268
15.52273	102918
15.53085	89771
15.53897	76876
15.54710	70018
15.55522	69838
15.56335	62788
15.57147	55375
15.57958	51426
15.58772	48476
15.59583	45025
15.60397	46156
15.61208	47529
15.62020	45816
15.62833	44511
15.63645	46856
15.64458	42075
15.65270	45001
15.66082	43295
15.66895	43363
15.67707	43497
15.68518	41619
15.69332	40635
15.70143	42963
15.70957	41238
15.71768	44121
15.72580	40004
15.73393	42272
15.74205	45191
15.75018	54168
15.75830	64012
15.76642	84043
15.77455	108662
15.78267	133119
15.79078	142948
15.79892	134275
15.80703	107041
15.81517	85651
15.82328	76155
15.83140	58773
15.83953	56757
15.84765	55917
15.85578	53466
15.86390	53986
15.87202	49246
15.88015	50064
15.88827	47953
15.89640	46252
15.90452	50228
15.91263	47747
15.92077	47134
15.92888	48227
15.93700	48137
15.94513	48839
15.95325	51290
15.96138	56508
15.96950	60118
15.97762	65137
15.98575	70420
15.99387	73618
16.00200	66440
16.01012	70159
16.01823	68443
16.02637	70947
16.03448	70467
16.04260	65599
16.05073	61006
16.05885	57084
16.06698	55732
16.07510	51767
16.08322	48782
16.09135	50392
16.09947	47856
16.10760	44374
16.11572	43434
16.12383	48263
16.13197	52932
16.14008	50163
16.14822	50536
16.15633	53576
16.16445	51287
16.17258	49560
16.18070	49066
16.18882	49119
16.19695	46664
16.20507	48466
16.21320	47379
16.22132	45962
16.22943	43637
16.23757	43924
16.24568	47917
16.25382	42933
16.26193	43720
16.27005	45427
16.27818	48470
16.28630	50261
16.29443	51139
16.30255	49987
16.31067	54159
16.31880	53222
16.32692	53734
16.33503	48797
16.34317	52327
16.35128	50453
16.35942	52827
16.36753	57584
16.37565	55523
16.38378	57786
16.39190	55696
16.40003	53460
16.40815	48597
16.41627	53233
16.42440	48045
16.43252	48364
16.44063	54011
16.44877	66080
16.45688	87653
16.46502	123977
16.47313	162706
16.48125	185542
16.48938	177875
16.49750	143416
16.50563	115328
16.51375	91494
16.52187	71135
16.53000	61179
16.53812	56359
16.54625	59760
16.55437	58853
16.56248	53581
16.57062	51932
16.57873	54547
16.58685	57749
16.59498	59992
16.60310	64570
16.61123	61057
16.61935	65579
16.62747	60366
16.63560	58602
16.64372	53213
16.65185	49448
16.65997	50038
16.66808	48060
16.67622	49312
16.68433	50795
16.69247	47673
16.70058	46829
16.70870	41532
16.71683	47084
16.72495	44925
16.73307	42124
16.74120	45981
16.74932	42980
16.75745	44910
16.76557	48027
16.77368	48730
16.78182	47846
16.78993	45745
16.79807	43600
16.80618	41346
16.81430	41078
16.82243	44490
16.83055	48005
16.83867	38064
16.84680	39570
16.85492	46541
16.86305	46230
16.87117	43782
16.87928	44855
16.88742	44402
16.89553	43901
16.90367	44026
16.91178	42990
16.91990	43492
16.92803	46500
16.93615	41010
16.94428	42270
16.95240	42956
16.96052	41596
16.96865	43668
16.97677	42142
16.98488	41268
16.99302	44279
17.00113	44224
17.00927	42648
17.01738	42969
17.02550	48270
17.03363	47402
17.04175	49089
17.04988	45087
17.05800	49822
17.06612	45064
17.07425	49362
17.08237	46187
17.09050	46263
17.09862	45712
17.10673	45828
17.11487	43903
17.12298	42645
17.13110	44018
17.13923	47125
17.14735	45374
17.15548	48625
17.16360	47870
17.17172	45919
17.17985	47720
17.18797	46358
17.19610	46699
17.20422	42167
17.21233	44707
17.22047	45361
17.22858	43312
17.23670	40137
17.24483	40744
17.25295	45468
17.26108	41786
17.26920	40949
17.27732	44791
17.28545	42950
17.29357	44256
17.30170	48236
17.30982	44936
17.31793	50285
17.32607	49127
17.33418	51064
17.34232	49252
17.35043	59806
17.35855	54901
17.36668	57088
17.37480	50424
17.38292	54785
17.39105	59741
17.39917	52025
17.40730	60262
17.41542	58552
17.42353	54526
17.43167	55185
17.43978	53528
17.44792	54365
17.45603	50447
17.46415	51636
17.47228	49102
17.48040	46174
17.48852	48523
17.49665	47270
17.50477	52798
17.51290	52874
17.52102	54469
17.52913	57388
17.53727	62784
17.54538	65914
17.55352	77964
17.56163	90843
17.56975	101675
17.57788	134307
17.58600	179160
17.59413	200019
17.60225	229682
17.61037	233229
17.61850	213099
17.62662	171859
17.63473	142816
17.64287	115375
17.65098	99829
17.65912	89832
17.66723	81762
17.67535	83283
17.68348	81714
17.69160	71931
17.69973	73660
17.70785	71386
17.71597	66563
17.72410	63469
17.73222	63913
17.74035	62009
17.74847	56210
17.75658	59888
17.76472	55865
17.77283	54722
17.78095	55491
17.78908	54655
17.79720	59782
17.80533	65681
17.81345	72174
17.82157	79427
17.82970	78959
17.83782	87871
17.84595	86907
17.85407	81850
17.86218	74163
17.87032	76867
17.87843	67879
17.88655	64344
17.89468	56357
17.90280	55602
17.91093	56442
17.91905	51951
17.92717	48651
17.93530	55717
17.94342	47909
17.95155	48494
17.95967	49487
17.96778	58150
17.97592	96293
17.98403	166449
17.99217	274347
18.00028	356725
18.00840	407277
18.01653	429574
18.02465	442363
18.03277	433768
18.04090	450760
18.04902	466280
18.05715	485140
18.06527	547883
18.07338	722583
18.08152	932324
18.08963	1164703
18.09777	1253941
18.10588	1188861
18.11400	978678
18.12213	773764
18.13025	610297
18.13838	507325
18.14650	448748
18.15462	398245
18.16275	372252
18.17087	347921
18.17898	337591
18.18712	313959
18.19523	305420
18.20337	299968
18.21148	286382
18.21960	274441
18.22773	259358
18.23585	251428
18.24398	242568
18.25210	243227
18.26022	235170
18.26835	219970
18.27647	211583
18.28458	207576
18.29272	186746
18.30083	176147
18.30897	178344
18.31708	167499
18.32520	161490
18.33333	160352
18.34145	157087
18.34958	152290
18.35770	149800
18.36582	144293
18.37395	143026
18.38207	143694
18.39020	141561
18.39832	137866
18.40643	138395
18.41457	133316
18.42268	132653
18.43080	137233
18.43893	139734
18.44705	140753
18.45518	151161
18.46330	161860
18.47142	168154
18.47955	181058
18.48767	169456
18.49580	161694
18.50392	148066
18.51203	132595
18.52017	118641
18.52828	113447
18.53640	107022
18.54453	102771
18.55265	97942
18.56078	96416
18.56890	98393
18.57702	96555
18.58515	96190
18.59327	93108
18.60140	98435
18.60952	101048
18.61763	101408
18.62577	104399
18.63388	95348
18.64202	98962
18.65013	88707
18.65825	85536
18.66638	90369
18.67450	81994
18.68262	81842
18.69075	81424
18.69887	76643
18.70700	78284
18.71512	78684
18.72323	74950
18.73137	72412
18.73948	71280
18.74762	66197
18.75573	66704
18.76385	66838
18.77198	65186
18.78010	68014
18.78823	63578
18.79635	64879
18.80447	62813
18.81260	68365
18.82072	63828
18.82883	64506
18.83697	64718
18.84508	59420
18.85322	65857
18.86133	65348
18.86945	66022
18.87758	61751
18.88570	66976
18.89383	68095
18.90195	68295
18.91007	68586
18.91820	66141
18.92632	64555
18.93445	64838
18.94257	69968
18.95068	64517
18.95882	66547
18.96693	62529
18.97505	65527
18.98318	63080
18.99130	64366
18.99943	60643
19.00755	65847
19.01567	63331
19.02380	59489
19.03192	60368
19.04005	61435
19.04817	57944
19.05628	61740
19.06442	67883
19.07253	78195
19.08065	104495
19.08878	128175
19.09690	153164
19.10503	163608
19.11315	153014
19.12127	140942
19.12940	118677
19.13752	102383
19.14565	93416
19.15377	89276
19.16188	93844
19.17002	85697
19.17813	80514
19.18627	78898
19.19438	73451
19.20250	70544
19.21063	69363
19.21875	69389
19.22687	62893
19.23500	62237
19.24312	62611
19.25125	59120
19.25937	61303
19.26748	61529
19.27562	66981
19.28373	63530
19.29187	66735
19.29998	73710
19.30810	64627
19.31623	66489
19.32435	61775
19.33247	64662
19.34060	60307
19.34872	64168
19.35685	76638
19.36497	77957
19.37308	83810
19.38122	89132
19.38933	82670
19.39747	75568
19.40558	68785
19.41370	65985
19.42183	62348
19.42995	61864
19.43808	70134
19.44620	82065
19.45432	126506
19.46245	187471
19.47057	247454
19.47868	282484
19.48682	272814
19.49493	234323
19.50307	163629
19.51118	118462
19.51930	91636
19.52743	75168
19.53555	76416
19.54368	70125
19.55180	63581
19.55992	66649
19.56805	62206
19.57617	58426
19.58430	61717
19.59242	59034
19.60053	57344
19.60867	53427
19.61678	60648
19.62490	63302
19.63303	78201
19.64115	89693
19.64928	111910
19.65740	137994
19.66552	155360
19.67365	159295
19.68177	151716
19.68990	139471
19.69802	119561
19.70613	107459
19.71427	100236
19.72238	82799
19.73050	80132
19.73863	71166
19.74675	70423
19.75488	69408
19.76300	71868
19.77112	73101
19.77925	74728
19.78737	86778
19.79550	84407
19.80362	80554
19.81173	85188
19.81987	76917
19.82798	72362
19.83612	74102
19.84423	102437
19.85235	200347
19.86048	471372
19.86860	1125973
19.87672	2332259
19.88485	4093181
19.89297	5919411
19.90110	7055588
19.90922	7014301
19.91733	5781382
19.92547	4169562
19.93358	2700758
19.94172	1764902
19.94983	1203682
19.95795	927977
19.96608	813649
19.97420	710332
19.98233	639685
19.99045	583738
19.99857	535775
20.00670	510854
20.01482	484471
20.02293	445227
20.03107	406979
20.03918	356376
20.04732	313757
20.05543	265116
20.06355	229932
20.07168	190391
20.07980	173524
20.08793	158509
20.09605	147558
20.10417	134046
20.11230	128431
20.12042	122385
20.12853	109931
20.13667	107385
20.14478	110283
20.15292	114585
20.16103	127480
20.16915	134577
20.17728	152743
20.18540	160455
20.19353	155997
20.20165	149783
20.20977	146717
20.21790	128889
20.22602	129833
20.23415	136204
20.24227	142870
20.25038	170719
20.25852	198725
20.26663	206783
20.27475	203467
20.28288	195520
20.29100	171226
20.29913	157385
20.30725	130578
20.31537	109561
20.32350	100616
20.33162	92218
20.33975	91882
20.34787	86183
20.35598	77584
20.36412	81762
20.37223	76839
20.38035	77907
20.38848	77315
20.39660	78435
20.40473	75302
20.41285	84014
20.42097	80362
20.42910	78373
20.43722	77292
20.44535	74875
20.45347	70221
20.46158	71038
20.46972	70480
20.47783	71970
20.48597	66462
20.49408	65976
20.50220	64354
20.51033	67014
20.51845	60507
20.52657	60867
20.53470	60553
20.54282	61050
20.55095	59526
20.55907	59452
20.56718	58824
20.57532	56281
20.58343	50702
20.59157	53355
20.59968	57177
20.60780	53882
20.61593	57772
20.62405	56478
20.63218	58595
20.64030	57260
20.64842	57449
20.65655	57748
20.66467	62948
20.67278	58517
20.68092	56616
20.68903	57727
20.69717	55089
20.70528	55546
20.71340	58155
20.72153	57115
20.72965	54845
20.73778	59760
20.74590	56907
20.75402	60270
20.76215	62911
20.77027	64036
20.77838	76008
20.78652	87022
20.79463	113226
20.80277	144076
20.81088	176811
20.81900	182390
20.82713	169237
20.83525	148743
20.84338	120975
20.85150	96276
20.85962	83226
20.86775	74129
20.87587	65780
20.88400	69527
20.89212	68741
20.90023	65296
20.90837	74047
20.91648	75960
20.92460	78847
20.93273	80951
20.94085	88521
20.94898	89083
20.95710	87313
20.96522	89227
20.97335	85469
20.98147	83616
20.98960	86836
20.99772	82116
21.00583	86977
21.01397	82597
21.02208	82372
21.03022	82521
21.03833	86650
21.04645	84345
21.05458	83239
21.06270	83337
21.07082	81987
21.07895	80579
21.08707	83526
21.09520	74614
21.10332	73287
21.11143	81575
21.11957	74274
21.12768	74621
21.13582	82527
21.14393	93792
21.15205	99955
21.16018	99919
21.16830	101851
21.17642	95140
21.18455	89380
21.19267	84700
21.20080	76473
21.20892	71282
21.21703	73450
21.22517	71928
21.23328	71721
21.24142	77161
21.24953	69648
21.25765	69812
21.26578	70600
21.27390	67945
21.28203	70532
21.29015	73259
21.29827	67961
21.30640	63903
21.31452	65662
21.32263	69725
21.33077	60923
21.33888	64090
21.34702	70036
21.35513	64483
21.36325	61659
21.37138	61259
21.37950	64657
21.38763	67312
21.39575	73585
21.40387	76929
21.41200	78406
21.42012	82418
21.42825	81295
21.43637	75636
21.44448	70719
21.45262	66495
21.46073	62919
21.46885	68000
21.47698	62446
21.48510	58827
21.49323	61118
21.50135	66783
21.50947	61201
21.51760	60293
21.52572	57571
21.53385	64423
21.54197	60043
21.55008	58713
21.55822	60371
21.56633	63735
21.57445	62752
21.58258	65138
21.59070	74728
21.59883	81584
21.60695	82458
21.61507	89434
21.62320	87685
21.63132	86835
21.63945	87090
21.64757	81343
21.65568	80025
21.66382	73111
21.67193	74592
21.68007	77151
21.68818	78127
21.69630	78381
21.70443	89633
21.71255	110979
21.72067	140862
21.72880	180907
21.73692	196938
21.74505	210453
21.75317	226077
21.76128	225297
21.76942	222556
21.77753	222002
21.78567	226883
21.79378	223985
21.80190	224342
21.81003	230296
21.81815	229244
21.82627	217646
21.83440	207488
21.84252	194623
21.85065	181110
21.85877	175173
21.86688	161264
21.87502	161150
21.88313	147532
21.89127	136779
21.89938	136239
21.90750	131763
21.91563	133024
21.92375	128706
21.93188	116440
21.94000	110544
21.94812	106578
21.95625	103793
21.96437	101120
21.97248	93761
21.98062	96161
21.98873	94715
21.99687	88316
22.00498	88154
22.01310	87405
22.02123	86320
22.02935	81414
22.03748	81657
22.04560	79962
22.05372	78080
22.06185	82104
22.06997	79563
22.07810	77319
22.08622	73852
22.09433	72122
22.10247	74204
22.11058	71840
22.11870	71096
22.12683	71068
22.13495	65814
22.14308	64646
22.15120	66412
22.15932	63663
22.16745	64067
22.17557	63444
22.18370	65455
22.19182	61619
22.19993	64262
22.20807	62635
22.21618	63997
22.22430	65176
22.23243	61303
22.24055	58143
22.24868	61569
22.25680	63377
22.26492	59119
22.27305	64521
22.28117	64056
22.28930	68274
22.29742	66470
22.30553	66485
22.31367	66041
22.32178	66959
22.32992	62936
22.33803	66377
22.34615	60561
22.35428	68285
22.36240	67689
22.37052	59743
22.37865	66475
22.38677	68333
22.39490	72571
22.40302	80835
22.41113	91037
22.41927	96601
22.42738	95824
22.43552	89057
22.44363	79346
22.45175	77042
22.45988	72193
22.46800	71774
22.47613	77508
22.48425	76117
22.49237	85167
22.50050	86312
22.50862	86718
22.51673	83557
22.52487	76246
22.53298	73722
22.54112	73066
22.54923	70219
22.55735	62792
22.56548	57692
22.57360	63267
22.58173	58232
22.58985	54465
22.59797	54524
22.60610	59880
22.61422	57408
22.62233	56420
22.63047	57722
22.63858	55977
22.64672	58888
22.65483	59372
22.66295	57564
22.67108	57933
22.67920	54827
22.68733	60757
22.69545	62526
22.70357	61952
22.71170	63781
22.71982	64069
22.72795	63437
22.73607	61216
22.74418	58729
22.75232	52370
22.76043	56752
22.76855	58013
22.77668	61172
22.78480	60827
22.79293	64242
22.80105	71586
22.80917	71114
22.81730	73080
22.82542	70782
22.83355	63504
22.84167	62143
22.84978	65425
22.85792	63664
22.86603	70211
22.87415	74364
22.88228	77422
22.89040	81030
22.89853	94049
22.90665	95331
22.91477	112444
22.92290	123269
22.93102	125043
22.93915	122775
22.94727	116983
22.95538	99806
22.96352	81138
22.97163	80314
22.97977	72955
22.98788	70960
22.99600	64956
23.00413	62619
23.01225	61112
23.02037	65232
23.02850	56261
23.03662	57570
23.04475	58918
23.05287	58555
23.06098	59490
23.06912	54741
23.07723	56188
23.08537	55298
23.09348	55570
23.10160	55059
23.10973	54129
23.11785	53118
23.12598	53133
23.13410	52987
23.14222	54733
23.15035	53132
23.15847	54395
23.16658	53220
23.17472	50256
23.18283	52012
23.19097	50654
23.19908	51476
23.20720	52372
23.21533	58500
23.22345	56138
23.23158	53685
23.23970	56755
23.24782	57032
23.25595	56811
23.26407	60650
23.27218	58520
23.28032	58015
23.28843	56830
23.29657	59448
23.30468	58946
23.31280	52656
23.32093	59650
23.32905	66261
23.33718	69575
23.34530	79416
23.35342	90096
23.36155	107541
23.36967	117862
23.37780	135174
23.38592	133628
23.39403	137316
23.40217	132339
23.41028	131973
23.41840	129147
23.42653	120947
23.43465	119511
23.44278	108899
23.45090	118335
23.45902	112898
23.46715	131410
23.47527	157011
23.48340	192886
23.49152	215479
23.49963	222806
23.50777	236815
23.51588	240948
23.52402	239106
23.53213	243269
23.54025	237916
23.54838	229726
23.55650	229305
23.56462	234858
23.57275	241406
23.58087	257690
23.58900	283999
23.59712	287123
23.60523	279657
23.61337	262364
23.62148	249674
23.62962	241996
23.63773	215044
23.64585	207643
23.65398	207672
23.66210	210470
23.67022	198974
23.67835	190808
23.68647	185084
23.69460	171205
23.70272	164492
23.71083	153472
23.71897	147609
23.72708	147671
23.73522	173790
23.74333	231863
23.75145	388340
23.75958	732027
23.76770	1353288
23.77583	2077303
23.78395	2538393
23.79207	2651921
23.80020	2420197
23.80832	2021462
23.81643	1630568
23.82457	1172178
23.83268	875451
23.84082	671152
23.84893	536748
23.85705	455331
23.86518	397889
23.87330	337173
23.88143	301279
23.88955	282814
23.89767	267321
23.90580	245247
23.91392	230356
23.92203	217171
23.93017	202592
23.93828	194694
23.94642	180574
23.95453	176596
23.96265	166169
23.97078	156201
23.97890	152240
23.98703	144832
23.99515	140655
24.00327	141580
24.01140	134176
24.01952	136576
24.02765	137327
24.03577	134694
24.04388	128471
24.05202	124623
24.06013	131123
24.06825	116983
24.07638	113466
24.08450	111549
24.09263	111805
24.10075	108046
24.10887	111891
24.11700	110772
24.12512	108931
24.13325	105639
24.14137	107333
24.14948	109938
24.15762	102171
24.16573	111249
24.17387	108899
24.18198	116490
24.19010	112581
24.19823	116324
24.20635	109151
24.21447	107732
24.22260	96637
24.23072	94988
24.23885	86896
24.24697	87656
24.25508	84149
24.26322	78919
24.27133	78572
24.27947	75612
24.28758	76988
24.29570	82113
24.30383	77138
24.31195	75827
24.32008	81402
24.32820	84493
24.33632	98399
24.34445	121957
24.35257	152966
24.36068	189948
24.36882	202400
24.37693	190672
24.38507	152020
24.39318	123967
24.40130	105818
24.40943	100603
24.41755	99214
24.42568	99995
24.43380	106714
24.44192	109966
24.45005	109356
24.45817	106261
24.46628	110425
24.47442	114069
24.48253	111246
24.49067	108892
24.49878	98690
24.50690	98112
24.51503	91702
24.52315	93467
24.53128	99558
24.53940	100557
24.54752	120042
24.55565	112236
24.56377	116381
24.57190	109562
24.58002	100602
24.58813	82913
24.59627	83774
24.60438	77184
24.61250	74299
24.62063	67981
24.62875	73801
24.63688	67821
24.64500	69125
24.65312	63300
24.66125	63786
24.66937	68272
24.67750	71001
24.68562	92081
24.69373	113673
24.70187	151886
24.70998	199835
24.71810	233278
24.72623	265782
24.73435	280027
24.74248	301135
24.75060	307120
24.75872	307015
24.76685	296374
24.77497	301208
24.78310	300930
24.79122	287641
24.79933	276871
24.80747	268264
24.81558	269669
24.82372	261874
24.83183	254186
24.83995	253604
24.84808	259762
24.85620	275975
24.86432	292463
24.87245	320766
24.88057	353486
24.88870	361743
24.89682	326612
24.90493	300841
24.91307	255435
24.92118	215974
24.92932	180301
24.93743	159178
24.94555	142419
24.95368	139145
24.96180	128973
24.96993	128834
24.97805	119744
24.98617	114464
24.99430	112291
25.00242	110851
25.01053	103559
25.01867	108038
25.02678	101806
25.03492	94814
25.04303	93551
25.05115	89445
25.05928	97255
25.06740	86544
25.07553	93662
25.08365	91913
25.09177	101004
25.09990	131638
25.10802	181775
25.11613	326460
25.12427	503229
25.13238	713302
25.14052	882786
25.14863	916748
25.15675	794290
25.16488	613986
25.17300	421987
25.18113	280162
25.18925	200266
25.19737	146672
25.20550	118339
25.21362	102820
25.22175	95380
25.22987	104041
25.23798	106377
25.24612	121474
25.25423	137485
25.26235	144437
25.27048	151599
25.27860	144634
25.28673	136764
25.29485	124350
25.30297	107789
25.31110	103732
25.31922	97141
25.32735	89759
25.33547	91438
25.34358	85014
25.35172	77012
25.35983	72670
25.36797	72180
25.37608	68107
25.38420	65087
25.39233	68576
25.40045	66187
25.40857	68369
25.41670	69504
25.42482	65162
25.43295	70358
25.44107	67905
25.44918	64405
25.45732	70354
25.46543	66745
25.47357	57928
25.48168	62330
25.48980	61463
25.49793	65657
25.50605	58452
25.51417	60494
25.52230	61110
25.53042	62402
25.53855	59118
25.54667	60852
25.55478	60161
25.56292	56813
25.57103	61622
25.57917	54710
25.58728	61510
25.59540	58375
25.60353	56590
25.61165	55346
25.61978	56394
25.62790	56329
25.63602	55161
25.64415	62516
25.65227	57207
25.66038	57412
25.66852	58696
25.67663	52823
25.68477	56966
25.69288	55853
25.70100	56017
25.70913	55521
25.71725	56860
25.72538	61012
25.73350	59186
25.74162	54718
25.74975	57016
25.75787	50640
25.76598	56715
25.77412	51257
25.78223	57051
25.79037	55857
25.79848	53888
25.80660	56724
25.81473	57364
25.82285	57253
25.83098	59031
25.83910	58307
25.84722	58568
25.85535	61960
25.86347	55852
25.87160	52761
25.87972	57995
25.88783	51830
25.89597	52852
25.90408	50318
25.91220	51050
25.92033	46558
25.92845	51427
25.93658	50538
25.94470	50300
25.95282	52286
25.96095	57810
25.96907	49801
25.97720	49129
25.98532	48552
25.99343	47293
26.00157	46694
26.00968	49099
26.01782	45919
26.02593	52594
26.03405	50522
26.04218	47640
26.05030	50941
26.05842	48974
26.06655	52937
26.07467	53367
26.08280	54768
26.09092	54046
26.09903	54891
26.10717	48074
26.11528	61898
26.12342	56740
26.13153	62875
26.13965	64839
26.14778	64356
26.15590	63818
26.16402	65729
26.17215	61733
26.18027	58790
26.18840	55803
26.19652	54942
26.20463	54039
26.21277	57852
26.22088	54037
26.22902	55214
26.23713	51782
26.24525	48433
26.25338	48278
26.26150	44021
26.26963	50771
26.27775	51262
26.28587	47095
26.29400	48555
26.30212	50409
26.31023	44107
26.31837	49128
26.32648	47089
26.33462	48415
26.34273	49472
26.35085	48321
26.35898	52628
26.36710	58129
26.37523	56943
26.38335	59174
26.39147	62053
26.39960	63069
26.40772	63289
26.41585	58710
26.42397	55655
26.43208	52643
26.44022	50323
26.44833	49935
26.45645	48482
26.46458	49698
26.47270	49000
26.48083	52804
26.48895	47975
26.49707	46978
26.50520	48549
26.51332	45728
26.52145	43601
26.52957	44594
26.53768	45282
26.54582	46341
26.55393	46313
26.56205	46831
26.57018	49844
26.57830	48772
26.58643	48127
26.59455	45594
26.60267	45537
26.61080	47556
26.61892	41609
26.62705	44995
26.63517	46927
26.64328	47163
26.65142	45661
26.65953	50466
26.66767	47789
26.67578	50527
26.68390	48742
26.69203	51055
26.70015	48062
26.70827	47893
26.71640	46560
26.72452	44777
26.73265	53018
26.74077	44416
26.74888	47230
26.75702	46586
26.76513	46464
26.77327	48203
26.78138	48819
26.78950	53320
26.79763	51692
26.80575	56427
26.81387	53487
26.82200	54290
26.83012	51882
26.83825	53869
26.84637	51468
26.85448	53800
26.86262	48993
26.87073	49578
26.87887	50150
26.88698	51124
26.89510	49046
26.90323	54827
26.91135	53943
26.91948	50882
26.92760	48916
26.93572	58339
26.94385	57557
26.95197	73254
26.96008	107964
26.96822	164465
26.97633	260526
26.98447	391435
26.99258	578940
27.00070	721882
27.00883	828521
27.01695	832370
27.02508	725530
27.03320	609673
27.04132	493578
27.04945	385009
27.05757	294106
27.06570	238948
27.07382	200574
27.08193	176666
27.09007	156168
27.09818	140945
27.10630	129365
27.11443	125056
27.12255	119552
27.13068	111717
27.13880	104457
27.14692	103567
27.15505	105261
27.16317	101462
27.17130	99039
27.17942	97467
27.18753	98252
27.19567	91281
27.20378	91578
27.21190	88678
27.22003	82189
27.22815	82934
27.23628	74198
27.24440	72151
27.25252	72827
27.26065	73362
27.26877	67271
27.27690	69545
27.28502	69143
27.29313	62867
27.30127	65829
27.30938	63723
27.31752	67765
27.32563	66588
27.33375	64586
27.34188	64320
27.35000	65504
27.35812	60262
27.36625	65250
27.37437	59886
27.38250	59440
27.39062	61381
27.39873	60389
27.40687	59940
27.41498	56640
27.42312	57951
27.43123	59920
27.43935	59329
27.44748	54360
27.45560	57630
27.46373	53192
27.47185	56945
27.47997	56555
27.48810	56102
27.49622	57618
27.50433	57463
27.51247	59431
27.52058	56913
27.52872	58718
27.53683	57394
27.54495	59881
27.55308	56333
27.56120	55353
27.56933	62588
27.57745	58171
27.58557	63070
27.59370	62612
27.60182	66369
27.60993	64603
27.61807	62185
27.62618	58132
27.63432	55810
27.64243	54447
27.65055	59188
27.65868	53841
27.66680	61673
27.67493	63140
27.68305	63642
27.69117	60594
27.69930	61540
27.70742	58222
27.71555	55809
27.72367	58806
27.73178	56633
27.73992	56222
27.74803	61019
27.75615	62133
27.76428	59275
27.77240	59288
27.78053	60266
27.78865	55315
27.79677	55160
27.80490	52637
27.81302	55139
27.82115	51531
27.82927	52225
27.83738	53673
27.84552	50389
27.85363	55556
27.86177	51868
27.86988	50630
27.87800	49387
27.88613	48635
27.89425	50508
27.90237	50562
27.91050	51954
27.91862	48768
27.92675	46244
27.93487	48042
27.94298	46977
27.95112	49050
27.95923	48460
27.96737	47547
27.97548	52481
27.98360	50930
27.99173	54810
27.99985	58854
28.00797	57732
28.01610	62334
28.02422	69961
28.03235	79381
28.04047	86331
28.04858	92144
28.05672	85352
28.06483	81520
28.07297	74421
28.08108	74103
28.08920	77091
28.09733	82720
28.10545	90312
28.11358	84987
28.12170	80648
28.12982	78875
28.13795	70181
28.14607	68369
28.15418	63941
28.16232	61629
28.17043	62731
28.17857	60859
28.18668	58032
28.19480	57072
28.20293	58619
28.21105	64212
28.21918	65282
28.22730	62718
28.23542	60644
28.24355	58240
28.25167	63508
28.25978	68003
28.26792	85392
28.27603	106736
28.28417	140879
28.29228	184231
28.30040	236013
28.30853	282792
28.31665	324538
28.32478	346447
28.33290	345545
28.34102	351676
28.34915	327258
28.35727	294384
28.36540	274017
28.37352	256630
28.38163	220906
28.38977	192381
28.39788	174745
28.40600	158571
28.41413	139051
28.42225	127131
28.43038	119446
28.43850	112170
28.44662	103542
28.45475	97703
28.46287	91357
28.47100	90580
28.47912	90159
28.48723	87382
28.49537	83627
28.50348	87087
28.51162	81103
28.51973	77458
28.52785	78499
28.53598	77640
28.54410	77036
28.55222	75638
28.56035	72722
28.56847	71608
28.57660	68648
28.58472	72315
28.59283	68178
28.60097	69464
28.60908	67919
28.61722	65267
28.62533	68838
28.63345	70134
28.64158	77480
28.64970	73081
28.65782	75543
28.66595	76270
28.67407	74190
28.68220	71661
28.69032	69928
28.69843	68493
28.70657	82417
28.71468	88719
28.72282	101289
28.73093	110450
28.73905	108006
28.74718	111359
28.75530	88778
28.76343	75987
28.77155	72758
28.77967	65603
28.78780	58541
28.79592	62531
28.80403	65061
28.81217	61425
28.82028	61265
28.82842	61541
28.83653	58403
28.84465	59350
28.85278	57391
28.86090	60185
28.86903	63536
28.87715	59760
28.88527	63627
28.89340	65125
28.90152	67704
28.90965	65122
28.91777	64668
28.92588	58641
28.93402	59729
28.94213	59123
28.95025	56890
28.95838	55080
28.96650	60424
28.97463	63281
28.98275	59751
28.99087	55022
28.99900	54115
29.00712	53098
29.01525	53520
29.02337	55527
29.03148	53749
29.03962	49566
29.04773	51996
29.05585	52397
29.06398	56122
29.07210	53734
29.08023	57535
29.08835	53552
29.09647	56708
29.10460	55451
29.11272	52323
29.12085	53484
29.12897	49269
29.13708	57957
29.14522	56692
29.15333	52922
29.16147	52179
29.16958	56428
29.17770	56284
29.18583	58524
29.19395	63084
29.20207	65005
29.21020	68919
29.21832	69203
29.22645	72311
29.23457	71683
29.24268	74784
29.25082	73053
29.25893	76367
29.26707	75722
29.27518	68163
29.28330	72720
29.29143	62706
29.29955	59455
29.30767	56796
29.31580	57977
29.32392	53488
29.33205	54116
29.34017	53482
29.34828	52839
29.35642	53940
29.36453	52946
29.37267	51796
29.38078	51300
29.38890	50060
29.39703	50087
29.40515	50889
29.41328	55511
29.42140	52707
29.42952	53400
29.43765	52373
29.44577	56293
29.45388	52655
29.46202	55246
29.47013	50586
29.47827	49647
29.48638	51904
29.49450	55095
29.50263	55026
29.51075	60137
29.51888	60839
29.52700	57208
29.53512	59225
29.54325	54584
29.55137	52219
29.55950	55683
29.56762	58497
29.57573	59176
29.58387	66968
29.59198	72707
29.60010	74430
29.60823	72829
29.61635	66193
29.62448	64916
29.63260	58583
29.64072	58595
29.64885	53132
29.65697	53150
29.66510	50984
29.67322	58605
29.68133	58037
29.68947	71508
29.69758	68506
29.70572	68625
29.71383	71863
29.72195	77154
29.73008	76093
29.73820	76770
29.74632	74108
29.75445	75750
29.76257	69070
29.77070	70382
29.77882	67892
29.78693	69492
29.79507	68454
29.80318	67332
29.81132	65253
29.81943	66564
29.82755	67442
29.83568	63031
29.84380	59565
29.85192	59879
29.86005	61370
29.86817	66140
29.87630	72309
29.88442	80475
29.89253	91914
29.90067	103978
29.90878	114785
29.91692	126948
29.92503	147507
29.93315	147437
29.94128	160738
29.94940	165400
29.95753	177183
29.96565	196064
29.97377	196084
29.98190	186714
29.99002	182034
29.99813	174268
30.00627	168121
30.01438	162581
30.02252	150380
30.03063	135476
30.03875	127203
30.04688	123066
30.05500	115823
30.06313	107330
30.07125	101097
30.07937	100490
30.08750	96125
30.09562	91257
30.10373	91922
30.11187	86108
30.11998	85859
30.12812	86075
30.13623	78627
30.14435	78035
30.15248	79948
30.16060	81317
30.16873	80041
30.17685	77739
30.18497	75659
30.19310	73774
30.20122	73337
30.20935	73661
30.21747	68754
30.22558	69829
30.23372	72990
30.24183	64405
30.24995	62338
30.25808	64008
30.26620	60817
30.27433	60269
30.28245	63492
30.29057	62547
30.29870	63332
30.30682	61207
30.31495	59920
30.32307	57214
30.33118	60530
30.33932	60255
30.34743	62462
30.35557	64507
30.36368	57810
30.37180	60148
30.37993	59428
30.38805	60261
30.39617	62854
30.40430	56193
30.41242	58013
30.42055	60820
30.42867	59503
30.43678	60834
30.44492	59767
30.45303	57127
30.46117	55058
30.46928	57325
30.47740	62926
30.48553	57970
30.49365	57802
30.50177	57039
30.50990	54228
30.51802	57285
30.52615	52283
30.53427	54074
30.54238	56254
30.55052	56869
30.55863	52710
30.56677	52421
30.57488	55432
30.58300	60493
30.59113	60331
30.59925	52832
30.60738	53885
30.61550	55360
30.62362	56386
30.63175	52318
30.63987	54103
30.64798	52665
30.65612	54551
30.66423	51533
30.67237	54844
30.68048	53343
30.68860	53107
30.69673	55870
30.70485	52410
30.71298	52824
30.72110	50430
30.72922	55738
30.73735	56165
30.74547	54900
30.75360	55141
30.76172	56874
30.76983	56333
30.77797	59557
30.78608	69036
30.79420	70528
30.80233	74130
30.81045	78641
30.81858	76692
30.82670	70005
30.83482	63759
30.84295	64123
30.85107	60023
30.85920	55125
30.86732	51422
30.87543	52806
30.88357	54112
30.89168	52850
30.89980	50374
30.90793	53841
30.91605	53144
30.92418	52878
30.93230	52991
30.94042	58443
30.94855	55627
30.95667	52450
30.96480	52497
30.97292	51909
30.98103	53080
30.98917	50307
30.99728	56857
31.00542	53826
31.01353	54601
31.02165	52831
31.02978	59797
31.03790	54514
31.04602	55370
31.05415	56906
31.06227	56177
31.07040	59563
31.07852	58936
31.08663	61482
31.09477	65264
31.10288	68849
31.11102	66074
31.11913	66251
31.12725	63854
31.13538	62691
31.14350	56705
31.15162	60738
31.15975	63522
31.16787	69746
31.17600	77101
31.18412	98883
31.19223	121587
31.20037	139574
31.20848	169935
31.21662	171676
31.22473	169309
31.23285	141182
31.24098	128012
31.24910	94357
31.25723	74122
31.26535	67142
31.27347	61418
31.28160	54981
31.28972	56261
31.29783	53671
31.30597	51759
31.31408	57971
31.32222	56281
31.33033	54264
31.33845	55621
31.34658	53684
31.35470	55535
31.36283	58811
31.37095	56939
31.37907	58865
31.38720	62320
31.39532	59896
31.40345	56841
31.41157	53434
31.41968	56131
31.42782	52092
31.43593	55206
31.44405	56403
31.45218	57281
31.46030	52646
31.46843	53225
31.47655	58819
31.48467	53600
31.49280	55508
31.50092	53345
31.50905	59167
31.51717	58749
31.52528	58185
31.53342	60535
31.54153	59822
31.54965	58213
31.55778	57045
31.56590	54692
31.57403	56622
31.58215	57943
31.59027	57434
31.59840	58733
31.60652	53724
31.61465	54131
31.62277	52626
31.63088	52570
31.63902	53332
31.64713	60068
31.65527	59207
31.66338	59063
31.67150	63655
31.67963	68050
31.68775	67342
31.69587	68633
31.70400	72382
31.71212	64662
31.72025	70534
31.72837	58856
31.73648	56597
31.74462	56728
31.75273	51764
31.76087	55316
31.76898	52363
31.77710	55633
31.78523	57792
31.79335	57542
31.80148	61571
31.80960	55923
31.81772	61222
31.82585	60467
31.83397	60892
31.84208	64288
31.85022	69104
31.85833	75305
31.86647	85386
31.87458	98249
31.88270	102712
31.89083	116586
31.89895	125253
31.90708	129846
31.91520	131903
31.92332	137224
31.93145	121282
31.93957	119738
31.94768	114559
31.95582	113032
31.96393	107506
31.97207	101284
31.98018	96030
31.98830	86575
31.99643	86025
32.00455	84538
32.01268	84368
32.02080	87240
32.02892	84380
32.03705	82410
32.04517	79172
32.05330	82391
32.06142	75848
32.06953	68635
32.07767	65643
32.08578	69059
32.09390	66360
32.10203	69828
32.11015	63112
32.11828	62203
32.12640	68713
32.13452	63446
32.14265	62806
32.15077	65737
32.15890	57966
32.16702	63027
32.17513	61200
32.18327	63044
32.19138	63790
32.19952	63362
32.20763	65657
32.21575	59525
32.22388	59761
32.23200	58379
32.24012	58743
32.24825	57566
32.25637	61589
32.26450	61587
32.27262	65133
32.28073	63221
32.28887	62087
32.29698	60736
32.30512	62648
32.31323	60243
32.32135	63755
32.32948	60809
32.33760	62561
32.34572	65551
32.35385	61047
32.36197	64922
32.37010	60866
32.37822	63605
32.38633	63073
32.39447	62429
32.40258	62732
32.41072	57714
32.41883	58873
32.42695	59963
32.43508	55899
32.44320	57163
32.45133	62536
32.45945	56944
32.46757	61324
32.47570	55630
32.48382	59845
32.49193	55630
32.50007	57557
32.50818	57804
32.51632	56340
32.52443	58462
32.53255	59908
32.54068	58173
32.54880	60115
32.55693	57587
32.56505	63777
32.57317	57598
32.58130	60533
32.58942	60706
32.59753	69112
32.60567	80506
32.61378	79208
32.62192	87656
32.63003	95164
32.63815	91192
32.64628	77088
32.65440	70711
32.66253	65652
32.67065	66520
32.67877	62139
32.68690	62418
32.69502	62540
32.70315	63098
32.71127	58753
32.71938	63565
32.72752	68897
32.73563	63494
32.74375	61317
32.75188	58382
32.76000	56876
32.76813	62653
32.77625	58456
32.78437	61183
32.79250	60356
32.80062	58892
32.80875	59157
32.81687	60096
32.82498	59220
32.83312	59988
32.84123	56797
32.84937	54524
32.85748	57463
32.86560	59506
32.87373	57490
32.88185	58118
32.88997	65057
32.89810	68862
32.90622	63675
32.91435	63905
32.92247	66772
32.93058	61653
32.93872	63927
32.94683	62596
32.95497	60298
32.96308	65066
32.97120	60349
32.97933	65132
32.98745	70127
32.99557	67045
33.00370	71647
33.01182	65952
33.01995	65533
33.02807	63658
33.03618	59931
33.04432	63960
33.05243	62237
33.06057	63601
33.06868	62677
33.07680	61922
33.08493	62769
33.09305	66762
33.10118	70248
33.10930	68273
33.11742	80338
33.12555	79187
33.13367	72725
33.14178	70474
33.14992	68197
33.15803	67766
33.16617	65689
33.17428	64658
33.18240	62670
33.19053	61848
33.19865	59617
33.20678	57588
33.21490	64995
33.22302	60985
33.23115	63039
33.23927	59338
33.24740	58690
33.25552	62106
33.26363	58347
33.27177	62995
33.27988	58755
33.28800	60135
33.29613	58050
33.30425	66311
33.31238	62606
33.32050	61013
33.32862	58361
33.33675	60524
33.34487	64390
33.35300	64868
33.36112	68117
33.36923	68553
33.37737	64938
33.38548	59643
33.39360	58767
33.40173	60986
33.40985	59680
33.41798	62419
33.42610	58861
33.43422	61745
33.44235	61187
33.45047	60086
33.45860	57518
33.46672	62438
33.47483	57665
33.48297	60265
33.49108	60117
33.49922	62022
33.50733	64683
33.51545	62890
33.52358	59634
33.53170	64988
33.53982	66688
33.54795	67946
33.55607	64607
33.56420	64154
33.57232	66165
33.58043	65370
33.58857	55281
33.59668	59982
33.60482	60845
33.61293	58234
33.62105	62010
33.62918	60545
33.63730	61315
33.64542	66155
33.65355	64824
33.66167	64364
33.66980	65393
33.67792	61899
33.68603	59318
33.69417	63330
33.70228	63273
33.71042	66140
33.71853	63365
33.72665	61486
33.73478	63070
33.74290	66182
33.75103	65165
33.75915	62952
33.76727	63641
33.77540	63510
33.78352	66193
33.79163	68348
33.79977	69865
33.80788	65715
33.81602	63821
33.82413	63896
33.83225	61364
33.84038	62787
33.84850	68530
33.85663	67292
33.86475	65311
33.87287	70134
33.88100	74935
33.88912	74113
33.89725	79221
33.90537	74438
33.91348	80556
33.92162	74404
33.92973	78335
33.93785	75381
33.94598	79271
33.95410	83940
33.96223	81527
33.97035	84465
33.97847	85951
33.98660	78825
33.99472	84124
34.00285	80168
34.01097	77847
34.01908	76074
34.02722	80479
34.03533	79342
34.04345	78252
34.05158	79002
34.05970	77034
34.06783	78288
34.07595	71342
34.08407	73540
34.09220	73387
34.10032	72107
34.10845	72731
34.11657	71446
34.12468	69841
34.13282	69673
34.14093	71633
34.14907	69101
34.15718	70094
34.16530	70654
34.17343	69702
34.18155	67161
34.18967	72362
34.19780	68526
34.20592	69127
34.21405	66582
34.22217	73865
34.23028	72755
34.23842	67246
34.24653	68570
34.25467	65681
34.26278	66297
34.27090	68901
34.27903	68742
34.28715	67911
34.29528	73358
34.30340	67555
34.31152	68679
34.31965	68176
34.32777	69367
34.33588	64483
34.34402	71347
34.35213	65531
34.36027	63790
34.36838	67398
34.37650	69216
34.38463	68296
34.39275	70201
34.40088	68740
34.40900	65764
34.41712	66518
34.42525	66075
34.43337	65865
34.44148	68383
34.44962	70390
34.45773	74191
34.46587	86487
34.47398	93038
34.48210	112224
34.49023	120850
34.49835	125511
34.50648	134993
34.51460	141288
34.52272	133380
34.53085	125446
34.53897	118419
34.54710	111705
34.55522	109437
34.56333	105268
34.57147	94833
34.57958	92787
34.58770	89798
34.59583	83664
34.60395	88959
34.61208	87562
34.62020	86369
34.62832	88157
34.63645	88828
34.64457	79364
34.65270	79546
34.66082	79200
34.66893	79195
34.67707	78831
34.68518	84472
34.69330	80472
34.70143	76280
34.70955	84999
34.71768	81385
34.72580	81156
34.73392	85305
34.74205	78706
34.75017	83612
34.75830	83802
34.76642	86075
34.77453	83140
34.78267	84857
34.79078	84186
34.79892	83779
34.80703	86760
34.81515	81562
34.82328	77656
34.83140	77661
34.83952	80975
34.84765	79624
34.85577	78249
34.86390	77507
34.87202	74319
34.88013	75733
34.88827	77514
34.89638	78987
34.90452	78384
34.91263	79202
34.92075	80714
34.92888	77778
34.93700	78382
34.94513	81813
34.95325	83365
34.96137	79106
34.96950	83428
34.97762	75248
34.98573	80957
34.99387	77219
35.00198	75046
35.01012	73206
35.01823	77100
35.02635	75348
35.03448	73379
35.04260	71318
35.05073	79487
35.05885	75183
35.06697	76441
35.07510	75667
35.08322	78086
35.09135	79765
35.09947	78396
35.10758	78414
35.11572	78421
35.12383	81285
35.13195	82662
35.14008	79210
35.14820	83330
35.15633	93172
35.16445	89503
35.17257	84552
35.18070	89060
35.18882	79238
35.19695	81361
35.20507	84270
35.21318	83046
35.22132	86218
35.22943	80653
35.23755	81252
35.24568	83685
35.25380	85878
35.26193	79014
35.27005	85126
35.27817	86054
35.28630	78702
35.29442	76275
35.30255	78415
35.31067	80034
35.31878	76734
35.32692	79737
35.33503	84098
35.34317	78969
35.35128	80994
35.35940	80576
35.36753	82911
35.37565	79385
35.38377	83769
35.39190	83815
35.40002	93371
35.40815	94450
35.41627	96572
35.42438	96679
35.43252	92414
35.44063	93999
35.44877	92275
35.45688	93818
35.46500	94151
35.47313	86968
35.48125	88850
35.48937	86872
35.49750	82913
35.50562	82241
35.51375	86131
35.52187	81124
35.52998	79541
35.53812	83015
35.54623	83887
35.55437	83338
35.56248	81680
35.57060	79485
35.57873	79619
35.58685	84495
35.59498	82769
35.60310	80317
35.61122	82568
35.61935	84378
35.62747	85278
35.63558	83548
35.64372	83605
35.65183	86410
35.65997	86394
35.66808	79082
35.67620	83097
35.68433	83020
35.69245	85667
35.70058	80721
35.70870	83078
35.71682	79904
35.72495	86361
35.73307	80695
35.74120	84084
35.74932	84172
35.75743	86036
35.76557	85735
35.77368	91467
35.78180	86231
35.78993	86680
35.79805	79973
35.80618	84322
35.81430	81714
35.82242	83758
35.83055	84188
35.83867	84814
35.84680	88083
35.85492	86528
35.86303	84272
35.87117	87093
35.87928	80934
35.88740	83735
35.89553	82629
35.90365	82943
35.91178	83988
35.91990	86438
35.92802	85314
35.93615	87221
35.94427	81599
35.95240	82920
35.96052	85364
35.96863	84814
35.97677	85215
35.98488	86246
35.99302	87508
36.00113	84476
36.00925	90044
36.01738	87631
36.02550	89997
36.03362	90839
36.04175	93219
36.04987	89962
36.05800	91134
36.06612	93389
36.07423	91660
36.08237	87580
36.09048	90554
36.09862	85907
36.10673	88830
36.11485	87208
36.12298	92596
36.13110	90222
36.13923	96155
36.14735	93115
36.15547	90685
36.16360	81463
36.17172	87563
36.17983	88374
36.18797	86427
36.19608	86324
36.20422	78674
36.21233	81751
36.22045	83216
36.22858	87767
36.23670	94175
36.24483	94977
36.25295	108596
36.26107	123076
36.26920	123677
36.27732	129018
36.28543	124461
36.29357	110275
36.30168	105145
36.30982	94266
36.31793	89420
36.32605	91049
36.33418	89556
36.34230	85167
36.35043	93406
36.35855	94272
36.36667	91595
36.37480	85849
36.38292	88823
36.39105	87302
36.39917	89227
36.40728	96635
36.41542	93579
36.42353	91652
36.43165	89067
36.43978	92669
36.44790	86098
36.45603	93076
36.46415	90091
36.47227	90971
36.48040	87980
36.48852	88615
36.49665	86468
36.50477	92523
36.51288	89284
36.52102	86849
36.52913	90036
36.53725	91922
36.54538	85359
36.55350	92673
36.56163	88296
36.56975	87202
36.57787	88300
36.58600	94538
36.59412	94510
36.60225	95310
36.61037	94143
36.61848	90167
36.62662	91769
36.63473	89745
36.64287	92876
36.65098	91142
36.65910	85804
36.66723	91514
36.67535	92442
36.68347	92694
36.69160	91193
36.69972	90468
36.70785	91877
36.71597	95630
36.72408	91383
36.73222	100617
36.74033	95542
36.74847	90988
36.75658	88495
36.76470	93980
36.77283	89272
36.78095	88555
36.78908	94556
36.79720	94317
36.80532	95323
36.81345	91735
36.82157	93583
36.82968	96980
36.83782	92083
36.84593	91733
36.85407	96376
36.86218	94958
36.87030	90509
36.87843	91130
36.88655	96346
36.89468	96526
36.90280	100946
36.91092	97843
36.91905	97618
36.92717	94788
36.93528	98805
36.94342	100494
36.95153	98556
36.95967	113563
36.96778	107682
36.97590	110183
36.98403	109896
36.99215	107446
37.00028	115776
37.00840	124469
37.01652	134303
37.02465	141019
37.03277	146829
37.04090	145482
37.04902	134679
37.05713	119858
37.06527	113859
37.07338	105571
37.08150	108606
37.08963	101715
37.09775	106919
37.10588	108441
37.11400	97274
37.12212	102766
37.13025	101153
37.13837	100142
37.14650	107647
37.15462	102846
37.16273	107414
37.17087	105761
37.17898	103695
37.18712	104838
37.19523	102913
37.20335	97875
37.21148	106405
37.21960	107989
37.22772	99494
37.23585	102988
37.24397	103767
37.25210	106628
37.26022	107140
37.26833	113802
37.27647	125465
37.28458	136755
37.29272	137281
37.30083	153766
37.30895	164771
37.31708	159796
37.32520	147304
37.33332	147189
37.34145	140066
37.34957	136270
37.35770	129390
37.36582	125661
37.37393	123127
37.38207	121286
37.39018	121121
37.39832	121963
37.40643	114927
37.41455	122907
37.42268	116987
37.43080	122881
37.43893	116477
37.44705	119327
37.45517	118708
37.46330	116880
37.47142	120063
37.47953	112137
37.48767	111849
