C:\MassHunter\GCMS\1\data\JTB-E18\JTB-E18-024-13.D Wed Sep 11 09:24:38 2019
Start of data points
2.09537	53418
2.10348	52613
2.11162	51684
2.11973	62319
2.12785	63265
2.13598	72746
2.14410	69697
2.15223	74983
2.16035	76511
2.16847	77797
2.17660	76014
2.18472	76825
2.19285	67725
2.20097	70585
2.20908	63517
2.21722	67612
2.22533	64497
2.23345	63447
2.24158	59311
2.24970	60124
2.25783	58991
2.26595	87249
2.27407	783577
2.28220	3114889
2.29032	2600250
2.29845	1131444
2.30657	664166
2.31468	502068
2.32282	427862
2.33093	364612
2.33907	326392
2.34718	290980
2.35530	262131
2.36343	230920
2.37155	210781
2.37967	205246
2.38780	199863
2.39592	193368
2.40405	180145
2.41217	178015
2.42028	172116
2.42842	176026
2.43653	167606
2.44467	160350
2.45278	165395
2.46090	155213
2.46903	146345
2.47715	145741
2.48528	142061
2.49340	149544
2.50152	152975
2.50965	138415
2.51777	136521
2.52588	134842
2.53402	125614
2.54213	128610
2.55027	129449
2.55838	131008
2.56650	129574
2.57463	122153
2.58275	123290
2.59088	117864
2.59900	121406
2.60712	120472
2.61525	127661
2.62337	129611
2.63150	128298
2.63962	130367
2.64773	115746
2.65587	116143
2.66398	113202
2.67210	112183
2.68023	110146
2.68835	106697
2.69648	106361
2.70460	108977
2.71272	105299
2.72085	106990
2.72897	100168
2.73710	105282
2.74522	104573
2.75333	97875
2.76147	97402
2.76958	102098
2.77770	98014
2.78583	95291
2.79395	103658
2.80208	98372
2.81020	97388
2.81832	96645
2.82645	97603
2.83457	98385
2.84270	99284
2.85082	95412
2.85893	94988
2.86707	101828
2.87518	100413
2.88332	92735
2.89143	92100
2.89955	100907
2.90768	92894
2.91580	92145
2.92392	89569
2.93205	89874
2.94017	92013
2.94830	89202
2.95642	91839
2.96453	87817
2.97267	89191
2.98078	93494
2.98892	90311
2.99703	94722
3.00515	89275
3.01328	87292
3.02140	88094
3.02952	89134
3.03765	84509
3.04577	85552
3.05390	86135
3.06202	84922
3.07013	91466
3.07827	89548
3.08638	87039
3.09452	87873
3.10263	90058
3.11075	104803
3.11888	113148
3.12700	101354
3.13513	99676
3.14325	95030
3.15137	91758
3.15950	92130
3.16762	89956
3.17573	92712
3.18387	92377
3.19198	91573
3.20012	87978
3.20823	83119
3.21635	89676
3.22448	86360
3.23260	83759
3.24073	85764
3.24885	88690
3.25697	85802
3.26510	79702
3.27322	89327
3.28135	151392
3.28947	725870
3.29758	3482213
3.30572	9264669
3.31383	1.387713E+07
3.32195	1.312375E+07
3.33008	9457390
3.33820	6333880
3.34633	4540415
3.35445	3412845
3.36257	2726106
3.37070	2225341
3.37882	1875978
3.38695	1617463
3.39507	1412188
3.40318	1251716
3.41132	1119273
3.41943	1039597
3.42755	940154
3.43568	883344
3.44380	828213
3.45193	783874
3.46005	719877
3.46817	704626
3.47630	662185
3.48442	637210
3.49255	600261
3.50067	599000
3.50878	554730
3.51692	532787
3.52503	508637
3.53317	493328
3.54128	479385
3.54940	471273
3.55753	457647
3.56565	435884
3.57377	432229
3.58190	423492
3.59002	412799
3.59815	397288
3.60627	403614
3.61438	389226
3.62252	383660
3.63063	369867
3.63877	374059
3.64688	347022
3.65500	357303
3.66313	351325
3.67125	333956
3.67938	323798
3.68750	337578
3.69562	338033
3.70375	327101
3.71187	315764
3.71998	312854
3.72812	316624
3.73623	308512
3.74437	306431
3.75248	306603
3.76060	287960
3.76873	294933
3.77685	293867
3.78498	288695
3.79310	278495
3.80122	275421
3.80935	286926
3.81747	270595
3.82558	283187
3.83372	269061
3.84183	272613
3.84997	272858
3.85808	276768
3.86620	264394
3.87433	258558
3.88245	264629
3.89058	250889
3.89870	251837
3.90682	254118
3.91495	247292
3.92307	246021
3.93120	246942
3.93932	244968
3.94743	247090
3.95557	240698
3.96368	238503
3.97180	236609
3.97993	232817
3.98805	235906
3.99618	236588
4.00430	239381
4.01242	240293
4.02055	232538
4.02867	229248
4.03680	236565
4.04492	229850
4.05303	224488
4.06117	226735
4.06928	223509
4.07740	228667
4.08553	215768
4.09365	220134
4.10178	220284
4.10990	221065
4.11802	218162
4.12615	213751
4.13427	218112
4.14240	219241
4.15052	221972
4.15863	221267
4.16677	216579
4.17488	213855
4.18302	216840
4.19113	206675
4.19925	214487
4.20738	210844
4.21550	204465
4.22362	203203
4.23175	217411
4.23987	226715
4.24800	226949
4.25612	221844
4.26423	218198
4.27237	208561
4.28048	199470
4.28862	198844
4.29673	204356
4.30485	207432
4.31298	200648
4.32110	199961
4.32923	201319
4.33735	193891
4.34547	201079
4.35360	203208
4.36172	210076
4.36983	206522
4.37797	202271
4.38608	206278
4.39422	195163
4.40233	199914
4.41045	202072
4.41858	193490
4.42670	193586
4.43483	191982
4.44295	192529
4.45107	189940
4.45920	192152
4.46732	192768
4.47543	183097
4.48357	189201
4.49168	177590
4.49982	176478
4.50793	185379
4.51605	180622
4.52418	183819
4.53230	179510
4.54043	185627
4.54855	179637
4.55667	177500
4.56480	180792
4.57292	174126
4.58105	181660
4.58917	176879
4.59728	189511
4.60542	178383
4.61353	179029
4.62165	182793
4.62978	182119
4.63790	179072
4.64603	183279
4.65415	178343
4.66227	177198
4.67040	172911
4.67852	171678
4.68665	177334
4.69477	184641
4.70288	183500
4.71102	181402
4.71913	175508
4.72727	169478
4.73538	175285
4.74350	174846
4.75163	177091
4.75975	171349
4.76787	173046
4.77600	170560
4.78412	173741
4.79225	168993
4.80037	175245
4.80848	170074
4.81662	173877
4.82473	175667
4.83287	167961
4.84098	167911
4.84910	167638
4.85723	174147
4.86535	172790
4.87347	171493
4.88160	166253
4.88972	167612
4.89785	166283
4.90597	171266
4.91408	190456
4.92222	297207
4.93033	767049
4.93847	2033652
4.94658	4180751
4.95470	6160856
4.96283	6597879
4.97095	5538303
4.97908	3931830
4.98720	2691650
4.99532	1889856
5.00345	1456851
5.01157	1182923
5.01968	985553
5.02782	855956
5.03593	779814
5.04407	701591
5.05218	642623
5.06030	604253
5.06843	572471
5.07655	555104
5.08468	502590
5.09280	494405
5.10092	474275
5.10905	447573
5.11717	436354
5.12530	427780
5.13342	409322
5.14153	407607
5.14967	401759
5.15778	394893
5.16590	374008
5.17403	377469
5.18215	365363
5.19028	358846
5.19840	357287
5.20652	344659
5.21465	347169
5.22277	335993
5.23090	346417
5.23902	340210
5.24713	346483
5.25527	335376
5.26338	329868
5.27150	316666
5.27963	310992
5.28775	298582
5.29588	287300
5.30400	301036
5.31212	288257
5.32025	285450
5.32837	277872
5.33650	287219
5.34462	281065
5.35273	267979
5.36087	275032
5.36898	268982
5.37712	270779
5.38523	268594
5.39335	267153
5.40148	264679
5.40960	256248
5.41772	265706
5.42585	263629
5.43397	259794
5.44210	252155
5.45022	254943
5.45833	249967
5.46647	253200
5.47458	249012
5.48272	252566
5.49083	246841
5.49895	241953
5.50708	245242
5.51520	241487
5.52332	246244
5.53145	236166
5.53957	243831
5.54770	234652
5.55582	234006
5.56393	247312
5.57207	239301
5.58018	238995
5.58832	236039
5.59643	234723
5.60455	234583
5.61268	234818
5.62080	245557
5.62893	239687
5.63705	246595
5.64517	252685
5.65330	242306
5.66142	242377
5.66953	249258
5.67767	262265
5.68578	291929
5.69392	322895
5.70203	325827
5.71015	303543
5.71828	274377
5.72640	252355
5.73453	234153
5.74265	232242
5.75077	228945
5.75890	220994
5.76702	222828
5.77515	224371
5.78327	220465
5.79138	225333
5.79952	217974
5.80763	213247
5.81575	216318
5.82388	216326
5.83200	214945
5.84013	213018
5.84825	215585
5.85637	207819
5.86450	216919
5.87262	213684
5.88075	214880
5.88887	203042
5.89698	207023
5.90512	198814
5.91323	179201
5.92135	167745
5.92948	170363
5.93760	175934
5.94573	167769
5.95385	174181
5.96197	169726
5.97010	167408
5.97822	173768
5.98635	175046
5.99447	175077
6.00258	173702
6.01072	166072
6.01883	173342
6.02697	163707
6.03508	168455
6.04320	166579
6.05133	163825
6.05945	165943
6.06757	166629
6.07570	161840
6.08382	155911
6.09195	156001
6.10007	157887
6.10818	157703
6.11632	155744
6.12443	159427
6.13257	150239
6.14068	163933
6.14880	159965
6.15693	157689
6.16505	156787
6.17318	168448
6.18130	164986
6.18942	165477
6.19755	162553
6.20567	169470
6.21378	158687
6.22192	168763
6.23003	167493
6.23817	172575
6.24628	173717
6.25440	178528
6.26253	183561
6.27065	182179
6.27878	186381
6.28690	188624
6.29502	197080
6.30315	189132
6.31127	195416
6.31938	188245
6.32752	197188
6.33563	200035
6.34377	207519
6.35188	199353
6.36000	201336
6.36813	219360
6.37625	207966
6.38438	211367
6.39250	211865
6.40062	218930
6.40875	221469
6.41687	224294
6.42500	225165
6.43312	227084
6.44123	236057
6.44937	244499
6.45748	243140
6.46560	236980
6.47373	237294
6.48185	238040
6.48998	236750
6.49810	246949
6.50622	247692
6.51435	244318
6.52247	242513
6.53060	243228
6.53872	247891
6.54683	255460
6.55497	253135
6.56308	258148
6.57120	249078
6.57933	262948
6.58745	248622
6.59558	259969
6.60370	217594
6.61182	195573
6.61995	189673
6.62807	177148
6.63620	177373
6.64432	178579
6.65243	177599
6.66057	171830
6.66868	164510
6.67682	165287
6.68493	166887
6.69305	166351
6.70118	158133
6.70930	164331
6.71742	163185
6.72555	154060
6.73367	156217
6.74180	153244
6.74992	156861
6.75803	157789
6.76617	156771
6.77428	159848
6.78242	152010
6.79053	141643
6.79865	156445
6.80678	146277
6.81490	154776
6.82303	153615
6.83115	146259
6.83927	145970
6.84740	144744
6.85552	127740
6.86363	117327
6.87177	105519
6.87988	114241
6.88802	107702
6.89613	105018
6.90425	104101
6.91238	98906
6.92050	100223
6.92863	103720
6.93675	102270
6.94487	94718
6.95300	101893
6.96112	100906
6.96923	100993
6.97737	95896
6.98548	99847
6.99362	100872
7.00173	94477
7.00985	94953
7.01798	95627
7.02610	97832
7.03423	98171
7.04235	98074
7.05047	96525
7.05860	99100
7.06672	94643
7.07485	95629
7.08297	91073
7.09108	92193
7.09922	90791
7.10733	97421
7.11545	92097
7.12358	91821
7.13170	90121
7.13983	93709
7.14795	96498
7.15607	92679
7.16420	91746
7.17232	91184
7.18045	92396
7.18857	87388
7.19668	90901
7.20482	92838
7.21293	95222
7.22107	92210
7.22918	93484
7.23730	89869
7.24543	92887
7.25355	87761
7.26167	87053
7.26980	88025
7.27792	92037
7.28605	91470
7.29417	92096
7.30228	89746
7.31042	90261
7.31853	86957
7.32667	87355
7.33478	85633
7.34290	88210
7.35103	85144
7.35915	90518
7.36727	94641
7.37540	92733
7.38352	90324
7.39165	88120
7.39977	95911
7.40788	99882
7.41602	96266
7.42413	98995
7.43227	99012
7.44038	93582
7.44850	93826
7.45663	93882
7.46475	93469
7.47288	86851
7.48100	84037
7.48912	89186
7.49725	88170
7.50537	88060
7.51348	83353
7.52162	84697
7.52973	84453
7.53787	87050
7.54598	87263
7.55410	92307
7.56223	87334
7.57035	83757
7.57848	86682
7.58660	86458
7.59472	83027
7.60285	83183
7.61097	81771
7.61908	89775
7.62722	87430
7.63533	83896
7.64347	90446
7.65158	88532
7.65970	83328
7.66783	86643
7.67595	81131
7.68408	81185
7.69220	85018
7.70032	85267
7.70845	77991
7.71657	81838
7.72470	81664
7.73282	79449
7.74093	79650
7.74907	78691
7.75718	77449
7.76530	73047
7.77343	73326
7.78155	68439
7.78968	75236
7.79780	72162
7.80592	73840
7.81405	73512
7.82217	76314
7.83030	70519
7.83842	68115
7.84653	63724
7.85467	73246
7.86278	69331
7.87092	64994
7.87903	69363
7.88715	67680
7.89528	70575
7.90340	72125
7.91152	77646
7.91965	71508
7.92777	70346
7.93590	66464
7.94402	73183
7.95213	71424
7.96027	68762
7.96838	71102
7.97652	77085
7.98463	76467
7.99275	76347
8.00088	77125
8.00900	72433
8.01713	76316
8.02525	71650
8.03337	67231
8.04150	68730
8.04962	71935
8.05773	73329
8.06587	68856
8.07398	67897
8.08212	71948
8.09023	70700
8.09835	72636
8.10648	74392
8.11460	76108
8.12273	71259
8.13085	67562
8.13897	71085
8.14710	68807
8.15522	71333
8.16333	69886
8.17147	75389
8.17958	74026
8.18772	74567
8.19583	75011
8.20395	72730
8.21208	69951
8.22020	70811
8.22833	70290
8.23645	74171
8.24457	71299
8.25270	69774
8.26082	68520
8.26895	70891
8.27707	69795
8.28518	67404
8.29332	68105
8.30143	70546
8.30955	68848
8.31768	71427
8.32580	72750
8.33393	71495
8.34205	73498
8.35017	74957
8.35830	70720
8.36642	71526
8.37455	72200
8.38267	70281
8.39078	68212
8.39892	65785
8.40703	70906
8.41515	65364
8.42328	67010
8.43140	65656
8.43953	71509
8.44765	67655
8.45577	70730
8.46390	67019
8.47202	69818
8.48015	69505
8.48827	67748
8.49638	69602
8.50452	73656
8.51263	69050
8.52077	74474
8.52888	76753
8.53700	78484
8.54513	73639
8.55325	79549
8.56137	73561
8.56950	72393
8.57762	72512
8.58575	70454
8.59387	70746
8.60198	71648
8.61012	70804
8.61823	73236
8.62637	71682
8.63448	74220
8.64260	72125
8.65073	70523
8.65885	71045
8.66698	70516
8.67510	70124
8.68322	72056
8.69135	68334
8.69947	68583
8.70758	70285
8.71572	68606
8.72383	78062
8.73197	97017
8.74008	181347
8.74820	403302
8.75633	817004
8.76445	1293278
8.77258	1624612
8.78070	1569566
8.78882	1235657
8.79695	968721
8.80507	1001753
8.81318	805019
8.82132	526178
8.82943	412937
8.83757	365905
8.84568	322515
8.85380	291062
8.86193	270176
8.87005	254802
8.87818	234921
8.88630	228218
8.89442	227197
8.90255	212880
8.91067	204114
8.91880	204576
8.92692	202066
8.93503	185489
8.94317	190261
8.95128	186213
8.95940	183493
8.96753	179761
8.97565	176258
8.98378	175959
8.99190	174558
9.00002	173495
9.00815	170465
9.01627	171506
9.02440	168953
9.03252	163618
9.04063	162648
9.04877	160578
9.05688	161886
9.06502	152620
9.07313	159006
9.08125	161447
9.08938	154199
9.09750	148613
9.10562	149783
9.11375	151786
9.12187	150243
9.13000	141722
9.13812	144627
9.14623	145700
9.15437	147964
9.16248	142603
9.17062	140422
9.17873	190282
9.18685	1022401
9.19498	3748771
9.20310	4208250
9.21122	2331151
9.21935	1361623
9.22747	950636
9.23560	730542
9.24372	591605
9.25183	498139
9.25997	417587
9.26808	371568
9.27622	336230
9.28433	302369
9.29245	282841
9.30058	252941
9.30870	238784
9.31683	225206
9.32495	216374
9.33307	203367
9.34120	203911
9.34932	191967
9.35743	184461
9.36557	181451
9.37368	178826
9.38182	169399
9.38993	169482
9.39805	169753
9.40618	165545
9.41430	160121
9.42243	157279
9.43055	159603
9.43867	155320
9.44680	154400
9.45492	147723
9.46303	149554
9.47117	149619
9.47928	139008
9.48742	145017
9.49553	142035
9.50365	142195
9.51178	145014
9.51990	136183
9.52803	134882
9.53615	128629
9.54427	121037
9.55240	115458
9.56052	108616
9.56865	106348
9.57677	104889
9.58488	107519
9.59302	105620
9.60113	105108
9.60925	109342
9.61738	110895
9.62550	100308
9.63363	102239
9.64175	95352
9.64987	168197
9.65800	761749
9.66612	2100988
9.67425	2547193
9.68237	1768432
9.69048	1065794
9.69862	743801
9.70673	568428
9.71487	471159
9.72298	388548
9.73110	336478
9.73923	286224
9.74735	265223
9.75547	232143
9.76360	216726
9.77172	196226
9.77985	185237
9.78797	175508
9.79608	169777
9.80422	154836
9.81233	151100
9.82047	146319
9.82858	137260
9.83670	137598
9.84483	134279
9.85295	131642
9.86107	132417
9.86920	131555
9.87732	122383
9.88545	123540
9.89357	119783
9.90168	114965
9.90982	113667
9.91793	115617
9.92607	106466
9.93418	105012
9.94230	107630
9.95043	113531
9.95855	108371
9.96668	112482
9.97480	112896
9.98292	117528
9.99105	125693
9.99917	130243
10.00728	130778
10.01542	121939
10.02353	123599
10.03167	120677
10.03978	117799
10.04790	118743
10.05603	110324
10.06415	109098
10.07228	105805
10.08040	106653
10.08852	105119
10.09665	102057
10.10477	106663
10.11290	99654
10.12102	96494
10.12913	87892
10.13727	97650
10.14538	93808
10.15350	103682
10.16163	107085
10.16975	103196
10.17788	100977
10.18600	91772
10.19412	89050
10.20225	87570
10.21037	93926
10.21850	93202
10.22662	98073
10.23473	103130
10.24287	100714
10.25098	98939
10.25910	93997
10.26723	92952
10.27535	90666
10.28348	90696
10.29160	88625
10.29972	84894
10.30785	85932
10.31597	81710
10.32410	90175
10.33222	99513
10.34033	94968
10.34847	103454
10.35658	105420
10.36472	114465
10.37283	116118
10.38095	123699
10.38908	131690
10.39720	137726
10.40532	137190
10.41345	118977
10.42157	104983
10.42970	93525
10.43782	88381
10.44593	88755
10.45407	97361
10.46218	95665
10.47032	92807
10.47843	90569
10.48655	85808
10.49468	86886
10.50280	91331
10.51093	90509
10.51905	88819
10.52717	84383
10.53530	85577
10.54342	85363
10.55153	82666
10.55967	86846
10.56778	81106
10.57592	82787
10.58403	87862
10.59215	82486
10.60028	80383
10.60840	84757
10.61653	78639
10.62465	82189
10.63277	81106
10.64090	82826
10.64902	78150
10.65713	74469
10.66527	78448
10.67338	72612
10.68152	72609
10.68963	74120
10.69775	79056
10.70588	75282
10.71400	73496
10.72213	73390
10.73025	75093
10.73837	74059
10.74650	74249
10.75462	74671
10.76275	74350
10.77087	75122
10.77898	75412
10.78712	74946
10.79523	75902
10.80335	68407
10.81148	72548
10.81960	72525
10.82773	66545
10.83585	69782
10.84397	73312
10.85210	68842
10.86022	72190
10.86835	69751
10.87647	66981
10.88458	67092
10.89272	68137
10.90083	71415
10.90895	71596
10.91708	69907
10.92520	71044
10.93333	71584
10.94145	71327
10.94957	73827
10.95770	66727
10.96582	70507
10.97395	75005
10.98207	64805
10.99018	69058
10.99832	67040
11.00643	62730
11.01457	68167
11.02268	69237
11.03080	66222
11.03893	66793
11.04705	71019
11.05517	70978
11.06330	77267
11.07142	86147
11.07955	90744
11.08767	100110
11.09578	108703
11.10392	118810
11.11203	127979
11.12017	130494
11.12828	141813
11.13640	153515
11.14453	161467
11.15265	164952
11.16078	182918
11.16890	242068
11.17702	403322
11.18515	648354
11.19327	803560
11.20138	778650
11.20952	602714
11.21763	461800
11.22577	360433
11.23388	308609
11.24200	270329
11.25013	254856
11.25825	223284
11.26638	209591
11.27450	204225
11.28262	188455
11.29075	190796
11.29887	182812
11.30698	176117
11.31512	175090
11.32323	167870
11.33137	174761
11.33948	164884
11.34760	162710
11.35573	158750
11.36385	160995
11.37198	158888
11.38010	155742
11.38822	158025
11.39635	151227
11.40447	151126
11.41260	153045
11.42072	150605
11.42883	147116
11.43697	152974
11.44508	152651
11.45320	154672
11.46133	149314
11.46945	149125
11.47758	138066
11.48570	145793
11.49382	152164
11.50195	144927
11.51007	145765
11.51820	146060
11.52632	141086
11.53443	139867
11.54257	136976
11.55068	140370
11.55882	139229
11.56693	134927
11.57505	137478
11.58318	139023
11.59130	141158
11.59942	135219
11.60755	138832
11.61567	141906
11.62380	139428
11.63192	137419
11.64003	133938
11.64817	135520
11.65628	129409
11.66442	128662
11.67253	126662
11.68065	139287
11.68878	137386
11.69690	138454
11.70502	142233
11.71315	142718
11.72127	152633
11.72940	151126
11.73752	161578
11.74563	161640
11.75377	159051
11.76188	159033
11.77002	159551
11.77813	161825
11.78625	158410
11.79438	162373
11.80250	151185
11.81063	151344
11.81875	146781
11.82687	143308
11.83500	135626
11.84312	127382
11.85123	122044
11.85937	113504
11.86748	107907
11.87562	104987
11.88373	107510
11.89185	106044
11.89998	112725
11.90810	104912
11.91623	102832
11.92435	104461
11.93247	103894
11.94060	98131
11.94872	98660
11.95683	94543
11.96497	95752
11.97308	97504
11.98122	97395
11.98933	98408
11.99745	102136
12.00558	97727
12.01370	100897
12.02183	96782
12.02995	97380
12.03807	98459
12.04620	98156
12.05432	102858
12.06245	95900
12.07057	100367
12.07868	101593
12.08682	101442
12.09493	100249
12.10305	95818
12.11118	106569
12.11930	97262
12.12743	98857
12.13555	101962
12.14367	96215
12.15180	98796
12.15992	95153
12.16805	92750
12.17617	97552
12.18428	95552
12.19242	92997
12.20053	99171
12.20867	94389
12.21678	95509
12.22490	92103
12.23303	100255
12.24115	89972
12.24927	94215
12.25740	96547
12.26552	105273
12.27365	102042
12.28177	102151
12.28988	110059
12.29802	107239
12.30613	113134
12.31427	112440
12.32238	115018
12.33050	113774
12.33863	116461
12.34675	113994
12.35487	113881
12.36300	114550
12.37112	108240
12.37925	114290
12.38737	108990
12.39548	118568
12.40362	110963
12.41173	114883
12.41987	101860
12.42798	106500
12.43610	104513
12.44423	100530
12.45235	94628
12.46048	99241
12.46860	98388
12.47672	99281
12.48485	93694
12.49297	91431
12.50108	94176
12.50922	91985
12.51733	96217
12.52547	94059
12.53358	94813
12.54170	97258
12.54983	93078
12.55795	94289
12.56608	93422
12.57420	93847
12.58232	94879
12.59045	92378
12.59857	90069
12.60670	96042
12.61482	89823
12.62293	90119
12.63107	94043
12.63918	91321
12.64730	88678
12.65543	88118
12.66355	90890
12.67168	92372
12.67980	82041
12.68792	92587
12.69605	90687
12.70417	88058
12.71230	86177
12.72042	89708
12.72853	87328
12.73667	91829
12.74478	94529
12.75290	93601
12.76103	91347
12.76915	88520
12.77728	95192
12.78540	84878
12.79352	91163
12.80165	85182
12.80977	88058
12.81790	85652
12.82602	91578
12.83413	94934
12.84227	93835
12.85038	88884
12.85852	84456
12.86663	83786
12.87475	83013
12.88288	81108
12.89100	75151
12.89912	76907
12.90725	74601
12.91537	76034
12.92350	77764
12.93162	76454
12.93973	71221
12.94787	73658
12.95598	76827
12.96412	76860
12.97223	75011
12.98035	75168
12.98848	77231
12.99660	76086
13.00472	77816
13.01285	76250
13.02097	75396
13.02910	76306
13.03722	74776
13.04533	74893
13.05347	71500
13.06158	77058
13.06972	74473
13.07783	75367
13.08595	75344
13.09408	77515
13.10220	78914
13.11033	75311
13.11845	74080
13.12657	74706
13.13470	77909
13.14282	80040
13.15093	78484
13.15907	76835
13.16718	83171
13.17532	83772
13.18343	84459
13.19155	77309
13.19968	81564
13.20780	73644
13.21593	71935
13.22405	70539
13.23217	72371
13.24030	71664
13.24842	70161
13.25655	69819
13.26467	68546
13.27278	69637
13.28092	68884
13.28903	67850
13.29715	73638
13.30528	68980
13.31340	65364
13.32153	66109
13.32965	64344
13.33777	65835
13.34590	62294
13.35402	66548
13.36215	70421
13.37027	66598
13.37838	63987
13.38652	67267
13.39463	63431
13.40277	70085
13.41088	66196
13.41900	64964
13.42713	63389
13.43525	66063
13.44337	66894
13.45150	67717
13.45962	65174
13.46775	63109
13.47587	64349
13.48398	61652
13.49212	62146
13.50023	63973
13.50837	60669
13.51648	65648
13.52460	64999
13.53273	64195
13.54085	63027
13.54897	63843
13.55710	67371
13.56522	64343
13.57335	67191
13.58147	64091
13.58958	61863
13.59772	70422
13.60583	62983
13.61397	65822
13.62208	65116
13.63020	64933
13.63833	65940
13.64645	59923
13.65458	62290
13.66270	66969
13.67082	70311
13.67895	72607
13.68707	65733
13.69518	74227
13.70332	66858
13.71143	67413
13.71957	67212
13.72768	69566
13.73580	68346
13.74393	66614
13.75205	71632
13.76018	66100
13.76830	64143
13.77642	70659
13.78455	71051
13.79267	67490
13.80078	70638
13.80892	69665
13.81703	68006
13.82517	70594
13.83328	69735
13.84140	69407
13.84953	67858
13.85765	73328
13.86578	70758
13.87390	71956
13.88202	68754
13.89015	74199
13.89827	73258
13.90640	73235
13.91452	72788
13.92263	75374
13.93077	72523
13.93888	70390
13.94700	70058
13.95513	73713
13.96325	65882
13.97138	67130
13.97950	66972
13.98762	64078
13.99575	68835
14.00387	65532
14.01200	68861
14.02012	70489
14.02823	73654
14.03637	70891
14.04448	71933
14.05262	70183
14.06073	70524
14.06885	68623
14.07698	68182
14.08510	68371
14.09322	71568
14.10135	63758
14.10947	64038
14.11760	64743
14.12572	66659
14.13383	73614
14.14197	92859
14.15008	143325
14.15822	245131
14.16633	377096
14.17445	514748
14.18258	574500
14.19070	538315
14.19882	429979
14.20695	328876
14.21507	260964
14.22320	225419
14.23132	200223
14.23943	185976
14.24757	167844
14.25568	160601
14.26382	155241
14.27193	143095
14.28005	136455
14.28818	129613
14.29630	118143
14.30443	123185
14.31255	117844
14.32067	108839
14.32880	96137
14.33692	88730
14.34503	79860
14.35317	72882
14.36128	71034
14.36942	70243
14.37753	74169
14.38565	68379
14.39378	67790
14.40190	67203
14.41003	70282
14.41815	67340
14.42627	67414
14.43440	65600
14.44252	67189
14.45065	69105
14.45877	65209
14.46688	70236
14.47502	66515
14.48313	62630
14.49125	62726
14.49938	66703
14.50750	65698
14.51563	69699
14.52375	70076
14.53187	67330
14.54000	69380
14.54812	70387
14.55625	69322
14.56437	66688
14.57248	68354
14.58062	69411
14.58873	69303
14.59685	68302
14.60498	64605
14.61310	67264
14.62123	68837
14.62935	68024
14.63747	70370
14.64560	64545
14.65372	64878
14.66185	68659
14.66997	65882
14.67808	62078
14.68622	66257
14.69433	66888
14.70247	62335
14.71058	68626
14.71870	67358
14.72683	66036
14.73495	66013
14.74307	64864
14.75120	62411
14.75932	62717
14.76745	61645
14.77557	66720
14.78368	65373
14.79182	69809
14.79993	88655
14.80807	125541
14.81618	194059
14.82430	233710
14.83243	237270
14.84055	212815
14.84867	160922
14.85680	128821
14.86492	106686
14.87305	92785
14.88117	82000
14.88928	81510
14.89742	76692
14.90553	80123
14.91367	73526
14.92178	72241
14.92990	72496
14.93803	68024
14.94615	66438
14.95428	64306
14.96240	67381
14.97052	67377
14.97865	66001
14.98677	67420
14.99488	65519
15.00302	66716
15.01113	63552
15.01927	63301
15.02738	62487
15.03550	63441
15.04363	63300
15.05175	61048
15.05988	61232
15.06800	61993
15.07612	62647
15.08425	61526
15.09237	63233
15.10050	61300
15.10862	65138
15.11673	59895
15.12487	64307
15.13298	64063
15.14110	59187
15.14923	60776
15.15735	55360
15.16548	60616
15.17360	58958
15.18172	57420
15.18985	56335
15.19797	57435
15.20610	56527
15.21422	57379
15.22233	61510
15.23047	53172
15.23858	55150
15.24670	49449
15.25483	61938
15.26295	54766
15.27108	56738
15.27920	54183
15.28732	53062
15.29545	56681
15.30357	54898
15.31170	54059
15.31982	58919
15.32793	51586
15.33607	54182
15.34418	145699
15.35232	454722
15.36043	415716
15.36855	188006
15.37668	112492
15.38480	98390
15.39292	85777
15.40105	78610
15.40917	78454
15.41730	78876
15.42542	71840
15.43353	68793
15.44167	64972
15.44978	70619
15.45792	69899
15.46603	68197
15.47415	68707
15.48228	63480
15.49040	68472
15.49853	65914
15.50665	66454
15.51477	102948
15.52290	1908943
15.53102	5390767
15.53913	2957921
15.54727	1309605
15.55538	818668
15.56352	582489
15.57163	447795
15.57975	374497
15.58788	300870
15.59600	269465
15.60413	241266
15.61225	220989
15.62037	198339
15.62850	186548
15.63662	165326
15.64473	159113
15.65287	180251
15.66098	1069147
15.66912	3437111
15.67723	2534294
15.68535	1188478
15.69348	745200
15.70160	543442
15.70973	418769
15.71785	346896
15.72597	302722
15.73410	260899
15.74222	234296
15.75035	210836
15.75847	191078
15.76658	184744
15.77472	164480
15.78283	162931
15.79095	142973
15.79908	145738
15.80720	142410
15.81533	135048
15.82345	128699
15.83157	127371
15.83970	123466
15.84782	121368
15.85595	115441
15.86407	114673
15.87218	117415
15.88032	117191
15.88843	113639
15.89657	107437
15.90468	105935
15.91280	108650
15.92093	111397
15.92905	121834
15.93717	106038
15.94530	103721
15.95342	101465
15.96155	99414
15.96967	101377
15.97778	97803
15.98592	103973
15.99403	125854
16.00217	157462
16.01028	176940
16.01840	166803
16.02653	156217
16.03465	139699
16.04277	140332
16.05090	142169
16.05902	130729
16.06715	128864
16.07527	132519
16.08338	126923
16.09152	130901
16.09963	176887
16.10777	500647
16.11588	986316
16.12400	881492
16.13213	563878
16.14025	376564
16.14838	294009
16.15650	235231
16.16462	208083
16.17275	187562
16.18087	170824
16.18898	160851
16.19712	147363
16.20523	138518
16.21337	134534
16.22148	131574
16.22960	127531
16.23773	128917
16.24585	123843
16.25398	117157
16.26210	121910
16.27022	112865
16.27835	117353
16.28647	113398
16.29458	107662
16.30272	107618
16.31083	110069
16.31897	100753
16.32708	104883
16.33520	104511
16.34333	96027
16.35145	94609
16.35958	99971
16.36770	93403
16.37582	89173
16.38395	93786
16.39207	92000
16.40020	91307
16.40832	89090
16.41643	90049
16.42457	87724
16.43268	91568
16.44080	89917
16.44893	86412
16.45705	84738
16.46518	83034
16.47330	88396
16.48142	84139
16.48955	87605
16.49767	85243
16.50580	81946
16.51392	84844
16.52203	87846
16.53017	85394
16.53828	84611
16.54642	88852
16.55453	86405
16.56265	89229
16.57078	88330
16.57890	86065
16.58702	81555
16.59515	81408
16.60327	83111
16.61140	87452
16.61952	80721
16.62763	79880
16.63577	76061
16.64388	77403
16.65202	80408
16.66013	82505
16.66825	78308
16.67638	80085
16.68450	80570
16.69262	79912
16.70075	80142
16.70887	80960
16.71700	82472
16.72512	78257
16.73323	76302
16.74137	78650
16.74948	78666
16.75762	83660
16.76573	78349
16.77385	80716
16.78198	77428
16.79010	76330
16.79823	80173
16.80635	78129
16.81447	85121
16.82260	84377
16.83072	79507
16.83883	79262
16.84697	82532
16.85508	75362
16.86322	74921
16.87133	80026
16.87945	74535
16.88758	76092
16.89570	79716
16.90383	85219
16.91195	78340
16.92007	82747
16.92820	78930
16.93632	76085
16.94445	80282
16.95257	83391
16.96068	79140
16.96882	83874
16.97693	82352
16.98505	79405
16.99318	75861
17.00130	75961
17.00943	73479
17.01755	73601
17.02567	70112
17.03380	78283
17.04192	73102
17.05005	74705
17.05817	72342
17.06628	79081
17.07442	74250
17.08253	74090
17.09065	75489
17.09878	74714
17.10690	75439
17.11503	71722
17.12315	71684
17.13127	70046
17.13940	79405
17.14752	69051
17.15565	76828
17.16377	72981
17.17188	74462
17.18002	73700
17.18813	75619
17.19627	73555
17.20438	75248
17.21250	71656
17.22063	72228
17.22875	71804
17.23687	74741
17.24500	72880
17.25312	74272
17.26125	72041
17.26937	75896
17.27748	68160
17.28562	70679
17.29373	70258
17.30187	73709
17.30998	72571
17.31810	73918
17.32623	71526
17.33435	75295
17.34247	80117
17.35060	79667
17.35872	73416
17.36685	79800
17.37497	84245
17.38308	81390
17.39122	79098
17.39933	81232
17.40747	81365
17.41558	78546
17.42370	81220
17.43183	85517
17.43995	79453
17.44808	72054
17.45620	80851
17.46432	79980
17.47245	77485
17.48057	76374
17.48868	78000
17.49682	76687
17.50493	72939
17.51307	80958
17.52118	103094
17.52930	163285
17.53743	245435
17.54555	270222
17.55368	222365
17.56180	165761
17.56992	144860
17.57805	119299
17.58617	105837
17.59430	98904
17.60242	96788
17.61053	92036
17.61867	85034
17.62678	83945
17.63490	84774
17.64303	78137
17.65115	79067
17.65928	77804
17.66740	94659
17.67552	82254
17.68365	79175
17.69177	79438
17.69990	79580
17.70802	76802
17.71613	79719
17.72427	80597
17.73238	79903
17.74050	71602
17.74863	76005
17.75675	72814
17.76488	72095
17.77300	73347
17.78112	70957
17.78925	72646
17.79737	67423
17.80550	76016
17.81362	70113
17.82173	64351
17.82987	65913
17.83798	70966
17.84612	71575
17.85423	70244
17.86235	73392
17.87048	71164
17.87860	76387
17.88672	65456
17.89485	67298
17.90297	65162
17.91110	58933
17.91922	68561
17.92733	66058
17.93547	66979
17.94358	64520
17.95172	60254
17.95983	68428
17.96795	71593
17.97608	65560
17.98420	62371
17.99233	59010
18.00045	65282
18.00857	63132
18.01670	67822
18.02482	66369
18.03293	67578
18.04107	67704
18.04918	71890
18.05732	69057
18.06543	67140
18.07355	64544
18.08168	69234
18.08980	72541
18.09793	72836
18.10605	77473
18.11417	78465
18.12230	78189
18.13042	80203
18.13853	74239
18.14667	72462
18.15478	76867
18.16292	75200
18.17103	80681
18.17915	90200
18.18728	105843
18.19540	107503
18.20353	117216
18.21165	126549
18.21977	123283
18.22790	130300
18.23602	134123
18.24415	126736
18.25227	132362
18.26038	132105
18.26852	125979
18.27663	135203
18.28475	123248
18.29288	123621
18.30100	119752
18.30913	120452
18.31725	110654
18.32537	119559
18.33350	114298
18.34162	112339
18.34975	117181
18.35787	116070
18.36598	102505
18.37412	106355
18.38223	106056
18.39035	109310
18.39848	103532
18.40660	104080
18.41473	111767
18.42285	102342
18.43097	100142
18.43910	97307
18.44722	95116
18.45535	90057
18.46347	90279
18.47158	91658
18.47972	93490
18.48783	95407
18.49597	89658
18.50408	90874
18.51220	85534
18.52033	84783
18.52845	87282
18.53657	86337
18.54470	83593
18.55282	80817
18.56095	78784
18.56907	81450
18.57718	80341
18.58532	78430
18.59343	77110
18.60157	80126
18.60968	87454
18.61780	81382
18.62593	86901
18.63405	84505
18.64218	82775
18.65030	82335
18.65842	77071
18.66655	81719
18.67467	82619
18.68278	76760
18.69092	76918
18.69903	78317
18.70717	75269
18.71528	80179
18.72340	78325
18.73153	78037
18.73965	75141
18.74778	76333
18.75590	73717
18.76402	77222
18.77215	72221
18.78027	74012
18.78840	69168
18.79652	70514
18.80463	71190
18.81277	72867
18.82088	69997
18.82900	65058
18.83713	63201
18.84525	68263
18.85338	68047
18.86150	72679
18.86962	69517
18.87775	68392
18.88587	71627
18.89400	71277
18.90212	70681
18.91023	72302
18.91837	81445
18.92648	72262
18.93460	77025
18.94273	75000
18.95085	74812
18.95898	72612
18.96710	74101
18.97522	74889
18.98335	71703
18.99147	74663
18.99960	70370
19.00772	72075
19.01583	66182
19.02397	69142
19.03208	68757
19.04022	68185
19.04833	70163
19.05645	73012
19.06458	72130
19.07270	74097
19.08082	78006
19.08895	83326
19.09707	87457
19.10520	94947
19.11332	94407
19.12143	97214
19.12957	94108
19.13768	90966
19.14582	94007
19.15393	90899
19.16205	88694
19.17018	82644
19.17830	83790
19.18642	78583
19.19455	86679
19.20267	88572
19.21080	78648
19.21892	72316
19.22703	75506
19.23517	72381
19.24328	71213
19.25142	66613
19.25953	72129
19.26765	77007
19.27578	76982
19.28390	78204
19.29203	86176
19.30015	85875
19.30827	87577
19.31640	81266
19.32452	77847
19.33263	77191
19.34077	76223
19.34888	75639
19.35702	78122
19.36513	75610
19.37325	68958
19.38138	74074
19.38950	71332
19.39763	75440
19.40575	70799
19.41387	73535
19.42200	68738
19.43012	73110
19.43825	84588
19.44637	111193
19.45448	159456
19.46262	246905
19.47073	317027
19.47885	355865
19.48698	354583
19.49510	296153
19.50323	217535
19.51135	143653
19.51947	112800
19.52760	84195
19.53572	81808
19.54385	77717
19.55197	76598
19.56008	72866
19.56822	79412
19.57633	89107
19.58445	101692
19.59258	119938
19.60070	135027
19.60883	138364
19.61695	133331
19.62507	134109
19.63320	162093
19.64132	223996
19.64945	321536
19.65757	394635
19.66568	428651
19.67382	416251
19.68193	355233
19.69007	284729
19.69818	207572
19.70630	176531
19.71443	136266
19.72255	119833
19.73067	107236
19.73880	96192
19.74692	85860
19.75505	87083
19.76317	81992
19.77128	77347
19.77942	74870
19.78753	75850
19.79567	74507
19.80378	71423
19.81190	75046
19.82003	70995
19.82815	69659
19.83628	70125
19.84440	71179
19.85252	63909
19.86065	70104
19.86877	74604
19.87688	85742
19.88502	108772
19.89313	142618
19.90127	169594
19.90938	208423
19.91750	235883
19.92563	247473
19.93375	250884
19.94188	252826
19.95000	252180
19.95812	245163
19.96625	232938
19.97437	219892
19.98248	212271
19.99062	201678
19.99873	199579
20.00687	185697
20.01498	185662
20.02310	176440
20.03123	161637
20.03935	145699
20.04748	140389
20.05560	115416
20.06372	100968
20.07185	95741
20.07997	88889
20.08810	83742
20.09622	77065
20.10433	82766
20.11247	76575
20.12058	81010
20.12870	79830
20.13683	78763
20.14495	74282
20.15308	75898
20.16120	73517
20.16932	75568
20.17745	74094
20.18557	75225
20.19370	72519
20.20182	76398
20.20993	74804
20.21807	79896
20.22618	100000
20.23430	132892
20.24243	178605
20.25055	240369
20.25868	305493
20.26680	337552
20.27492	335993
20.28305	291834
20.29117	233894
20.29930	187782
20.30742	166354
20.31553	127885
20.32367	116014
20.33178	108999
20.33992	99746
20.34803	88715
20.35615	88554
20.36428	85130
20.37240	84696
20.38052	83550
20.38865	85987
20.39677	94762
20.40490	107507
20.41302	120327
20.42113	129310
20.42927	135886
20.43738	143738
20.44552	144124
20.45363	135435
20.46175	125490
20.46988	113962
20.47800	108528
20.48613	100844
20.49425	92734
20.50237	90568
20.51050	98681
20.51862	112482
20.52673	128597
20.53487	141515
20.54298	135535
20.55112	116721
20.55923	105893
20.56735	98687
20.57548	87387
20.58360	83754
20.59173	86677
20.59985	85719
20.60797	83179
20.61610	80710
20.62422	83626
20.63233	79960
20.64047	76759
20.64858	78869
20.65672	73617
20.66483	73356
20.67295	72807
20.68108	76476
20.68920	72788
20.69733	73627
20.70545	72407
20.71357	70195
20.72170	69533
20.72982	71687
20.73795	77555
20.74607	65867
20.75418	71582
20.76232	68988
20.77043	69361
20.77855	72094
20.78668	72470
20.79480	72368
20.80293	71666
20.81105	68320
20.81917	67564
20.82730	75536
20.83542	70959
20.84355	67249
20.85167	69097
20.85978	68427
20.86792	64405
20.87603	66303
20.88417	67035
20.89228	63726
20.90040	70294
20.90853	63090
20.91665	63856
20.92477	65665
20.93290	68083
20.94102	65076
20.94915	61606
20.95727	65044
20.96538	70321
20.97352	66929
20.98163	66557
20.98977	68179
20.99788	66983
21.00600	61254
21.01413	63981
21.02225	67307
21.03037	69693
21.03850	70391
21.04662	66932
21.05475	68816
21.06287	67348
21.07098	68869
21.07912	67195
21.08723	64994
21.09537	69334
21.10348	67083
21.11160	66390
21.11973	64809
21.12785	70229
21.13598	64481
21.14410	64501
21.15222	70132
21.16035	66773
21.16847	65979
21.17658	67921
21.18472	67845
21.19283	69794
21.20097	64814
21.20908	66917
21.21720	76711
21.22533	73016
21.23345	78458
21.24158	86683
21.24970	89182
21.25782	88714
21.26595	82731
21.27407	79471
21.28220	73444
21.29032	75482
21.29843	70452
21.30657	74450
21.31468	69331
21.32280	71045
21.33093	72221
21.33905	69581
21.34718	67781
21.35530	65223
21.36342	69952
21.37155	63514
21.37967	66727
21.38780	65723
21.39592	68939
21.40403	65948
21.41217	69697
21.42028	71183
21.42840	68493
21.43653	68633
21.44465	69580
21.45278	66129
21.46090	66840
21.46902	65637
21.47715	65419
21.48527	80951
21.49340	76229
21.50152	78343
21.50963	80117
21.51777	79404
21.52588	75982
21.53402	70401
21.54213	70551
21.55025	70293
21.55838	68628
21.56650	70684
21.57462	75600
21.58275	86660
21.59087	106279
21.59900	132270
21.60712	149533
21.61523	162469
21.62337	168744
21.63148	151151
21.63962	129488
21.64773	107397
21.65585	99519
21.66398	86682
21.67210	84628
21.68022	78450
21.68835	75957
21.69647	81608
21.70460	82313
21.71272	83319
21.72083	78419
21.72897	78932
21.73708	79137
21.74522	71779
21.75333	74485
21.76145	75789
21.76958	81210
21.77770	82881
21.78583	100002
21.79395	106008
21.80207	114874
21.81020	125006
21.81832	128924
21.82643	121998
21.83457	105939
21.84268	95165
21.85082	86016
21.85893	77355
21.86705	82336
21.87518	76810
21.88330	76979
21.89143	77116
21.89955	80817
21.90767	79750
21.91580	76567
21.92392	70269
21.93205	72553
21.94017	69784
21.94828	69467
21.95642	68694
21.96453	65549
21.97265	68921
21.98078	62514
21.98890	62793
21.99703	58957
22.00515	60863
22.01327	59858
22.02140	58833
22.02952	60357
22.03765	59320
22.04577	61668
22.05388	60040
22.06202	62078
22.07013	60020
22.07825	59677
22.08638	56042
22.09450	60081
22.10263	59445
22.11075	62555
22.11887	67711
22.12700	60998
22.13512	62233
22.14325	63270
22.15137	56899
22.15948	56990
22.16762	57509
22.17573	55349
22.18387	66797
22.19198	66589
22.20010	71681
22.20823	71308
22.21635	66563
22.22447	61933
22.23260	59430
22.24072	55596
22.24885	54780
22.25697	49683
22.26508	53441
22.27322	52117
22.28133	51957
22.28947	56822
22.29758	52146
22.30570	53957
22.31383	55347
22.32195	51045
22.33008	53591
22.33820	59203
22.34632	52385
22.35445	54390
22.36257	55252
22.37068	59742
22.37882	51949
22.38693	58498
22.39507	54153
22.40318	55831
22.41130	59333
22.41943	58798
22.42755	55430
22.43568	57970
22.44380	58543
22.45192	57395
22.46005	57429
22.46817	54819
22.47628	58991
22.48442	58571
22.49253	57854
22.50067	57291
22.50878	52723
22.51690	56431
22.52503	55267
22.53315	52257
22.54128	54188
22.54940	58066
22.55752	52846
22.56565	53858
22.57377	56977
22.58190	55494
22.59002	56353
22.59813	53587
22.60627	51611
22.61438	51966
22.62250	50942
22.63063	49197
22.63875	45990
22.64688	49456
22.65500	47056
22.66312	49914
22.67125	49275
22.67937	49628
22.68750	50931
22.69562	55582
22.70373	51858
22.71187	53742
22.71998	53485
22.72810	52398
22.73623	51383
22.74435	53790
22.75248	52004
22.76060	50928
22.76872	49084
22.77685	49843
22.78497	48706
22.79310	47087
22.80122	44894
22.80933	46128
22.81747	51367
22.82558	50492
22.83372	47837
22.84183	48724
22.84995	47307
22.85808	46488
22.86620	50650
22.87432	54255
22.88245	55078
22.89057	53076
22.89870	59821
22.90682	64065
22.91493	71391
22.92307	79873
22.93118	101301
22.93932	94594
22.94743	95347
22.95555	100043
22.96368	89532
22.97180	88705
22.97993	82410
22.98805	77537
22.99617	72904
23.00430	66851
23.01242	68623
23.02053	65876
23.02867	62157
23.03678	57569
23.04492	57348
23.05303	53630
23.06115	53773
23.06928	50715
23.07740	51735
23.08553	48596
23.09365	49419
23.10177	50696
23.10990	47884
23.11802	45550
23.12613	45720
23.13427	49606
23.14238	49222
23.15052	49268
23.15863	49940
23.16675	48206
23.17488	49590
23.18300	50183
23.19113	48089
23.19925	47011
23.20737	44062
23.21550	48164
23.22362	51311
23.23175	50898
23.23987	53529
23.24798	48560
23.25612	49204
23.26423	50549
23.27235	50735
23.28048	56101
23.28860	51170
23.29673	51720
23.30485	50417
23.31297	48348
23.32110	48172
23.32922	49623
23.33735	44241
23.34547	51148
23.35358	48584
23.36172	45731
23.36983	47884
23.37797	49373
23.38608	46902
23.39420	46136
23.40233	52862
23.41045	46674
23.41857	45547
23.42670	47883
23.43482	50454
23.44295	46435
23.45107	48449
23.45918	44743
23.46732	50987
23.47543	45942
23.48357	44575
23.49168	44000
23.49980	48391
23.50793	42306
23.51605	45031
23.52417	47188
23.53230	48945
23.54042	47601
23.54855	46946
23.55667	49356
23.56478	50102
23.57292	50910
23.58103	51727
23.58917	52835
23.59728	54717
23.60540	54779
23.61353	56606
23.62165	55175
23.62978	54674
23.63790	56412
23.64602	60743
23.65415	64042
23.66227	68227
23.67038	71360
23.67852	70666
23.68663	73604
23.69477	74284
23.70288	73717
23.71100	72808
23.71913	76099
23.72725	101366
23.73538	206913
23.74350	537493
23.75162	1446229
23.75975	3251077
23.76787	5571999
23.77598	7406670
23.78412	8309837
23.79223	7882164
23.80037	6324549
23.80848	4627679
23.81660	3211392
23.82473	2195437
23.83285	1535762
23.84098	1134889
23.84910	897986
23.85722	745486
23.86535	683722
23.87347	717159
23.88160	851562
23.88972	1056416
23.89783	1211118
23.90597	1269219
23.91408	1196967
23.92220	1020817
23.93033	806982
23.93845	654076
23.94658	547948
23.95470	444979
23.96282	371814
23.97095	333224
23.97907	296616
23.98720	279980
23.99532	255462
24.00343	234239
24.01157	230647
24.01968	215419
24.02782	203923
24.03593	201132
24.04405	187969
24.05218	175628
24.06030	172114
24.06842	172621
24.07655	176319
24.08467	176552
24.09280	178425
24.10092	184869
24.10903	179877
24.11717	174023
24.12528	165500
24.13342	153615
24.14153	150882
24.14965	145055
24.15778	150318
24.16590	158536
24.17403	160705
24.18215	165011
24.19027	172875
24.19840	176454
24.20652	171811
24.21463	174131
24.22277	164399
24.23088	156678
24.23902	155453
24.24713	146793
24.25525	143393
24.26338	130478
24.27150	117802
24.27963	114094
24.28775	109998
24.29587	112701
24.30400	108266
24.31212	106553
24.32023	110697
24.32837	125966
24.33648	150384
24.34462	191976
24.35273	261297
24.36085	307099
24.36898	336346
24.37710	317429
24.38523	269138
24.39335	203855
24.40147	170041
24.40960	130617
24.41772	115785
24.42585	108118
24.43397	113126
24.44208	116041
24.45022	127954
24.45833	142969
24.46645	155928
24.47458	176292
24.48270	219297
24.49083	323341
24.49895	523049
24.50707	822502
24.51520	1110156
24.52332	1241437
24.53145	1182771
24.53957	994524
24.54768	751907
24.55582	555648
24.56393	419745
24.57205	340170
24.58018	272251
24.58830	237230
24.59643	215307
24.60455	202064
24.61267	200790
24.62080	191138
24.62892	185732
24.63705	184361
24.64517	165033
24.65328	145713
24.66142	142805
24.66953	136862
24.67767	128917
24.68578	122069
24.69390	120966
24.70203	116201
24.71015	107800
24.71827	104461
24.72640	101631
24.73452	100895
24.74265	101706
24.75077	101468
24.75888	93372
24.76702	98692
24.77513	95428
24.78327	96981
24.79138	90347
24.79950	93801
24.80763	94211
24.81575	91721
24.82388	93274
24.83200	88368
24.84012	90910
24.84825	90412
24.85637	89151
24.86448	90637
24.87262	95089
24.88073	85573
24.88887	90712
24.89698	90081
24.90510	79300
24.91323	85523
24.92135	82453
24.92948	81582
24.93760	82373
24.94572	82000
24.95385	78084
24.96197	76890
24.97008	79741
24.97822	77222
24.98633	74746
24.99447	76596
25.00258	79945
25.01070	71112
25.01883	73056
25.02695	78338
25.03508	75236
25.04320	76633
25.05132	71649
25.05945	72763
25.06757	74218
25.07570	72268
25.08382	76641
25.09193	77266
25.10007	74923
25.10818	73851
25.11630	75818
25.12443	80377
25.13255	79670
25.14068	84830
25.14880	87515
25.15692	85416
25.16505	89834
25.17317	84160
25.18130	84572
25.18942	78655
25.19753	75604
25.20567	71530
25.21378	72208
25.22192	70976
25.23003	74806
25.23815	74895
25.24628	68194
25.25440	71752
25.26252	69500
25.27065	68850
25.27877	75788
25.28690	77224
25.29502	78958
25.30313	83449
25.31127	86788
25.31938	85825
25.32752	87831
25.33563	77852
25.34375	78567
25.35188	77944
25.36000	69120
25.36812	71351
25.37625	68154
25.38437	64288
25.39250	64043
25.40062	67880
25.40873	69046
25.41687	66411
25.42498	73859
25.43312	73602
25.44123	75017
25.44935	78459
25.45748	72225
25.46560	70803
25.47373	73989
25.48185	80348
25.48997	76775
25.49810	80426
25.50622	75543
25.51433	76175
25.52247	72286
25.53058	71944
25.53872	69224
25.54683	67660
25.55495	64089
25.56308	62483
25.57120	66351
25.57933	58757
25.58745	62463
25.59557	62384
25.60370	60294
25.61182	58604
25.61993	61871
25.62807	61259
25.63618	60233
25.64432	59259
25.65243	58324
25.66055	54172
25.66868	58949
25.67680	57100
25.68493	58307
25.69305	56477
25.70117	61345
25.70930	58757
25.71742	51519
25.72555	58623
25.73367	59273
25.74178	58434
25.74992	56835
25.75803	59612
25.76615	56976
25.77428	60481
25.78240	56633
25.79053	63083
25.79865	57913
25.80677	64026
25.81490	59631
25.82302	63391
25.83115	59257
25.83927	60512
25.84738	59418
25.85552	53423
25.86363	60268
25.87177	61495
25.87988	63278
25.88800	58703
25.89613	57023
25.90425	60235
25.91237	57592
25.92050	61795
25.92862	61962
25.93675	64654
25.94487	64122
25.95298	69856
25.96112	60049
25.96923	63254
25.97737	59824
25.98548	60967
25.99360	60630
26.00173	54218
26.00985	55304
26.01797	51355
26.02610	60278
26.03422	56619
26.04235	56369
26.05047	56983
26.05858	55574
26.06672	57986
26.07483	53749
26.08297	58907
26.09108	53267
26.09920	56016
26.10733	65964
26.11545	65656
26.12358	71673
26.13170	72599
26.13982	73567
26.14795	81393
26.15607	77930
26.16418	78160
26.17232	75791
26.18043	75677
26.18857	76664
26.19668	72936
26.20480	70769
26.21293	70194
26.22105	64732
26.22918	68091
26.23730	65250
26.24542	62143
26.25355	63699
26.26167	61397
26.26980	64157
26.27792	58497
26.28603	63432
26.29417	58973
26.30228	57355
26.31040	57541
26.31853	59350
26.32665	62380
26.33478	61934
26.34290	62218
26.35102	57904
26.35915	56312
26.36727	58195
26.37540	59383
26.38352	62926
26.39163	58579
26.39977	57422
26.40788	58350
26.41600	58195
26.42413	56910
26.43225	58084
26.44038	55805
26.44850	57876
26.45662	61554
26.46475	60473
26.47287	58559
26.48100	57875
26.48912	60943
26.49723	62001
26.50537	58893
26.51348	61207
26.52162	59318
26.52973	56288
26.53785	57506
26.54598	58591
26.55410	55730
26.56222	61410
26.57035	57833
26.57847	59972
26.58660	56773
26.59472	55611
26.60283	57630
26.61097	59227
26.61908	61743
26.62722	56734
26.63533	56597
26.64345	61888
26.65158	62048
26.65970	59876
26.66783	64018
26.67595	67581
26.68407	62192
26.69220	67269
26.70032	64105
26.70843	64258
26.71657	60171
26.72468	61925
26.73282	68165
26.74093	66410
26.74905	63998
26.75718	68034
26.76530	65749
26.77343	65020
26.78155	67286
26.78967	70753
26.79780	66958
26.80592	73711
26.81403	71421
26.82217	81400
26.83028	81301
26.83842	77284
26.84653	75159
26.85465	81723
26.86278	77536
26.87090	77923
26.87903	78822
26.88715	86906
26.89527	89427
26.90340	88144
26.91152	98534
26.91965	108335
26.92777	125038
26.93588	171517
26.94402	305140
26.95213	637756
26.96025	1470032
26.96838	3350403
26.97650	7079636
26.98463	1.115701E+07
26.99275	1.405112E+07
27.00087	1.397454E+07
27.00900	1.268559E+07
27.01712	1.031636E+07
27.02525	8035693
27.03337	6574900
27.04148	5097587
27.04962	3747067
27.05773	2755425
27.06585	2043237
27.07398	1505903
27.08210	1177442
27.09023	945317
27.09835	774271
27.10647	643324
27.11460	553108
27.12272	489413
27.13085	431137
27.13897	406625
27.14708	377475
27.15522	346906
27.16333	327032
27.17147	308796
27.17958	290198
27.18770	287366
27.19583	262278
27.20395	255307
27.21207	239869
27.22020	223626
27.22832	207625
27.23645	216166
27.24457	222776
27.25268	255712
27.26082	327819
27.26893	478659
27.27707	685163
27.28518	922409
27.29330	1085937
27.30143	1185181
27.30955	1123011
27.31768	1018242
27.32580	833672
27.33392	683269
27.34205	559607
27.35017	461624
27.35828	383661
27.36642	322733
27.37453	275025
27.38267	254461
27.39078	225479
27.39890	209057
27.40703	192976
27.41515	187044
27.42328	174731
27.43140	172471
27.43952	159710
27.44765	154464
27.45577	152489
27.46388	148992
27.47202	150866
27.48013	150857
27.48827	149856
27.49638	141303
27.50450	137627
27.51263	128181
27.52075	128156
27.52888	121183
27.53700	119232
27.54512	122488
27.55325	117692
27.56137	116708
27.56950	121271
27.57762	118955
27.58573	115427
27.59387	113265
27.60198	106835
27.61010	106847
27.61823	103002
27.62635	101607
27.63448	102756
27.64260	99407
27.65072	101014
27.65885	95208
27.66697	102287
27.67510	92638
27.68322	100229
27.69133	95306
27.69947	89484
27.70758	88393
27.71572	93651
27.72383	97204
27.73195	84548
27.74008	89090
27.74820	84566
27.75632	84097
27.76445	88571
27.77257	79843
27.78070	91659
27.78882	86622
27.79693	83195
27.80507	86841
27.81318	83034
27.82132	85317
27.82943	84710
27.83755	82352
27.84568	81049
27.85380	82868
27.86192	83766
27.87005	77500
27.87817	82379
27.88630	80801
27.89442	82116
27.90253	76406
27.91067	79600
27.91878	76502
27.92692	76192
27.93503	76801
27.94315	77751
27.95128	74770
27.95940	78509
27.96753	78037
27.97565	74994
27.98377	73963
27.99190	78533
28.00002	72160
28.00813	71033
28.01627	73650
28.02438	76569
28.03252	72029
28.04063	71075
28.04875	72857
28.05688	73504
28.06500	72396
28.07313	67609
28.08125	72276
28.08937	68540
28.09750	76827
28.10562	79941
28.11373	74736
28.12187	77151
28.12998	79607
28.13812	90612
28.14623	96624
28.15435	104206
28.16248	113783
28.17060	106426
28.17873	98623
28.18685	93461
28.19497	88536
28.20310	84506
28.21122	84082
28.21935	85591
28.22747	84340
28.23558	101138
28.24372	139545
28.25183	223159
28.25995	372124
28.26808	641926
28.27620	1077157
28.28433	1681677
28.29245	2394420
28.30057	3394438
28.30870	4300774
28.31682	4961203
28.32495	5137287
28.33307	5008006
28.34118	4482762
28.34932	4104988
28.35743	3586480
28.36557	2947985
28.37368	2380143
28.38180	1960436
28.38993	1603537
28.39805	1305710
28.40617	1076597
28.41430	903681
28.42242	732861
28.43055	625821
28.43867	554171
28.44678	490301
28.45492	453708
28.46303	447762
28.47117	460500
28.47928	491317
28.48740	544199
28.49553	613985
28.50365	651881
28.51178	694379
28.51990	693004
28.52802	689880
28.53615	689735
28.54427	675642
28.55238	603679
28.56052	549040
28.56863	505975
28.57677	459644
28.58488	418314
28.59300	378273
28.60113	337032
28.60925	311128
28.61738	287684
28.62550	275966
28.63362	244974
28.64175	242120
28.64987	235279
28.65798	227198
28.66612	223968
28.67423	210059
28.68237	205020
28.69048	202716
28.69860	200070
28.70673	211082
28.71485	247432
28.72298	279965
28.73110	308140
28.73922	318719
28.74735	284769
28.75547	250818
28.76360	214118
28.77172	189086
28.77983	172034
28.78797	173756
28.79608	177580
28.80420	168323
28.81233	149400
28.82045	146162
28.82858	145534
28.83670	145737
28.84482	140514
28.85295	136939
28.86107	130207
28.86920	130289
28.87732	130769
28.88543	125362
28.89357	118055
28.90168	122591
28.90980	120163
28.91793	117120
28.92605	120066
28.93418	119451
28.94230	121107
28.95042	115811
28.95855	120829
28.96667	113839
28.97480	110515
28.98292	116612
28.99103	110767
28.99917	109230
29.00728	105126
29.01542	109324
29.02353	104735
29.03165	101853
29.03978	99556
29.04790	102509
29.05602	107847
29.06415	101593
29.07227	99533
29.08040	101386
29.08852	100350
29.09663	97816
29.10477	98498
29.11288	97093
29.12102	94046
29.12913	97077
29.13725	92981
29.14538	93517
29.15350	95296
29.16163	100028
29.16975	95134
29.17787	101707
29.18600	93640
29.19412	93340
29.20223	89882
29.21037	92763
29.21848	93982
29.22662	88205
29.23473	89278
29.24285	88840
29.25098	89268
29.25910	82473
29.26723	90218
29.27535	87774
29.28347	81629
29.29160	84511
29.29972	85684
29.30783	87945
29.31597	81665
29.32408	86248
29.33222	87287
29.34033	85014
29.34845	86492
29.35658	83868
29.36470	84692
29.37283	82189
29.38095	79472
29.38907	79565
29.39720	81768
29.40532	80009
29.41345	86198
29.42157	86849
29.42968	84389
29.43782	88834
29.44593	87499
29.45405	90128
29.46218	84874
29.47030	81862
29.47843	87022
29.48655	88116
29.49467	88652
29.50280	88942
29.51092	89262
29.51905	92919
29.52717	80010
29.53528	81311
29.54342	79870
29.55153	80040
29.55967	83461
29.56778	80332
29.57590	75506
29.58403	77555
29.59215	77811
29.60027	77273
29.60840	77594
29.61652	78116
29.62465	76291
29.63277	79472
29.64088	76673
29.64902	78211
29.65713	74474
29.66527	73226
29.67338	75771
29.68150	77833
29.68963	79750
29.69775	80594
29.70587	84272
29.71400	77904
29.72212	85933
29.73025	79371
29.73837	77554
29.74648	86927
29.75462	81893
29.76273	76072
29.77087	81968
29.77898	79391
29.78710	79235
29.79523	72175
29.80335	73507
29.81148	72638
29.81960	76619
29.82772	78569
29.83585	74652
29.84397	77201
29.85208	85020
29.86022	85270
29.86833	96042
29.87647	127725
29.88458	180248
29.89270	231539
29.90083	350830
29.90895	468958
29.91708	632719
29.92520	782032
29.93332	979992
29.94145	1170730
29.94957	1293219
29.95768	1362671
29.96582	1458153
29.97393	1449332
29.98207	1420348
29.99018	1353356
29.99830	1271986
30.00643	1195032
30.01455	1096909
30.02268	994248
30.03080	898626
30.03892	818368
30.04705	758189
30.05517	697939
30.06330	672486
30.07142	622329
30.07953	564408
30.08767	500544
30.09578	472922
30.10390	438008
30.11203	417358
30.12015	379963
30.12828	347115
30.13640	323930
30.14452	301869
30.15265	278532
30.16077	263220
30.16890	243512
30.17702	224768
30.18513	206022
30.19327	197980
30.20138	189334
30.20952	184066
30.21763	175578
30.22575	169779
30.23388	164746
30.24200	158259
30.25012	149301
30.25825	148747
30.26637	139077
30.27450	140550
30.28262	132850
30.29073	134153
30.29887	130097
30.30698	129000
30.31512	128501
30.32323	127652
30.33135	120217
30.33948	122209
30.34760	119517
30.35572	112797
30.36385	120567
30.37197	115292
30.38010	114120
30.38822	112845
30.39633	110579
30.40447	106270
30.41258	107073
30.42072	110644
30.42883	110671
30.43695	95734
30.44508	98009
30.45320	108205
30.46133	100805
30.46945	101275
30.47757	100372
30.48570	103530
30.49382	97286
30.50193	95011
30.51007	95852
30.51818	97111
30.52632	91566
30.53443	92808
30.54255	97175
30.55068	99839
30.55880	99313
30.56693	92113
30.57505	92890
30.58317	94061
30.59130	90375
30.59942	87509
30.60755	87357
30.61567	87880
30.62378	90463
30.63192	85550
30.64003	91180
30.64815	86156
30.65628	86211
30.66440	85650
30.67253	88149
30.68065	86720
30.68877	84557
30.69690	79769
30.70502	81141
30.71315	78714
30.72127	83671
30.72938	84894
30.73752	83979
30.74563	85976
30.75375	77399
30.76188	84762
30.77000	87524
30.77813	92169
30.78625	87006
30.79437	92579
30.80250	92003
30.81062	103983
30.81875	98345
30.82687	91733
30.83498	83306
30.84312	83030
30.85123	82488
30.85937	78827
30.86748	77565
30.87560	81569
30.88373	80790
30.89185	75860
30.89997	84051
30.90810	80076
30.91622	75942
30.92435	78639
30.93247	77399
30.94058	76148
30.94872	75253
30.95683	80779
30.96497	75447
30.97308	76209
30.98120	78507
30.98933	81230
30.99745	81226
31.00557	82048
31.01370	80300
31.02182	79023
31.02995	83713
31.03807	91527
31.04618	79317
31.05432	80643
31.06243	85406
31.07057	84076
31.07868	86753
31.08680	98624
31.09493	108365
31.10305	105000
31.11118	109970
31.11930	99264
31.12742	104946
31.13555	100106
31.14367	99814
31.15178	97341
31.15992	99271
31.16803	101625
31.17617	117343
31.18428	126387
31.19240	147238
31.20053	161025
31.20865	174166
31.21678	191636
31.22490	180331
31.23302	165007
31.24115	150765
31.24927	121937
31.25740	109932
31.26552	97372
31.27363	89037
31.28177	85707
31.28988	89409
31.29800	80980
31.30613	82051
31.31425	78107
31.32238	76084
31.33050	77886
31.33862	84939
31.34675	85570
31.35487	89117
31.36300	98264
31.37112	105862
31.37923	105043
31.38737	103065
31.39548	103823
31.40360	101931
31.41173	99237
31.41985	93429
31.42798	93486
31.43610	81896
31.44422	87651
31.45235	83893
31.46047	79587
31.46860	82115
31.47672	76699
31.48483	75028
31.49297	75402
31.50108	73468
31.50922	74633
31.51733	73620
31.52545	78499
31.53358	76085
31.54170	75051
31.54982	74899
31.55795	73037
31.56607	79654
31.57420	76848
31.58232	74553
31.59043	72830
31.59857	71840
31.60668	81729
31.61482	82783
31.62293	77896
31.63105	75779
31.63918	76704
31.64730	74399
31.65543	79689
31.66355	76448
31.67167	78982
31.67980	71055
31.68792	74617
31.69603	78053
31.70417	75762
31.71228	74440
31.72042	75870
31.72853	72658
31.73665	74583
31.74478	77964
31.75290	77966
31.76103	76815
31.76915	72621
31.77727	70192
31.78540	75147
31.79352	79090
31.80163	82038
31.80977	77665
31.81788	83291
31.82602	102802
31.83413	130826
31.84225	161560
31.85038	215286
31.85850	287173
31.86663	372466
31.87475	451885
31.88287	526242
31.89100	580718
31.89912	633274
31.90725	668021
31.91537	692465
31.92348	687948
31.93162	687219
31.93973	620828
31.94785	581613
31.95598	533882
31.96410	489445
31.97223	455563
31.98035	416659
31.98847	382581
31.99660	354007
32.00472	325236
32.01285	316272
32.02097	286825
32.02908	279160
32.03722	248239
32.04533	235089
32.05347	209105
32.06158	196212
32.06970	179338
32.07783	173078
32.08595	165750
32.09407	160415
32.10220	159481
32.11032	147242
32.11845	143465
32.12657	132328
32.13468	136570
32.14282	131938
32.15093	130412
32.15907	125967
32.16718	126858
32.17530	118948
32.18343	115339
32.19155	112784
32.19967	115978
32.20780	114864
32.21592	114529
32.22405	107060
32.23217	103754
32.24028	106202
32.24842	106904
32.25653	107650
32.26467	107032
32.27278	102800
32.28090	105998
32.28903	105371
32.29715	101482
32.30528	95833
32.31340	107409
32.32152	111959
32.32965	104059
32.33777	103398
32.34588	107691
32.35402	107883
32.36213	104995
32.37027	104264
32.37838	100263
32.38650	102720
32.39463	101018
32.40275	96277
32.41088	96276
32.41900	94525
32.42712	95969
32.43525	100228
32.44337	90878
32.45148	103236
32.45962	95333
32.46773	93851
32.47587	99540
32.48398	94396
32.49210	93652
32.50023	94727
32.50835	91152
32.51648	93098
32.52460	95253
32.53272	96169
32.54085	96102
32.54897	91787
32.55710	93983
32.56522	97137
32.57333	94127
32.58147	96322
32.58958	106360
32.59770	124312
32.60583	160197
32.61395	182794
32.62208	211911
32.63020	230849
32.63832	212865
32.64645	183271
32.65457	148513
32.66270	128665
32.67082	119170
32.67893	114605
32.68707	106810
32.69518	101916
32.70332	98724
32.71143	99286
32.71955	102070
32.72768	102328
32.73580	101570
32.74392	96169
32.75205	93153
32.76017	97846
32.76830	98099
32.77642	97781
32.78453	92498
32.79267	94009
32.80078	90368
32.80892	89464
32.81703	90721
32.82515	91387
32.83328	89377
32.84140	81140
32.84952	89010
32.85765	87116
32.86577	86431
32.87390	93743
32.88202	94037
32.89013	87841
32.89827	88303
32.90638	94514
32.91452	86552
32.92263	90129
32.93075	90874
32.93888	87621
32.94700	86397
32.95513	91627
32.96325	88902
32.97137	86080
32.97950	85369
32.98762	89930
32.99573	87979
33.00387	88718
33.01198	88551
33.02012	89423
33.02823	82135
33.03635	88532
33.04448	84307
33.05260	93317
33.06073	86064
33.06885	84480
33.07697	91425
33.08510	93339
33.09322	105614
33.10135	108896
33.10947	117720
33.11758	121982
33.12572	112791
33.13383	114473
33.14195	111527
33.15008	106247
33.15820	106690
33.16633	95756
33.17445	95080
33.18257	94160
33.19070	94324
33.19882	90347
33.20695	84643
33.21507	86059
33.22318	91279
33.23132	91335
33.23943	92359
33.24755	90632
33.25568	90669
33.26380	90265
33.27193	89392
33.28005	90542
33.28817	94507
33.29630	86964
33.30442	90284
33.31255	91147
33.32067	82618
33.32878	92830
33.33692	91687
33.34503	83845
33.35317	91057
33.36128	87897
33.36940	85747
33.37753	92541
33.38565	90083
33.39377	91483
33.40190	83372
33.41002	82061
33.41815	83504
33.42627	84795
33.43438	86556
33.44252	88226
33.45063	86770
33.45877	88955
33.46688	85243
33.47500	86084
33.48313	85156
33.49125	84876
33.49937	86543
33.50750	88537
33.51562	87675
33.52375	87249
33.53187	88122
33.53998	92192
33.54812	88724
33.55623	88611
33.56437	87463
33.57248	88992
33.58060	88269
33.58873	83538
33.59685	82623
33.60498	85212
33.61310	87351
33.62122	86344
33.62935	87288
33.63747	87249
33.64558	84740
33.65372	92026
33.66183	93273
33.66997	84889
33.67808	88837
33.68620	87969
33.69433	86827
33.70245	88857
33.71058	87208
33.71870	87015
33.72682	86124
33.73495	87801
33.74307	93770
33.75120	93489
33.75932	94006
33.76743	98573
33.77557	99593
33.78368	98602
33.79180	106151
33.79993	105573
33.80805	100824
33.81618	104366
33.82430	100677
33.83242	97404
33.84055	101095
33.84867	101513
33.85680	104252
33.86492	97030
33.87303	103482
33.88117	108945
33.88928	108894
33.89740	110671
33.90553	108598
33.91365	114898
33.92178	103359
33.92990	105868
33.93802	102382
33.94615	98705
33.95427	102296
33.96240	99783
33.97052	97464
33.97863	93734
33.98677	104483
33.99488	102531
34.00302	103299
34.01113	100649
34.01925	99542
34.02738	98582
34.03550	100380
34.04362	102077
34.05175	100543
34.05987	97427
34.06800	97918
34.07612	93944
34.08423	100803
34.09237	101412
34.10048	103295
34.10862	100617
34.11673	93747
34.12485	95489
34.13298	98686
34.14110	98002
34.14923	96689
34.15735	95738
34.16547	97453
34.17360	96050
34.18172	93955
34.18983	98154
34.19797	97388
34.20608	97299
34.21422	101250
34.22233	91566
34.23045	103767
34.23858	92083
34.24670	99568
34.25483	98820
34.26295	95022
34.27107	94744
34.27920	101399
34.28732	99292
34.29543	97202
34.30357	92911
34.31168	97036
34.31982	97229
34.32793	93380
34.33605	94588
34.34418	101211
34.35230	95139
34.36043	95806
34.36855	104859
34.37667	102740
34.38480	96512
34.39292	96975
34.40105	99081
34.40917	97510
34.41728	95000
34.42542	100542
34.43353	105978
34.44165	119722
34.44978	145127
34.45790	184864
34.46603	239823
34.47415	330690
34.48227	427870
34.49040	512384
34.49852	560266
34.50665	574654
34.51477	582471
34.52288	540188
34.53102	483462
34.53913	427386
34.54725	381591
34.55538	331257
34.56350	297431
34.57163	263229
34.57975	239601
34.58787	227647
34.59600	212787
34.60412	201290
34.61225	192649
34.62037	192932
34.62848	179153
34.63662	177139
34.64473	168228
34.65287	165823
34.66098	171285
34.66910	172822
34.67723	165835
34.68535	162066
34.69347	157209
34.70160	154319
34.70972	157735
34.71785	148435
34.72597	150604
34.73408	154175
34.74222	152808
34.75033	151667
34.75847	148701
34.76658	149139
34.77470	144211
34.78283	141970
34.79095	138120
34.79908	140523
34.80720	138328
34.81532	133362
34.82345	135099
34.83157	137567
34.83968	135296
34.84782	128615
34.85593	129898
34.86407	123941
34.87218	128501
34.88030	132399
34.88843	124300
34.89655	125441
34.90468	125538
34.91280	122150
34.92092	127109
34.92905	132875
34.93717	131599
34.94530	133062
34.95342	127453
34.96153	129292
34.96967	123748
34.97778	118456
34.98590	129710
34.99403	125380
35.00215	119779
35.01028	120234
35.01840	115483
35.02652	124477
35.03465	117920
35.04277	119948
35.05090	113590
35.05902	122517
35.06713	115953
35.07527	118323
35.08338	125231
35.09150	122399
35.09963	129549
35.10775	130686
35.11588	138754
35.12400	143083
35.13212	135793
35.14025	130184
35.14837	134600
35.15650	132206
35.16462	134639
35.17273	125785
35.18087	128248
35.18898	125977
35.19712	120450
35.20523	125198
35.21335	121350
35.22148	123691
35.22960	128507
35.23772	129488
35.24585	134102
35.25397	133983
35.26210	134876
35.27022	134467
35.27833	128761
35.28647	129375
35.29458	132219
35.30272	126629
35.31083	123244
35.31895	122115
35.32708	125382
35.33520	121341
35.34332	120541
35.35145	121961
35.35957	117424
35.36770	120038
35.37582	121313
35.38393	118399
35.39207	127521
35.40018	122678
35.40832	128158
35.41643	120194
35.42455	127597
35.43268	136997
35.44080	137314
35.44893	140792
35.45705	145073
35.46517	143411
35.47330	139529
35.48142	142846
35.48953	134038
35.49767	129901
35.50578	126379
35.51392	124735
35.52203	126550
35.53015	124671
35.53828	126451
35.54640	131109
35.55453	128968
35.56265	138746
35.57077	131437
35.57890	135810
35.58702	136884
35.59515	135743
35.60327	140969
35.61138	146855
35.61952	156438
35.62763	154210
35.63575	154353
35.64388	148911
35.65200	140128
35.66013	143016
35.66825	137632
35.67637	131913
35.68450	130568
35.69262	128468
35.70075	130718
35.70887	131249
35.71698	124421
35.72512	134417
35.73323	133890
35.74135	122273
35.74948	136174
35.75760	126532
35.76573	124264
35.77385	126946
35.78197	129177
35.79010	121791
35.79822	135735
35.80635	127134
35.81447	129682
35.82258	129305
35.83072	137425
35.83883	129125
35.84697	135994
35.85508	125994
35.86320	125707
35.87133	123683
35.87945	123749
35.88757	126566
35.89570	123543
35.90382	125322
35.91195	125933
35.92007	118449
35.92818	123872
35.93632	122388
35.94443	115089
35.95257	120683
35.96068	119857
35.96880	127260
35.97693	126457
35.98505	127922
35.99318	130882
36.00130	138809
36.00942	137352
36.01755	136203
36.02567	139230
36.03378	148719
36.04192	143901
36.05003	142897
36.05817	138963
36.06628	143853
36.07440	134726
36.08253	140611
36.09065	146017
36.09878	137421
36.10690	141515
36.11502	136359
36.12315	138794
36.13127	149055
36.13938	142993
36.14752	150397
36.15563	143362
36.16377	144869
36.17188	144860
36.18000	145530
36.18813	148136
36.19625	141039
36.20438	138679
36.21250	138880
36.22062	139807
36.22875	148783
36.23687	161920
36.24500	192581
36.25312	229760
36.26123	275290
36.26937	316049
36.27748	309540
36.28560	290201
36.29373	259228
36.30185	218584
36.30998	189905
36.31810	168218
36.32622	172610
36.33435	158657
36.34247	156694
36.35060	154879
36.35872	144992
36.36683	155778
36.37497	154895
36.38308	153229
36.39120	156995
36.39933	149384
36.40745	152431
36.41558	150336
36.42370	147805
36.43182	149311
36.43995	142860
36.44807	142634
36.45620	140491
36.46432	141136
36.47243	140900
36.48057	140581
36.48868	142165
36.49682	142281
36.50493	143764
36.51305	144034
36.52118	150115
36.52930	153492
36.53742	156378
36.54555	153911
36.55367	162713
36.56180	161308
36.56992	174491
36.57803	182673
36.58617	180985
36.59428	192851
36.60242	198159
36.61053	215053
36.61865	217759
36.62678	226010
36.63490	221259
36.64303	229416
36.65115	224166
36.65927	220621
36.66740	222095
36.67552	220299
36.68363	221531
36.69177	204285
36.69988	201936
36.70802	194909
36.71613	185100
36.72425	181584
36.73238	178961
36.74050	169381
36.74863	160698
36.75675	164795
36.76487	160829
36.77300	159655
36.78112	156650
36.78923	153954
36.79737	147562
36.80548	151553
36.81362	153302
36.82173	144129
36.82985	140722
36.83798	154470
36.84610	147391
36.85423	144192
36.86235	149888
36.87047	149141
36.87860	157568
36.88672	160476
36.89485	154502
36.90297	156669
36.91108	161714
36.91922	167354
36.92733	164031
36.93545	156995
36.94358	155732
36.95170	158432
36.95983	156689
36.96795	155190
36.97607	151896
36.98420	162048
36.99232	150613
37.00045	158833
37.00857	155891
37.01668	161787
37.02482	158765
37.03293	159445
37.04107	154146
37.04918	155908
37.05730	147890
37.06543	158231
37.07355	157030
37.08167	152003
37.08980	157318
37.09792	155671
37.10605	156322
37.11417	154602
37.12228	160867
37.13042	164656
37.13853	163630
37.14667	165255
37.15478	170959
37.16290	158691
37.17103	159379
37.17915	159608
37.18727	158985
37.19540	170267
37.20352	159276
37.21165	155934
37.21977	157601
37.22788	168250
37.23602	164162
37.24413	171428
37.25227	179781
37.26038	211754
37.26850	278649
37.27663	340165
37.28475	419841
37.29288	479122
37.30100	518387
37.30912	527801
37.31725	489962
37.32537	442165
37.33348	390775
37.34162	353123
37.34973	319051
37.35787	286139
37.36598	262139
37.37410	264982
37.38223	247023
37.39035	233789
37.39848	230880
37.40660	237295
37.41472	225902
37.42285	222572
37.43097	216632
37.43910	215091
37.44722	218095
37.45533	206765
37.46347	200622
37.47158	202609
37.47970	205088
37.48783	202702
