C:\MassHunter\GCMS\1\data\JTB-E18\JTB-E18-033-09.D Mon Oct 14 13:56:03 2019
Start of data points
2.09517,162445
2.10328,159427
2.11142,152739
2.11953,145893
2.12767,147501
2.13578,134738
2.14390,138777
2.15203,135370
2.16015,129785
2.16828,128173
2.17640,125771
2.18452,123481
2.19265,118995
2.20077,118833
2.20890,117996
2.21702,111813
2.22513,114059
2.23327,107471
2.24138,100732
2.24950,105604
2.25763,105846
2.26575,166825
2.27388,770066
2.28200,1550374
2.29012,1171910
2.29825,625167
2.30637,405861
2.31450,322857
2.32262,289477
2.33073,248348
2.33887,237156
2.34698,207604
2.35510,184077
2.36323,181869
2.37135,168671
2.37948,169975
2.38760,176617
2.39572,164683
2.40385,158024
2.41197,154737
2.42010,153728
2.42822,157098
2.43633,150726
2.44447,149365
2.45258,154558
2.46072,146635
2.46883,135504
2.47695,128607
2.48508,131071
2.49320,132569
2.50132,132434
2.50945,127164
2.51757,132446
2.52570,126417
2.53382,119915
2.54193,128267
2.55007,127863
2.55818,129253
2.56632,124699
2.57443,119290
2.58255,120900
2.59068,116952
2.59880,121307
2.60693,119577
2.61505,129496
2.62317,127583
2.63130,120457
2.63942,112021
2.64753,117394
2.65567,113773
2.66378,114106
2.67192,112488
2.68003,122181
2.68815,121246
2.69628,113207
2.70440,107425
2.71253,107894
2.72065,105379
2.72877,107995
2.73690,108182
2.74502,106867
2.75313,106289
2.76127,107189
2.76938,105239
2.77752,100832
2.78563,98801
2.79375,99164
2.80188,107141
2.81000,102374
2.81813,110766
2.82625,138696
2.83437,184859
2.84250,164237
2.85062,133980
2.85875,118396
2.86687,119496
2.87498,114918
2.88312,107100
2.89123,110000
2.89935,102764
2.90748,98527
2.91560,94141
2.92373,96991
2.93185,99996
2.93997,96001
2.94810,94455
2.95622,101554
2.96435,97023
2.97247,97363
2.98058,95648
2.98872,95488
2.99683,100700
3.00497,105022
3.01308,112342
3.02120,114573
3.02933,149759
3.03745,206139
3.04557,275542
3.05370,640995
3.06182,1410284
3.06995,1480503
3.07807,861419
3.08618,468564
3.09432,312717
3.10243,248103
3.11057,219539
3.11868,195372
3.12680,177299
3.13493,157304
3.14305,147629
3.15117,135972
3.15930,127283
3.16742,131468
3.17555,124635
3.18367,126301
3.19178,116688
3.19992,118974
3.20803,115604
3.21617,109279
3.22428,114775
3.23240,112041
3.24053,107577
3.24865,106043
3.25678,105851
3.26490,101966
3.27302,110772
3.28115,181344
3.28927,468686
3.29738,1273762
3.30552,2205023
3.31363,2510880
3.32177,2055624
3.32988,1484276
3.33800,1147977
3.34613,920484
3.35425,765985
3.36238,671193
3.37050,601731
3.37862,588550
3.38675,579610
3.39487,523828
3.40298,534117
3.41112,732483
3.41923,939100
3.42737,864848
3.43548,632387
3.44360,474817
3.45173,396012
3.45985,350162
3.46798,319461
3.47610,299506
3.48422,282719
3.49235,264076
3.50047,257079
3.50860,242753
3.51672,228199
3.52483,230276
3.53297,221820
3.54108,209360
3.54920,208775
3.55733,198059
3.56545,199246
3.57358,191772
3.58170,188678
3.58982,183309
3.59795,178994
3.60607,185000
3.61420,196482
3.62232,248539
3.63043,357520
3.63857,451608
3.64668,415794
3.65482,326681
3.66293,250489
3.67105,216178
3.67918,202552
3.68730,189449
3.69542,183554
3.70355,174582
3.71167,170815
3.71980,170091
3.72792,161685
3.73603,164484
3.74417,156639
3.75228,165453
3.76042,160248
3.76853,153137
3.77665,148663
3.78478,147984
3.79290,152632
3.80102,155250
3.80915,143835
3.81727,147729
3.82540,143085
3.83352,142089
3.84163,143137
3.84977,142075
3.85788,130015
3.86602,131937
3.87413,129555
3.88225,133612
3.89038,129087
3.89850,135225
3.90663,130040
3.91475,129600
3.92287,130365
3.93100,120860
3.93912,126112
3.94723,124454
3.95537,119743
3.96348,120288
3.97162,121374
3.97973,120634
3.98785,120069
3.99598,119798
4.00410,119959
4.01223,119162
4.02035,123226
4.02847,120838
4.03660,118418
4.04472,116917
4.05285,119691
4.06097,115369
4.06908,120614
4.07722,114205
4.08533,110986
4.09345,116202
4.10158,114164
4.10970,111649
4.11783,110460
4.12595,115209
4.13407,113195
4.14220,113954
4.15032,119046
4.15845,121305
4.16657,116664
4.17468,115400
4.18282,115575
4.19093,114922
4.19905,107329
4.20718,108601
4.21530,109490
4.22343,120453
4.23155,121176
4.23967,128554
4.24780,122789
4.25592,119553
4.26405,119184
4.27217,114057
4.28028,116018
4.28842,111997
4.29653,110683
4.30467,108077
4.31278,108265
4.32090,109272
4.32903,110748
4.33715,114572
4.34527,106277
4.35340,109988
4.36152,107628
4.36965,103413
4.37777,114116
4.38588,107070
4.39402,103218
4.40213,106624
4.41027,100139
4.41838,102351
4.42650,102227
4.43463,102800
4.44275,105738
4.45087,108977
4.45900,104219
4.46712,103122
4.47525,109038
4.48337,102090
4.49148,100468
4.49962,96318
4.50773,97486
4.51587,99746
4.52398,99359
4.53210,103892
4.54023,99099
4.54835,100362
4.55648,98839
4.56460,101152
4.57272,100575
4.58085,98983
4.58897,95286
4.59708,98731
4.60522,96838
4.61333,93118
4.62147,97514
4.62958,97083
4.63770,93669
4.64583,88697
4.65395,92466
4.66208,95059
4.67020,95453
4.67832,94572
4.68645,96010
4.69457,94260
4.70270,85585
4.71082,88207
4.71893,97085
4.72707,93501
4.73518,94601
4.74330,88983
4.75143,95637
4.75955,96344
4.76768,91564
4.77580,87840
4.78392,89979
4.79205,87857
4.80017,95271
4.80830,95294
4.81642,95432
4.82453,94873
4.83267,93972
4.84078,97971
4.84892,91789
4.85703,98131
4.86515,101953
4.87328,102003
4.88140,101710
4.88952,97040
4.89765,93310
4.90577,97139
4.91390,120011
4.92202,182946
4.93013,348580
4.93827,617711
4.94638,847034
4.95452,909513
4.96263,795003
4.97075,623617
4.97888,488040
4.98700,395992
4.99512,330150
5.00325,300821
5.01137,264910
5.01950,231545
5.02762,228728
5.03573,209245
5.04387,201281
5.05198,187433
5.06012,182229
5.06823,167488
5.07635,166715
5.08448,160009
5.09260,154127
5.10073,157703
5.10885,157497
5.11697,165535
5.12510,167873
5.13322,161501
5.14133,149073
5.14947,143619
5.15758,137531
5.16572,143731
5.17383,141411
5.18195,155524
5.19008,154386
5.19820,155930
5.20633,143385
5.21445,134929
5.22257,131700
5.23070,134043
5.23882,132238
5.24693,136493
5.25507,130903
5.26318,121683
5.27132,112920
5.27943,113233
5.28755,115382
5.29568,108308
5.30380,108794
5.31193,103790
5.32005,109399
5.32817,109207
5.33630,109641
5.34442,106730
5.35255,106927
5.36067,104458
5.36878,104909
5.37692,95889
5.38503,98209
5.39315,96077
5.40128,100646
5.40940,104647
5.41753,94675
5.42565,95845
5.43377,86300
5.44190,101227
5.45002,95878
5.45815,90510
5.46627,90875
5.47438,88985
5.48252,95066
5.49063,90262
5.49875,93711
5.50688,87925
5.51500,88624
5.52313,91183
5.53125,91573
5.53937,91841
5.54750,90779
5.55562,87880
5.56375,91891
5.57187,93464
5.57998,94416
5.58812,102735
5.59623,106823
5.60437,103578
5.61248,101040
5.62060,101600
5.62873,107084
5.63685,113203
5.64497,109445
5.65310,109658
5.66122,106949
5.66935,98470
5.67747,105330
5.68558,104701
5.69372,106716
5.70183,104615
5.70997,106654
5.71808,105748
5.72620,112088
5.73433,110304
5.74245,103789
5.75058,101804
5.75870,109827
5.76682,109494
5.77495,110809
5.78307,108569
5.79118,102988
5.79932,110167
5.80743,125957
5.81557,170220
5.82368,237093
5.83180,279100
5.83993,302129
5.84805,275234
5.85618,217183
5.86430,173152
5.87242,145069
5.88055,129511
5.88867,117917
5.89680,114271
5.90492,118718
5.91303,124853
5.92117,139759
5.92928,163127
5.93740,163021
5.94553,146187
5.95365,134564
5.96178,115330
5.96990,106429
5.97802,109689
5.98615,113069
5.99427,112836
6.00240,102135
6.01052,92809
6.01863,84242
6.02677,86647
6.03488,76980
6.04300,76681
6.05113,73199
6.05925,73821
6.06738,75203
6.07550,70335
6.08362,68939
6.09175,71106
6.09987,74483
6.10800,67167
6.11612,70627
6.12423,70243
6.13237,64475
6.14048,73429
6.14862,73046
6.15673,72470
6.16485,73853
6.17298,79392
6.18110,80180
6.18922,84692
6.19735,90597
6.20547,93000
6.21360,97261
6.22172,101429
6.22983,98298
6.23797,97958
6.24608,104345
6.25422,101693
6.26233,103334
6.27045,105881
6.27858,113885
6.28670,107805
6.29482,111939
6.30295,112641
6.31107,116665
6.31920,114692
6.32732,123164
6.33543,127835
6.34357,125174
6.35168,123234
6.35982,129973
6.36793,131514
6.37605,140270
6.38418,134973
6.39230,130378
6.40043,135620
6.40855,142887
6.41667,144328
6.42480,144117
6.43292,145089
6.44103,148963
6.44917,156422
6.45728,150443
6.46542,152273
6.47353,154625
6.48165,162051
6.48978,163070
6.49790,164619
6.50603,162565
6.51415,164202
6.52227,166960
6.53040,129222
6.53852,106918
6.54665,96098
6.55477,91672
6.56288,87729
6.57102,86581
6.57913,79200
6.58725,74241
6.59538,74419
6.60350,78730
6.61163,79458
6.61975,70636
6.62787,72846
6.63600,71395
6.64412,67228
6.65225,67291
6.66037,71241
6.66848,70829
6.67662,63885
6.68473,64952
6.69285,63031
6.70098,66069
6.70910,64948
6.71723,70209
6.72535,70988
6.73347,76574
6.74160,88640
6.74972,82043
6.75785,82416
6.76597,75652
6.77408,74527
6.78222,67653
6.79033,61963
6.79847,65489
6.80658,64151
6.81470,61154
6.82283,61028
6.83095,57754
6.83907,58692
6.84720,61267
6.85532,73538
6.86345,100046
6.87157,141060
6.87968,188139
6.88782,223982
6.89593,232524
6.90407,197139
6.91218,154469
6.92030,104396
6.92843,81825
6.93655,69873
6.94468,68694
6.95280,58417
6.96092,59441
6.96905,54008
6.97717,52739
6.98528,55683
6.99342,57930
7.00153,50890
7.00967,53827
7.01778,64644
7.02590,71384
7.03403,83797
7.04215,93935
7.05028,106704
7.05840,97506
7.06652,84849
7.07465,73945
7.08277,72175
7.09088,61146
7.09902,60967
7.10713,62205
7.11527,51758
7.12338,57325
7.13150,55914
7.13963,54061
7.14775,53401
7.15588,52651
7.16400,51355
7.17212,46353
7.18025,49733
7.18837,48663
7.19650,50995
7.20462,48479
7.21273,50151
7.22087,50801
7.22898,46992
7.23710,50147
7.24523,49751
7.25335,51981
7.26148,53435
7.26960,56208
7.27772,58179
7.28585,57987
7.29397,59148
7.30210,59600
7.31022,56267
7.31833,52724
7.32647,51591
7.33458,49930
7.34272,53175
7.35083,54099
7.35895,54075
7.36708,52881
7.37520,49662
7.38332,52601
7.39145,57349
7.39957,67337
7.40770,75452
7.41582,78030
7.42393,69438
7.43207,70328
7.44018,65595
7.44832,55729
7.45643,57109
7.46455,58544
7.47268,56059
7.48080,52483
7.48892,51685
7.49705,53719
7.50517,58988
7.51330,62106
7.52142,68845
7.52953,70139
7.53767,61106
7.54578,55289
7.55392,51954
7.56203,49506
7.57015,47888
7.57828,44916
7.58640,46659
7.59453,45343
7.60265,43724
7.61077,43120
7.61890,45063
7.62702,44483
7.63513,43472
7.64327,44715
7.65138,41541
7.65952,45920
7.66763,49190
7.67575,40834
7.68388,40691
7.69200,43190
7.70013,41501
7.70825,36914
7.71637,47691
7.72450,41983
7.73262,38009
7.74073,37898
7.74887,40275
7.75698,42306
7.76512,38781
7.77323,39882
7.78135,39461
7.78948,36966
7.79760,42266
7.80573,39493
7.81385,40611
7.82197,39437
7.83010,40018
7.83822,41451
7.84635,39794
7.85447,37474
7.86258,39425
7.87072,44324
7.87883,42954
7.88695,41075
7.89508,37932
7.90320,36827
7.91133,41854
7.91945,39098
7.92757,36733
7.93570,40565
7.94382,36285
7.95195,35509
7.96007,40988
7.96818,43062
7.97632,44810
7.98443,44127
7.99257,41141
8.00068,40742
8.00880,43900
8.01693,39309
8.02505,38728
8.03317,38760
8.04130,36440
8.04942,39073
8.05755,37098
8.06567,35498
8.07378,38986
8.08192,41052
8.09003,34641
8.09817,39278
8.10628,40689
8.11440,38023
8.12253,35181
8.13065,38261
8.13877,38950
8.14690,36787
8.15502,38740
8.16315,38385
8.17127,39433
8.17938,41201
8.18752,43576
8.19563,36552
8.20377,40678
8.21188,36545
8.22000,41703
8.22813,37397
8.23625,36565
8.24438,36466
8.25250,40446
8.26062,35543
8.26875,34814
8.27687,34589
8.28498,37202
8.29312,37419
8.30123,34417
8.30937,34409
8.31748,35125
8.32560,35786
8.33373,39695
8.34185,40498
8.34998,45328
8.35810,49047
8.36622,42924
8.37435,44830
8.38247,38975
8.39060,36445
8.39872,38929
8.40683,35840
8.41497,36430
8.42308,35654
8.43120,35465
8.43933,31759
8.44745,37505
8.45558,35008
8.46370,39023
8.47182,40028
8.47995,37277
8.48807,35521
8.49620,38722
8.50432,41363
8.51243,45772
8.52057,46277
8.52868,48487
8.53680,51361
8.54493,47753
8.55305,38275
8.56118,37638
8.56930,38385
8.57742,42496
8.58555,41602
8.59367,39683
8.60180,38647
8.60992,37784
8.61803,37108
8.62617,40360
8.63428,37564
8.64242,36814
8.65053,36637
8.65865,33644
8.66678,34922
8.67490,38297
8.68302,37114
8.69115,34560
8.69927,38847
8.70740,39101
8.71552,44746
8.72363,54734
8.73177,76898
8.73988,123635
8.74802,189506
8.75613,226613
8.76425,223081
8.77238,189264
8.78050,153954
8.78862,118489
8.79675,97888
8.80487,89076
8.81300,76371
8.82112,74709
8.82923,66175
8.83737,66668
8.84548,62955
8.85362,59257
8.86173,54505
8.86985,58142
8.87798,53094
8.88610,53391
8.89423,49492
8.90235,48716
8.91047,45767
8.91860,47709
8.92672,46343
8.93483,43525
8.94297,46931
8.95108,51026
8.95922,40549
8.96733,43636
8.97545,44045
8.98358,36992
8.99170,41657
8.99983,40289
9.00795,46232
9.01607,39361
9.02420,41728
9.03232,39544
9.04045,41068
9.04857,41643
9.05668,40579
9.06482,37452
9.07293,37435
9.08105,39321
9.08918,40158
9.09730,38593
9.10543,41209
9.11355,42090
9.12167,40947
9.12980,36248
9.13792,42914
9.14605,40636
9.15417,40368
9.16228,40779
9.17042,34359
9.17853,37440
9.18665,38745
9.19478,37569
9.20290,37248
9.21103,33893
9.21915,38351
9.22727,36426
9.23540,37052
9.24352,37942
9.25165,36082
9.25977,36732
9.26788,38631
9.27602,40209
9.28413,41770
9.29227,43518
9.30038,44729
9.30850,46231
9.31663,43651
9.32475,41432
9.33287,39486
9.34100,37893
9.34912,38982
9.35725,37702
9.36537,39667
9.37348,39492
9.38162,35660
9.38973,37604
9.39787,36408
9.40598,32971
9.41410,32128
9.42223,35240
9.43035,33348
9.43848,35975
9.44660,32969
9.45472,33181
9.46285,31310
9.47097,34856
9.47908,32572
9.48722,30602
9.49533,35427
9.50347,34349
9.51158,30779
9.51970,34772
9.52783,32322
9.53595,37216
9.54408,33241
9.55220,32916
9.56032,34444
9.56845,30827
9.57657,34400
9.58468,33008
9.59282,36030
9.60093,39756
9.60907,36512
9.61718,36534
9.62530,35712
9.63343,33733
9.64155,32639
9.64968,34411
9.65780,37535
9.66592,39107
9.67405,37113
9.68217,39586
9.69030,32558
9.69842,29226
9.70653,27806
9.71467,30989
9.72278,30548
9.73090,27902
9.73903,29798
9.74715,27552
9.75528,26749
9.76340,27144
9.77152,26477
9.77965,28004
9.78777,29105
9.79590,27449
9.80402,27583
9.81213,27930
9.82027,27497
9.82838,29640
9.83650,26031
9.84463,27918
9.85275,28318
9.86088,29228
9.86900,26996
9.87712,24244
9.88525,29016
9.89337,27183
9.90150,25317
9.90962,24990
9.91773,26193
9.92587,25290
9.93398,27363
9.94212,27275
9.95023,27007
9.95835,28192
9.96648,30554
9.97460,28838
9.98272,30881
9.99085,32686
9.99897,33205
10.00710,30984
10.01522,28414
10.02333,30508
10.03147,25959
10.03958,27144
10.04772,26753
10.05583,25669
10.06395,27579
10.07208,26077
10.08020,24880
10.08833,24702
10.09645,25707
10.10457,25160
10.11270,26919
10.12082,27964
10.12893,23201
10.13707,25938
10.14518,26757
10.15332,24714
10.16143,27184
10.16955,27710
10.17768,27823
10.18580,23953
10.19393,26286
10.20205,25589
10.21017,27363
10.21830,24794
10.22642,29531
10.23455,29092
10.24267,27831
10.25078,29102
10.25892,26580
10.26703,28678
10.27515,25468
10.28328,23486
10.29140,29934
10.29953,28396
10.30765,26491
10.31577,29908
10.32390,27562
10.33202,25220
10.34015,28445
10.34827,25426
10.35638,26916
10.36452,25457
10.37263,25544
10.38075,27712
10.38888,26478
10.39700,26850
10.40513,27959
10.41325,27478
10.42137,28573
10.42950,27577
10.43762,26717
10.44575,26132
10.45387,24168
10.46198,22183
10.47012,25461
10.47823,25101
10.48637,24396
10.49448,24394
10.50260,24393
10.51073,25242
10.51885,26121
10.52697,27324
10.53510,26505
10.54322,24839
10.55135,25951
10.55947,28422
10.56758,26292
10.57572,27157
10.58383,23152
10.59197,25997
10.60008,23536
10.60820,23429
10.61633,24909
10.62445,22522
10.63257,23514
10.64070,28818
10.64882,22441
10.65695,24078
10.66507,23553
10.67318,26740
10.68132,25060
10.68943,27539
10.69757,23092
10.70568,25052
10.71380,27315
10.72193,27469
10.73005,25086
10.73818,26075
10.74630,28270
10.75442,28199
10.76255,24107
10.77067,27386
10.77878,28555
10.78692,25264
10.79503,23243
10.80317,22809
10.81128,28448
10.81940,27557
10.82753,25356
10.83565,24877
10.84378,23735
10.85190,22183
10.86002,22435
10.86815,25377
10.87627,23671
10.88440,23692
10.89252,24579
10.90063,25061
10.90877,24843
10.91688,23475
10.92500,27023
10.93313,23777
10.94125,25258
10.94938,24059
10.95750,23071
10.96562,24941
10.97375,23000
10.98187,27203
10.99000,25903
10.99812,25508
11.00623,23146
11.01437,22928
11.02248,19897
11.03060,22909
11.03873,23606
11.04685,22856
11.05498,20916
11.06310,26013
11.07122,26000
11.07935,21005
11.08747,22247
11.09560,26837
11.10372,23376
11.11183,21462
11.11997,26324
11.12808,25171
11.13622,23846
11.14433,26208
11.15245,26463
11.16058,26565
11.16870,23316
11.17682,24216
11.18495,23397
11.19307,23593
11.20120,23453
11.20932,22463
11.21743,21769
11.22557,23291
11.23368,28810
11.24182,24346
11.24993,23260
11.25805,26116
11.26618,24339
11.27430,25687
11.28243,24441
11.29055,28118
11.29867,30724
11.30680,36271
11.31492,40095
11.32303,37524
11.33117,36164
11.33928,36638
11.34742,36121
11.35553,34148
11.36365,32831
11.37178,31045
11.37990,30046
11.38803,32073
11.39615,28834
11.40427,27765
11.41240,25421
11.42052,24145
11.42863,25124
11.43677,25220
11.44488,20617
11.45302,22136
11.46113,21056
11.46925,24494
11.47738,23858
11.48550,23009
11.49363,21477
11.50175,24465
11.50987,24430
11.51800,25325
11.52612,22910
11.53425,23906
11.54237,24639
11.55048,23613
11.55862,25960
11.56673,26947
11.57485,25087
11.58298,27177
11.59110,24394
11.59923,27978
11.60735,29474
11.61547,26325
11.62360,28039
11.63172,23862
11.63985,26761
11.64797,23253
11.65608,30175
11.66422,25063
11.67233,26159
11.68045,26523
11.68858,24579
11.69670,31504
11.70483,32077
11.71295,32210
11.72107,33535
11.72920,31572
11.73732,33540
11.74545,30556
11.75357,30871
11.76168,30180
11.76982,31424
11.77793,29815
11.78607,28478
11.79418,25977
11.80230,26587
11.81043,29888
11.81855,26655
11.82667,25217
11.83480,27014
11.84292,25823
11.85105,23729
11.85917,29398
11.86728,24792
11.87542,24171
11.88353,24404
11.89167,23398
11.89978,23011
11.90790,20376
11.91603,22340
11.92415,24499
11.93228,23564
11.94040,27038
11.94852,24093
11.95665,24293
11.96477,25543
11.97288,27171
11.98102,25720
11.98913,29225
11.99727,26260
12.00538,25130
12.01350,23805
12.02163,25500
12.02975,24419
12.03788,23052
12.04600,23008
12.05412,24340
12.06225,25702
12.07037,22516
12.07848,22753
12.08662,21383
12.09473,24489
12.10287,24258
12.11098,20516
12.11910,22721
12.12723,22834
12.13535,25949
12.14348,22247
12.15160,26949
12.15972,25979
12.16785,24797
12.17597,22969
12.18410,24064
12.19222,22265
12.20033,20084
12.20847,21263
12.21658,22201
12.22470,21714
12.23283,24548
12.24095,21503
12.24908,24869
12.25720,21401
12.26532,21366
12.27345,20264
12.28157,23896
12.28970,20882
12.29782,21873
12.30593,21333
12.31407,24391
12.32218,21974
12.33032,18484
12.33843,20506
12.34655,22445
12.35468,23788
12.36280,20772
12.37092,22142
12.37905,22342
12.38717,20555
12.39530,21837
12.40342,19946
12.41153,20301
12.41967,22343
12.42778,20784
12.43592,24146
12.44403,21349
12.45215,21988
12.46028,24350
12.46840,24665
12.47652,22995
12.48465,23162
12.49277,21330
12.50090,19908
12.50902,20946
12.51713,19478
12.52527,19647
12.53338,22652
12.54152,24075
12.54963,22787
12.55775,23139
12.56588,21608
12.57400,21607
12.58213,19859
12.59025,18097
12.59837,22999
12.60650,22368
12.61462,21446
12.62273,21343
12.63087,18198
12.63898,19955
12.64712,21233
12.65523,21607
12.66335,19924
12.67148,20708
12.67960,19339
12.68773,19339
12.69585,20521
12.70397,22107
12.71210,19867
12.72022,23056
12.72835,23455
12.73647,26973
12.74458,27745
12.75272,27030
12.76083,27894
12.76895,29057
12.77708,24057
12.78520,22401
12.79333,23468
12.80145,22982
12.80957,23748
12.81770,23646
12.82582,22911
12.83395,22006
12.84207,23404
12.85018,23594
12.85832,21151
12.86643,23825
12.87455,19435
12.88268,22674
12.89080,23569
12.89893,20528
12.90705,23595
12.91517,20737
12.92330,21559
12.93142,23788
12.93955,22332
12.94767,20101
12.95578,24708
12.96392,28064
12.97203,30701
12.98017,32456
12.98828,35884
12.99640,35396
13.00453,35419
13.01265,35398
13.02077,36568
13.02890,33123
13.03702,31669
13.04515,29069
13.05327,29469
13.06138,24554
13.06952,24576
13.07763,23236
13.08577,27332
13.09388,26567
13.10200,24197
13.11013,23951
13.11825,22346
13.12637,23428
13.13450,23263
13.14262,21192
13.15075,24330
13.15887,22505
13.16698,22407
13.17512,26557
13.18323,23404
13.19137,24050
13.19948,22334
13.20760,22680
13.21573,22326
13.22385,22847
13.23198,22808
13.24010,21484
13.24822,22480
13.25635,22645
13.26447,23904
13.27258,25376
13.28072,21992
13.28883,24377
13.29697,25759
13.30508,25410
13.31320,26484
13.32133,26629
13.32945,25089
13.33758,27240
13.34570,26621
13.35382,25070
13.36195,25593
13.37007,24744
13.37820,23631
13.38632,21897
13.39443,26356
13.40257,24303
13.41068,25627
13.41880,23215
13.42693,21085
13.43505,21528
13.44318,24069
13.45130,25386
13.45942,25639
13.46755,20952
13.47567,22490
13.48380,22949
13.49192,21443
13.50003,19951
13.50817,22107
13.51628,22775
13.52440,22692
13.53253,21270
13.54065,20895
13.54878,20637
13.55690,21784
13.56502,22048
13.57315,22406
13.58127,21562
13.58940,25503
13.59752,26680
13.60563,24812
13.61377,25574
13.62188,25588
13.63002,27873
13.63813,26788
13.64625,26798
13.65438,30879
13.66250,29660
13.67062,26206
13.67875,24784
13.68687,26225
13.69500,25560
13.70312,23792
13.71123,21557
13.71937,22751
13.72748,20288
13.73562,27183
13.74373,22394
13.75185,22932
13.75998,23335
13.76810,21061
13.77623,24042
13.78435,20935
13.79247,25097
13.80060,22946
13.80872,22657
13.81683,23374
13.82497,24763
13.83308,21019
13.84122,27161
13.84933,18988
13.85745,22049
13.86558,25458
13.87370,21074
13.88183,23388
13.88995,23655
13.89807,21708
13.90620,25748
13.91432,22641
13.92243,22260
13.93057,24587
13.93868,24082
13.94682,25228
13.95493,22987
13.96305,26298
13.97118,23703
13.97930,23069
13.98743,23668
13.99555,22268
14.00367,25694
14.01180,25836
14.01992,24254
14.02805,23635
14.03617,27377
14.04428,27263
14.05242,25088
14.06053,21994
14.06865,25670
14.07678,26310
14.08490,25920
14.09303,27613
14.10115,23026
14.10927,25931
14.11740,30400
14.12552,34680
14.13365,46326
14.14177,64440
14.14988,82761
14.15802,92550
14.16613,88115
14.17425,70258
14.18238,58604
14.19050,50664
14.19863,46394
14.20675,36509
14.21487,38316
14.22300,36173
14.23112,34133
14.23925,32453
14.24737,37652
14.25548,29573
14.26362,30772
14.27173,33376
14.27987,33321
14.28798,32065
14.29610,27596
14.30423,25988
14.31235,26324
14.32047,23972
14.32860,21462
14.33672,23739
14.34485,21738
14.35297,20549
14.36108,21581
14.36922,21324
14.37733,20490
14.38547,23135
14.39358,22870
14.40170,22827
14.40983,22371
14.41795,21637
14.42608,21035
14.43420,22851
14.44232,20545
14.45045,19488
14.45857,20042
14.46668,21145
14.47482,20826
14.48293,22440
14.49107,20812
14.49918,20440
14.50730,20591
14.51543,24696
14.52355,20369
14.53168,21393
14.53980,21477
14.54792,20975
14.55605,22069
14.56417,18964
14.57230,21488
14.58042,19931
14.58853,22209
14.59667,20760
14.60478,22825
14.61290,20605
14.62103,21313
14.62915,21775
14.63728,21283
14.64540,18401
14.65352,22072
14.66165,20520
14.66977,18979
14.67790,21745
14.68602,18284
14.69413,20709
14.70227,20243
14.71038,18726
14.71850,20480
14.72663,19695
14.73475,22071
14.74288,18774
14.75100,21693
14.75912,21951
14.76725,18464
14.77537,20096
14.78350,22005
14.79162,19194
14.79973,19811
14.80787,18902
14.81598,19660
14.82412,18413
14.83223,19391
14.84035,22205
14.84848,21485
14.85660,22173
14.86472,22318
14.87285,22739
14.88097,19845
14.88910,20483
14.89722,19967
14.90533,21300
14.91347,22400
14.92158,22998
14.92972,20031
14.93783,17272
14.94595,21367
14.95408,20897
14.96220,20900
14.97032,21943
14.97845,22575
14.98657,21421
14.99470,20873
15.00282,20224
15.01093,20479
15.01907,22312
15.02718,22202
15.03532,19497
15.04343,23582
15.05155,23091
15.05968,21692
15.06780,22026
15.07593,21456
15.08405,20572
15.09217,22662
15.10030,18524
15.10842,20277
15.11653,20154
15.12467,19230
15.13278,19300
15.14092,22979
15.14903,21871
15.15715,19875
15.16528,19263
15.17340,20108
15.18153,20352
15.18965,22154
15.19777,19151
15.20590,18983
15.21402,18405
15.22213,20915
15.23027,19230
15.23838,19053
15.24652,20173
15.25463,23098
15.26275,20436
15.27088,20923
15.27900,19820
15.28713,20051
15.29525,19982
15.30337,20430
15.31150,18986
15.31962,17436
15.32775,18270
15.33587,17345
15.34398,18459
15.35212,17218
15.36023,19045
15.36835,20544
15.37648,19548
15.38460,19092
15.39273,20231
15.40085,19574
15.40897,21576
15.41710,19084
15.42522,18632
15.43335,19222
15.44147,19871
15.44958,19097
15.45772,19698
15.46583,19226
15.47397,19759
15.48208,19414
15.49020,21952
15.49833,19135
15.50645,20822
15.51457,17797
15.52270,20454
15.53082,17688
15.53895,21716
15.54707,21206
15.55518,21046
15.56332,18813
15.57143,18087
15.57957,19887
15.58768,18721
15.59580,19835
15.60393,17987
15.61205,17059
15.62018,19711
15.62830,19443
15.63642,22107
15.64455,19444
15.65267,17875
15.66078,21175
15.66892,20397
15.67703,19120
15.68517,20543
15.69328,20354
15.70140,18892
15.70953,18772
15.71765,20599
15.72578,18382
15.73390,20580
15.74202,21936
15.75015,22182
15.75827,23727
15.76638,21156
15.77452,21272
15.78263,24103
15.79077,24324
15.79888,23608
15.80700,21174
15.81513,23012
15.82325,21000
15.83138,19011
15.83950,20796
15.84762,19660
15.85575,20049
15.86387,20038
15.87200,18969
15.88012,19130
15.88823,18120
15.89637,21943
15.90448,19698
15.91260,21084
15.92073,20740
15.92885,19324
15.93698,19256
15.94510,22809
15.95322,22133
15.96135,20465
15.96947,18458
15.97760,20293
15.98572,22187
15.99383,18194
16.00197,20710
16.01008,24449
16.01820,29598
16.02633,32861
16.03445,34981
16.04258,34591
16.05070,31825
16.05882,29166
16.06695,23559
16.07507,22959
16.08320,25232
16.09132,24536
16.09943,23037
16.10757,20230
16.11568,19557
16.12382,17430
16.13193,22460
16.14005,23389
16.14818,21280
16.15630,22029
16.16442,24380
16.17255,20004
16.18067,20011
16.18880,21406
16.19692,20020
16.20503,23129
16.21317,20351
16.22128,23286
16.22942,22328
16.23753,22448
16.24565,22147
16.25378,21945
16.26190,19378
16.27003,20166
16.27815,21037
16.28627,20007
16.29440,19072
16.30252,18743
16.31063,19862
16.31877,19994
16.32688,21758
16.33502,19738
16.34313,20484
16.35125,20919
16.35938,23779
16.36750,22858
16.37563,19057
16.38375,18119
16.39187,21230
16.40000,21566
16.40812,20602
16.41623,19239
16.42437,19914
16.43248,21147
16.44062,19408
16.44873,19480
16.45685,18822
16.46498,19250
16.47310,20997
16.48123,20691
16.48935,20012
16.49747,19825
16.50560,23096
16.51372,19389
16.52185,18301
16.52997,17643
16.53808,22756
16.54622,20171
16.55433,19798
16.56245,22227
16.57058,24992
16.57870,20813
16.58683,20393
16.59495,24363
16.60307,22774
16.61120,22224
16.61932,19907
16.62745,22168
16.63557,21356
16.64368,20235
16.65182,18426
16.65993,20200
16.66807,20210
16.67618,22158
16.68430,19790
16.69243,19450
16.70055,21023
16.70867,19618
16.71680,20256
16.72492,22788
16.73305,21934
16.74117,21362
16.74928,19697
16.75742,19247
16.76553,18766
16.77367,21075
16.78178,19032
16.78990,21279
16.79803,20119
16.80615,20054
16.81427,20199
16.82240,20234
16.83052,21193
16.83865,21955
16.84677,20220
16.85488,21331
16.86302,23803
16.87113,20028
16.87927,21227
16.88738,21189
16.89550,20177
16.90363,19924
16.91175,19205
16.91988,21792
16.92800,22708
16.93612,21778
16.94425,18840
16.95237,19566
16.96048,21275
16.96862,19130
16.97673,19617
16.98487,18915
16.99298,19663
17.00110,20768
17.00923,18707
17.01735,20994
17.02548,19947
17.03360,20421
17.04172,17940
17.04985,23583
17.05797,21605
17.06608,23538
17.07422,19683
17.08233,22252
17.09047,21060
17.09858,19901
17.10670,21056
17.11483,20846
17.12295,21067
17.13108,20030
17.13920,21765
17.14732,20921
17.15545,20042
17.16357,18467
17.17170,17287
17.17982,21759
17.18793,19946
17.19607,19337
17.20418,21245
17.21230,17573
17.22043,18640
17.22855,21532
17.23668,19699
17.24480,19241
17.25292,20643
17.26105,20235
17.26917,21562
17.27730,20779
17.28542,20144
17.29353,19156
17.30167,19949
17.30978,20816
17.31792,18401
17.32603,22073
17.33415,20447
17.34228,19472
17.35040,21469
17.35852,22339
17.36665,23201
17.37477,21275
17.38290,23178
17.39102,22016
17.39913,20447
17.40727,21756
17.41538,22186
17.42352,24584
17.43163,21247
17.43975,22605
17.44788,23515
17.45600,22192
17.46412,19325
17.47225,22546
17.48037,20302
17.48850,23179
17.49662,23884
17.50473,23651
17.51287,21145
17.52098,26052
17.52912,27971
17.53723,27317
17.54535,28394
17.55348,30459
17.56160,30358
17.56973,28377
17.57785,25225
17.58597,25231
17.59410,21997
17.60222,24456
17.61033,21119
17.61847,20854
17.62658,20980
17.63472,22001
17.64283,26500
17.65095,22858
17.65908,23821
17.66720,23427
17.67533,22183
17.68345,25047
17.69157,21921
17.69970,24038
17.70782,22928
17.71595,21656
17.72407,22767
17.73218,22583
17.74032,17708
17.74843,22398
17.75655,22256
17.76468,22272
17.77280,22208
17.78093,20733
17.78905,21955
17.79717,21810
17.80530,20210
17.81342,21490
17.82155,26124
17.82967,23835
17.83778,23781
17.84592,24050
17.85403,23296
17.86215,24751
17.87028,26348
17.87840,24629
17.88653,25229
17.89465,23836
17.90277,22330
17.91090,22539
17.91902,21935
17.92715,20263
17.93527,22354
17.94338,19443
17.95152,20545
17.95963,20557
17.96777,21183
17.97588,20796
17.98400,21931
17.99213,21300
18.00025,21125
18.00837,21919
18.01650,22483
18.02462,23875
18.03275,21532
18.04087,28652
18.04898,24553
18.05712,22947
18.06523,22847
18.07337,21475
18.08148,22182
18.08960,21775
18.09773,23497
18.10585,21642
18.11398,22959
18.12210,20596
18.13022,22012
18.13835,21844
18.14647,21781
18.15458,23453
18.16272,21611
18.17083,23857
18.17897,23235
18.18708,20762
18.19520,20089
18.20333,20596
18.21145,22803
18.21958,23295
18.22770,21925
18.23582,22412
18.24395,21999
18.25207,23247
18.26018,24389
18.26832,20726
18.27643,22991
18.28457,22875
18.29268,23772
18.30080,20570
18.30893,20353
18.31705,20337
18.32518,22212
18.33330,22158
18.34142,23818
18.34955,24130
18.35767,17753
18.36580,21289
18.37392,20493
18.38203,19690
18.39017,20507
18.39828,19017
18.40640,23990
18.41453,20755
18.42265,19946
18.43078,19229
18.43890,18021
18.44702,18660
18.45515,21379
18.46327,18770
18.47140,23157
18.47952,21421
18.48763,18843
18.49577,18996
18.50388,24208
18.51200,20091
18.52013,17972
18.52825,19101
18.53638,23229
18.54450,20484
18.55262,19033
18.56075,18913
18.56887,21369
18.57700,21537
18.58512,23952
18.59323,19752
18.60137,21914
18.60948,21423
18.61762,21187
18.62573,24182
18.63385,22869
18.64198,20569
18.65010,19192
18.65822,18760
18.66635,22835
18.67447,19068
18.68260,20456
18.69072,21588
18.69883,20583
18.70697,20080
18.71508,18540
18.72322,22768
18.73133,20571
18.73945,22370
18.74758,19837
18.75570,22804
18.76383,21776
18.77195,20224
18.78007,23213
18.78820,20935
18.79632,22451
18.80443,25442
18.81257,24432
18.82068,24149
18.82882,25217
18.83693,25123
18.84505,25275
18.85318,24023
18.86130,23518
18.86943,26864
18.87755,26521
18.88567,26073
18.89380,26370
18.90192,26431
18.91003,27524
18.91817,26351
18.92628,28829
18.93442,27734
18.94253,27799
18.95065,26045
18.95878,22224
18.96690,26201
18.97503,24889
18.98315,23207
18.99127,21307
18.99940,22793
19.00752,22187
19.01565,22844
19.02377,25111
19.03188,26771
19.04002,24749
19.04813,23553
19.05625,24478
19.06438,25819
19.07250,33571
19.08063,42154
19.08875,43714
19.09687,49445
19.10500,50192
19.11312,52172
19.12125,44169
19.12937,47680
19.13748,40044
19.14562,38310
19.15373,35247
19.16187,36023
19.16998,35138
19.17810,33031
19.18623,30806
19.19435,32236
19.20247,30092
19.21060,28074
19.21872,29997
19.22685,24067
19.23497,26897
19.24308,26524
19.25122,28475
19.25933,24631
19.26747,27751
19.27558,26419
19.28370,28121
19.29183,27370
19.29995,26006
19.30807,25923
19.31620,31990
19.32432,28015
19.33245,25038
19.34057,25601
19.34868,24790
19.35682,23496
19.36493,25181
19.37307,24381
19.38118,21552
19.38930,26693
19.39743,24777
19.40555,25382
19.41368,31000
19.42180,31727
19.42992,47801
19.43805,54634
19.44617,69360
19.45428,71113
19.46242,67978
19.47053,47514
19.47867,40904
19.48678,32885
19.49490,28375
19.50303,26891
19.51115,25033
19.51928,25300
19.52740,25638
19.53552,23491
19.54365,23829
19.55177,25490
19.55988,25861
19.56802,25275
19.57613,25186
19.58427,21666
19.59238,22897
19.60050,22744
19.60863,22837
19.61675,26058
19.62488,28617
19.63300,30161
19.64112,37471
19.64925,38501
19.65737,44479
19.66550,48654
19.67362,45373
19.68173,40331
19.68987,37797
19.69798,30862
19.70610,32791
19.71423,31611
19.72235,27393
19.73048,25180
19.73860,26343
19.74672,24940
19.75485,26479
19.76297,26558
19.77110,21853
19.77922,21523
19.78733,24602
19.79547,22940
19.80358,24971
19.81172,30280
19.81983,24992
19.82795,29168
19.83608,26792
19.84420,21424
19.85232,24844
19.86045,25243
19.86857,28081
19.87670,26627
19.88482,30445
19.89293,31740
19.90107,35454
19.90918,36871
19.91732,40319
19.92543,34751
19.93355,35618
19.94168,34748
19.94980,34839
19.95792,31508
19.96605,33035
19.97417,34611
19.98230,30715
19.99042,33718
19.99853,34260
20.00667,36154
20.01478,33635
20.02292,29283
20.03103,30644
20.03915,28726
20.04728,31054
20.05540,28678
20.06353,26726
20.07165,26018
20.07977,27142
20.08790,26622
20.09602,25957
20.10413,25578
20.11227,25723
20.12038,25538
20.12852,23530
20.13663,24332
20.14475,23732
20.15288,25761
20.16100,23226
20.16913,24708
20.17725,27290
20.18537,25449
20.19350,25632
20.20162,27006
20.20975,25352
20.21787,25150
20.22598,32552
20.23412,28219
20.24223,36430
20.25035,33426
20.25848,44668
20.26660,40907
20.27473,36753
20.28285,36479
20.29097,35971
20.29910,29896
20.30722,28799
20.31535,25515
20.32347,28693
20.33158,26447
20.33972,27706
20.34783,26058
20.35595,22978
20.36408,25296
20.37220,24006
20.38033,20479
20.38845,23367
20.39657,23960
20.40470,29785
20.41282,26519
20.42095,29609
20.42907,25168
20.43718,25150
20.44532,26922
20.45343,27580
20.46157,26856
20.46968,25573
20.47780,26664
20.48593,24964
20.49405,20638
20.50217,20719
20.51030,24116
20.51842,20158
20.52655,21069
20.53467,20265
20.54278,21645
20.55092,21985
20.55903,19886
20.56717,22050
20.57528,20198
20.58340,21891
20.59153,23737
20.59965,21134
20.60777,20393
20.61590,21828
20.62402,22997
20.63215,23907
20.64027,21071
20.64838,20299
20.65652,21387
20.66463,22143
20.67277,20168
20.68088,22572
20.68900,20691
20.69713,20161
20.70525,22675
20.71338,25412
20.72150,23433
20.72962,21272
20.73775,27106
20.74587,22645
20.75398,24584
20.76212,21315
20.77023,21424
20.77837,23223
20.78648,22660
20.79460,21709
20.80273,22368
20.81085,21073
20.81898,23291
20.82710,22732
20.83522,23746
20.84335,21456
20.85147,21061
20.85960,20958
20.86772,19492
20.87583,20900
20.88397,22482
20.89208,22094
20.90020,21280
20.90833,23808
20.91645,22597
20.92458,23430
20.93270,22228
20.94082,21178
20.94895,21713
20.95707,19632
20.96520,22649
20.97332,22396
20.98143,21877
20.98957,21430
20.99768,18812
21.00582,21285
21.01393,20948
21.02205,19534
21.03018,20152
21.03830,20773
21.04642,19782
21.05455,20510
21.06267,28483
21.07080,20581
21.07892,21210
21.08703,25634
21.09517,21902
21.10328,19266
21.11142,20706
21.11953,21483
21.12765,22286
21.13578,19593
21.14390,21955
21.15202,19732
21.16015,23427
21.16827,26202
21.17640,21336
21.18452,20789
21.19263,23608
21.20077,21640
21.20888,20059
21.21702,21477
21.22513,22913
21.23325,20696
21.24138,19788
21.24950,23916
21.25763,22852
21.26575,21379
21.27387,21079
21.28200,21552
21.29012,23998
21.29823,23125
21.30637,24427
21.31448,26599
21.32262,20540
21.33073,20200
21.33885,22102
21.34698,25204
21.35510,20814
21.36323,24811
21.37135,21989
21.37947,22091
21.38760,22809
21.39572,22494
21.40383,23415
21.41197,21231
21.42008,20511
21.42822,20482
21.43633,22634
21.44445,22149
21.45258,22175
21.46070,22815
21.46883,23763
21.47695,21885
21.48507,24603
21.49320,21573
21.50132,23393
21.50945,20173
21.51757,20449
21.52568,20944
21.53382,22978
21.54193,23305
21.55005,20011
21.55818,23690
21.56630,21788
21.57443,24640
21.58255,28308
21.59067,24064
21.59880,24277
21.60692,28423
21.61505,25931
21.62317,24165
21.63128,24834
21.63942,24306
21.64753,23624
21.65567,25027
21.66378,23517
21.67190,24440
21.68003,24683
21.68815,21910
21.69627,21093
21.70440,21118
21.71252,20558
21.72065,20338
21.72877,19702
21.73688,21067
21.74502,21802
21.75313,21161
21.76127,25491
21.76938,25127
21.77750,27351
21.78563,24974
21.79375,28131
21.80187,26459
21.81000,26575
21.81812,26147
21.82625,25557
21.83437,25047
21.84248,21529
21.85062,23140
21.85873,21349
21.86687,19258
21.87498,19910
21.88310,20227
21.89123,22024
21.89935,20687
21.90748,28523
21.91560,18998
21.92372,21545
21.93185,20315
21.93997,22597
21.94808,18910
21.95622,17786
21.96433,23076
21.97247,21895
21.98058,22767
21.98870,19217
21.99683,20867
22.00495,24343
22.01308,23434
22.02120,19611
22.02932,22435
22.03745,21702
22.04557,25539
22.05370,21369
22.06182,22717
22.06993,22836
22.07807,18916
22.08618,22336
22.09430,25607
22.10243,26477
22.11055,28468
22.11868,24316
22.12680,20794
22.13492,20835
22.14305,21217
22.15117,23373
22.15930,21492
22.16742,23187
22.17553,23602
22.18367,21253
22.19178,22014
22.19990,21721
22.20803,20862
22.21615,23513
22.22428,21234
22.23240,22008
22.24052,20698
22.24865,20177
22.25677,19460
22.26490,22063
22.27302,18462
22.28113,23828
22.28927,19025
22.29738,23739
22.30552,19876
22.31363,22315
22.32175,23996
22.32988,19372
22.33800,20599
22.34612,23456
22.35425,22620
22.36237,22842
22.37050,27162
22.37862,20882
22.38673,19820
22.39487,24232
22.40298,20876
22.41112,20281
22.41923,21235
22.42735,21640
22.43548,20618
22.44360,19696
22.45172,22834
22.45985,21886
22.46797,18497
22.47610,20600
22.48422,22554
22.49233,20470
22.50047,21020
22.50858,22709
22.51672,22601
22.52483,21907
22.53295,20421
22.54108,21589
22.54920,18879
22.55733,21867
22.56545,21326
22.57357,20660
22.58170,20186
22.58982,21049
22.59793,20191
22.60607,17351
22.61418,21044
22.62232,20927
22.63043,21976
22.63855,21178
22.64668,21624
22.65480,22812
22.66293,20823
22.67105,21376
22.67917,21607
22.68730,22656
22.69542,21538
22.70355,19083
22.71167,20676
22.71978,21313
22.72792,22223
22.73603,20174
22.74415,20101
22.75228,22708
22.76040,20563
22.76853,19825
22.77665,18892
22.78477,21023
22.79290,21328
22.80102,19734
22.80915,22430
22.81727,20771
22.82538,23109
22.83352,24213
22.84163,19771
22.84975,21894
22.85788,19215
22.86600,22268
22.87413,25352
22.88225,23276
22.89037,23195
22.89850,24769
22.90662,23849
22.91475,26946
22.92287,29828
22.93098,32956
22.93912,28841
22.94723,29231
22.95537,31320
22.96348,29015
22.97160,32538
22.97973,27043
22.98785,24299
22.99597,25691
23.00410,27531
23.01222,27135
23.02035,25829
23.02847,26659
23.03658,25042
23.04472,23823
23.05283,23598
23.06097,22804
23.06908,20762
23.07720,21004
23.08533,24009
23.09345,23869
23.10158,22876
23.10970,23266
23.11782,23481
23.12595,23847
23.13407,22878
23.14218,23940
23.15032,21754
23.15843,23409
23.16657,22061
23.17468,22896
23.18280,20517
23.19093,22732
23.19905,22532
23.20718,21866
23.21530,21216
23.22342,22208
23.23155,22243
23.23967,23461
23.24778,22129
23.25592,23911
23.26403,21159
23.27217,20481
23.28028,23152
23.28840,23380
23.29653,24638
23.30465,23968
23.31278,21368
23.32090,21567
23.32902,17623
23.33715,22801
23.34527,21329
23.35340,23828
23.36152,21228
23.36963,22026
23.37777,24151
23.38588,22930
23.39400,25570
23.40213,22347
23.41025,19745
23.41838,20840
23.42650,22112
23.43462,21114
23.44275,21442
23.45087,25057
23.45900,24652
23.46712,20937
23.47523,23298
23.48337,22898
23.49148,22455
23.49960,21878
23.50773,23113
23.51585,20646
23.52398,21039
23.53210,21075
23.54022,19090
23.54835,19872
23.55647,20971
23.56460,21808
23.57272,21457
23.58083,23638
23.58897,23524
23.59708,21846
23.60522,22931
23.61333,22898
23.62145,24177
23.62958,23155
23.63770,27350
23.64582,22377
23.65395,24668
23.66207,25162
23.67020,26618
23.67832,25967
23.68643,28694
23.69457,26891
23.70268,27629
23.71082,26442
23.71893,25603
23.72705,30050
23.73518,39994
23.74330,74286
23.75143,144728
23.75955,298374
23.76767,540628
23.77580,906427
23.78392,1303407
23.79203,1467379
23.80017,1400253
23.80828,1173745
23.81642,935016
23.82453,705376
23.83265,523537
23.84078,410637
23.84890,335238
23.85703,270089
23.86515,222419
23.87327,182311
23.88140,170696
23.88952,146718
23.89763,137129
23.90577,124947
23.91388,106984
23.92202,102070
23.93013,95624
23.93825,92485
23.94638,81607
23.95450,81934
23.96263,77391
23.97075,74485
23.97887,69518
23.98700,69930
23.99512,66068
24.00325,61410
24.01137,60280
24.01948,61514
24.02762,59964
24.03573,55188
24.04385,48817
24.05198,55122
24.06010,51303
24.06823,54021
24.07635,52232
24.08447,49531
24.09260,49105
24.10072,49006
24.10885,45567
24.11697,49329
24.12508,46815
24.13322,42356
24.14133,45282
24.14947,43861
24.15758,42417
24.16570,41629
24.17383,39861
24.18195,43552
24.19007,41550
24.19820,45596
24.20632,39487
24.21445,38847
24.22257,38675
24.23068,36209
24.23882,35784
24.24693,37419
24.25507,38503
24.26318,35507
24.27130,37533
24.27943,35200
24.28755,39223
24.29567,39885
24.30380,40626
24.31192,49003
24.32005,57102
24.32817,66283
24.33628,66176
24.34442,64254
24.35253,47128
24.36067,47791
24.36878,36866
24.37690,35787
24.38503,36515
24.39315,32483
24.40128,32476
24.40940,33276
24.41752,31414
24.42565,35163
24.43377,35697
24.44188,36228
24.45002,38318
24.45813,35930
24.46627,29849
24.47438,31836
24.48250,32178
24.49063,27226
24.49875,30733
24.50688,30891
24.51500,29373
24.52312,30670
24.53125,28599
24.53937,30746
24.54750,29561
24.55562,29602
24.56373,31237
24.57187,28119
24.57998,27169
24.58810,30123
24.59623,29182
24.60435,31812
24.61248,30272
24.62060,28438
24.62872,30298
24.63685,27818
24.64497,30706
24.65310,30298
24.66122,32366
24.66933,31358
24.67747,27422
24.68558,27773
24.69370,28121
24.70183,29041
24.70995,28996
24.71808,23985
24.72620,27340
24.73432,28074
24.74245,27660
24.75057,25648
24.75870,26650
24.76682,29613
24.77493,26433
24.78307,27542
24.79118,27892
24.79932,28859
24.80743,26826
24.81555,29960
24.82368,30466
24.83180,30375
24.83992,27825
24.84805,25353
24.85617,27099
24.86430,29578
24.87242,26898
24.88053,27507
24.88867,27164
24.89678,26201
24.90492,26151
24.91303,23681
24.92115,24907
24.92928,25570
24.93740,24766
24.94552,25476
24.95365,24610
24.96177,27952
24.96990,25609
24.97802,25356
24.98613,22960
24.99427,27932
25.00238,26546
25.01052,23095
25.01863,25243
25.02675,24549
25.03488,24270
25.04300,21837
25.05113,24802
25.05925,24261
25.06737,24513
25.07550,24141
25.08362,26623
25.09173,25165
25.09987,25250
25.10798,25263
25.11612,25100
25.12423,22287
25.13235,23949
25.14048,26672
25.14860,22382
25.15673,25553
25.16485,21930
25.17297,24524
25.18110,25752
25.18922,25381
25.19735,24518
25.20547,24906
25.21358,22654
25.22172,22451
25.22983,23059
25.23795,23219
25.24608,25434
25.25420,24080
25.26233,23126
25.27045,22846
25.27857,23325
25.28670,25120
25.29482,24884
25.30295,27011
25.31107,26894
25.31918,24855
25.32732,29167
25.33543,27107
25.34355,28455
25.35168,25706
25.35980,23617
25.36793,24779
25.37605,23809
25.38417,23115
25.39230,23214
25.40042,25792
25.40855,26224
25.41667,22683
25.42478,22562
25.43292,24670
25.44103,25540
25.44917,24272
25.45728,24077
25.46540,24467
25.47353,22714
25.48165,22440
25.48977,24149
25.49790,23821
25.50602,23642
25.51415,24963
25.52227,25372
25.53038,23575
25.53852,24556
25.54663,22865
25.55477,23776
25.56288,20980
25.57100,22628
25.57913,24126
25.58725,22681
25.59538,24909
25.60350,21322
25.61162,23007
25.61975,21132
25.62787,21450
25.63598,23059
25.64412,21595
25.65223,22479
25.66037,20983
25.66848,21563
25.67660,22134
25.68473,20087
25.69285,21759
25.70098,21749
25.70910,21174
25.71722,21669
25.72535,21808
25.73347,20419
25.74158,22482
25.74972,23323
25.75783,19559
25.76597,22424
25.77408,21262
25.78220,22902
25.79033,26413
25.79845,27232
25.80658,23058
25.81470,20486
25.82282,21690
25.83095,21230
25.83907,22398
25.84720,23670
25.85532,20645
25.86343,23527
25.87157,24291
25.87968,20329
25.88780,20286
25.89593,21546
25.90405,19448
25.91218,20931
25.92030,20360
25.92842,18579
25.93655,19597
25.94467,20846
25.95280,20135
25.96092,19645
25.96903,20333
25.97717,19558
25.98528,19183
25.99340,22610
26.00153,23859
26.00965,18075
26.01778,22203
26.02590,20966
26.03402,20490
26.04215,20851
26.05027,22744
26.05840,21010
26.06652,22743
26.07463,22502
26.08277,22959
26.09088,23054
26.09902,21396
26.10713,23392
26.11525,23149
26.12338,23335
26.13150,23266
26.13962,26487
26.14775,26458
26.15587,24458
26.16400,22755
26.17212,25292
26.18023,21232
26.18837,23045
26.19648,21855
26.20462,22724
26.21273,20585
26.22085,22934
26.22898,22711
26.23710,21009
26.24523,21225
26.25335,21661
26.26147,20291
26.26960,21855
26.27772,21933
26.28583,22002
26.29397,20444
26.30208,24864
26.31022,21393
26.31833,21235
26.32645,21136
26.33458,21988
26.34270,25589
26.35083,20135
26.35895,22414
26.36707,21371
26.37520,21907
26.38332,23304
26.39145,23394
26.39957,22491
26.40768,19660
26.41582,20572
26.42393,21257
26.43205,20324
26.44018,20105
26.44830,23353
26.45643,18824
26.46455,22081
26.47267,20080
26.48080,19493
26.48892,19782
26.49705,22173
26.50517,20402
26.51328,21294
26.52142,18785
26.52953,19944
26.53765,25328
26.54578,24676
26.55390,23480
26.56203,21460
26.57015,20626
26.57827,22016
26.58640,20184
26.59452,22748
26.60265,20985
26.61077,21311
26.61888,24215
26.62702,21631
26.63513,22720
26.64327,24578
26.65138,22436
26.65950,23624
26.66763,24736
26.67575,22038
26.68387,21701
26.69200,21818
26.70012,21713
26.70825,22629
26.71637,23494
26.72448,20176
26.73262,22191
26.74073,20849
26.74887,21471
26.75698,23882
26.76510,24756
26.77323,21661
26.78135,20293
26.78947,25405
26.79760,23466
26.80572,24765
26.81385,22288
26.82197,27093
26.83008,20808
26.83822,22229
26.84633,21161
26.85447,19451
26.86258,21013
26.87070,21257
26.87883,21933
26.88695,19637
26.89508,23433
26.90320,22875
26.91132,22692
26.91945,21144
26.92757,22434
26.93568,24709
26.94382,29087
26.95193,37492
26.96007,51108
26.96818,87943
26.97630,121335
26.98443,166750
26.99255,215816
27.00068,235162
27.00880,234266
27.01692,217882
27.02505,187476
27.03317,157780
27.04130,131649
27.04942,102681
27.05753,84386
27.06567,72646
27.07378,61988
27.08190,59896
27.09003,57572
27.09815,49743
27.10628,48832
27.11440,42474
27.12252,39407
27.13065,39774
27.13877,37887
27.14690,35178
27.15502,34168
27.16313,32881
27.17127,34885
27.17938,36146
27.18750,32740
27.19563,30698
27.20375,31493
27.21188,27983
27.22000,30155
27.22812,34707
27.23625,28221
27.24437,29886
27.25250,30253
27.26062,28898
27.26873,26851
27.27687,27025
27.28498,27222
27.29312,26269
27.30123,29212
27.30935,26906
27.31748,26385
27.32560,24892
27.33372,26559
27.34185,26541
27.34997,24866
27.35810,26639
27.36622,26864
27.37433,23693
27.38247,24826
27.39058,25335
27.39872,27787
27.40683,26209
27.41495,32688
27.42308,25121
27.43120,23197
27.43933,24089
27.44745,24124
27.45557,28859
27.46370,29002
27.47182,24633
27.47993,24007
27.48807,23528
27.49618,24625
27.50432,23398
27.51243,24826
27.52055,24369
27.52868,24287
27.53680,24081
27.54493,25057
27.55305,21840
27.56117,22584
27.56930,27892
27.57742,24103
27.58553,22232
27.59367,22384
27.60178,21868
27.60992,24080
27.61803,23382
27.62615,22355
27.63428,22740
27.64240,23224
27.65053,24542
27.65865,20443
27.66677,23932
27.67490,26994
27.68302,22467
27.69115,27025
27.69927,21185
27.70738,23171
27.71552,21220
27.72363,24265
27.73175,23182
27.73988,26868
27.74800,27249
27.75613,23243
27.76425,23923
27.77237,23871
27.78050,21923
27.78862,22315
27.79675,21977
27.80487,21230
27.81298,23509
27.82112,23858
27.82923,21378
27.83735,22738
27.84548,22817
27.85360,19736
27.86173,23962
27.86985,21896
27.87797,21023
27.88610,23613
27.89422,20741
27.90235,20388
27.91047,22113
27.91858,24149
27.92672,22818
27.93483,21579
27.94297,22838
27.95108,24379
27.95920,22762
27.96733,18169
27.97545,21746
27.98357,22980
27.99170,22212
27.99982,20352
28.00795,21137
28.01607,22306
28.02418,22883
28.03232,20817
28.04043,20772
28.04857,21884
28.05668,19432
28.06480,21932
28.07293,24743
28.08105,24119
28.08918,27989
28.09730,27678
28.10542,26608
28.11355,27437
28.12167,26247
28.12978,26605
28.13792,24115
28.14603,26774
28.15417,25642
28.16228,23568
28.17040,19994
28.17853,21462
28.18665,19256
28.19478,22307
28.20290,23669
28.21102,24672
28.21915,20332
28.22727,23719
28.23538,24910
28.24352,24817
28.25163,28331
28.25977,34772
28.26788,37791
28.27600,46540
28.28413,60168
28.29225,67772
28.30038,81670
28.30850,89442
28.31662,88331
28.32475,93423
28.33287,91837
28.34100,83650
28.34912,83154
28.35723,80740
28.36537,69300
28.37348,66184
28.38160,61588
28.38973,55274
28.39785,47239
28.40598,46291
28.41410,40188
28.42222,39479
28.43035,36813
28.43847,33088
28.44660,34863
28.45472,31720
28.46283,32313
28.47097,34751
28.47908,28279
28.48722,28602
28.49533,33020
28.50345,30683
28.51158,30485
28.51970,28336
28.52782,28259
28.53595,30829
28.54407,25872
28.55220,28611
28.56032,28086
28.56843,26047
28.57657,26682
28.58468,25392
28.59282,27098
28.60093,26668
28.60905,26526
28.61718,27409
28.62530,25537
28.63342,23914
28.64155,24603
28.64967,29534
28.65780,25918
28.66592,30747
28.67403,37144
28.68217,40469
28.69028,43598
28.69842,47149
28.70653,43700
28.71465,38435
28.72278,33931
28.73090,29110
28.73903,27379
28.74715,23634
28.75527,28926
28.76340,27338
28.77152,25579
28.77963,24380
28.78777,22461
28.79588,25374
28.80402,24733
28.81213,25486
28.82025,27311
28.82838,26273
28.83650,25997
28.84463,25263
28.85275,24047
28.86087,25493
28.86900,24168
28.87712,24837
28.88523,26911
28.89337,27996
28.90148,28056
28.90962,24238
28.91773,22585
28.92585,24489
28.93398,22927
28.94210,23786
28.95023,22402
28.95835,24349
28.96647,26043
28.97460,22398
28.98272,26567
28.99085,23429
28.99897,24063
29.00708,26299
29.01522,24273
29.02333,24860
29.03145,25203
29.03958,24553
29.04770,24847
29.05583,26988
29.06395,24920
29.07207,23826
29.08020,24016
29.08832,26265
29.09645,25005
29.10457,24302
29.11268,22132
29.12082,23419
29.12893,20581
29.13707,21943
29.14518,24276
29.15330,24185
29.16143,22624
29.16955,23828
29.17767,22418
29.18580,24972
29.19392,23856
29.20205,24260
29.21017,24246
29.21828,21606
29.22642,24956
29.23453,22762
29.24267,23145
29.25078,20781
29.25890,26375
29.26703,26019
29.27515,25246
29.28327,23888
29.29140,25791
29.29952,26334
29.30765,26066
29.31577,23317
29.32388,23346
29.33202,23343
29.34013,21973
29.34827,22663
29.35638,21137
29.36450,23426
29.37263,21435
29.38075,22925
29.38888,23354
29.39700,22837
29.40512,24534
29.41325,26625
29.42137,22856
29.42948,23485
29.43762,22582
29.44573,22573
29.45387,24368
29.46198,22834
29.47010,22414
29.47823,25458
29.48635,25046
29.49448,24429
29.50260,23589
29.51072,23338
29.51885,24225
29.52697,22211
29.53510,21345
29.54322,24042
29.55133,23769
29.55947,22722
29.56758,22923
29.57570,23023
29.58383,22986
29.59195,21836
29.60008,23368
29.60820,21396
29.61632,23841
29.62445,22897
29.63257,21663
29.64070,25615
29.64882,23708
29.65693,22734
29.66507,22733
29.67318,20974
29.68130,23947
29.68943,22939
29.69755,24232
29.70568,22707
29.71380,23665
29.72192,21153
29.73005,23026
29.73817,19154
29.74630,21602
29.75442,22632
29.76253,21210
29.77067,25066
29.77878,21706
29.78692,21037
29.79503,22089
29.80315,22935
29.81128,21635
29.81940,21474
29.82752,20169
29.83565,21587
29.84377,21889
29.85190,20959
29.86002,21254
29.86813,25624
29.87627,25792
29.88438,30192
29.89252,33922
29.90063,38946
29.90875,40235
29.91688,42288
29.92500,47162
29.93313,49996
29.94125,55336
29.94937,52231
29.95750,50687
29.96562,51087
29.97373,49033
29.98187,53253
29.98998,46645
29.99812,45606
30.00623,41527
30.01435,42762
30.02248,40809
30.03060,39960
30.03873,35755
30.04685,36671
30.05497,34184
30.06310,32391
30.07122,30959
30.07933,31245
30.08747,33306
30.09558,31874
30.10372,31345
30.11183,26031
30.11995,28565
30.12808,27814
30.13620,28249
30.14433,28499
30.15245,29023
30.16057,29255
30.16870,30043
30.17682,26835
30.18495,25763
30.19307,26940
30.20118,24525
30.20932,26946
30.21743,26199
30.22555,26393
30.23368,23863
30.24180,24163
30.24993,23183
30.25805,24071
30.26617,25824
30.27430,28219
30.28242,23980
30.29055,26380
30.29867,23500
30.30678,26661
30.31492,27145
30.32303,21585
30.33115,26713
30.33928,22439
30.34740,25933
30.35553,24169
30.36365,25441
30.37177,23747
30.37990,22833
30.38802,22987
30.39615,23537
30.40427,25777
30.41238,23967
30.42052,27848
30.42863,25596
30.43677,24223
30.44488,22479
30.45300,24406
30.46113,24054
30.46925,23855
30.47737,24019
30.48550,22728
30.49362,22967
30.50175,24924
30.50987,24089
30.51798,24740
30.52612,21845
30.53423,24004
30.54237,23194
30.55048,24548
30.55860,24712
30.56673,22850
30.57485,23648
30.58298,23989
30.59110,24137
30.59922,22097
30.60735,22023
30.61547,22758
30.62358,24318
30.63172,21339
30.63983,22268
30.64797,24527
30.65608,21637
30.66420,26111
30.67233,21393
30.68045,22540
30.68858,22897
30.69670,24122
30.70482,23802
30.71295,25216
30.72107,21265
30.72918,22670
30.73732,21255
30.74543,25648
30.75357,24614
30.76168,21623
30.76980,25548
30.77793,23332
30.78605,21851
30.79418,24249
30.80230,21285
30.81042,24091
30.81855,24612
30.82667,23182
30.83480,25195
30.84292,22598
30.85103,22980
30.85917,23586
30.86728,22746
30.87540,24374
30.88353,25625
30.89165,22286
30.89978,24445
30.90790,21891
30.91602,21216
30.92415,22586
30.93227,22595
30.94040,24239
30.94852,24274
30.95663,22677
30.96477,23057
30.97288,21537
30.98102,24913
30.98913,26558
30.99725,26003
31.00538,21281
31.01350,23322
31.02162,26175
31.02975,25149
31.03787,20823
31.04600,23178
31.05412,22823
31.06223,24315
31.07037,25593
31.07848,25931
31.08662,24188
31.09473,25998
31.10285,27006
31.11098,25301
31.11910,25248
31.12722,25383
31.13535,22644
31.14347,24680
31.15160,24086
31.15972,25428
31.16783,29737
31.17597,35902
31.18408,44441
31.19222,54019
31.20033,64938
31.20845,64966
31.21658,68431
31.22470,67540
31.23283,54593
31.24095,45213
31.24907,35412
31.25720,31965
31.26532,29094
31.27343,28492
31.28157,26328
31.28968,24320
31.29782,24180
31.30593,24873
31.31405,26829
31.32218,25736
31.33030,24967
31.33843,27491
31.34655,26543
31.35467,24594
31.36280,24887
31.37092,23986
31.37903,22655
31.38717,23407
31.39528,24494
31.40342,23830
31.41153,22613
31.41965,24820
31.42778,23984
31.43590,22892
31.44403,24786
31.45215,24998
31.46027,25405
31.46840,23305
31.47652,23596
31.48465,24735
31.49277,24294
31.50088,24773
31.50902,23980
31.51713,23129
31.52525,23078
31.53338,21916
31.54150,23764
31.54963,22154
31.55775,26237
31.56587,22215
31.57400,22111
31.58212,23876
31.59025,25763
31.59837,27002
31.60648,25133
31.61462,25387
31.62273,27954
31.63087,23863
31.63898,23866
31.64710,23507
31.65523,22737
31.66335,23476
31.67147,25362
31.67960,24882
31.68772,24195
31.69585,25484
31.70397,27978
31.71208,21490
31.72022,24452
31.72833,22769
31.73647,23939
31.74458,22044
31.75270,26505
31.76083,24990
31.76895,25719
31.77708,27024
31.78520,23902
31.79332,24952
31.80145,24658
31.80957,26338
31.81768,28386
31.82582,26778
31.83393,29534
31.84207,34543
31.85018,33610
31.85830,38902
31.86643,40047
31.87455,43424
31.88268,47393
31.89080,41340
31.89892,40643
31.90705,40453
31.91517,39922
31.92328,36874
31.93142,41777
31.93953,39224
31.94767,34455
31.95578,33192
31.96390,32950
31.97203,31892
31.98015,32988
31.98828,33999
31.99640,30769
32.00452,30009
32.01265,30013
32.02077,33395
32.02890,29710
32.03702,32199
32.04513,24395
32.05327,28483
32.06138,27989
32.06950,24748
32.07763,27994
32.08575,27831
32.09388,29776
32.10200,24179
32.11012,25577
32.11825,26432
32.12637,26881
32.13450,26495
32.14262,26957
32.15073,25630
32.15887,24589
32.16698,25958
32.17510,25254
32.18323,26773
32.19135,23203
32.19948,27004
32.20760,33048
32.21572,28161
32.22385,25476
32.23197,23743
32.24010,26243
32.24822,27055
32.25633,26028
32.26447,24681
32.27258,25289
32.28072,24741
32.28883,26999
32.29695,23692
32.30508,25622
32.31320,24298
32.32132,24254
32.32945,24448
32.33757,24706
32.34570,23708
32.35382,24546
32.36193,24884
32.37007,23674
32.37818,28114
32.38632,23677
32.39443,25335
32.40255,25439
32.41068,26191
32.41880,26280
32.42693,23052
32.43505,26337
32.44317,29918
32.45130,26510
32.45942,25952
32.46753,24842
32.47567,24115
32.48378,23196
32.49192,27677
32.50003,22288
32.50815,25713
32.51628,23927
32.52440,25314
32.53253,21249
32.54065,23042
32.54877,26219
32.55690,28001
32.56502,29532
32.57313,36119
32.58127,39524
32.58938,38853
32.59752,35942
32.60563,35746
32.61375,31237
32.62188,30158
32.63000,26912
32.63813,23537
32.64625,25729
32.65437,27920
32.66250,23409
32.67062,23352
32.67875,23978
32.68687,26658
32.69498,28482
32.70312,28241
32.71123,32536
32.71935,26690
32.72748,25075
32.73560,24002
32.74373,25684
32.75185,27554
32.75997,25889
32.76810,26329
32.77622,28605
32.78435,23777
32.79247,25923
32.80058,25236
32.80872,26480
32.81683,24498
32.82497,25323
32.83308,26910
32.84120,23623
32.84933,25840
32.85745,23536
32.86557,28786
32.87370,29677
32.88182,27378
32.88995,26200
32.89807,23885
32.90618,27270
32.91432,24268
32.92243,24524
32.93057,26003
32.93868,25345
32.94680,26114
32.95493,25559
32.96305,26068
32.97117,27384
32.97930,25063
32.98742,23536
32.99555,23599
33.00367,24760
33.01178,25815
33.01992,25511
33.02803,26358
33.03617,27195
33.04428,27139
33.05240,26120
33.06053,25962
33.06865,23770
33.07678,27369
33.08490,27590
33.09302,29469
33.10115,36774
33.10927,36711
33.11738,40616
33.12552,37527
33.13363,34968
33.14177,31367
33.14988,26933
33.15800,26931
33.16613,27494
33.17425,27759
33.18238,24628
33.19050,31341
33.19862,27700
33.20675,27166
33.21487,30995
33.22298,28788
33.23112,27047
33.23923,28105
33.24737,30468
33.25548,25677
33.26360,29868
33.27173,24778
33.27985,24907
33.28798,26621
33.29610,23011
33.30422,26143
33.31235,29400
33.32047,27976
33.32860,26933
33.33672,25700
33.34483,25412
33.35297,28954
33.36108,26139
33.36920,26744
33.37733,26947
33.38545,26927
33.39358,28009
33.40170,25241
33.40982,25886
33.41795,27036
33.42607,27211
33.43420,26097
33.44232,26570
33.45043,24858
33.45857,26269
33.46668,25024
33.47482,27146
33.48293,28499
33.49105,28340
33.49918,30109
33.50730,25487
33.51542,27751
33.52355,27111
33.53167,27826
33.53980,24106
33.54792,26247
33.55603,26566
33.56417,29741
33.57228,29566
33.58042,25458
33.58853,28468
33.59665,27740
33.60478,25589
33.61290,24408
33.62102,35164
33.62915,25629
33.63727,27821
33.64540,29014
33.65352,26377
33.66163,28378
33.66977,28155
33.67788,30318
33.68602,30529
33.69413,29569
33.70225,25438
33.71038,29148
33.71850,31176
33.72663,28408
33.73475,32102
33.74287,29926
33.75100,30562
33.75912,31564
33.76723,29447
33.77537,31718
33.78348,28590
33.79162,31314
33.79973,27715
33.80785,30492
33.81598,26992
33.82410,29406
33.83223,28164
33.84035,28912
33.84847,29551
33.85660,28939
33.86472,33968
33.87285,27058
33.88097,29323
33.88908,28874
33.89722,27602
33.90533,27738
33.91345,29600
33.92158,29920
33.92970,28775
33.93783,28814
33.94595,28869
33.95407,27901
33.96220,29624
33.97032,30569
33.97845,25281
33.98657,28757
33.99468,28143
34.00282,28826
34.01093,27077
34.01905,27120
34.02718,29990
34.03530,27520
34.04343,29134
34.05155,27764
34.05967,29810
34.06780,29707
34.07592,31047
34.08405,29164
34.09217,25960
34.10028,30767
34.10842,25362
34.11653,27970
34.12467,32220
34.13278,29542
34.14090,28639
34.14903,31139
34.15715,26473
34.16527,29923
34.17340,28055
34.18152,29200
34.18965,26949
34.19777,29456
34.20588,27808
34.21402,27428
34.22213,29083
34.23027,30640
34.23838,28563
34.24650,29326
34.25463,25205
34.26275,27744
34.27088,31422
34.27900,32152
34.28712,28752
34.29525,28876
34.30337,30486
34.31148,30791
34.31962,28604
34.32773,29867
34.33587,28428
34.34398,29106
34.35210,28931
34.36023,31269
34.36835,28734
34.37648,29615
34.38460,29261
34.39272,30603
34.40085,28169
34.40897,29369
34.41708,27371
34.42522,28629
34.43333,32233
34.44147,35898
34.44958,46352
34.45770,47996
34.46583,47741
34.47395,46312
34.48208,50917
34.49020,51768
34.49832,48706
34.50645,47126
34.51457,44808
34.52270,41924
34.53082,42931
34.53893,40896
34.54707,38405
34.55518,37016
34.56330,35824
34.57143,39935
34.57955,38911
34.58768,34198
34.59580,35186
34.60392,35545
34.61205,34326
34.62017,30325
34.62830,36866
34.63642,34861
34.64453,31830
34.65267,34338
34.66078,32670
34.66890,32826
34.67703,36362
34.68515,32455
34.69328,31223
34.70140,27449
34.70952,30417
34.71765,31402
34.72577,30142
34.73390,31390
34.74202,30723
34.75013,28405
34.75827,30068
34.76638,28927
34.77452,29200
34.78263,31380
34.79075,29032
34.79888,30864
34.80700,31473
34.81512,31234
34.82325,32154
34.83137,29875
34.83950,32500
34.84762,32057
34.85573,31344
34.86387,30553
34.87198,29575
34.88012,28635
34.88823,30959
34.89635,32848
34.90448,35199
34.91260,32949
34.92073,30698
34.92885,33286
34.93697,32303
34.94510,30440
34.95322,32132
34.96133,29948
34.96947,31763
34.97758,31656
34.98572,32314
34.99383,29175
35.00195,29148
35.01008,30327
35.01820,34848
35.02633,33098
35.03445,30831
35.04257,29715
35.05070,32563
35.05882,34037
35.06693,29954
35.07507,30767
35.08318,33735
35.09132,31655
35.09943,29982
35.10755,33900
35.11568,29732
35.12380,32608
35.13193,36236
35.14005,30212
35.14817,27831
35.15630,30928
35.16442,31862
35.17255,29741
35.18067,29741
35.18878,28781
35.19692,31168
35.20503,32308
35.21315,33903
35.22128,35385
35.22940,31539
35.23753,32525
35.24565,31061
35.25377,34210
35.26190,31989
35.27002,33528
35.27815,30887
35.28627,28936
35.29438,35353
35.30252,33170
35.31063,33470
35.31877,31749
35.32688,31958
35.33500,33713
35.34313,32337
35.35125,32422
35.35937,34281
35.36750,35809
35.37562,31810
35.38375,31354
35.39187,31525
35.39998,28041
35.40812,30595
35.41623,33482
35.42437,31822
35.43248,32087
35.44060,30147
35.44873,33248
35.45685,34460
35.46497,35323
35.47310,33781
35.48122,33331
35.48935,34490
35.49747,32393
35.50558,33858
35.51372,31620
35.52183,31662
35.52997,36537
35.53808,34551
35.54620,28922
35.55433,34023
35.56245,31461
35.57058,35870
35.57870,34593
35.58682,32823
35.59495,36514
35.60307,33112
35.61118,34642
35.61932,32293
35.62743,32926
35.63557,32010
35.64368,34271
35.65180,33415
35.65993,35613
35.66805,35658
35.67618,35260
35.68430,33630
35.69242,30157
35.70055,36921
35.70867,34033
35.71678,33909
35.72492,33365
35.73303,33164
35.74117,31977
35.74928,33014
35.75740,37665
35.76553,37937
35.77365,34866
35.78178,34288
35.78990,34877
35.79802,36978
35.80615,37294
35.81427,34376
35.82240,35674
35.83052,36991
35.83863,34785
35.84677,34900
35.85488,34699
35.86300,34447
35.87113,35293
35.87925,37296
35.88738,34117
35.89550,33128
35.90362,37351
35.91175,34408
35.91987,34276
35.92800,35742
35.93612,34879
35.94423,37164
35.95237,34357
35.96048,37343
35.96862,32584
35.97673,37539
35.98485,34110
35.99298,35902
36.00110,33819
36.00922,36353
36.01735,35427
36.02547,37992
36.03360,38290
36.04172,37028
36.04983,35261
36.05797,36912
36.06608,37273
36.07422,38698
36.08233,37557
36.09045,36915
36.09858,36669
36.10670,33614
36.11483,35245
36.12295,36710
36.13107,35841
36.13920,38035
36.14732,38600
36.15543,38506
36.16357,37789
36.17168,36014
36.17982,38082
36.18793,37582
36.19605,39265
36.20418,43437
36.21230,45548
36.22043,46343
36.22855,54992
36.23667,56758
36.24480,45703
36.25292,44764
36.26103,41963
36.26917,38768
36.27728,40309
36.28542,40321
36.29353,36005
36.30165,36872
36.30978,34729
36.31790,39460
36.32603,39179
36.33415,35981
36.34227,36431
36.35040,33837
36.35852,36291
36.36665,36720
36.37477,38072
36.38288,36319
36.39102,37503
36.39913,36341
36.40725,36644
36.41538,37195
36.42350,38091
36.43163,40348
36.43975,38487
36.44787,38020
36.45600,37965
36.46412,38550
36.47225,42679
36.48037,37330
36.48848,38894
36.49662,38335
36.50473,39192
36.51285,38335
36.52098,37333
36.52910,40038
36.53723,39385
36.54535,40939
36.55347,42336
36.56160,40905
36.56972,41350
36.57785,38741
36.58597,41975
36.59408,41386
36.60222,38765
36.61033,41507
36.61847,39683
36.62658,38009
36.63470,42803
36.64283,42063
36.65095,40236
36.65907,39242
36.66720,39474
36.67532,39388
36.68345,42639
36.69157,38847
36.69968,41196
36.70782,39444
36.71593,39661
36.72407,40986
36.73218,37968
36.74030,42683
36.74843,41215
36.75655,40905
36.76468,41545
36.77280,44786
36.78092,42289
36.78905,42276
36.79717,39976
36.80528,40722
36.81342,41688
36.82153,43012
36.82967,40531
36.83778,41800
36.84590,43243
36.85403,43430
36.86215,42083
36.87028,44765
36.87840,46374
36.88652,45370
36.89465,42859
36.90277,42186
36.91088,44051
36.91902,45948
36.92713,44767
36.93527,45785
36.94338,42853
36.95150,45180
36.95963,44594
36.96775,44154
36.97588,47323
36.98400,44442
36.99212,45956
37.00025,48387
37.00837,53183
37.01650,54957
37.02462,53991
37.03273,56378
37.04087,58733
37.04898,51097
37.05710,52620
37.06523,48874
37.07335,47916
37.08148,46245
37.08960,49260
37.09772,46715
37.10585,46256
37.11397,43627
37.12210,42715
37.13022,45540
37.13833,47054
37.14647,52434
37.15458,46825
37.16272,45028
37.17083,46304
37.17895,47681
37.18708,48519
37.19520,50289
37.20332,44426
37.21145,48106
37.21957,44805
37.22770,47028
37.23582,50909
37.24393,54892
37.25207,59955
37.26018,63399
37.26832,65667
37.27643,64389
37.28455,66408
37.29268,68488
37.30080,60815
37.30892,62739
37.31705,55245
37.32517,51376
37.33330,54197
37.34142,56481
37.34953,52634
37.35767,49907
37.36578,53225
37.37392,51686
37.38203,53483
37.39015,51625
37.39828,50648
37.40640,51377
37.41453,52930
37.42265,49816
37.43077,54000
37.43890,55068
37.44702,48850
37.45513,48648
37.46327,49221
37.47138,48676
37.47952,49864
37.48763,45645
