C:\MassHunter\GCMS\1\data\JTB-E18\JTB-E18-034-08.D Tue Oct 15 16:42:32 2019
Start of data points
2.09530,203913
2.10342,189431
2.11153,187790
2.11967,178542
2.12778,170344
2.13590,169081
2.14403,173607
2.15215,156031
2.16028,156370
2.16840,155845
2.17652,144689
2.18465,141089
2.19277,139272
2.20090,140779
2.20902,136545
2.21713,130077
2.22527,133241
2.23338,130481
2.24150,126704
2.24963,124707
2.25775,121100
2.26588,176886
2.27400,1106990
2.28212,2922817
2.29025,1948297
2.29837,879555
2.30650,621439
2.31462,524347
2.32273,453400
2.33087,440225
2.33898,548553
2.34712,431730
2.35523,337798
2.36335,307365
2.37148,282475
2.37960,283637
2.38772,351189
2.39585,318344
2.40397,271749
2.41210,253562
2.42022,240800
2.42833,243783
2.43647,224283
2.44458,220606
2.45272,222415
2.46083,207150
2.46895,190593
2.47708,182127
2.48520,184040
2.49332,206393
2.50145,223471
2.50957,204362
2.51770,188731
2.52582,184889
2.53393,181471
2.54207,171449
2.55018,183522
2.55832,221862
2.56643,255219
2.57455,212593
2.58268,194925
2.59080,185975
2.59893,181920
2.60705,178827
2.61517,231133
2.62330,293210
2.63142,290271
2.63953,221596
2.64767,189106
2.65578,175755
2.66392,172708
2.67203,174301
2.68015,184115
2.68828,198839
2.69640,172498
2.70453,158078
2.71265,157629
2.72077,164693
2.72890,157991
2.73702,157995
2.74515,149539
2.75327,154947
2.76138,143528
2.76952,140542
2.77763,153396
2.78575,205874
2.79388,241130
2.80200,203505
2.81013,193888
2.81825,252094
2.82637,401799
2.83450,654921
2.84262,679658
2.85075,453692
2.85887,345692
2.86698,317349
2.87512,281169
2.88323,252936
2.89135,230191
2.89948,208868
2.90760,193358
2.91573,182591
2.92385,169940
2.93197,170688
2.94010,167292
2.94822,158893
2.95635,153452
2.96447,153392
2.97258,146795
2.98072,142652
2.98883,150823
2.99697,177402
3.00508,188267
3.01320,180203
3.02133,197477
3.02945,317579
3.03757,563691
3.04570,839717
3.05382,2173179
3.06195,5504284
3.07007,6507847
3.07818,4268329
3.08632,2542205
3.09443,1975994
3.10257,2276892
3.11068,3669103
3.11880,4088906
3.12693,2802755
3.13505,1831621
3.14318,1407297
3.15130,1127296
3.15942,932955
3.16755,891426
3.17567,974317
3.18378,1075754
3.19192,1747465
3.20003,2560221
3.20817,2177452
3.21628,1515250
3.22440,1164153
3.23253,963750
3.24065,820483
3.24878,695808
3.25690,593617
3.26502,537386
3.27315,484716
3.28127,486880
3.28938,739583
3.29752,1646620
3.30563,3103217
3.31377,3875995
3.32188,3454529
3.33000,2625824
3.33813,2007910
3.34625,1621854
3.35438,1392132
3.36250,1206289
3.37062,1173677
3.37875,1251090
3.38687,1336187
3.39500,1214531
3.40312,1268805
3.41123,2035403
3.41937,3034570
3.42748,2851128
3.43560,1953839
3.44373,1369414
3.45185,1084054
3.45998,974638
3.46810,875694
3.47622,821370
3.48435,782789
3.49247,702546
3.50060,666312
3.50872,616491
3.51683,598555
3.52497,578711
3.53308,579488
3.54122,579993
3.54933,561470
3.55745,520549
3.56558,493203
3.57370,466280
3.58182,450499
3.58995,430170
3.59807,422448
3.60620,412565
3.61432,447216
3.62243,691057
3.63057,1323107
3.63868,2019591
3.64682,1975844
3.65493,1434706
3.66305,1216529
3.67118,2316432
3.67930,5316606
3.68742,7162968
3.69555,5834978
3.70367,3967866
3.71180,2985627
3.71992,2400648
3.72803,1996139
3.73617,1716212
3.74428,1481621
3.75242,1330688
3.76053,1213701
3.76865,1139509
3.77678,1093429
3.78490,1027800
3.79303,973362
3.80115,954465
3.80927,1122999
3.81740,1583622
3.82552,1785539
3.83363,1501664
3.84177,1197770
3.84988,986818
3.85802,883089
3.86613,788144
3.87425,713476
3.88238,666160
3.89050,617433
3.89863,588696
3.90675,561606
3.91487,564130
3.92300,656881
3.93112,787415
3.93923,834905
3.94737,748660
3.95548,767557
3.96362,1016782
3.97173,1235956
3.97985,1123768
3.98798,885678
3.99610,805682
4.00423,1238918
4.01235,2262908
4.02047,2972965
4.02860,2582065
4.03672,1743979
4.04485,1176468
4.05297,858894
4.06108,711426
4.06922,605780
4.07733,546745
4.08545,496367
4.09358,456632
4.10170,419796
4.10983,394319
4.11795,379763
4.12607,377758
4.13420,516459
4.14232,1237890
4.15045,2691078
4.15857,3385402
4.16668,2681318
4.17482,1692955
4.18293,1126034
4.19107,822794
4.19918,645796
4.20730,637301
4.21543,1434551
4.22355,4825036
4.23167,1.126025E+07
4.23980,1.73295E+07
4.24792,1.903316E+07
4.25605,1.420566E+07
4.26417,7962784
4.27228,4716320
4.28042,3265024
4.28853,2398416
4.29667,1840880
4.30478,1512435
4.31290,1239786
4.32103,1071351
4.32915,959999
4.33727,867066
4.34540,802729
4.35352,758504
4.36165,760453
4.36977,727894
4.37788,673081
4.38602,625102
4.39413,579094
4.40227,534676
4.41038,497724
4.41850,481441
4.42663,464802
4.43475,444393
4.44288,442583
4.45100,439349
4.45912,431890
4.46725,414967
4.47537,402155
4.48348,385777
4.49162,370949
4.49973,367708
4.50787,356399
4.51598,343704
4.52410,337870
4.53223,334219
4.54035,330448
4.54848,333407
4.55660,325648
4.56472,315400
4.57285,295521
4.58097,294725
4.58910,286967
4.59722,277711
4.60533,282674
4.61347,275598
4.62158,309253
4.62970,388238
4.63783,553279
4.64595,696183
4.65408,677926
4.66220,565149
4.67032,465481
4.67845,411454
4.68657,379779
4.69470,345961
4.70282,326298
4.71093,299413
4.71907,286790
4.72718,271044
4.73530,267739
4.74343,253752
4.75155,253627
4.75968,245565
4.76780,235733
4.77592,242001
4.78405,233337
4.79217,248125
4.80030,298726
4.80842,369188
4.81653,391563
4.82467,370953
4.83278,331309
4.84092,308040
4.84903,310587
4.85715,301507
4.86528,283573
4.87340,264640
4.88152,261205
4.88965,245867
4.89777,238043
4.90590,243308
4.91402,249066
4.92213,314320
4.93027,488214
4.93838,793041
4.94652,1083116
4.95463,1234018
4.96275,1115734
4.97088,944236
4.97900,768652
4.98712,651276
4.99525,576945
5.00337,533752
5.01150,498791
5.01962,494061
5.02773,608052
5.03587,904946
5.04398,1254574
5.05212,1349981
5.06023,1242182
5.06835,1021644
5.07648,874378
5.08460,786021
5.09273,705558
5.10085,657435
5.10897,650851
5.11710,661782
5.12522,636421
5.13333,588421
5.14147,554349
5.14958,498501
5.15772,495492
5.16583,524009
5.17395,569471
5.18208,606486
5.19020,608327
5.19833,583347
5.20645,565698
5.21457,538896
5.22270,503820
5.23082,484175
5.23895,471451
5.24707,455972
5.25518,428734
5.26332,381625
5.27143,358332
5.27955,334286
5.28768,319269
5.29580,313838
5.30393,303670
5.31205,286597
5.32017,290856
5.32830,291867
5.33642,287230
5.34455,292616
5.35267,293378
5.36078,282586
5.36892,275610
5.37703,276437
5.38517,279171
5.39328,285084
5.40140,281326
5.40953,282193
5.41765,272640
5.42577,258960
5.43390,254206
5.44202,245229
5.45015,244751
5.45827,245014
5.46638,243952
5.47452,236691
5.48263,230784
5.49077,227121
5.49888,214830
5.50700,217522
5.51513,222834
5.52325,215894
5.53137,208511
5.53950,208700
5.54762,215645
5.55575,210942
5.56387,233226
5.57198,259677
5.58012,283410
5.58823,290598
5.59637,284578
5.60448,264255
5.61260,242294
5.62073,222929
5.62885,227047
5.63698,219343
5.64510,210586
5.65322,206526
5.66135,211736
5.66947,207596
5.67758,210205
5.68572,223378
5.69383,242624
5.70197,264527
5.71008,269212
5.71820,275662
5.72633,273475
5.73445,266707
5.74258,260344
5.75070,248029
5.75882,249996
5.76695,261129
5.77507,262900
5.78318,257894
5.79132,236415
5.79943,253426
5.80757,313854
5.81568,481525
5.82380,760976
5.83193,1029985
5.84005,1130282
5.84818,991306
5.85630,731073
5.86442,531567
5.87255,412616
5.88067,352286
5.88880,311951
5.89692,291570
5.90503,294586
5.91317,335841
5.92128,413808
5.92940,503324
5.93753,568554
5.94565,527311
5.95378,448575
5.96190,419934
5.97002,448137
5.97815,534331
5.98627,622825
5.99440,655986
6.00252,581335
6.01063,468284
6.01877,394773
6.02688,329671
6.03500,305860
6.04313,273591
6.05125,251530
6.05938,238591
6.06750,226481
6.07562,212116
6.08375,209363
6.09187,203990
6.10000,191099
6.10812,190128
6.11623,191671
6.12437,206178
6.13248,249586
6.14062,347084
6.14873,436480
6.15685,462592
6.16498,426791
6.17310,362833
6.18122,325868
6.18935,297670
6.19747,289644
6.20560,285496
6.21372,278619
6.22183,261907
6.22997,251046
6.23808,240713
6.24622,236950
6.25433,229885
6.26245,232505
6.27058,234634
6.27870,234837
6.28683,228199
6.29495,227576
6.30307,226869
6.31120,233730
6.31932,226962
6.32743,230938
6.33557,238479
6.34368,249523
6.35182,243509
6.35993,252061
6.36805,258343
6.37618,247578
6.38430,253429
6.39243,248324
6.40055,241783
6.40867,231933
6.41680,233171
6.42492,237688
6.43305,245414
6.44117,235956
6.44928,245124
6.45742,246133
6.46553,241310
6.47365,248601
6.48178,250670
6.48990,247034
6.49803,258311
6.50615,256564
6.51427,257774
6.52240,269870
6.53052,258775
6.53865,259320
6.54677,259736
6.55488,263895
6.56302,272798
6.57113,289234
6.57925,308744
6.58738,326795
6.59550,316416
6.60363,301388
6.61175,281487
6.61987,293925
6.62800,281292
6.63612,280186
6.64425,306665
6.65237,430853
6.66048,801171
6.66862,1423524
6.67673,1929029
6.68487,1951141
6.69298,1587925
6.70110,1165787
6.70923,896310
6.71735,708416
6.72547,575985
6.73360,500295
6.74172,463369
6.74985,414752
6.75797,384813
6.76608,338819
6.77422,284954
6.78233,315157
6.79047,416988
6.79858,595109
6.80670,781797
6.81483,877871
6.82295,787562
6.83107,575848
6.83920,394534
6.84732,295439
6.85545,230402
6.86357,193887
6.87168,174556
6.87982,159597
6.88793,146836
6.89607,142469
6.90418,134349
6.91230,132222
6.92043,140498
6.92855,171806
6.93668,214658
6.94480,280277
6.95292,316856
6.96105,330653
6.96917,295460
6.97728,250461
6.98542,210058
6.99353,178729
7.00167,156163
7.00978,132729
7.01790,127981
7.02603,119086
7.03415,119777
7.04228,121621
7.05040,123880
7.05852,118245
7.06665,108660
7.07477,113484
7.08290,103634
7.09102,104429
7.09913,99572
7.10727,105907
7.11538,96473
7.12350,93050
7.13163,99731
7.13975,99762
7.14788,105076
7.15600,123414
7.16412,139041
7.17225,155029
7.18037,170321
7.18850,170719
7.19662,169543
7.20473,160231
7.21287,178221
7.22098,279130
7.22910,582340
7.23723,1094251
7.24535,1468475
7.25348,1475711
7.26160,1084788
7.26972,668128
7.27785,404825
7.28597,294524
7.29410,265942
7.30222,252840
7.31033,262576
7.31847,275022
7.32658,281566
7.33472,263327
7.34283,220257
7.35095,186754
7.35908,153759
7.36720,138715
7.37532,129030
7.38345,121586
7.39157,114146
7.39970,132474
7.40782,142547
7.41593,158282
7.42407,178675
7.43218,186133
7.44032,171971
7.44843,167562
7.45655,141598
7.46468,130373
7.47280,115746
7.48093,106478
7.48905,99175
7.49717,99435
7.50530,102387
7.51342,111413
7.52153,129848
7.52967,170511
7.53778,222617
7.54592,271713
7.55403,312945
7.56215,319581
7.57028,279925
7.57840,237748
7.58653,190518
7.59465,151881
7.60277,126004
7.61090,120272
7.61902,112523
7.62713,109461
7.63527,99806
7.64338,101507
7.65152,93729
7.65963,91012
7.66775,91511
7.67588,87999
7.68400,87478
7.69213,81657
7.70025,81567
7.70837,88952
7.71650,89103
7.72462,82312
7.73275,82270
7.74087,81951
7.74898,84176
7.75712,84683
7.76523,89162
7.77335,86240
7.78148,84615
7.78960,85963
7.79773,89323
7.80585,88600
7.81397,86777
7.82210,89850
7.83022,81919
7.83835,80749
7.84647,80765
7.85458,83576
7.86272,78434
7.87083,84146
7.87895,87229
7.88708,90833
7.89520,90189
7.90333,89871
7.91145,85547
7.91957,81699
7.92770,89087
7.93582,100716
7.94395,114506
7.95207,121267
7.96018,115560
7.96832,101749
7.97643,96471
7.98457,87508
7.99268,78005
8.00080,82300
8.00893,76132
8.01705,75022
8.02517,75966
8.03330,69733
8.04142,71099
8.04955,72290
8.05767,73080
8.06578,69286
8.07392,68774
8.08203,70222
8.09017,69811
8.09828,67635
8.10640,64874
8.11453,65507
8.12265,66631
8.13078,76557
8.13890,71588
8.14702,77277
8.15515,82630
8.16327,73415
8.17138,73893
8.17952,68256
8.18763,71195
8.19577,67375
8.20388,69225
8.21200,65116
8.22013,66398
8.22825,63336
8.23638,64815
8.24450,61005
8.25262,63742
8.26075,63152
8.26887,60061
8.27698,63420
8.28512,59355
8.29323,63060
8.30137,61209
8.30948,61558
8.31760,59997
8.32573,64199
8.33385,66060
8.34198,58863
8.35010,59987
8.35822,61189
8.36635,60245
8.37447,57456
8.38260,59079
8.39072,56839
8.39883,56518
8.40697,59756
8.41508,56047
8.42320,52025
8.43133,53851
8.43945,52827
8.44758,56155
8.45570,54326
8.46382,55803
8.47195,55996
8.48007,57847
8.48820,55765
8.49632,54634
8.50443,55293
8.51257,55440
8.52068,59822
8.52882,69024
8.53693,90509
8.54505,130201
8.55318,188899
8.56130,220273
8.56942,200948
8.57755,163558
8.58567,121670
8.59380,89724
8.60192,79256
8.61003,75239
8.61817,69782
8.62628,65996
8.63442,70187
8.64253,54998
8.65065,60518
8.65878,61670
8.66690,59338
8.67502,57405
8.68315,64172
8.69127,54281
8.69940,60881
8.70752,62423
8.71563,73038
8.72377,98847
8.73188,145283
8.74002,215739
8.74813,253336
8.75625,239143
8.76438,228411
8.77250,179669
8.78063,149931
8.78875,119278
8.79687,110175
8.80500,104378
8.81312,93757
8.82123,104181
8.82937,108263
8.83748,111021
8.84562,112285
8.85373,105774
8.86185,100917
8.86998,97445
8.87810,93332
8.88623,91535
8.89435,90927
8.90247,83164
8.91060,86563
8.91872,87882
8.92685,84204
8.93497,90522
8.94308,87510
8.95122,95085
8.95933,102688
8.96745,94105
8.97558,95144
8.98370,87775
8.99183,77516
8.99995,84054
9.00807,77850
9.01620,80772
9.02432,77115
9.03245,77484
9.04057,72770
9.04868,74012
9.05682,69735
9.06493,66299
9.07305,71494
9.08118,74613
9.08930,67852
9.09743,72365
9.10555,76635
9.11367,83086
9.12180,88348
9.12992,84661
9.13805,79197
9.14617,69750
9.15428,76885
9.16242,68518
9.17053,64579
9.17867,64866
9.18678,65076
9.19490,65314
9.20303,60037
9.21115,63904
9.21927,63345
9.22740,62183
9.23552,62776
9.24365,65654
9.25177,62630
9.25988,63137
9.26802,62296
9.27613,61218
9.28427,63159
9.29238,57472
9.30050,56282
9.30863,56009
9.31675,63356
9.32487,64189
9.33300,64657
9.34112,62354
9.34925,63609
9.35737,65536
9.36548,60683
9.37362,57908
9.38173,53315
9.38987,58243
9.39798,58016
9.40610,67074
9.41423,75112
9.42235,84800
9.43048,88663
9.43860,93090
9.44672,94815
9.45485,83325
9.46297,72662
9.47108,64152
9.47922,62771
9.48733,56965
9.49547,53319
9.50358,58623
9.51170,58237
9.51983,59995
9.52795,58243
9.53608,56086
9.54420,51767
9.55232,45610
9.56045,45942
9.56857,41623
9.57670,39445
9.58482,42534
9.59293,39546
9.60107,44279
9.60918,45415
9.61730,39930
9.62543,41544
9.63355,38874
9.64168,42041
9.64980,40331
9.65792,43369
9.66605,37727
9.67417,38234
9.68230,40726
9.69042,39588
9.69853,37135
9.70667,35702
9.71478,37903
9.72290,34857
9.73103,36211
9.73915,39887
9.74728,35238
9.75540,35330
9.76352,35433
9.77165,34099
9.77977,34610
9.78790,37079
9.79602,35968
9.80413,34131
9.81227,33366
9.82038,39826
9.82852,30892
9.83663,33180
9.84475,33812
9.85288,38362
9.86100,36720
9.86912,39720
9.87725,40626
9.88537,39126
9.89350,34600
9.90162,36137
9.90973,34307
9.91787,41759
9.92598,37866
9.93412,38067
9.94223,47575
9.95035,51573
9.95848,58455
9.96660,60423
9.97473,64121
9.98285,59277
9.99097,56470
9.99910,49609
10.00722,49139
10.01533,41975
10.02347,43235
10.03158,42143
10.03972,39233
10.04783,42956
10.05595,39108
10.06408,39184
10.07220,36294
10.08033,38776
10.08845,36588
10.09657,39296
10.10470,37536
10.11282,37030
10.12093,37626
10.12907,36659
10.13718,34865
10.14532,37166
10.15343,38054
10.16155,38611
10.16968,34837
10.17780,35048
10.18593,34200
10.19405,31831
10.20217,39989
10.21030,35880
10.21842,37893
10.22655,42633
10.23467,40276
10.24278,41481
10.25092,49619
10.25903,54105
10.26715,85593
10.27528,167274
10.28340,360932
10.29153,715026
10.29965,1204211
10.30777,1814278
10.31590,2746867
10.32402,4093621
10.33215,5624087
10.34027,6419269
10.34838,5826405
10.35652,4356345
10.36463,2848955
10.37275,1777199
10.38088,1098464
10.38900,725638
10.39713,494717
10.40525,358414
10.41337,272283
10.42150,225165
10.42962,195371
10.43775,184477
10.44587,180495
10.45398,171696
10.46212,159094
10.47023,152595
10.47837,141260
10.48648,142661
10.49460,135045
10.50273,126586
10.51085,124804
10.51897,112896
10.52710,103959
10.53522,101556
10.54335,94562
10.55147,94446
10.55958,88598
10.56772,93618
10.57583,85429
10.58397,87615
10.59208,79989
10.60020,82274
10.60833,79946
10.61645,78672
10.62458,75801
10.63270,75085
10.64082,73707
10.64895,71088
10.65707,69150
10.66518,67498
10.67332,66785
10.68143,66453
10.68957,65239
10.69768,63444
10.70580,61873
10.71393,63721
10.72205,62559
10.73018,62064
10.73830,55989
10.74642,60377
10.75455,56727
10.76267,56877
10.77080,53048
10.77892,57500
10.78703,57619
10.79517,54241
10.80328,58102
10.81140,52157
10.81953,52625
10.82765,52917
10.83578,54333
10.84390,54992
10.85202,53800
10.86015,46612
10.86827,47820
10.87640,48702
10.88452,50588
10.89263,45989
10.90077,51198
10.90888,47024
10.91700,49240
10.92513,45679
10.93325,44129
10.94138,46251
10.94950,42985
10.95762,44513
10.96575,47261
10.97387,44326
10.98200,43372
10.99012,45535
10.99823,45269
11.00637,44856
11.01448,43480
11.02262,46780
11.03073,42365
11.03885,40818
11.04698,41204
11.05510,40834
11.06322,41199
11.07135,44821
11.07947,44771
11.08760,51698
11.09572,50729
11.10383,48995
11.11197,48413
11.12008,50203
11.12822,47973
11.13633,43697
11.14445,43069
11.15258,46060
11.16070,38185
11.16882,45474
11.17695,43980
11.18507,44174
11.19320,42270
11.20132,40608
11.20943,41060
11.21757,37918
11.22568,37198
11.23382,39389
11.24193,40686
11.25005,48608
11.25818,62389
11.26630,73975
11.27443,92172
11.28255,102708
11.29067,111457
11.29880,129479
11.30692,151425
11.31503,211724
11.32317,311436
11.33128,461419
11.33942,576405
11.34753,629576
11.35565,561101
11.36378,445053
11.37190,317096
11.38003,230239
11.38815,184098
11.39627,160510
11.40440,152303
11.41252,146505
11.42063,133826
11.42877,132989
11.43688,116645
11.44502,109723
11.45313,100098
11.46125,97357
11.46938,98390
11.47750,93359
11.48563,99049
11.49375,103118
11.50187,112166
11.51000,110873
11.51812,109745
11.52625,108607
11.53437,102529
11.54248,95252
11.55062,90145
11.55873,83517
11.56685,78740
11.57498,74330
11.58310,70229
11.59123,74236
11.59935,76505
11.60747,78494
11.61560,88872
11.62372,96682
11.63185,94510
11.63997,83914
11.64808,83239
11.65622,75138
11.66433,65237
11.67247,67969
11.68058,64135
11.68870,65693
11.69683,68907
11.70495,73819
11.71307,77723
11.72120,75699
11.72932,75500
11.73745,72793
11.74557,70806
11.75368,63657
11.76182,61597
11.76993,58966
11.77807,52438
11.78618,58293
11.79430,55195
11.80243,49857
11.81055,52122
11.81868,47615
11.82680,47198
11.83492,48621
11.84305,47772
11.85117,46057
11.85928,46680
11.86742,49701
11.87553,47883
11.88367,41181
11.89178,44812
11.89990,52088
11.90803,50933
11.91615,58015
11.92428,61767
11.93240,68606
11.94052,62093
11.94865,51977
11.95677,53183
11.96488,52609
11.97302,48381
11.98113,56042
11.98927,48210
11.99738,49384
12.00550,54403
12.01363,57490
12.02175,57431
12.02988,54499
12.03800,53087
12.04612,52597
12.05425,47479
12.06237,48006
12.07050,50690
12.07862,47688
12.08673,47566
12.09487,48729
12.10298,48970
12.11110,51186
12.11923,52929
12.12735,47022
12.13548,47773
12.14360,43740
12.15172,38584
12.15985,40714
12.16797,38357
12.17610,41509
12.18422,38084
12.19233,39242
12.20047,37754
12.20858,43031
12.21670,39322
12.22483,39025
12.23295,35296
12.24108,38661
12.24920,38739
12.25732,38059
12.26545,37855
12.27357,39005
12.28170,38769
12.28982,36912
12.29793,35093
12.30607,36131
12.31418,36484
12.32232,35541
12.33043,36406
12.33855,35885
12.34668,35035
12.35480,38065
12.36292,36549
12.37105,36378
12.37917,40875
12.38730,37870
12.39542,40865
12.40353,57571
12.41167,71187
12.41978,87119
12.42792,96280
12.43603,86347
12.44415,79173
12.45228,63863
12.46040,50615
12.46853,48154
12.47665,44780
12.48477,44672
12.49290,43143
12.50102,39345
12.50913,43421
12.51727,38846
12.52538,40717
12.53352,41290
12.54163,42142
12.54975,53638
12.55788,70587
12.56600,77816
12.57413,82928
12.58225,82939
12.59037,76042
12.59850,64901
12.60662,52129
12.61473,43673
12.62287,44205
12.63098,39677
12.63912,38362
12.64723,40878
12.65535,44070
12.66348,38673
12.67160,37960
12.67973,35505
12.68785,33999
12.69597,37115
12.70410,35232
12.71222,34327
12.72035,34399
12.72847,35445
12.73658,35776
12.74472,39390
12.75283,37576
12.76095,36173
12.76908,38510
12.77720,40706
12.78533,42485
12.79345,41750
12.80157,39420
12.80970,37901
12.81782,36340
12.82595,32812
12.83407,31978
12.84218,31820
12.85032,32037
12.85843,30765
12.86657,30141
12.87468,34844
12.88280,38406
12.89093,32126
12.89905,35328
12.90717,32261
12.91530,36994
12.92342,36909
12.93155,45537
12.93967,62259
12.94778,71987
12.95592,84521
12.96403,89024
12.97217,91209
12.98028,86385
12.98840,84148
12.99653,77583
13.00465,66995
13.01277,59976
13.02090,59220
13.02902,60634
13.03715,49431
13.04527,50961
13.05338,44954
13.06152,43330
13.06963,45622
13.07777,45250
13.08588,39448
13.09400,41747
13.10213,39426
13.11025,37965
13.11838,36726
13.12650,36100
13.13462,37283
13.14275,40180
13.15087,37895
13.15898,42414
13.16712,39255
13.17523,43052
13.18337,38264
13.19148,38186
13.19960,36488
13.20773,39853
13.21585,38020
13.22398,39814
13.23210,40873
13.24022,41872
13.24835,44590
13.25647,45588
13.26458,47978
13.27272,44889
13.28083,50038
13.28897,45284
13.29708,42460
13.30520,41335
13.31333,47962
13.32145,46426
13.32958,46912
13.33770,43007
13.34582,45969
13.35395,38934
13.36207,40100
13.37020,37737
13.37832,39806
13.38643,38367
13.39457,35401
13.40268,36772
13.41080,37993
13.41893,37181
13.42705,34681
13.43518,34284
13.44330,33038
13.45142,34643
13.45955,37901
13.46767,34654
13.47580,32721
13.48392,35449
13.49203,34954
13.50017,33264
13.50828,30668
13.51642,33129
13.52453,36586
13.53265,43186
13.54078,43836
13.54890,44387
13.55702,41266
13.56515,41915
13.57327,44876
13.58140,44022
13.58952,51201
13.59763,53923
13.60577,67859
13.61388,85474
13.62202,101371
13.63013,108021
13.63825,103266
13.64638,88936
13.65450,65430
13.66262,57540
13.67075,58894
13.67887,50060
13.68700,46166
13.69512,44703
13.70323,45935
13.71137,45929
13.71948,42429
13.72762,41904
13.73573,44943
13.74385,48128
13.75198,58130
13.76010,81141
13.76823,108274
13.77635,138636
13.78447,154562
13.79260,164258
13.80072,177534
13.80883,165406
13.81697,176973
13.82508,196989
13.83322,206259
13.84133,180382
13.84945,169431
13.85758,148135
13.86570,126217
13.87383,110704
13.88195,101762
13.89007,93738
13.89820,83866
13.90632,84323
13.91445,76847
13.92257,67708
13.93068,67989
13.93882,61707
13.94693,60970
13.95505,53763
13.96318,55866
13.97130,58024
13.97943,56488
13.98755,55737
13.99567,53842
14.00380,52114
14.01192,56446
14.02005,53050
14.02817,51334
14.03628,49359
14.04442,53860
14.05253,49439
14.06065,45012
14.06878,45043
14.07690,45327
14.08503,47146
14.09315,45118
14.10127,43504
14.10940,42320
14.11752,48402
14.12565,51247
14.13377,70924
14.14188,87674
14.15002,104208
14.15813,125802
14.16627,122544
14.17438,112952
14.18250,101005
14.19063,88957
14.19875,83038
14.20687,80062
14.21500,74060
14.22312,74419
14.23125,70451
14.23937,71189
14.24748,71350
14.25562,65759
14.26373,64106
14.27187,59956
14.27998,57379
14.28810,55816
14.29623,51704
14.30435,50322
14.31248,46748
14.32060,42258
14.32872,38929
14.33685,42309
14.34497,37441
14.35308,36004
14.36122,38508
14.36933,41803
14.37747,34839
14.38558,40581
14.39370,46234
14.40183,65440
14.40995,85838
14.41808,112161
14.42620,137133
14.43432,131858
14.44245,114702
14.45057,94226
14.45868,74316
14.46682,66988
14.47493,53810
14.48307,49128
14.49118,44730
14.49930,44873
14.50743,45615
14.51555,42306
14.52368,43411
14.53180,44360
14.53992,40141
14.54805,38898
14.55617,38131
14.56430,42966
14.57242,39529
14.58053,38412
14.58867,37943
14.59678,35355
14.60490,36710
14.61303,37809
14.62115,35362
14.62928,34028
14.63740,36290
14.64552,32285
14.65365,35300
14.66177,33149
14.66990,34497
14.67802,34122
14.68613,32370
14.69427,35050
14.70238,30014
14.71050,34468
14.71863,35397
14.72675,36483
14.73488,34788
14.74300,32878
14.75112,35377
14.75925,34831
14.76737,34362
14.77550,34848
14.78362,39143
14.79173,60627
14.79987,109012
14.80798,217273
14.81612,433588
14.82423,730096
14.83235,1028265
14.84048,1031932
14.84860,865882
14.85672,634956
14.86485,430551
14.87297,297788
14.88110,219976
14.88922,181565
14.89733,149309
14.90547,126829
14.91358,114193
14.92172,103433
14.92983,97949
14.93795,86485
14.94608,83376
14.95420,78240
14.96233,76027
14.97045,71398
14.97857,70997
14.98670,66867
14.99482,63817
15.00293,64853
15.01107,63467
15.01918,57010
15.02732,56267
15.03543,59275
15.04355,55879
15.05168,54484
15.05980,49260
15.06793,49866
15.07605,52102
15.08417,47455
15.09230,50980
15.10042,43585
15.10853,42294
15.11667,46344
15.12478,46997
15.13292,44384
15.14103,48730
15.14915,46252
15.15728,44148
15.16540,43486
15.17353,40754
15.18165,40288
15.18977,39024
15.19790,42098
15.20602,39722
15.21415,35886
15.22227,34594
15.23038,36723
15.23852,36990
15.24663,38196
15.25475,35100
15.26288,32331
15.27100,33829
15.27913,35307
15.28725,34276
15.29537,33358
15.30350,34243
15.31162,32251
15.31975,31655
15.32787,34569
15.33598,32706
15.34412,31964
15.35223,31650
15.36037,33977
15.36848,32679
15.37660,32575
15.38473,33612
15.39285,31537
15.40097,33196
15.40910,31856
15.41722,32729
15.42535,32745
15.43347,34211
15.44158,32487
15.44972,40102
15.45783,40364
15.46597,50831
15.47408,61668
15.48220,83801
15.49033,110020
15.49845,118869
15.50657,121885
15.51470,116595
15.52282,107601
15.53095,101765
15.53907,96690
15.54718,97429
15.55532,89218
15.56343,78917
15.57157,73267
15.57968,64633
15.58780,57176
15.59593,53519
15.60405,52672
15.61218,51535
15.62030,48349
15.62842,45132
15.63655,45873
15.64467,42725
15.65278,45303
15.66092,44974
15.66903,40165
15.67717,38236
15.68528,38826
15.69340,37036
15.70153,35361
15.70965,38405
15.71778,37919
15.72590,33797
15.73402,34792
15.74215,36908
15.75027,39186
15.75838,46019
15.76652,56005
15.77463,70230
15.78277,85519
15.79088,93646
15.79900,86416
15.80713,79745
15.81525,68352
15.82338,58906
15.83150,53723
15.83962,48313
15.84775,45120
15.85587,41732
15.86400,39926
15.87212,39984
15.88023,41743
15.88837,41083
15.89648,39297
15.90460,38907
15.91273,39597
15.92085,39195
15.92898,36881
15.93710,36804
15.94522,33420
15.95335,37015
15.96147,41121
15.96960,35519
15.97772,37202
15.98583,37267
15.99397,40085
16.00208,42731
16.01022,44717
16.01833,42323
16.02645,44471
16.03458,36285
16.04270,36157
16.05082,32635
16.05895,35849
16.06707,33395
16.07520,33004
16.08332,31948
16.09143,38080
16.09957,36145
16.10768,34529
16.11582,33551
16.12393,36817
16.13205,37078
16.14018,37546
16.14830,36529
16.15643,35517
16.16455,36892
16.17267,32374
16.18080,35841
16.18892,40122
16.19703,31940
16.20517,36303
16.21328,34203
16.22142,33377
16.22953,32946
16.23765,36117
16.24578,31824
16.25390,30692
16.26203,27706
16.27015,32104
16.27827,35614
16.28640,34332
16.29452,37167
16.30263,38896
16.31077,36865
16.31888,34889
16.32702,34845
16.33513,37406
16.34325,32194
16.35138,34929
16.35950,32932
16.36763,33846
16.37575,35323
16.38387,33707
16.39200,36672
16.40012,37605
16.40825,35229
16.41637,29052
16.42448,32902
16.43262,33344
16.44073,35818
16.44885,40345
16.45698,55158
16.46510,67802
16.47323,93436
16.48135,109602
16.48947,112309
16.49760,103450
16.50572,87283
16.51385,67178
16.52197,57994
16.53008,53495
16.53822,49412
16.54633,44495
16.55445,41953
16.56258,45552
16.57070,42577
16.57883,40641
16.58695,41431
16.59507,47724
16.60320,43130
16.61132,45275
16.61945,39599
16.62757,40017
16.63568,40130
16.64382,39548
16.65193,36785
16.66007,35888
16.66818,35705
16.67630,35056
16.68443,30578
16.69255,37395
16.70067,34666
16.70880,33066
16.71692,32234
16.72505,30202
16.73317,31630
16.74128,31995
16.74942,36438
16.75753,35710
16.76567,33210
16.77378,31852
16.78190,36215
16.79003,34703
16.79815,33684
16.80627,33877
16.81440,33103
16.82252,33729
16.83065,33718
16.83877,32579
16.84688,29229
16.85502,31866
16.86313,29624
16.87127,32392
16.87938,28092
16.88750,32203
16.89563,31426
16.90375,30309
16.91188,34899
16.92000,29768
16.92812,34065
16.93625,31906
16.94437,32770
16.95248,28682
16.96062,30927
16.96873,31660
16.97687,29798
16.98498,31987
16.99310,32851
17.00123,31008
17.00935,32216
17.01748,33622
17.02560,32118
17.03372,31178
17.04185,32454
17.04997,34539
17.05810,34889
17.06622,39702
17.07433,37061
17.08247,39133
17.09058,40950
17.09870,43184
17.10683,46662
17.11495,48023
17.12308,45460
17.13120,43086
17.13932,42090
17.14745,42351
17.15557,40173
17.16370,39054
17.17182,39605
17.17993,38203
17.18807,37831
17.19618,32458
17.20432,35753
17.21243,34417
17.22055,34195
17.22868,32712
17.23680,32756
17.24492,31833
17.25305,30345
17.26117,31380
17.26930,31911
17.27742,34848
17.28553,32004
17.29367,29309
17.30178,31261
17.30992,31142
17.31803,31543
17.32615,32584
17.33428,37337
17.34240,37714
17.35052,37474
17.35865,39501
17.36677,36174
17.37490,36821
17.38302,35797
17.39113,38552
17.39927,38926
17.40738,39671
17.41552,40478
17.42363,42999
17.43175,36950
17.43988,39914
17.44800,42041
17.45613,39654
17.46425,37807
17.47237,34888
17.48050,35776
17.48862,33957
17.49673,35415
17.50487,36132
17.51298,37815
17.52112,39322
17.52923,40718
17.53735,47461
17.54548,46783
17.55360,56582
17.56173,52922
17.56985,65247
17.57797,74889
17.58610,92631
17.59422,111631
17.60233,125966
17.61047,131534
17.61858,121938
17.62672,103218
17.63483,83514
17.64295,71855
17.65108,64008
17.65920,59297
17.66733,56919
17.67545,50329
17.68357,54380
17.69170,50255
17.69982,49698
17.70795,48441
17.71607,45072
17.72418,49248
17.73232,49093
17.74043,44460
17.74855,42610
17.75668,42339
17.76480,40532
17.77293,41278
17.78105,39085
17.78917,39517
17.79730,41023
17.80542,38099
17.81355,40930
17.82167,38903
17.82978,41566
17.83792,49252
17.84603,45856
17.85417,44983
17.86228,46465
17.87040,46625
17.87853,48500
17.88665,43550
17.89477,43129
17.90290,36230
17.91102,36594
17.91915,37980
17.92727,37542
17.93538,37066
17.94352,35005
17.95163,33462
17.95977,34617
17.96788,35751
17.97600,36478
17.98413,33676
17.99225,32842
18.00037,35895
18.00850,37479
18.01662,43294
18.02475,44884
18.03287,45529
18.04098,48839
18.04912,49572
18.05723,59065
18.06537,80358
18.07348,123923
18.08160,193508
18.08973,288168
18.09785,382309
18.10598,416782
18.11410,383837
18.12222,335101
18.13035,308363
18.13847,304114
18.14658,308735
18.15472,308187
18.16283,302845
18.17097,307980
18.17908,295526
18.18720,297073
18.19533,292819
18.20345,298164
18.21158,285276
18.21970,283001
18.22782,274453
18.23595,270358
18.24407,275866
18.25220,259706
18.26032,254767
18.26843,242308
18.27657,246914
18.28468,236707
18.29280,229583
18.30093,218060
18.30905,221444
18.31718,218826
18.32530,205100
18.33342,201994
18.34155,202512
18.34967,199993
18.35780,191281
18.36592,194158
18.37403,188295
18.38217,180546
18.39028,179021
18.39840,177323
18.40653,178261
18.41465,175620
18.42278,180402
18.43090,188362
18.43902,179743
18.44715,182433
18.45527,179810
18.46340,194288
18.47152,193409
18.47963,190340
18.48777,191107
18.49588,190496
18.50402,169642
18.51213,158409
18.52025,157602
18.52838,142288
18.53650,139285
18.54462,141698
18.55275,138833
18.56087,135403
18.56900,131341
18.57712,128549
18.58523,125809
18.59337,127335
18.60148,124071
18.60962,128636
18.61773,130663
18.62585,125622
18.63398,121659
18.64210,115699
18.65022,114835
18.65835,111249
18.66647,106310
18.67460,106005
18.68272,105758
18.69083,102422
18.69897,105119
18.70708,102195
18.71522,93229
18.72333,95621
18.73145,93649
18.73958,94026
18.74770,93420
18.75583,90822
18.76395,89293
18.77207,87719
18.78020,86803
18.78832,82658
18.79643,84422
18.80457,80272
18.81268,81194
18.82082,78201
18.82893,79992
18.83705,75642
18.84518,78171
18.85330,80402
18.86143,79203
18.86955,80904
18.87767,72804
18.88580,73860
18.89392,73663
18.90205,71642
18.91017,69250
18.91828,70475
18.92642,72506
18.93453,73714
18.94265,72669
18.95078,70181
18.95890,69340
18.96703,70379
18.97515,70785
18.98327,63380
18.99140,63444
18.99952,69170
19.00765,63220
19.01577,64059
19.02388,60869
19.03202,61788
19.04013,63863
19.04825,57682
19.05638,55902
19.06450,58378
19.07263,61100
19.08075,63094
19.08887,66693
19.09700,71051
19.10512,76729
19.11325,74223
19.12137,75338
19.12948,70093
19.13762,72777
19.14573,73700
19.15387,69640
19.16198,69608
19.17010,67631
19.17823,70852
19.18635,62814
19.19447,58709
19.20260,56123
19.21072,56226
19.21885,56782
19.22697,57355
19.23508,52019
19.24322,52277
19.25133,50178
19.25947,50782
19.26758,52183
19.27570,53596
19.28383,53796
19.29195,53773
19.30008,56687
19.30820,50777
19.31632,51994
19.32445,51643
19.33257,53408
19.34068,47798
19.34882,48986
19.35693,54400
19.36507,51309
19.37318,54169
19.38130,58600
19.38943,56294
19.39755,51603
19.40568,52540
19.41380,53433
19.42192,60321
19.43005,67692
19.43817,84450
19.44628,95891
19.45442,101711
19.46253,94550
19.47067,82776
19.47878,69053
19.48690,64402
19.49503,58909
19.50315,57232
19.51128,53244
19.51940,53662
19.52752,57004
19.53565,58044
19.54377,57139
19.55190,51610
19.56002,51302
19.56813,48929
19.57627,47076
19.58438,48412
19.59250,40715
19.60063,49364
19.60875,48746
19.61688,58222
19.62500,78383
19.63312,122247
19.64125,166131
19.64937,228048
19.65750,271396
19.66562,284860
19.67373,278052
19.68187,234970
19.68998,193346
19.69812,151178
19.70623,123380
19.71435,108736
19.72248,96420
19.73060,87953
19.73872,76794
19.74685,74813
19.75497,67236
19.76310,68105
19.77122,65619
19.77933,65391
19.78747,68095
19.79558,69327
19.80372,68401
19.81183,70302
19.81995,61103
19.82808,59346
19.83620,55487
19.84432,56257
19.85245,73736
19.86057,103587
19.86870,175514
19.87682,310769
19.88493,508348
19.89307,752845
19.90118,964839
19.90932,1046513
19.91743,913784
19.92555,734031
19.93368,530560
19.94180,418134
19.94993,326518
19.95805,273612
19.96617,242176
19.97430,216325
19.98242,206447
19.99053,183866
19.99867,173394
20.00678,172770
20.01492,159382
20.02303,149268
20.03115,138054
20.03928,131102
20.04740,117862
20.05553,114406
20.06365,107736
20.07177,105520
20.07990,101725
20.08802,93136
20.09613,98417
20.10427,89147
20.11238,78461
20.12052,78429
20.12863,75764
20.13675,78799
20.14488,86637
20.15300,112990
20.16113,141460
20.16925,167673
20.17737,205505
20.18550,217909
20.19362,223006
20.20175,214069
20.20987,203597
20.21798,194147
20.22612,195427
20.23423,205813
20.24235,253853
20.25048,274029
20.25860,318455
20.26673,311140
20.27485,294579
20.28297,253338
20.29110,212134
20.29922,179813
20.30735,152819
20.31547,121613
20.32358,102739
20.33172,96220
20.33983,83641
20.34797,84881
20.35608,71981
20.36420,64790
20.37233,64832
20.38045,68793
20.38857,68626
20.39670,71782
20.40482,80020
20.41295,93579
20.42107,92277
20.42918,88500
20.43732,84860
20.44543,78358
20.45357,73478
20.46168,63106
20.46980,59855
20.47793,58535
20.48605,53720
20.49417,55281
20.50230,48993
20.51042,50404
20.51855,49572
20.52667,46463
20.53478,51597
20.54292,54096
20.55103,43454
20.55917,49652
20.56728,50293
20.57540,43001
20.58353,46241
20.59165,47059
20.59978,48013
20.60790,46292
20.61602,49555
20.62415,45817
20.63227,43945
20.64038,47995
20.64852,46360
20.65663,44919
20.66477,42849
20.67288,49365
20.68100,44340
20.68913,44521
20.69725,43405
20.70538,42639
20.71350,42772
20.72162,40731
20.72975,45298
20.73787,45543
20.74600,48122
20.75412,44403
20.76223,45885
20.77037,49825
20.77848,53870
20.78660,62828
20.79473,79717
20.80285,99248
20.81098,122559
20.81910,129118
20.82722,121650
20.83535,105706
20.84347,88115
20.85160,71828
20.85972,65696
20.86783,63217
20.87597,58357
20.88408,59734
20.89220,54164
20.90033,52765
20.90845,52987
20.91658,58509
20.92470,54333
20.93282,51519
20.94095,52079
20.94907,53596
20.95720,49368
20.96532,47364
20.97343,47280
20.98157,44440
20.98968,43560
20.99782,44010
21.00593,45114
21.01405,40647
21.02218,42605
21.03030,45488
21.03842,43116
21.04655,46314
21.05467,45205
21.06280,42874
21.07092,39785
21.07903,40215
21.08717,38532
21.09528,40836
21.10342,42535
21.11153,49235
21.11965,39279
21.12778,44475
21.13590,50161
21.14402,54920
21.15215,64867
21.16027,68536
21.16840,64187
21.17652,62753
21.18463,58767
21.19277,54857
21.20088,50030
21.20902,47723
21.21713,45165
21.22525,53105
21.23338,48027
21.24150,51563
21.24963,51562
21.25775,50363
21.26587,52245
21.27400,49865
21.28212,53965
21.29023,51517
21.29837,51625
21.30648,52568
21.31462,50623
21.32273,51706
21.33085,48693
21.33898,52697
21.34710,53908
21.35523,49878
21.36335,57026
21.37147,52888
21.37960,54647
21.38772,52457
21.39585,55434
21.40397,62229
21.41208,63353
21.42022,64882
21.42833,64096
21.43645,58283
21.44458,56488
21.45270,54589
21.46083,55162
21.46895,52439
21.47707,51545
21.48520,51419
21.49332,57642
21.50145,55291
21.50957,51729
21.51768,55159
21.52582,48685
21.53393,54117
21.54207,51342
21.55018,48715
21.55830,57047
21.56643,58159
21.57455,64895
21.58267,81109
21.59080,85188
21.59892,91204
21.60705,85759
21.61517,81409
21.62328,74583
21.63142,71464
21.63953,62112
21.64767,58648
21.65578,56293
21.66390,54706
21.67203,54319
21.68015,55876
21.68827,50486
21.69640,50812
21.70452,50844
21.71265,43772
21.72077,44380
21.72888,42626
21.73702,48640
21.74513,48941
21.75327,44765
21.76138,46954
21.76950,57761
21.77763,62411
21.78575,66864
21.79388,75335
21.80200,75569
21.81012,68539
21.81825,62482
21.82637,54036
21.83448,50958
21.84262,44039
21.85073,43448
21.85887,41380
21.86698,44526
21.87510,42735
21.88323,42963
21.89135,40461
21.89948,42353
21.90760,40212
21.91572,44676
21.92385,58103
21.93197,69084
21.94008,84411
21.94822,101612
21.95633,101487
21.96447,111741
21.97258,109068
21.98070,108365
21.98883,113711
21.99695,114413
22.00508,112148
22.01320,107962
22.02132,116049
22.02945,109591
22.03757,116686
22.04570,112978
22.05382,115380
22.06193,115111
22.07007,107263
22.07818,115278
22.08630,108492
22.09443,114424
22.10255,104500
22.11068,102826
22.11880,102325
22.12692,101489
22.13505,95472
22.14317,94847
22.15130,97032
22.15942,97632
22.16753,103602
22.17567,99532
22.18378,96185
22.19192,98510
22.20003,89934
22.20815,90108
22.21628,84173
22.22440,81299
22.23252,81506
22.24065,75660
22.24877,75289
22.25690,77703
22.26502,71400
22.27313,70253
22.28127,67662
22.28938,74132
22.29752,71068
22.30563,70661
22.31375,70437
22.32188,70939
22.33000,68704
22.33812,65911
22.34625,65693
22.35437,64519
22.36250,60282
22.37062,58671
22.37873,61231
22.38687,66148
22.39498,64011
22.40312,67279
22.41123,75411
22.41935,73246
22.42748,72922
22.43560,70784
22.44373,62495
22.45185,59074
22.45997,62200
22.46810,57718
22.47622,60637
22.48433,60629
22.49247,65396
22.50058,58202
22.50872,56602
22.51683,60512
22.52495,59908
22.53308,58258
22.54120,54446
22.54933,53574
22.55745,57509
22.56557,50448
22.57370,46806
22.58182,44075
22.58995,47065
22.59807,43178
22.60618,48437
22.61432,46746
22.62243,44711
22.63055,45982
22.63868,44882
22.64680,42158
22.65493,43238
22.66305,43610
22.67117,48430
22.67930,47171
22.68742,55296
22.69555,61949
22.70367,65846
22.71178,67074
22.71992,64579
22.72803,65737
22.73615,62712
22.74428,57187
22.75240,57419
22.76053,53972
22.76865,51889
22.77677,52431
22.78490,58791
22.79302,59706
22.80115,60887
22.80927,68328
22.81738,61336
22.82552,57999
22.83363,53230
22.84177,49433
22.84988,51276
22.85800,57877
22.86613,57495
22.87425,61830
22.88237,68123
22.89050,70741
22.89862,84056
22.90675,99251
22.91487,128079
22.92298,154039
22.93112,181623
22.93923,191430
22.94737,181023
22.95548,176751
22.96360,164215
22.97173,135443
22.97985,126089
22.98797,124484
22.99610,112944
23.00422,96739
23.01235,86613
23.02047,79518
23.02858,66411
23.03672,62101
23.04483,59024
23.05297,61788
23.06108,57350
23.06920,55749
23.07733,55688
23.08545,54288
23.09358,50366
23.10170,50342
23.10982,48161
23.11795,46755
23.12607,43719
23.13418,41929
23.14232,43451
23.15043,44684
23.15857,43307
23.16668,43250
23.17480,42467
23.18293,43363
23.19105,40789
23.19918,43765
23.20730,42393
23.21542,43345
23.22355,42195
23.23167,44022
23.23980,40816
23.24792,38182
23.25603,42910
23.26417,41711
23.27228,45350
23.28040,48550
23.28853,41007
23.29665,40671
23.30478,42112
23.31290,36557
23.32102,40327
23.32915,43828
23.33727,43728
23.34540,50014
23.35352,49938
23.36163,51529
23.36977,50820
23.37788,51854
23.38600,48641
23.39413,47178
23.40225,45276
23.41038,40092
23.41850,43627
23.42662,41462
23.43475,41792
23.44287,39171
23.45100,37295
23.45912,41752
23.46723,36951
23.47537,36740
23.48348,35926
23.49162,36780
23.49973,39441
23.50785,35773
23.51598,36306
23.52410,36555
23.53222,37614
23.54035,42873
23.54847,43570
23.55660,47290
23.56472,54548
23.57283,58799
23.58097,68710
23.58908,76006
23.59722,83346
23.60533,83087
23.61345,81479
23.62158,72662
23.62970,69147
23.63783,59994
23.64595,61860
23.65407,60279
23.66220,59201
23.67032,58176
23.67843,58712
23.68657,53481
23.69468,53183
23.70282,54495
23.71093,69789
23.71905,81474
23.72718,112511
23.73530,164155
23.74343,326949
23.75155,716410
23.75967,1606326
23.76780,3057060
23.77592,4672389
23.78403,5671251
23.79217,5738301
23.80028,5079270
23.80842,3958354
23.81653,2896023
23.82465,2065677
23.83278,1500687
23.84090,1150315
23.84903,915677
23.85715,769642
23.86527,663805
23.87340,577069
23.88152,487671
23.88965,449270
23.89777,405313
23.90588,362523
23.91402,352015
23.92213,333985
23.93025,310580
23.93838,299344
23.94650,270371
23.95463,257055
23.96275,248322
23.97087,232032
23.97900,227280
23.98712,213949
23.99525,209747
24.00337,196687
24.01148,196290
24.01962,192379
24.02773,182922
24.03587,183523
24.04398,188621
24.05210,179287
24.06023,173596
24.06835,173041
24.07647,159415
24.08460,160090
24.09272,152961
24.10085,147875
24.10897,144251
24.11708,140191
24.12522,140925
24.13333,141636
24.14147,147730
24.14958,149234
24.15770,145613
24.16583,142084
24.17395,140534
24.18207,139551
24.19020,129730
24.19832,114332
24.20645,118758
24.21457,112310
24.22268,107889
24.23082,103241
24.23893,99347
24.24707,94008
24.25518,97127
24.26330,92403
24.27143,94413
24.27955,95275
24.28768,87147
24.29580,92848
24.30392,93255
24.31205,95395
24.32017,109225
24.32828,118081
24.33642,120563
24.34453,113680
24.35267,102400
24.36078,90805
24.36890,83382
24.37703,83869
24.38515,80094
24.39328,76837
24.40140,76788
24.40952,74978
24.41765,79697
24.42577,83824
24.43388,88116
24.44202,92815
24.45013,94318
24.45827,94989
24.46638,85057
24.47450,88420
24.48263,79047
24.49075,76503
24.49888,73541
24.50700,75771
24.51512,76716
24.52325,76987
24.53137,75733
24.53950,83020
24.54762,86192
24.55573,87283
24.56387,84291
24.57198,77513
24.58010,76251
24.58823,69554
24.59635,71195
24.60448,67867
24.61260,67425
24.62072,60002
24.62885,61587
24.63697,61733
24.64510,62686
24.65322,64096
24.66133,63077
24.66947,62459
24.67758,59172
24.68572,65313
24.69383,62858
24.70195,56250
24.71008,56243
24.71820,52579
24.72632,54713
24.73445,53685
24.74257,53321
24.75070,53790
24.75882,59588
24.76693,57787
24.77507,53814
24.78318,52493
24.79132,55697
24.79943,54862
24.80755,54188
24.81568,55999
24.82380,58040
24.83192,64716
24.84005,66678
24.84817,74062
24.85630,74583
24.86442,98037
24.87253,106243
24.88067,118251
24.88878,123441
24.89692,127374
24.90503,123375
24.91315,118353
24.92128,121885
24.92940,116689
24.93753,122338
24.94565,126461
24.95377,124340
24.96190,133547
24.97002,133175
24.97813,135796
24.98627,136165
24.99438,132812
25.00252,135542
25.01063,129500
25.01875,131319
25.02688,128647
25.03500,133289
25.04313,135673
25.05125,134408
25.05937,134277
25.06750,128837
25.07562,126284
25.08375,131624
25.09187,136375
25.09998,151380
25.10812,190801
25.11623,263122
25.12435,360551
25.13248,509454
25.14060,610901
25.14873,671171
25.15685,625148
25.16497,505791
25.17310,397676
25.18122,300681
25.18935,226272
25.19747,186324
25.20558,162851
25.21372,145835
25.22183,133235
25.22995,134988
25.23808,145159
25.24620,152092
25.25433,175683
25.26245,183315
25.27057,186961
25.27870,188770
25.28682,169795
25.29495,145779
25.30307,130739
25.31118,116132
25.31932,107739
25.32743,99019
25.33557,99339
25.34368,96005
25.35180,90574
25.35993,87192
25.36805,81559
25.37617,83122
25.38430,81686
25.39242,81279
25.40055,80814
25.40867,80925
25.41678,81316
25.42492,79167
25.43303,73723
25.44117,69791
25.44928,72142
25.45740,65783
25.46553,69942
25.47365,64942
25.48177,70255
25.48990,66235
25.49802,59164
25.50615,61394
25.51427,59669
25.52238,58233
25.53052,55954
25.53863,60034
25.54677,59182
25.55488,53025
25.56300,62111
25.57113,56036
25.57925,56620
25.58738,53636
25.59550,56400
25.60362,54385
25.61175,53793
25.61987,54263
25.62798,52596
25.63612,51937
25.64423,50035
25.65237,52799
25.66048,51425
25.66860,52010
25.67673,52782
25.68485,50792
25.69298,51620
25.70110,53713
25.70922,52439
25.71735,47815
25.72547,48013
25.73360,46038
25.74172,50575
25.74983,51396
25.75797,48310
25.76608,47015
25.77420,47034
25.78233,46721
25.79045,48389
25.79858,47017
25.80670,46747
25.81482,45218
25.82295,46866
25.83107,48418
25.83920,48869
25.84732,52095
25.85543,44857
25.86357,47815
25.87168,48968
25.87980,44901
25.88793,45419
25.89605,43172
25.90418,47888
25.91230,44204
25.92042,41450
25.92855,43406
25.93667,45273
25.94480,44774
25.95292,47449
25.96103,42630
25.96917,46044
25.97728,46286
25.98542,44000
25.99353,43106
26.00165,44141
26.00978,40999
26.01790,39603
26.02602,40703
26.03415,41524
26.04227,46574
26.05040,43143
26.05852,45650
26.06663,40646
26.07477,42734
26.08288,41851
26.09102,41737
26.09913,45413
26.10725,44389
26.11538,45898
26.12350,45928
26.13163,48525
26.13975,47161
26.14787,48414
26.15600,47846
26.16412,48354
26.17223,51862
26.18037,45453
26.18848,45367
26.19662,42753
26.20473,44407
26.21285,41944
26.22098,39916
26.22910,41714
26.23723,45321
26.24535,41080
26.25347,42820
26.26160,43572
26.26972,40213
26.27783,40534
26.28597,39665
26.29408,39106
26.30222,40460
26.31033,42614
26.31845,38277
26.32658,40908
26.33470,39628
26.34283,41960
26.35095,46154
26.35907,44220
26.36720,52123
26.37532,63153
26.38345,65269
26.39157,67800
26.39968,64792
26.40782,66758
26.41593,60557
26.42405,51605
26.43218,47556
26.44030,50236
26.44843,40874
26.45655,43864
26.46467,45128
26.47280,39920
26.48092,43927
26.48905,43290
26.49717,37531
26.50528,38345
26.51342,40246
26.52153,39977
26.52965,42116
26.53778,33614
26.54590,39455
26.55403,38325
26.56215,38562
26.57027,37077
26.57840,35922
26.58652,43640
26.59465,43323
26.60277,39631
26.61088,38093
26.61902,42399
26.62713,45370
26.63527,41085
26.64338,40372
26.65150,43379
26.65963,47563
26.66775,43350
26.67587,44775
26.68400,43728
26.69212,42535
26.70025,45648
26.70837,44242
26.71648,41043
26.72462,43290
26.73273,39090
26.74087,44539
26.74898,41317
26.75710,41184
26.76523,40680
26.77335,42560
26.78148,41916
26.78960,42603
26.79772,48794
26.80585,41648
26.81397,39269
26.82208,45202
26.83022,44428
26.83833,38277
26.84647,36703
26.85458,37347
26.86270,38605
26.87083,43105
26.87895,39218
26.88708,41281
26.89520,44825
26.90332,39743
26.91145,43090
26.91957,43377
26.92770,43591
26.93582,53906
26.94393,69084
26.95207,108767
26.96018,186441
26.96830,320156
26.97643,559626
26.98455,845507
26.99268,1161587
27.00080,1444710
27.00892,1497199
27.01705,1389488
27.02517,1165067
27.03330,937674
27.04142,664315
27.04953,501738
27.05767,389012
27.06578,307822
27.07390,239132
27.08203,208452
27.09015,175664
27.09828,157684
27.10640,140529
27.11452,127194
27.12265,119743
27.13077,115509
27.13890,107982
27.14702,102093
27.15513,99352
27.16327,96442
27.17138,100027
27.17952,95008
27.18763,95920
27.19575,89487
27.20388,80798
27.21200,80679
27.22012,72487
27.22825,70106
27.23637,70621
27.24450,68146
27.25262,63897
27.26073,68342
27.26887,64250
27.27698,60257
27.28512,59464
27.29323,55646
27.30135,58269
27.30948,60143
27.31760,58995
27.32572,55358
27.33385,58623
27.34197,57604
27.35010,50327
27.35822,54675
27.36633,55443
27.37447,54505
27.38258,53235
27.39072,52503
27.39883,52772
27.40695,53909
27.41508,52527
27.42320,50312
27.43133,50568
27.43945,52222
27.44757,53155
27.45570,50786
27.46382,49084
27.47193,56126
27.48007,52329
27.48818,46987
27.49632,44508
27.50443,46589
27.51255,46794
27.52068,46357
27.52880,48324
27.53693,48484
27.54505,49169
27.55317,47884
27.56130,45476
27.56942,48856
27.57755,48617
27.58567,50237
27.59378,52229
27.60192,50355
27.61003,46771
27.61815,44902
27.62628,44428
27.63440,42412
27.64253,43587
27.65065,46610
27.65877,43706
27.66690,43927
27.67502,44545
27.68315,48473
27.69127,48630
27.69938,45468
27.70752,43503
27.71563,43698
27.72375,49869
27.73188,42897
27.74000,45249
27.74813,46039
27.75625,42078
27.76437,43407
27.77250,43583
27.78062,44823
27.78875,43378
27.79687,40394
27.80498,47205
27.81312,41325
27.82123,47025
27.82937,41244
27.83748,38871
27.84560,40602
27.85373,39099
27.86185,36340
27.86997,39648
27.87810,37807
27.88622,41410
27.89435,44125
27.90247,36728
27.91058,40615
27.91872,37807
27.92683,39396
27.93497,39324
27.94308,35723
27.95120,39998
27.95933,39010
27.96745,35443
27.97558,40136
27.98370,42359
27.99182,45825
27.99995,44643
28.00807,43325
28.01618,49149
28.02432,51501
28.03243,55482
28.04057,57510
28.04868,59137
28.05680,56582
28.06493,49969
28.07305,49092
28.08118,49247
28.08930,46324
28.09742,43224
28.10555,44949
28.11367,55355
28.12178,54519
28.12992,53184
28.13803,50306
28.14617,49257
28.15428,43052
28.16240,36756
28.17053,39543
28.17865,40595
28.18678,40240
28.19490,42088
28.20302,40870
28.21115,41909
28.21927,46828
28.22740,43560
28.23552,41438
28.24363,47026
28.25177,47606
28.25988,60930
28.26800,77328
28.27613,90622
28.28425,130793
28.29238,149326
28.30050,176578
28.30862,196827
28.31675,213146
28.32487,207982
28.33300,206786
28.34112,198074
28.34923,189613
28.35737,169949
28.36548,148303
28.37360,139834
28.38173,120487
28.38985,107951
28.39798,99413
28.40610,93553
28.41422,86325
28.42235,74838
28.43047,71082
28.43860,66582
28.44672,61649
28.45483,62074
28.46297,55509
28.47108,57575
28.47922,59575
28.48733,52205
28.49545,54083
28.50358,56058
28.51170,53144
28.51982,51939
28.52795,48158
28.53607,47566
28.54420,46850
28.55232,46735
28.56043,44821
28.56857,46912
28.57668,44980
28.58482,43216
28.59293,42354
28.60105,42937
28.60918,45954
28.61730,46393
28.62543,44943
28.63355,43801
28.64167,48074
28.64980,48552
28.65792,47667
28.66603,52898
28.67417,50752
28.68228,60243
28.69042,58606
28.69853,59321
28.70665,59660
28.71478,54549
28.72290,46274
28.73103,45171
28.73915,39236
28.74727,41269
28.75540,42282
28.76352,39483
28.77163,37413
28.77977,38742
28.78788,42156
28.79602,42242
28.80413,42629
28.81225,39791
28.82038,39868
28.82850,40904
28.83663,38709
28.84475,36628
28.85287,38062
28.86100,36574
28.86912,39808
28.87725,41209
28.88537,41789
28.89348,44650
28.90162,43455
28.90973,42614
28.91785,40827
28.92598,42696
28.93410,39652
28.94223,38016
28.95035,43163
28.95847,41874
28.96660,39638
28.97472,38849
28.98285,40551
28.99097,35500
28.99908,35023
29.00722,38732
29.01533,40938
29.02347,34861
29.03158,36891
29.03970,35710
29.04783,37272
29.05595,38605
29.06407,38406
29.07220,36156
29.08032,39934
29.08845,38940
29.09657,37141
29.10468,35712
29.11282,35108
29.12093,37305
29.12907,34951
29.13718,37906
29.14530,35471
29.15343,37191
29.16155,35511
29.16967,36178
29.17780,37854
29.18592,36435
29.19405,37370
29.20217,44330
29.21028,42320
29.21842,40610
29.22653,39952
29.23467,43386
29.24278,48294
29.25090,45100
29.25903,48008
29.26715,44597
29.27528,44629
29.28340,42518
29.29152,40319
29.29965,37981
29.30777,36238
29.31588,38880
29.32402,34631
29.33213,35929
29.34027,34775
29.34838,30855
29.35650,35642
29.36463,32398
29.37275,30093
29.38088,37244
29.38900,35296
29.39712,37390
29.40525,42089
29.41337,40105
29.42150,39824
29.42962,37793
29.43773,38721
29.44587,34912
29.45398,33418
29.46210,35708
29.47023,35946
29.47835,36986
29.48648,36289
29.49460,39716
29.50272,38482
29.51085,38697
29.51897,38275
29.52710,36106
29.53522,34105
29.54333,35146
29.55147,34069
29.55958,33858
29.56770,37624
29.57583,32359
29.58395,36420
29.59208,37484
29.60020,37075
29.60832,34287
29.61645,33890
29.62457,32900
29.63270,36483
29.64082,32813
29.64893,32481
29.65707,35304
29.66518,35414
29.67332,34417
29.68143,32884
29.68955,32592
29.69768,36798
29.70580,34698
29.71392,33322
29.72205,32671
29.73017,34932
29.73830,36326
29.74642,34381
29.75453,37280
29.76267,33104
29.77078,33698
29.77892,29441
29.78703,29544
29.79515,29782
29.80328,30116
29.81140,30088
29.81952,33175
29.82765,32305
29.83577,32354
29.84390,27533
29.85202,29873
29.86013,32912
29.86827,36719
29.87638,45443
29.88452,51982
29.89263,58737
29.90075,65545
29.90888,77058
29.91700,85387
29.92513,88761
29.93325,87689
29.94137,96881
29.94950,97348
29.95762,93965
29.96573,95798
29.97387,94428
29.98198,87739
29.99012,85443
29.99823,86423
30.00635,84422
30.01448,77313
30.02260,83412
30.03073,74921
30.03885,69904
30.04697,71231
30.05510,76589
30.06322,68377
30.07135,68039
30.07947,67671
30.08758,64312
30.09572,61300
30.10383,63237
30.11195,62385
30.12008,58444
30.12820,60867
30.13633,55286
30.14445,52169
30.15257,50775
30.16070,52328
30.16882,53255
30.17695,52609
30.18507,51879
30.19318,47658
30.20132,48495
30.20943,41329
30.21755,47255
30.22568,46576
30.23380,44956
30.24193,43875
30.25005,43247
30.25817,42779
30.26630,42654
30.27442,42012
30.28255,44409
30.29067,42683
30.29878,39723
30.30692,39994
30.31503,41150
30.32317,42198
30.33128,43337
30.33940,38429
30.34753,37978
30.35565,40674
30.36377,38641
30.37190,36035
30.38002,37573
30.38815,35235
30.39627,37205
30.40438,35593
30.41252,36183
30.42063,35248
30.42877,36350
30.43688,34494
30.44500,33960
30.45313,35675
30.46125,34393
30.46938,33223
30.47750,35713
30.48562,35044
30.49375,35803
30.50187,37993
30.50998,37394
30.51812,34163
30.52623,37910
30.53437,38016
30.54248,30172
30.55060,32131
30.55873,33532
30.56685,34108
30.57498,30288
30.58310,31519
30.59122,36304
30.59935,34343
30.60747,36731
30.61558,35678
30.62372,32434
30.63183,33780
30.63997,31648
30.64808,35000
30.65620,33652
30.66433,34154
30.67245,31348
30.68058,32828
30.68870,32276
30.69682,32302
30.70495,31362
30.71307,32970
30.72120,34759
30.72932,31855
30.73743,29545
30.74557,33124
30.75368,33844
30.76180,35073
30.76993,34986
30.77805,35657
30.78618,38779
30.79430,48816
30.80242,43620
30.81055,43399
30.81867,44788
30.82680,41221
30.83492,35266
30.84303,37322
30.85117,35393
30.85928,32493
30.86740,37497
30.87553,34041
30.88365,33090
30.89178,31287
30.89990,36894
30.90802,33335
30.91615,30980
30.92427,35455
30.93240,32555
30.94052,36244
30.94863,28161
30.95677,30328
30.96488,32706
30.97302,32818
30.98113,35330
30.98925,35694
30.99738,35474
31.00550,33402
31.01362,33313
31.02175,34280
31.02987,35525
31.03800,34735
31.04612,30855
31.05423,32963
31.06237,34682
31.07048,32690
31.07862,40575
31.08673,43328
31.09485,48502
31.10298,51016
31.11110,40865
31.11923,45119
31.12735,37168
31.13547,39062
31.14360,31961
31.15172,38052
31.15983,34952
31.16797,40481
31.17608,44681
31.18422,56130
31.19233,60031
31.20045,66525
31.20858,73886
31.21670,69858
31.22483,64547
31.23295,56079
31.24107,48456
31.24920,42254
31.25732,38907
31.26543,35285
31.27357,34705
31.28168,33622
31.28982,34841
31.29793,33390
31.30605,35933
31.31418,35725
31.32230,38132
31.33043,34479
31.33855,37073
31.34667,36053
31.35480,37488
31.36292,33299
31.37105,32337
31.37917,32675
31.38728,32600
31.39542,32794
31.40353,34469
31.41165,35222
31.41978,33985
31.42790,32982
31.43603,31152
31.44415,32012
31.45227,31723
31.46040,30793
31.46852,31972
31.47665,32303
31.48477,35354
31.49288,34916
31.50102,34692
31.50913,32601
31.51727,34738
31.52538,34557
31.53350,34514
31.54163,35869
31.54975,35830
31.55787,33917
31.56600,33795
31.57412,34928
31.58225,31616
31.59037,31877
31.59848,31787
31.60662,28112
31.61473,32458
31.62287,29559
31.63098,34589
31.63910,34827
31.64723,31197
31.65535,34119
31.66347,37369
31.67160,33976
31.67972,33830
31.68785,34090
31.69597,38186
31.70408,34886
31.71222,34562
31.72033,31233
31.72847,30678
31.73658,30044
31.74470,31262
31.75283,28704
31.76095,30325
31.76908,29693
31.77720,29184
31.78532,32222
31.79345,34267
31.80157,35475
31.80968,34701
31.81782,39754
31.82593,39328
31.83407,44650
31.84218,51143
31.85030,59543
31.85843,63346
31.86655,67703
31.87468,69708
31.88280,76019
31.89092,74115
31.89905,78496
31.90717,71540
31.91528,66248
31.92342,68366
31.93153,61232
31.93967,57822
31.94778,55337
31.95590,54129
31.96403,56025
31.97215,55999
31.98028,55379
31.98840,57836
31.99652,55735
32.00465,53381
32.01277,49213
32.02090,47846
32.02902,42641
32.03713,42464
32.04527,40018
32.05338,36795
32.06150,36502
32.06963,35938
32.07775,40539
32.08588,35736
32.09400,39967
32.10212,35387
32.11025,35421
32.11837,36327
32.12650,34553
32.13462,36408
32.14273,35257
32.15087,33580
32.15898,33218
32.16712,30307
32.17523,36025
32.18335,32704
32.19148,36497
32.19960,33579
32.20772,34192
32.21585,37550
32.22397,34279
32.23210,35804
32.24022,36363
32.24833,32624
32.25647,32342
32.26458,32131
32.27272,34723
32.28083,34215
32.28895,34890
32.29708,33710
32.30520,32905
32.31333,32667
32.32145,38040
32.32957,35275
32.33770,35283
32.34582,34853
32.35393,35016
32.36207,38511
32.37018,34128
32.37832,32589
32.38643,31981
32.39455,35722
32.40268,34630
32.41080,33653
32.41893,31945
32.42705,32181
32.43517,31174
32.44330,31700
32.45142,32293
32.45953,32497
32.46767,33335
32.47578,35009
32.48392,32218
32.49203,29724
32.50015,34008
32.50828,32974
32.51640,32849
32.52453,30882
32.53265,34023
32.54077,30873
32.54890,34343
32.55702,38408
32.56515,37329
32.57327,39169
32.58138,44655
32.58952,43636
32.59763,43152
32.60575,38407
32.61388,35964
32.62200,33541
32.63013,34099
32.63825,36833
32.64637,33646
32.65450,37822
32.66262,34154
32.67075,32952
32.67887,32405
32.68698,35464
32.69512,34219
32.70323,36593
32.71135,33116
32.71948,32948
32.72760,32096
32.73573,33745
32.74385,32723
32.75197,33731
32.76010,34639
32.76822,31838
32.77635,29849
32.78447,30256
32.79258,33038
32.80072,32106
32.80883,30074
32.81697,31777
32.82508,30450
32.83320,30613
32.84133,31973
32.84945,32843
32.85757,32391
32.86570,31587
32.87382,33794
32.88195,37985
32.89007,36273
32.89818,38260
32.90632,40248
32.91443,34694
32.92257,36708
32.93068,32669
32.93880,31712
32.94693,33340
32.95505,32882
32.96318,35231
32.97130,36398
32.97942,42803
32.98755,41931
32.99567,41165
33.00378,43529
33.01192,38883
33.02003,41906
33.02817,38958
33.03628,35002
33.04440,33707
33.05253,36534
33.06065,34900
33.06878,37084
33.07690,35930
33.08502,43243
33.09315,45596
33.10127,47404
33.10938,47390
33.11752,50412
33.12563,48388
33.13377,46303
33.14188,39707
33.15000,40008
33.15813,36785
33.16625,36958
33.17438,36006
33.18250,33470
33.19062,35594
33.19875,34283
33.20687,34647
33.21500,33668
33.22312,33367
33.23123,34470
33.23937,33769
33.24748,36335
33.25560,33216
33.26373,30469
33.27185,32731
33.27998,33397
33.28810,32255
33.29622,34255
33.30435,35220
33.31247,30878
33.32060,32694
33.32872,32615
33.33683,34375
33.34497,31961
33.35308,35911
33.36122,34186
33.36933,32304
33.37745,32641
33.38558,35395
33.39370,33425
33.40182,35261
33.40995,31062
33.41807,32186
33.42620,30162
33.43432,31570
33.44243,31972
33.45057,34813
33.45868,34567
33.46682,32739
33.47493,32883
33.48305,33557
33.49118,31075
33.49930,32015
33.50742,31396
33.51555,33308
33.52367,31760
33.53180,32516
33.53992,36239
33.54803,37207
33.55617,35701
33.56428,39453
33.57242,32144
33.58053,33974
33.58865,32847
33.59678,32282
33.60490,34509
33.61303,36085
33.62115,32933
33.62927,30160
33.63740,33521
33.64552,34686
33.65363,35264
33.66177,32141
33.66988,35052
33.67802,34229
33.68613,35645
33.69425,38149
33.70238,34981
33.71050,33119
33.71863,32121
33.72675,35279
33.73487,37645
33.74300,37101
33.75112,41798
33.75923,34104
33.76737,37609
33.77548,38283
33.78362,37166
33.79173,35271
33.79985,36095
33.80798,36475
33.81610,35441
33.82423,36384
33.83235,33181
33.84047,34538
33.84860,38176
33.85672,37595
33.86485,37646
33.87297,38535
33.88108,36360
33.88922,35727
33.89733,36283
33.90545,37675
33.91358,31670
33.92170,35311
33.92983,35363
33.93795,37556
33.94607,35420
33.95420,33861
33.96232,32451
33.97045,34552
33.97857,34965
33.98668,32255
33.99482,36147
34.00293,34892
34.01107,32844
34.01918,32420
34.02730,34835
34.03543,35436
34.04355,32221
34.05167,31550
34.05980,33863
34.06792,30647
34.07605,31748
34.08417,35421
34.09228,35222
34.10042,36648
34.10853,35457
34.11667,30396
34.12478,33754
34.13290,36154
34.14103,33098
34.14915,32812
34.15727,37300
34.16540,37399
34.17352,30744
34.18165,33094
34.18977,32040
34.19788,34651
34.20602,32268
34.21413,32403
34.22227,36022
34.23038,29791
34.23850,34664
34.24663,31136
34.25475,33803
34.26288,34048
34.27100,30567
34.27912,34977
34.28725,35188
34.29537,34859
34.30348,33870
34.31162,35794
34.31973,33597
34.32787,33117
34.33598,34905
34.34410,34028
34.35223,31852
34.36035,33612
34.36848,33249
34.37660,34461
34.38472,37152
34.39285,35197
34.40097,34910
34.40910,36304
34.41722,38001
34.42533,36871
34.43347,38121
34.44158,42045
34.44970,56460
34.45783,56251
34.46595,67088
34.47408,67670
34.48220,75818
34.49032,71528
34.49845,67789
34.50657,64323
34.51470,62077
34.52282,54865
34.53093,53271
34.53907,49248
34.54718,46966
34.55530,47794
34.56343,44172
34.57155,43916
34.57968,44055
34.58780,39468
34.59592,40861
34.60405,45146
34.61217,40052
34.62030,44003
34.62842,39785
34.63653,40905
34.64467,37858
34.65278,41910
34.66092,38959
34.66903,40784
34.67715,40597
34.68528,37856
34.69340,36354
34.70152,40437
34.70965,36435
34.71777,39128
34.72590,39572
34.73402,36399
34.74213,35882
34.75027,38233
34.75838,34426
34.76652,37603
34.77463,38553
34.78275,36139
34.79088,37677
34.79900,34518
34.80713,32808
34.81525,34952
34.82337,36473
34.83150,36440
34.83962,40940
34.84773,39474
34.85587,36686
34.86398,35854
34.87212,38254
34.88023,37985
34.88835,40044
34.89648,33599
34.90460,36748
34.91273,38174
34.92085,38882
34.92897,38035
34.93710,43052
34.94522,36514
34.95333,41442
34.96147,36599
34.96958,38131
34.97772,40999
34.98583,40072
34.99395,36065
35.00208,37523
35.01020,38088
35.01833,40458
35.02645,35648
35.03457,35569
35.04270,38271
35.05082,39221
35.05895,40281
35.06707,41846
35.07518,40607
35.08332,41996
35.09143,37414
35.09955,42031
35.10768,36591
35.11580,41064
35.12393,37809
35.13205,38999
35.14017,39394
35.14830,35817
35.15642,36746
35.16455,40254
35.17267,37140
35.18078,39182
35.18892,35242
35.19703,36465
35.20515,39882
35.21328,37470
35.22140,36149
35.22953,40979
35.23765,40277
35.24577,38760
35.25390,36527
35.26202,38743
35.27015,41827
35.27827,37445
35.28638,38375
35.29452,38249
35.30263,38838
35.31077,39628
35.31888,41513
35.32700,39420
35.33513,37305
35.34325,35202
35.35137,37321
35.35950,34960
35.36762,36650
35.37575,37964
35.38387,42907
35.39198,41977
35.40012,44511
35.40823,46578
35.41637,49240
35.42448,49683
35.43260,44822
35.44073,44779
35.44885,44562
35.45698,47099
35.46510,46386
35.47322,43383
35.48135,43776
35.48947,41658
35.49758,44505
35.50572,43502
35.51383,45131
35.52197,39892
35.53008,43551
35.53820,39523
35.54633,42072
35.55445,42657
35.56258,48160
35.57070,43978
35.57882,44787
35.58695,48852
35.59507,49025
35.60318,49439
35.61132,46873
35.61943,43818
35.62757,42105
35.63568,41470
35.64380,41152
35.65193,41387
35.66005,43167
35.66818,43484
35.67630,40395
35.68442,40375
35.69255,39759
35.70067,39930
35.70880,45222
35.71692,41629
35.72503,40732
35.73317,40204
35.74128,39795
35.74940,43362
35.75753,42764
35.76565,42244
35.77378,43589
35.78190,48333
35.79002,40675
35.79815,38911
35.80627,42632
35.81440,45694
35.82252,46434
35.83063,45558
35.83877,40822
35.84688,42032
35.85502,42762
35.86313,39458
35.87125,38921
35.87938,46538
35.88750,35614
35.89562,39783
35.90375,41361
35.91187,40217
35.92000,42015
35.92812,40612
35.93623,40298
35.94437,37205
35.95248,39119
35.96062,38899
35.96873,42207
35.97685,38197
35.98498,42657
35.99310,46567
36.00122,43142
36.00935,49276
36.01747,49662
36.02560,47018
36.03372,46472
36.04183,45350
36.04997,46276
36.05808,44730
36.06622,44820
36.07433,43260
36.08245,41040
36.09058,41685
36.09870,40580
36.10683,40313
36.11495,38609
36.12307,44080
36.13120,39922
36.13932,41606
36.14743,43954
36.15557,42593
36.16368,41000
36.17182,43803
36.17993,41219
36.18805,42497
36.19618,42633
36.20430,48357
36.21243,45651
36.22055,47162
36.22867,52649
36.23680,55595
36.24492,49349
36.25303,49170
36.26117,45134
36.26928,43863
36.27742,42849
36.28553,43303
36.29365,44224
36.30178,44575
36.30990,40925
36.31803,40745
36.32615,40039
36.33427,42901
36.34240,38938
36.35052,44684
36.35865,43081
36.36677,41705
36.37488,39042
36.38302,42116
36.39113,40246
36.39925,42085
36.40738,42886
36.41550,43381
36.42363,38583
36.43175,40371
36.43987,43506
36.44800,43300
36.45612,41294
36.46425,45287
36.47237,37762
36.48048,42756
36.48862,41601
36.49673,40556
36.50487,41037
36.51298,39707
36.52110,40619
36.52923,45682
36.53735,43021
36.54547,43214
36.55360,46055
36.56172,49230
36.56985,45871
36.57797,47802
36.58608,45116
36.59422,49470
36.60233,42468
36.61047,41618
36.61858,43280
36.62670,43868
36.63483,43225
36.64295,42436
36.65107,44988
36.65920,43567
36.66732,42470
36.67545,43633
36.68357,44775
36.69168,46549
36.69982,42256
36.70793,40627
36.71607,45463
36.72418,43530
36.73230,44261
36.74043,42359
36.74855,41458
36.75668,45027
36.76480,41962
36.77292,41008
36.78105,43464
36.78917,43336
36.79728,43450
36.80542,42597
36.81353,44020
36.82167,44021
36.82978,45588
36.83790,45943
36.84603,40593
36.85415,44231
36.86228,46756
36.87040,46217
36.87852,41116
36.88665,42664
36.89477,44496
36.90290,45925
36.91102,42998
36.91913,46466
36.92727,44158
36.93538,52367
36.94350,45572
36.95163,46631
36.95975,49184
36.96788,45881
36.97600,53249
36.98412,50643
36.99225,48817
37.00037,48450
37.00850,50681
37.01662,53301
37.02473,54548
37.03287,53159
37.04098,51570
37.04910,51463
37.05723,52130
37.06535,48018
37.07348,44913
37.08160,47321
37.08972,46502
37.09785,50458
37.10597,52188
37.11410,48771
37.12222,51716
37.13033,50089
37.13847,48329
37.14658,46498
37.15472,47472
37.16283,47929
37.17095,46599
37.17908,43838
37.18720,46561
37.19532,48126
37.20345,48687
37.21157,45793
37.21970,50036
37.22782,52710
37.23593,54504
37.24407,60605
37.25218,69830
37.26032,73062
37.26843,74806
37.27655,82531
37.28468,73076
37.29280,77132
37.30092,70009
37.30905,74429
37.31717,67603
37.32530,61645
37.33342,60623
37.34153,61845
37.34967,52913
37.35778,54824
37.36592,50703
37.37403,58311
37.38215,53780
37.39028,51829
37.39840,53483
37.40653,55359
37.41465,56331
37.42277,56853
37.43090,56113
37.43902,55484
37.44713,53503
37.45527,55543
37.46338,52765
37.47152,52639
37.47963,51704
37.48775,52234
