Z:\data\JTB-E02\BACandBLUE\JTB-E02-195-12.D Wed Feb 20 15:16:04 2019
Start of data points
2.09520	404213
2.10332	423401
2.11143	426592
2.11957	413065
2.12768	417429
2.13582	433350
2.14393	456166
2.15205	461788
2.16018	504489
2.16830	511381
2.17642	553927
2.18455	548290
2.19267	523355
2.20080	488957
2.20892	461794
2.21703	442911
2.22517	414985
2.23328	404548
2.24142	393422
2.24953	392525
2.25765	380735
2.26578	373983
2.27390	363404
2.28203	366727
2.29015	369598
2.29827	366635
2.30640	371719
2.31452	359128
2.32263	347981
2.33077	363764
2.33888	354470
2.34702	356582
2.35513	354521
2.36325	347862
2.37138	341331
2.37950	335861
2.38763	344934
2.39575	333098
2.40387	328461
2.41200	326254
2.42012	335791
2.42823	324751
2.43637	312567
2.44448	331322
2.45262	331613
2.46073	319548
2.46885	316743
2.47698	320528
2.48510	322481
2.49323	320382
2.50135	307747
2.50947	316370
2.51760	310863
2.52572	318508
2.53385	314274
2.54197	310117
2.55008	311469
2.55822	310586
2.56633	307519
2.57445	306471
2.58258	294844
2.59070	302942
2.59883	304671
2.60695	300725
2.61507	298661
2.62320	299402
2.63132	292229
2.63945	299244
2.64757	290678
2.65568	296949
2.66382	294055
2.67193	301817
2.68007	300857
2.68818	294418
2.69630	299218
2.70443	294851
2.71255	291668
2.72067	304271
2.72880	285141
2.73692	288027
2.74505	296508
2.75317	292460
2.76128	286832
2.76942	283525
2.77753	283420
2.78567	283853
2.79378	288254
2.80190	298451
2.81003	293355
2.81815	289235
2.82628	302045
2.83440	304741
2.84252	292888
2.85065	293723
2.85877	292979
2.86688	301988
2.87502	302656
2.88313	298409
2.89127	300515
2.89938	314002
2.90750	299925
2.91563	315371
2.92375	300575
2.93188	311549
2.94000	316719
2.94812	311565
2.95625	308886
2.96437	315361
2.97248	311286
2.98062	319086
2.98873	316131
2.99687	334112
3.00498	323710
3.01310	325058
3.02123	338008
3.02935	335152
3.03748	332418
3.04560	338957
3.05372	344324
3.06185	338172
3.06997	340312
3.07810	340715
3.08622	342539
3.09433	343883
3.10247	352330
3.11058	355110
3.11870	348859
3.12683	349272
3.13495	345348
3.14308	353181
3.15120	359303
3.15932	358194
3.16745	354554
3.17557	363880
3.18370	360321
3.19182	356917
3.19993	366187
3.20807	351998
3.21618	361908
3.22430	362280
3.23243	358554
3.24055	367111
3.24868	382115
3.25680	361266
3.26492	369744
3.27305	371153
3.28117	375099
3.28930	373695
3.29742	381866
3.30553	385762
3.31367	383431
3.32178	412299
3.32992	503233
3.33803	764015
3.34615	1319579
3.35428	2187274
3.36240	3284972
3.37052	4300955
3.37865	4822783
3.38677	4606113
3.39490	3846208
3.40302	2927325
3.41113	2167201
3.41927	1617128
3.42738	1241699
3.43552	1028680
3.44363	905218
3.45175	821523
3.45988	751861
3.46800	712236
3.47613	658457
3.48425	629643
3.49237	619190
3.50050	597296
3.50862	586667
3.51673	564111
3.52487	543082
3.53298	542442
3.54112	530688
3.54923	514192
3.55735	512963
3.56548	513992
3.57360	504703
3.58173	489096
3.58985	491434
3.59797	483130
3.60610	477972
3.61422	487210
3.62233	482484
3.63047	481507
3.63858	469227
3.64672	477195
3.65483	458530
3.66295	451792
3.67108	454041
3.67920	470440
3.68733	444206
3.69545	459731
3.70357	449157
3.71170	452135
3.71982	464168
3.72795	456510
3.73607	463205
3.74418	461970
3.75232	468286
3.76043	467891
3.76855	488602
3.77668	497047
3.78480	494052
3.79293	502362
3.80105	496969
3.80917	479565
3.81730	479707
3.82542	468389
3.83355	472984
3.84167	465782
3.84978	470798
3.85792	479595
3.86603	505352
3.87417	489936
3.88228	457003
3.89040	437938
3.89853	433846
3.90665	407622
3.91477	387556
3.92290	373160
3.93102	339165
3.93915	333326
3.94727	324969
3.95538	321585
3.96352	319176
3.97163	314869
3.97977	310316
3.98788	316803
3.99600	304085
4.00413	305594
4.01225	296724
4.02037	298640
4.02850	287655
4.03662	297198
4.04475	288540
4.05287	311025
4.06098	294862
4.06912	310178
4.07723	300460
4.08537	296854
4.09348	303393
4.10160	300174
4.10973	286427
4.11785	289975
4.12598	293306
4.13410	303349
4.14222	306301
4.15035	318933
4.15847	354738
4.16658	348587
4.17472	362754
4.18283	369738
4.19097	362772
4.19908	346042
4.20720	331318
4.21533	319559
4.22345	295971
4.23158	296571
4.23970	304984
4.24782	292271
4.25595	299468
4.26407	286587
4.27218	285999
4.28032	283542
4.28843	277255
4.29657	270942
4.30468	281433
4.31280	274699
4.32093	283355
4.32905	276435
4.33718	268073
4.34530	275302
4.35342	270578
4.36155	271934
4.36967	279952
4.37780	270524
4.38592	272493
4.39403	271061
4.40217	279968
4.41028	270319
4.41840	277559
4.42653	268356
4.43465	268086
4.44278	264005
4.45090	274865
4.45902	270297
4.46715	270536
4.47527	256134
4.48340	264519
4.49152	261622
4.49963	265364
4.50777	261278
4.51588	266160
4.52402	260700
4.53213	264253
4.54025	259284
4.54838	258908
4.55650	255739
4.56462	269368
4.57275	268458
4.58087	269953
4.58900	286153
4.59712	276017
4.60523	274879
4.61337	271133
4.62148	253497
4.62962	258419
4.63773	259132
4.64585	256562
4.65398	254112
4.66210	263719
4.67022	252459
4.67835	258751
4.68647	256750
4.69460	245421
4.70272	248848
4.71083	258656
4.71897	242776
4.72708	242432
4.73522	240464
4.74333	244039
4.75145	236778
4.75958	236238
4.76770	238601
4.77583	246342
4.78395	237138
4.79207	237483
4.80020	243516
4.80832	247225
4.81643	245482
4.82457	247362
4.83268	248525
4.84082	242527
4.84893	231076
4.85705	245769
4.86518	243751
4.87330	238944
4.88143	244309
4.88955	233661
4.89767	236590
4.90580	238014
4.91392	240666
4.92205	238649
4.93017	244439
4.93828	227931
4.94642	238270
4.95453	243796
4.96265	227814
4.97078	234192
4.97890	232760
4.98703	235356
4.99515	232827
5.00327	243348
5.01140	228209
5.01952	231331
5.02765	225107
5.03577	226934
5.04388	231919
5.05202	235309
5.06013	233246
5.06825	227004
5.07638	234676
5.08450	243768
5.09263	230097
5.10075	226174
5.10887	225700
5.11700	224539
5.12512	228261
5.13325	220511
5.14137	218862
5.14948	220412
5.15762	228046
5.16573	227071
5.17387	218373
5.18198	229345
5.19010	218346
5.19823	226382
5.20635	218585
5.21447	217767
5.22260	225476
5.23072	221191
5.23885	230442
5.24697	220270
5.25508	221678
5.26322	220759
5.27133	215676
5.27947	207090
5.28758	209268
5.29570	209884
5.30383	207950
5.31195	208220
5.32008	199307
5.32820	209292
5.33632	209581
5.34445	212188
5.35257	210794
5.36068	210339
5.36882	214547
5.37693	212890
5.38507	212738
5.39318	219529
5.40130	210227
5.40943	223797
5.41755	232555
5.42568	252716
5.43380	286685
5.44192	350778
5.45005	395048
5.45817	441463
5.46628	445627
5.47442	404974
5.48253	365785
5.49067	321043
5.49878	277498
5.50690	246533
5.51503	234530
5.52315	219542
5.53128	213294
5.53940	216576
5.54752	200762
5.55565	207081
5.56377	214150
5.57190	208241
5.58002	207316
5.58813	203809
5.59627	199514
5.60438	198803
5.61250	193110
5.62063	192821
5.62875	200334
5.63688	204545
5.64500	199369
5.65312	199782
5.66125	198215
5.66937	204234
5.67750	204038
5.68562	208576
5.69373	209892
5.70187	206029
5.70998	203740
5.71810	193885
5.72623	199540
5.73435	204549
5.74248	196466
5.75060	197139
5.75872	196138
5.76685	188858
5.77497	191312
5.78310	206218
5.79122	195336
5.79933	191905
5.80747	192487
5.81558	188437
5.82372	194428
5.83183	192303
5.83995	197125
5.84808	187445
5.85620	195763
5.86432	196536
5.87245	186699
5.88057	190053
5.88870	194255
5.89682	188903
5.90493	188025
5.91307	178788
5.92118	169841
5.92932	163690
5.93743	163073
5.94555	169663
5.95368	166899
5.96180	169931
5.96993	167362
5.97805	164310
5.98617	159413
5.99430	152689
6.00242	154554
6.01053	145963
6.01867	148569
6.02678	153532
6.03492	143232
6.04303	160138
6.05115	146539
6.05928	147678
6.06740	147049
6.07553	149800
6.08365	141501
6.09177	141557
6.09990	139500
6.10802	137549
6.11613	147135
6.12427	139074
6.13238	149820
6.14052	143744
6.14863	144076
6.15675	152447
6.16488	158231
6.17300	168533
6.18113	165843
6.18925	153503
6.19737	165063
6.20550	147269
6.21362	145891
6.22175	153198
6.22987	145061
6.23798	137983
6.24612	139100
6.25423	140843
6.26235	144376
6.27048	138333
6.27860	142982
6.28673	139829
6.29485	137245
6.30297	137608
6.31110	142881
6.31922	139698
6.32735	140619
6.33547	141655
6.34358	153435
6.35172	141033
6.35983	143592
6.36797	146729
6.37608	149436
6.38420	142565
6.39233	139613
6.40045	136456
6.40857	139047
6.41670	133613
6.42482	135114
6.43295	133820
6.44107	131282
6.44918	135908
6.45732	129838
6.46543	127634
6.47357	137881
6.48168	130976
6.48980	129555
6.49793	129871
6.50605	133261
6.51417	126589
6.52230	131293
6.53042	136283
6.53855	142564
6.54667	161077
6.55478	198100
6.56292	253694
6.57103	327883
6.57917	402821
6.58728	425621
6.59540	397994
6.60353	339911
6.61165	272196
6.61978	226150
6.62790	180901
6.63602	163308
6.64415	157810
6.65227	155037
6.66038	152715
6.66852	151640
6.67663	148496
6.68477	141187
6.69288	142916
6.70100	139041
6.70913	141704
6.71725	135939
6.72538	133791
6.73350	144087
6.74162	137847
6.74975	127168
6.75787	141656
6.76598	143706
6.77412	133287
6.78223	133485
6.79037	127700
6.79848	140644
6.80660	136214
6.81473	131923
6.82285	138793
6.83098	123449
6.83910	130865
6.84722	132097
6.85535	129701
6.86347	118098
6.87160	114939
6.87972	103317
6.88783	97972
6.89597	93366
6.90408	96852
6.91220	95375
6.92033	88355
6.92845	91224
6.93658	87652
6.94470	93299
6.95282	93560
6.96095	90241
6.96907	92341
6.97720	87933
6.98532	85966
6.99343	95437
7.00157	95212
7.00968	86946
7.01782	89881
7.02593	93232
7.03405	93496
7.04218	88875
7.05030	92465
7.05842	92885
7.06655	89372
7.07467	87137
7.08280	95099
7.09092	98123
7.09903	93962
7.10717	89442
7.11528	90154
7.12342	91319
7.13153	87825
7.13965	86250
7.14778	89495
7.15590	86410
7.16402	88298
7.17215	86908
7.18027	85092
7.18840	83047
7.19652	88448
7.20463	84479
7.21277	85649
7.22088	78831
7.22902	88163
7.23713	84468
7.24525	85974
7.25338	91347
7.26150	93902
7.26963	84517
7.27775	84512
7.28587	93292
7.29400	87859
7.30212	87656
7.31023	90634
7.31837	92741
7.32648	89658
7.33462	92826
7.34273	90408
7.35085	87898
7.35898	92323
7.36710	92088
7.37523	85024
7.38335	89514
7.39147	83638
7.39960	92390
7.40772	86076
7.41585	86222
7.42397	82554
7.43208	83761
7.44022	90433
7.44833	90338
7.45645	90908
7.46458	87100
7.47270	92550
7.48083	87754
7.48895	89735
7.49707	95196
7.50520	86802
7.51332	94188
7.52145	104140
7.52957	86931
7.53768	92850
7.54582	91863
7.55393	89044
7.56205	89842
7.57018	91302
7.57830	90040
7.58643	94566
7.59455	91456
7.60267	90578
7.61080	86074
7.61892	90511
7.62705	92367
7.63517	96196
7.64328	89764
7.65142	93521
7.65953	99944
7.66767	96933
7.67578	128370
7.68390	165606
7.69203	270552
7.70015	421247
7.70827	646626
7.71640	865254
7.72452	973939
7.73265	998696
7.74077	880364
7.74888	722865
7.75702	582688
7.76513	460723
7.77327	396224
7.78138	386179
7.78950	401386
7.79763	391971
7.80575	402831
7.81387	391405
7.82200	374005
7.83012	348518
7.83825	343068
7.84637	321657
7.85448	311729
7.86262	308966
7.87073	310438
7.87887	309086
7.88698	312185
7.89510	310323
7.90323	299688
7.91135	292249
7.91948	276762
7.92760	274520
7.93572	269270
7.94385	269746
7.95197	257191
7.96008	263355
7.96822	243022
7.97633	258443
7.98447	237547
7.99258	250042
8.00070	243295
8.00883	246587
8.01695	239035
8.02508	241017
8.03320	230088
8.04132	238822
8.04945	232760
8.05757	230264
8.06570	228111
8.07382	228173
8.08193	223560
8.09007	218039
8.09818	222316
8.10630	226973
8.11443	225056
8.12255	215095
8.13068	210328
8.13880	220337
8.14692	211939
8.15505	222131
8.16317	204859
8.17130	205140
8.17942	211015
8.18753	206143
8.19567	207864
8.20378	209371
8.21192	206328
8.22003	208946
8.22815	208943
8.23628	214577
8.24440	237485
8.25252	291389
8.26065	328667
8.26877	408233
8.27690	464596
8.28502	494094
8.29313	517951
8.30127	469242
8.30938	409449
8.31752	347052
8.32563	300056
8.33375	266747
8.34188	251150
8.35000	230392
8.35812	225243
8.36625	212489
8.37437	210134
8.38250	209745
8.39062	193644
8.39873	199417
8.40687	210544
8.41498	209217
8.42312	211815
8.43123	216999
8.43935	220141
8.44748	226410
8.45560	227449
8.46373	233476
8.47185	228923
8.47997	230593
8.48810	231153
8.49622	235237
8.50433	222344
8.51247	212848
8.52058	222608
8.52872	209870
8.53683	213090
8.54495	208935
8.55308	207713
8.56120	202959
8.56933	206079
8.57745	196225
8.58557	200097
8.59370	200007
8.60182	196844
8.60993	198123
8.61807	189928
8.62618	190250
8.63432	191889
8.64243	195095
8.65055	195557
8.65868	183686
8.66680	190842
8.67493	198319
8.68305	191704
8.69117	196019
8.69930	184517
8.70742	190852
8.71555	184091
8.72367	191202
8.73178	193074
8.73992	188292
8.74803	179625
8.75615	180228
8.76428	177801
8.77240	175684
8.78053	181795
8.78865	174938
8.79677	179203
8.80490	167496
8.81302	173752
8.82115	175059
8.82927	175453
8.83738	174664
8.84552	167142
8.85363	179939
8.86177	175299
8.86988	172972
8.87800	174509
8.88613	177670
8.89425	170925
8.90237	164341
8.91050	162108
8.91862	168057
8.92675	156645
8.93487	161016
8.94298	162932
8.95112	161955
8.95923	156406
8.96737	152785
8.97548	156406
8.98360	151103
8.99173	159377
8.99985	157361
9.00797	157696
9.01610	162498
9.02422	160123
9.03235	164681
9.04047	157566
9.04858	166032
9.05672	161507
9.06483	157584
9.07297	170002
9.08108	170372
9.08920	165663
9.09733	173836
9.10545	174367
9.11358	171435
9.12170	163800
9.12982	161496
9.13795	160049
9.14607	153499
9.15418	151200
9.16232	165093
9.17043	171209
9.17857	168224
9.18668	169081
9.19480	163242
9.20293	161629
9.21105	153667
9.21918	149979
9.22730	156177
9.23542	153929
9.24355	154315
9.25167	150611
9.25980	145580
9.26792	144286
9.27603	142617
9.28417	139679
9.29228	143819
9.30040	139866
9.30853	139616
9.31665	137103
9.32478	139232
9.33290	137393
9.34102	138015
9.34915	141855
9.35727	153008
9.36540	133184
9.37352	134258
9.38163	140012
9.38977	139449
9.39788	138149
9.40600	135498
9.41413	131743
9.42225	137456
9.43038	128232
9.43850	138643
9.44662	131989
9.45475	129829
9.46287	128595
9.47100	132546
9.47912	139362
9.48723	130669
9.49537	130502
9.50348	125889
9.51162	124554
9.51973	132014
9.52785	130303
9.53598	128837
9.54410	133801
9.55222	126722
9.56035	111551
9.56847	109589
9.57660	103536
9.58472	93643
9.59283	104520
9.60097	95101
9.60908	94350
9.61722	95469
9.62533	100564
9.63345	92431
9.64158	96413
9.64970	96063
9.65782	95603
9.66595	97679
9.67407	94561
9.68220	93081
9.69032	96108
9.69843	97677
9.70657	94981
9.71468	92389
9.72282	90997
9.73093	91384
9.73905	88920
9.74718	90060
9.75530	93817
9.76343	91261
9.77155	86573
9.77967	87798
9.78780	84080
9.79592	92625
9.80403	87777
9.81217	87299
9.82028	84416
9.82842	84766
9.83653	79239
9.84465	83291
9.85278	83535
9.86090	85705
9.86903	80554
9.87715	79829
9.88527	89727
9.89340	80561
9.90152	77595
9.90965	76334
9.91777	80466
9.92588	82319
9.93402	88896
9.94213	87382
9.95025	84844
9.95838	87690
9.96650	81451
9.97463	85921
9.98275	80706
9.99087	85902
9.99900	81323
10.00712	80807
10.01525	82517
10.02337	86147
10.03148	85655
10.03962	88654
10.04773	85560
10.05585	89711
10.06398	83457
10.07210	84079
10.08023	85219
10.08835	85237
10.09647	82602
10.10460	78406
10.11272	81485
10.12085	76297
10.12897	74246
10.13708	78511
10.14522	80045
10.15333	88513
10.16147	79785
10.16958	87150
10.17770	81591
10.18583	77390
10.19395	77026
10.20207	74038
10.21020	79031
10.21832	71419
10.22645	75789
10.23457	76498
10.24268	72484
10.25082	75928
10.25893	76204
10.26707	77183
10.27518	75237
10.28330	72432
10.29143	77660
10.29955	78446
10.30768	80922
10.31580	91415
10.32392	102421
10.33205	115907
10.34017	130672
10.34828	145473
10.35642	147158
10.36453	130599
10.37267	117642
10.38078	105672
10.38890	92479
10.39703	90378
10.40515	92016
10.41328	85862
10.42140	78996
10.42952	83776
10.43765	78620
10.44577	85346
10.45388	75351
10.46202	81215
10.47013	83928
10.47827	83576
10.48638	85202
10.49450	97193
10.50263	93716
10.51075	95078
10.51888	89542
10.52700	89458
10.53512	93107
10.54325	82478
10.55137	84329
10.55950	92279
10.56762	91605
10.57573	100905
10.58387	95427
10.59198	94262
10.60010	87185
10.60823	84110
10.61635	75391
10.62448	82470
10.63260	78729
10.64072	81182
10.64885	88397
10.65697	81600
10.66510	83497
10.67322	81146
10.68133	82815
10.68947	80825
10.69758	83081
10.70572	81608
10.71383	86170
10.72195	80738
10.73008	78313
10.73820	84084
10.74632	81607
10.75445	86178
10.76257	80391
10.77070	80328
10.77882	83281
10.78693	88581
10.79507	99656
10.80318	101117
10.81132	100234
10.81943	99308
10.82755	94699
10.83568	87461
10.84380	78592
10.85192	85155
10.86005	81707
10.86817	80664
10.87630	85400
10.88442	84109
10.89253	82642
10.90067	80176
10.90878	79293
10.91692	77881
10.92503	81233
10.93315	82993
10.94128	92267
10.94940	113860
10.95753	101002
10.96565	103113
10.97377	103790
10.98190	91488
10.99002	84007
10.99813	86632
11.00627	80572
11.01438	83066
11.02252	77692
11.03063	76201
11.03875	77381
11.04688	69694
11.05500	75353
11.06313	70836
11.07125	79838
11.07937	78058
11.08750	88039
11.09562	76943
11.10373	80274
11.11187	76409
11.11998	73740
11.12812	78588
11.13623	79295
11.14435	75349
11.15248	73667
11.16060	75200
11.16873	72892
11.17685	77575
11.18497	82150
11.19310	76145
11.20122	69498
11.20935	79818
11.21747	77518
11.22558	75673
11.23372	74774
11.24183	75473
11.24995	79766
11.25808	77124
11.26620	79956
11.27433	75345
11.28245	69969
11.29057	75988
11.29870	75663
11.30682	73830
11.31495	75375
11.32307	67606
11.33118	78364
11.33932	78610
11.34743	74892
11.35557	77978
11.36368	74496
11.37180	70235
11.37993	69020
11.38805	73776
11.39617	71687
11.40430	76981
11.41242	74510
11.42055	76809
11.42867	82971
11.43678	80959
11.44492	84117
11.45303	76474
11.46117	74261
11.46928	77661
11.47740	79584
11.48553	76002
11.49365	71638
11.50177	69582
11.50990	70620
11.51802	73214
11.52615	73615
11.53427	71294
11.54238	78060
11.55052	76638
11.55863	77395
11.56677	72409
11.57488	72190
11.58300	67737
11.59113	72576
11.59925	77333
11.60738	78504
11.61550	74462
11.62362	74857
11.63175	81146
11.63987	79250
11.64798	80485
11.65612	72509
11.66423	71147
11.67237	70296
11.68048	76238
11.68860	77358
11.69673	68330
11.70485	75393
11.71298	75986
11.72110	77038
11.72922	77992
11.73735	75013
11.74547	76813
11.75360	80344
11.76172	79963
11.76983	76446
11.77797	75395
11.78608	75260
11.79420	76117
11.80233	66736
11.81045	69761
11.81858	71657
11.82670	63775
11.83482	73039
11.84295	67082
11.85107	69075
11.85920	72553
11.86732	77103
11.87543	78445
11.88357	80130
11.89168	84045
11.89980	87597
11.90793	79038
11.91605	79726
11.92418	79966
11.93230	81788
11.94042	77130
11.94855	77776
11.95667	82314
11.96480	80917
11.97292	82487
11.98103	77508
11.98917	78505
11.99728	82608
12.00542	76076
12.01353	79812
12.02165	80368
12.02978	78612
12.03790	72551
12.04602	76840
12.05415	78840
12.06227	77092
12.07040	79070
12.07852	83814
12.08663	79173
12.09477	87001
12.10288	80964
12.11102	83406
12.11913	80492
12.12725	72869
12.13538	73236
12.14350	76644
12.15162	74896
12.15975	76084
12.16787	79566
12.17600	76937
12.18412	78369
12.19223	77899
12.20037	75553
12.20848	73392
12.21662	76257
12.22473	78229
12.23285	70654
12.24098	70530
12.24910	78021
12.25723	73592
12.26535	75295
12.27347	66973
12.28160	74261
12.28972	75030
12.29783	70140
12.30597	76823
12.31408	74282
12.32222	75071
12.33033	70103
12.33845	72370
12.34658	77383
12.35470	75431
12.36283	70749
12.37095	70777
12.37907	67560
12.38720	72872
12.39532	74554
12.40345	73439
12.41157	69697
12.41968	71886
12.42782	63761
12.43593	66740
12.44405	68215
12.45218	71660
12.46030	68421
12.46843	66269
12.47655	70016
12.48467	67336
12.49280	66450
12.50092	70119
12.50905	66467
12.51717	66368
12.52528	66973
12.53342	70049
12.54153	70400
12.54967	73107
12.55778	68544
12.56590	70231
12.57403	64697
12.58215	65078
12.59027	67337
12.59840	65071
12.60652	62625
12.61465	64815
12.62277	62858
12.63088	69384
12.63902	65204
12.64713	60072
12.65527	64400
12.66338	61864
12.67150	63298
12.67963	61306
12.68775	65932
12.69587	65969
12.70400	69143
12.71212	64760
12.72025	61447
12.72837	64512
12.73648	67156
12.74462	62233
12.75273	66591
12.76087	64916
12.76898	62750
12.77710	62138
12.78523	63932
12.79335	69373
12.80148	61163
12.80960	73708
12.81772	64474
12.82585	67845
12.83397	68084
12.84208	67059
12.85022	66044
12.85833	70055
12.86647	67603
12.87458	64111
12.88270	61681
12.89083	62907
12.89895	58989
12.90708	59310
12.91520	64863
12.92332	61807
12.93145	64817
12.93957	72319
12.94768	74592
12.95582	71139
12.96393	77707
12.97207	74477
12.98018	71354
12.98830	67370
12.99643	67900
13.00455	70504
13.01268	66453
13.02080	75271
13.02892	82884
13.03705	97220
13.04517	112392
13.05330	135329
13.06142	158379
13.06953	139279
13.07767	131069
13.08578	115041
13.09390	102680
13.10203	86592
13.11015	82692
13.11828	80856
13.12640	74344
13.13452	72014
13.14265	72071
13.15077	70216
13.15890	69164
13.16702	70932
13.17513	65687
13.18327	67004
13.19138	69088
13.19950	68025
13.20763	70389
13.21575	65671
13.22388	65994
13.23200	66981
13.24012	66022
13.24825	71470
13.25637	73261
13.26450	79503
13.27262	93978
13.28073	114482
13.28887	144176
13.29698	161968
13.30512	152127
13.31323	145007
13.32135	125063
13.32948	105148
13.33760	92810
13.34572	86557
13.35385	81276
13.36197	75601
13.37010	76314
13.37822	78688
13.38633	84362
13.39447	82538
13.40258	78261
13.41072	80393
13.41883	78566
13.42695	79220
13.43508	72285
13.44320	72443
13.45133	76226
13.45945	70060
13.46757	71124
13.47570	69624
13.48382	71569
13.49193	75403
13.50007	68598
13.50818	69712
13.51632	68604
13.52443	73210
13.53255	74918
13.54068	67405
13.54880	66117
13.55693	66643
13.56505	64739
13.57317	72842
13.58130	77977
13.58942	66575
13.59755	69425
13.60567	65239
13.61378	66023
13.62192	68463
13.63003	64547
13.63815	66295
13.64628	71758
13.65440	70732
13.66253	70464
13.67065	75525
13.67877	72648
13.68690	70392
13.69502	77384
13.70315	72250
13.71127	70194
13.71938	65752
13.72752	74376
13.73563	73212
13.74375	75475
13.75188	70520
13.76000	68733
13.76813	71125
13.77625	69960
13.78437	71801
13.79250	72127
13.80062	71217
13.80875	69912
13.81687	66843
13.82498	63918
13.83312	65207
13.84123	65023
13.84937	60282
13.85748	66036
13.86560	68360
13.87373	76999
13.88185	70967
13.88997	74664
13.89810	85458
13.90622	83007
13.91435	75670
13.92247	72680
13.93058	76033
13.93872	77911
13.94683	70774
13.95497	71983
13.96308	73418
13.97120	76005
13.97933	78702
13.98745	77099
13.99557	80778
14.00370	74999
14.01182	79900
14.01995	90950
14.02807	135709
14.03618	205640
14.04432	316072
14.05243	408373
14.06057	493163
14.06868	516591
14.07680	489840
14.08493	460740
14.09305	420839
14.10118	371130
14.10930	343788
14.11742	337023
14.12555	321509
14.13367	308492
14.14178	283698
14.14992	281673
14.15803	273628
14.16617	271271
14.17428	253327
14.18240	260787
14.19053	265563
14.19865	258121
14.20678	241605
14.21490	232308
14.22302	221903
14.23115	218417
14.23927	190076
14.24740	193786
14.25552	183101
14.26363	166596
14.27177	163246
14.27988	147119
14.28800	136958
14.29613	138480
14.30425	136426
14.31238	128807
14.32050	120311
14.32862	125832
14.33675	126588
14.34487	114706
14.35300	118676
14.36112	111497
14.36923	106514
14.37737	110114
14.38548	114167
14.39360	119366
14.40173	118970
14.40985	132922
14.41798	119648
14.42610	125896
14.43422	118738
14.44235	117870
14.45047	120312
14.45860	113928
14.46672	114558
14.47483	104946
14.48297	111055
14.49108	106042
14.49922	104925
14.50733	107217
14.51545	112491
14.52358	106581
14.53170	103374
14.53982	106562
14.54795	101420
14.55607	108940
14.56420	103681
14.57232	103926
14.58043	101942
14.58857	93584
14.59668	103552
14.60482	102186
14.61293	102754
14.62105	97414
14.62918	99452
14.63730	99290
14.64543	98016
14.65355	97421
14.66167	99191
14.66980	98748
14.67792	98771
14.68603	92943
14.69417	98394
14.70228	96449
14.71042	97024
14.71853	92568
14.72665	93227
14.73478	93892
14.74290	90875
14.75103	89502
14.75915	93693
14.76727	90552
14.77540	92380
14.78352	94392
14.79163	90974
14.79977	94114
14.80788	90183
14.81602	95612
14.82413	91017
14.83225	93310
14.84038	89268
14.84850	84204
14.85663	83061
14.86475	81192
14.87287	91629
14.88100	89575
14.88912	83312
14.89725	87280
14.90537	84106
14.91348	83853
14.92162	82088
14.92973	84906
14.93785	83807
14.94598	93536
14.95410	104311
14.96223	117069
14.97035	141619
14.97847	149891
14.98660	168368
14.99472	144659
15.00285	135429
15.01097	114983
15.01908	98618
15.02722	93716
15.03533	84732
15.04345	78115
15.05158	76652
15.05970	81487
15.06783	78671
15.07595	78555
15.08407	80165
15.09220	77928
15.10032	74600
15.10845	68424
15.11657	79366
15.12468	77026
15.13282	72465
15.14093	79469
15.14907	69437
15.15718	65203
15.16530	72864
15.17343	67138
15.18155	63693
15.18967	65902
15.19780	70306
15.20592	66083
15.21405	62047
15.22217	58475
15.23028	63802
15.23842	73955
15.24653	64562
15.25467	62341
15.26278	60677
15.27090	61445
15.27903	58822
15.28715	64083
15.29528	60316
15.30340	62668
15.31152	70953
15.31965	72712
15.32777	73130
15.33588	80237
15.34402	80661
15.35213	85243
15.36027	78413
15.36838	77824
15.37650	71761
15.38463	76492
15.39275	67840
15.40088	72745
15.40900	66974
15.41712	72762
15.42525	67814
15.43337	66977
15.44148	65276
15.44962	69499
15.45773	70718
15.46587	65146
15.47398	66135
15.48210	78367
15.49023	77573
15.49835	77354
15.50648	76634
15.51460	78016
15.52272	79734
15.53085	84556
15.53897	89314
15.54710	89366
15.55522	85699
15.56333	93108
15.57147	83207
15.57958	82885
15.58770	81588
15.59583	80896
15.60395	83854
15.61208	100791
15.62020	105487
15.62832	119452
15.63645	131448
15.64457	137897
15.65270	139349
15.66082	145494
15.66893	145868
15.67707	149166
15.68518	150227
15.69332	150719
15.70143	137700
15.70955	144580
15.71768	134745
15.72580	138225
15.73392	141710
15.74205	135755
15.75017	135972
15.75830	129003
15.76642	128716
15.77453	125402
15.78267	128594
15.79078	131296
15.79892	122816
15.80703	121160
15.81515	118582
15.82328	122750
15.83140	124518
15.83952	123207
15.84765	117144
15.85577	117123
15.86390	120328
15.87202	113512
15.88013	116904
15.88827	109043
15.89638	116931
15.90452	113941
15.91263	114260
15.92075	120101
15.92888	115090
15.93700	115649
15.94513	121775
15.95325	124329
15.96137	135894
15.96950	141924
15.97762	159923
15.98573	154806
15.99387	157740
16.00198	149628
16.01012	133488
16.01823	129918
16.02635	124292
16.03448	118900
16.04260	114553
16.05073	111785
16.05885	108188
16.06697	109767
16.07510	102009
16.08322	99173
16.09135	101707
16.09947	97486
16.10758	99291
16.11572	102358
16.12383	95561
16.13195	93742
16.14008	95675
16.14820	96927
16.15633	93104
16.16445	94887
16.17257	94942
16.18070	98329
16.18882	102926
16.19695	99114
16.20507	104958
16.21318	105339
16.22132	111032
16.22943	116962
16.23755	116372
16.24568	115229
16.25380	109798
16.26193	107928
16.27005	103143
16.27817	94680
16.28630	99532
16.29442	96296
16.30255	94111
16.31067	93115
16.31878	94847
16.32692	81977
16.33503	87750
16.34317	78927
16.35128	79253
16.35940	84068
16.36753	79060
16.37565	75406
16.38377	77100
16.39190	84398
16.40002	73799
16.40815	71218
16.41627	72893
16.42438	76334
16.43252	80699
16.44063	75100
16.44877	71401
16.45688	72332
16.46500	71851
16.47313	72187
16.48125	67913
16.48937	70452
16.49750	75200
16.50562	67520
16.51375	68951
16.52187	70546
16.52998	66431
16.53812	65509
16.54623	66758
16.55437	67118
16.56248	68301
16.57060	68933
16.57873	62888
16.58685	69135
16.59498	66855
16.60310	72646
16.61122	65632
16.61935	69014
16.62747	60022
16.63558	59468
16.64372	61748
16.65183	63981
16.65997	63062
16.66808	61904
16.67620	63573
16.68433	62927
16.69245	65579
16.70058	60836
16.70870	63152
16.71682	57451
16.72495	65417
16.73307	57572
16.74120	57127
16.74932	64025
16.75743	60722
16.76557	60496
16.77368	60466
16.78180	60496
16.78993	61883
16.79805	61863
16.80618	62682
16.81430	60957
16.82242	60610
16.83055	61415
16.83867	61634
16.84680	61483
16.85492	66664
16.86303	58379
16.87117	58309
16.87928	63677
16.88740	63573
16.89553	59284
16.90365	58486
16.91178	60798
16.91990	58487
16.92802	58780
16.93615	57580
16.94427	63487
16.95240	59228
16.96052	56482
16.96863	62519
16.97677	59863
16.98488	57116
16.99302	61627
17.00113	58598
17.00925	63638
17.01738	68514
17.02550	69010
17.03362	73912
17.04175	77888
17.04987	84505
17.05800	79367
17.06612	72239
17.07423	75512
17.08237	74954
17.09048	76071
17.09862	77902
17.10673	78475
17.11485	75684
17.12298	76432
17.13110	82800
17.13923	80140
17.14735	78081
17.15547	73469
17.16360	81225
17.17172	78301
17.17983	71591
17.18797	69610
17.19608	76194
17.20422	74777
17.21233	74758
17.22045	77746
17.22858	78485
17.23670	76252
17.24483	72769
17.25295	75746
17.26107	75233
17.26920	76655
17.27732	75695
17.28543	74834
17.29357	75388
17.30168	75399
17.30982	77183
17.31793	80550
17.32605	80255
17.33418	84737
17.34230	99000
17.35043	117249
17.35855	151324
17.36667	193066
17.37480	227159
17.38292	265941
17.39105	253728
17.39917	230938
17.40728	200339
17.41542	170142
17.42353	138848
17.43165	117557
17.43978	112363
17.44790	98909
17.45603	98859
17.46415	96111
17.47227	92658
17.48040	91150
17.48852	86424
17.49665	85055
17.50477	87171
17.51288	86846
17.52102	88834
17.52913	91118
17.53725	93984
17.54538	88066
17.55350	86100
17.56163	87603
17.56975	81106
17.57787	88738
17.58600	81002
17.59412	82807
17.60225	73161
17.61037	78792
17.61848	76241
17.62662	77256
17.63473	69217
17.64287	69141
17.65098	71490
17.65910	66157
17.66723	70783
17.67535	68144
17.68347	72777
17.69160	68040
17.69972	76098
17.70785	75655
17.71597	72277
17.72408	68820
17.73222	68455
17.74033	64764
17.74847	68946
17.75658	63346
17.76470	61392
17.77283	63496
17.78095	63657
17.78908	60721
17.79720	56303
17.80532	61251
17.81345	70270
17.82157	69567
17.82968	84499
17.83782	102954
17.84593	133230
17.85407	147648
17.86218	188092
17.87030	191547
17.87843	199612
17.88655	208241
17.89468	202209
17.90280	201980
17.91092	202885
17.91905	207013
17.92717	204798
17.93528	193018
17.94342	201154
17.95153	193473
17.95967	181095
17.96778	174778
17.97590	176459
17.98403	176841
17.99215	175756
18.00028	177208
18.00840	181757
18.01652	169253
18.02465	177535
18.03277	166535
18.04090	170498
18.04902	177551
18.05713	176116
18.06527	174445
18.07338	166042
18.08150	170021
18.08963	162945
18.09775	167698
18.10588	166589
18.11400	152060
18.12212	155954
18.13025	151639
18.13837	147645
18.14650	138798
18.15462	141047
18.16273	136362
18.17087	127077
18.17898	124397
18.18712	120665
18.19523	117333
18.20335	113224
18.21148	111498
18.21960	116037
18.22772	106852
18.23585	103924
18.24397	103003
18.25210	105661
18.26022	104460
18.26833	100516
18.27647	101905
18.28458	88252
18.29272	87481
18.30083	78219
18.30895	74326
18.31708	73389
18.32520	68159
18.33332	68634
18.34145	74280
18.34957	68435
18.35770	65113
18.36582	64787
18.37393	68779
18.38207	66267
18.39018	67357
18.39832	71572
18.40643	64716
18.41455	63516
18.42268	63675
18.43080	66955
18.43893	64324
18.44705	67148
18.45517	66206
18.46330	62012
18.47142	66815
18.47953	58914
18.48767	64230
18.49578	68300
18.50392	64293
18.51203	63704
18.52015	67137
18.52828	62587
18.53640	60632
18.54453	63174
18.55265	57623
18.56077	55684
18.56890	65849
18.57702	63591
18.58513	65928
18.59327	63097
18.60138	59511
18.60952	63320
18.61763	67417
18.62575	65988
18.63388	62228
18.64200	66139
18.65013	65484
18.65825	66092
18.66637	59825
18.67450	60507
18.68262	55141
18.69075	64031
18.69887	56497
18.70698	57768
18.71512	60165
18.72323	60518
18.73135	60550
18.73948	57234
18.74760	60021
18.75573	60519
18.76385	59601
18.77197	59656
18.78010	57055
18.78822	60909
18.79635	64850
18.80447	60729
18.81258	58178
18.82072	55879
18.82883	55983
18.83697	62840
18.84508	59807
18.85320	55900
18.86133	58669
18.86945	55855
18.87757	56925
18.88570	56427
18.89382	53881
18.90195	56000
18.91007	59155
18.91818	56669
18.92632	63309
18.93443	73713
18.94257	80102
18.95068	95476
18.95880	116176
18.96693	120162
18.97505	129312
18.98318	121249
18.99130	121805
18.99942	127893
19.00755	112673
19.01567	109484
19.02378	104557
19.03192	92323
19.04003	88972
19.04817	82837
19.05628	83115
19.06440	79022
19.07253	84187
19.08065	86143
19.08878	81249
19.09690	89442
19.10502	91351
19.11315	103354
19.12127	108409
19.12938	107772
19.13752	111637
19.14563	109160
19.15377	110187
19.16188	114009
19.17000	113031
19.17813	117875
19.18625	127834
19.19438	127108
19.20250	119730
19.21062	123580
19.21875	116909
19.22687	116926
19.23500	108778
19.24312	106913
19.25123	103612
19.25937	98190
19.26748	109545
19.27560	98496
19.28373	100291
19.29185	113632
19.29998	110160
19.30810	117198
19.31622	118876
19.32435	120215
19.33247	109474
19.34060	109463
19.34872	107232
19.35683	100912
19.36497	104374
19.37308	98745
19.38120	98575
19.38933	94715
19.39745	92020
19.40558	92618
19.41370	97072
19.42182	93750
19.42995	85895
19.43807	88478
19.44620	91230
19.45432	90881
19.46243	101397
19.47057	109805
19.47868	141366
19.48682	227220
19.49493	366269
19.50305	517612
19.51118	659030
19.51930	700992
19.52742	638316
19.53555	495814
19.54367	382297
19.55180	290845
19.55992	258742
19.56803	301494
19.57617	401511
19.58428	547785
19.59242	706452
19.60053	759135
19.60865	749811
19.61678	662377
19.62490	540617
19.63303	428090
19.64115	385267
19.64927	447634
19.65740	776557
19.66552	1840605
19.67363	4343570
19.68177	9193760
19.68988	1.611302E+07
19.69802	2.340307E+07
19.70613	2.868381E+07
19.71425	3.007247E+07
19.72238	2.811145E+07
19.73050	2.23356E+07
19.73863	1.650567E+07
19.74675	1.14525E+07
19.75487	8166644
19.76300	6307358
19.77112	5214453
19.77923	4589106
19.78737	4133095
19.79548	3892461
19.80362	3562597
19.81173	3410848
19.81985	3126151
19.82798	2943259
19.83610	2783882
19.84423	2626083
19.85235	2466187
19.86047	2357680
19.86860	2307757
19.87672	2261303
19.88485	2140753
19.89297	2036473
19.90108	1956678
19.90922	1880098
19.91733	1712808
19.92545	1590403
19.93358	1530762
19.94170	1450627
19.94983	1337436
19.95795	1251159
19.96607	1183227
19.97420	1107415
19.98232	1033271
19.99045	973093
19.99857	956132
20.00668	921310
20.01482	895126
20.02293	846020
20.03107	783832
20.03918	753623
20.04730	684836
20.05543	595905
20.06355	516340
20.07167	415343
20.07980	337654
20.08792	282973
20.09605	243522
20.10417	217270
20.11228	209004
20.12042	204734
20.12853	199765
20.13667	195894
20.14478	199393
20.15290	193377
20.16103	187841
20.16915	189882
20.17727	172036
20.18540	174347
20.19352	188898
20.20165	190010
20.20977	227636
20.21788	277765
20.22602	360453
20.23413	480960
20.24227	645708
20.25038	727754
20.25850	794936
20.26663	767181
20.27475	725944
20.28288	643002
20.29100	572760
20.29912	487181
20.30725	423127
20.31537	369703
20.32348	336681
20.33162	323310
20.33973	274375
20.34787	245122
20.35598	234024
20.36410	221994
20.37223	224592
20.38035	230707
20.38848	259627
20.39660	284770
20.40472	328360
20.41285	355876
20.42097	357145
20.42908	351344
20.43722	334145
20.44533	299417
20.45347	269409
20.46158	246670
20.46970	231493
20.47783	218185
20.48595	192453
20.49408	192149
20.50220	177217
20.51032	162115
20.51845	149542
20.52657	144614
20.53470	128996
20.54282	129711
20.55093	124034
20.55907	125007
20.56718	112083
20.57530	118641
20.58343	118534
20.59155	121019
20.59968	117723
20.60780	123044
20.61592	125402
20.62405	111930
20.63217	119426
20.64030	115878
20.64842	116946
20.65653	116502
20.66467	113845
20.67278	109108
20.68092	112604
20.68903	109991
20.69715	109673
20.70528	107809
20.71340	113251
20.72152	99276
20.72965	106093
20.73777	104727
20.74590	103018
20.75402	107906
20.76213	101336
20.77027	105733
20.77838	106029
20.78652	100478
20.79463	101979
20.80275	113150
20.81088	102493
20.81900	103868
20.82712	105840
20.83525	97086
20.84337	93584
20.85150	103886
20.85962	97826
20.86773	100658
20.87587	104432
20.88398	97307
20.89212	101410
20.90023	104021
20.90835	96339
20.91648	102003
20.92460	94798
20.93273	96896
20.94085	99078
20.94897	94985
20.95710	99217
20.96522	97951
20.97333	102657
20.98147	91220
20.98958	105343
20.99772	102251
21.00583	93438
21.01395	99014
21.02208	95001
21.03020	93730
21.03833	95299
21.04645	94106
21.05457	94708
21.06270	91873
21.07082	99612
21.07895	99124
21.08707	98140
21.09518	100454
21.10332	106046
21.11143	106027
21.11955	100172
21.12768	99636
21.13580	109917
21.14393	104107
21.15205	106586
21.16017	107025
21.16830	103222
21.17642	107504
21.18455	105779
21.19267	101034
21.20078	96691
21.20892	98172
21.21703	98705
21.22515	95158
21.23328	95666
21.24140	94597
21.24953	95521
21.25765	89339
21.26577	97196
21.27390	97384
21.28202	95311
21.29015	94559
21.29827	98727
21.30638	103172
21.31452	105467
21.32263	102599
21.33077	100219
21.33888	96612
21.34700	99632
21.35513	102035
21.36325	98776
21.37137	97197
21.37950	90497
21.38762	91731
21.39575	91471
21.40387	93555
21.41198	97366
21.42012	90664
21.42823	96849
21.43637	96290
21.44448	96589
21.45260	91351
21.46073	88904
21.46885	91489
21.47698	88914
21.48510	93792
21.49322	94728
21.50135	92957
21.50947	93626
21.51758	95946
21.52572	85502
21.53383	90336
21.54197	90576
21.55008	89778
21.55820	90308
21.56633	89745
21.57445	95919
21.58258	95068
21.59070	95121
21.59882	99965
21.60695	113310
21.61507	138063
21.62318	179302
21.63132	228489
21.63943	269768
21.64757	290181
21.65568	286564
21.66380	262139
21.67193	230091
21.68005	183179
21.68818	149715
21.69630	135770
21.70442	111607
21.71255	106463
21.72067	103182
21.72880	105726
21.73692	103771
21.74503	103930
21.75317	102211
21.76128	91780
21.76940	93240
21.77753	92020
21.78565	93192
21.79378	97031
21.80190	103459
21.81002	120228
21.81815	156885
21.82627	207899
21.83440	237354
21.84252	253681
21.85063	256274
21.85877	237437
21.86688	198879
21.87500	161064
21.88313	138466
21.89125	116173
21.89938	101378
21.90750	89532
21.91562	92431
21.92375	91276
21.93187	92752
21.94000	95333
21.94812	91043
21.95623	96030
21.96437	94933
21.97248	93367
21.98062	83092
21.98873	89621
21.99685	85961
22.00498	80784
22.01310	86978
22.02122	88697
22.02935	84009
22.03747	86536
22.04560	85382
22.05372	80569
22.06183	78834
22.06997	84249
22.07808	76058
22.08622	76877
22.09433	78618
22.10245	89788
22.11058	73193
22.11870	79463
22.12683	76139
22.13495	81229
22.14307	74557
22.15120	76792
22.15932	82735
22.16743	87667
22.17557	87735
22.18368	95689
22.19182	107153
22.19993	120701
22.20805	165978
22.21618	211624
22.22430	236650
22.23243	243451
22.24055	228391
22.24867	206599
22.25680	175602
22.26492	155892
22.27303	131180
22.28117	125890
22.28928	112709
22.29742	104921
22.30553	106343
22.31365	106567
22.32178	104556
22.32990	98810
22.33803	92444
22.34615	91058
22.35427	94765
22.36240	101367
22.37052	100299
22.37865	99551
22.38677	98417
22.39488	94935
22.40302	99445
22.41113	98460
22.41925	94830
22.42738	96966
22.43550	100540
22.44363	95452
22.45175	93380
22.45987	89694
22.46800	86858
22.47612	81742
22.48425	82489
22.49237	76945
22.50048	87890
22.50862	76228
22.51673	79431
22.52487	81748
22.53298	76292
22.54110	75010
22.54923	73868
22.55735	75359
22.56547	76936
22.57360	77160
22.58172	82314
22.58985	92621
22.59797	91926
22.60608	99175
22.61422	101990
22.62233	105380
22.63047	105390
22.63858	100646
22.64670	98430
22.65483	93843
22.66295	98930
22.67107	92505
22.67920	92344
22.68732	92039
22.69545	84348
22.70357	83444
22.71168	88367
22.71982	87889
22.72793	90937
22.73607	88714
22.74418	86876
22.75230	84626
22.76043	90610
22.76855	84569
22.77668	86821
22.78480	93693
22.79292	84050
22.80105	97046
22.80917	111261
22.81728	117810
22.82542	136583
22.83353	163886
22.84167	167007
22.84978	179369
22.85790	183943
22.86603	189871
22.87415	193808
22.88228	191123
22.89040	180720
22.89852	172533
22.90665	174869
22.91477	176146
22.92288	169879
22.93102	151632
22.93913	156942
22.94727	148078
22.95538	140317
22.96350	139261
22.97163	133438
22.97975	131408
22.98788	128904
22.99600	115389
23.00412	111089
23.01225	101222
23.02037	101368
23.02850	91562
23.03662	85617
23.04473	83441
23.05287	79627
23.06098	79916
23.06910	78179
23.07723	75385
23.08535	81002
23.09348	83078
23.10160	74942
23.10972	73827
23.11785	73136
23.12597	74144
23.13410	72855
23.14222	73987
23.15033	74317
23.15847	73803
23.16658	77848
23.17472	73184
23.18283	77633
23.19095	79703
23.19908	93686
23.20720	100677
23.21532	91758
23.22345	91747
23.23157	89953
23.23970	84684
23.24782	78236
23.25593	80666
23.26407	80555
23.27218	76171
23.28032	79987
23.28843	80766
23.29655	84759
23.30468	84418
23.31280	82475
23.32092	88079
23.32905	92671
23.33717	85934
23.34530	76950
23.35342	81770
23.36153	82816
23.36967	88746
23.37778	84610
23.38592	87358
23.39403	83107
23.40215	82422
23.41028	79128
23.41840	81580
23.42653	81297
23.43465	76280
23.44277	76396
23.45090	73400
23.45902	74679
23.46713	76907
23.47527	77699
23.48338	79366
23.49152	87878
23.49963	91041
23.50775	92404
23.51588	100326
23.52400	111945
23.53213	130428
23.54025	137131
23.54837	150252
23.55650	189210
23.56462	250245
23.57275	376683
23.58087	489600
23.58898	576451
23.59712	614174
23.60523	568807
23.61335	467077
23.62148	378211
23.62960	280776
23.63773	226419
23.64585	185345
23.65397	183148
23.66210	161031
23.67022	151348
23.67835	144498
23.68647	132732
23.69458	127382
23.70272	119690
23.71083	119594
23.71895	167580
23.72708	332065
23.73520	824132
23.74333	2030076
23.75145	4263582
23.75957	6622005
23.76770	8603316
23.77582	8741850
23.78395	7640929
23.79207	5708030
23.80018	4024991
23.80832	2583597
23.81643	1718785
23.82457	1267909
23.83268	989252
23.84080	782083
23.84893	683700
23.85705	577337
23.86517	508624
23.87330	460967
23.88142	419300
23.88955	406883
23.89767	372439
23.90578	357462
23.91392	324438
23.92203	288667
23.93017	292464
23.93828	285262
23.94640	279265
23.95453	258399
23.96265	247734
23.97077	254101
23.97890	248800
23.98702	256716
23.99515	258063
24.00327	268038
24.01138	261705
24.01952	254065
24.02763	229753
24.03577	227012
24.04388	209255
24.05200	197760
24.06013	191327
24.06825	185841
24.07638	168230
24.08450	170292
24.09262	177413
24.10075	170368
24.10887	161600
24.11698	159138
24.12512	171633
24.13323	188227
24.14137	196081
24.14948	212637
24.15760	231057
24.16573	218424
24.17385	209753
24.18198	198194
24.19010	181115
24.19822	174580
24.20635	170857
24.21447	187228
24.22260	199511
24.23072	214156
24.23883	220430
24.24697	209794
24.25508	211822
24.26320	184543
24.27133	163002
24.27945	154880
24.28758	136030
24.29570	144342
24.30382	135492
24.31195	134065
24.32007	131660
24.32820	131738
24.33632	130965
24.34443	137328
24.35257	132402
24.36068	125505
24.36882	125328
24.37693	129421
24.38505	161143
24.39318	239946
24.40130	363439
24.40942	523244
24.41755	639559
24.42567	700522
24.43380	627813
24.44192	474665
24.45003	317090
24.45817	216288
24.46628	175341
24.47442	156896
24.48253	162244
24.49065	174120
24.49878	196247
24.50690	229537
24.51502	253736
24.52315	279618
24.53127	290243
24.53940	289376
24.54752	270794
24.55563	234679
24.56377	210411
24.57188	190100
24.58002	167106
24.58813	158467
24.59625	150400
24.60438	145755
24.61250	147929
24.62063	144777
24.62875	145602
24.63687	137516
24.64500	136725
24.65312	127143
24.66123	126927
24.66937	123183
24.67748	127843
24.68562	119956
24.69373	115994
24.70185	113767
24.70998	111669
24.71810	107725
24.72623	104892
24.73435	109765
24.74247	107664
24.75060	105589
24.75872	97625
24.76683	93499
24.77497	93015
24.78308	97170
24.79122	100058
24.79933	102759
24.80745	102021
24.81558	106186
24.82370	106783
24.83183	116701
24.83995	113162
24.84807	109371
24.85620	112616
24.86432	104096
24.87245	105352
24.88057	105381
24.88868	102659
24.89682	99655
24.90493	94917
24.91305	102225
24.92118	93949
24.92930	89498
24.93743	94252
24.94555	91332
24.95367	91106
24.96180	87270
24.96992	86252
24.97805	86227
24.98617	89997
24.99428	86604
25.00242	87684
25.01053	86850
25.01867	89196
25.02678	91010
25.03490	92878
25.04303	96436
25.05115	94398
25.05927	89137
25.06740	88411
25.07552	87521
25.08365	90166
25.09177	98960
25.09988	114594
25.10802	135379
25.11613	150716
25.12427	180358
25.13238	187676
25.14050	197041
25.14863	191933
25.15675	194960
25.16487	173714
25.17300	160416
25.18112	150043
25.18925	136525
25.19737	134922
25.20548	122567
25.21362	117873
25.22173	105445
25.22987	108140
25.23798	104325
25.24610	108563
25.25423	113856
25.26235	110992
25.27048	116924
25.27860	116316
25.28672	112537
25.29485	116903
25.30297	107680
25.31108	111775
25.31922	103215
25.32733	99106
25.33547	100697
25.34358	95525
25.35170	92460
25.35983	89841
25.36795	92020
25.37608	84466
25.38420	90662
25.39232	82732
25.40045	77432
25.40857	85357
25.41670	80978
25.42482	81687
25.43293	79301
25.44107	84505
25.44918	88104
25.45730	90554
25.46543	99244
25.47355	114325
25.48168	114770
25.48980	123571
25.49792	129208
25.50605	127781
25.51417	127319
25.52230	114861
25.53042	110327
25.53853	104488
25.54667	90851
25.55478	93636
25.56290	87540
25.57103	85932
25.57915	84408
25.58728	92349
25.59540	84921
25.60352	87470
25.61165	81989
25.61977	78480
25.62790	83746
25.63602	87834
25.64413	95401
25.65227	89021
25.66038	85883
25.66852	84773
25.67663	84622
25.68475	83221
25.69288	84950
25.70100	87125
25.70912	91728
25.71725	86693
25.72537	91633
25.73350	89947
25.74162	90223
25.74973	85706
25.75787	90996
25.76598	87827
25.77412	91292
25.78223	95403
25.79035	103674
25.79848	107912
25.80660	99743
25.81472	108908
25.82285	104249
25.83097	99866
25.83910	93567
25.84722	93475
25.85533	92083
25.86347	90910
25.87158	86605
25.87972	92624
25.88783	85852
25.89595	96547
25.90408	83138
25.91220	84171
25.92033	86107
25.92845	80995
25.93657	81231
25.94470	87336
25.95282	82916
25.96093	84115
25.96907	77922
25.97718	83371
25.98532	82338
25.99343	79001
26.00155	73234
26.00968	78569
26.01780	75397
26.02593	77104
26.03405	81822
26.04217	82762
26.05030	82774
26.05842	84724
26.06655	92302
26.07467	87823
26.08278	97095
26.09092	100223
26.09903	107846
26.10715	113697
26.11528	133229
26.12340	136141
26.13153	139003
26.13965	137866
26.14777	130307
26.15590	137349
26.16402	133305
26.17215	126677
26.18027	124903
26.18838	125347
26.19652	114212
26.20463	100954
26.21275	104796
26.22088	95456
26.22900	90924
26.23713	85024
26.24525	85450
26.25337	85238
26.26150	85357
26.26962	87435
26.27775	90157
26.28587	96297
26.29398	90128
26.30212	94431
26.31023	92757
26.31837	86758
26.32648	86512
26.33460	89310
26.34273	98101
26.35085	93996
26.35897	101696
26.36710	101982
26.37522	105265
26.38335	108041
26.39147	107457
26.39958	112093
26.40772	109706
26.41583	123122
26.42397	124180
26.43208	128919
26.44020	133681
26.44833	140652
26.45645	140871
26.46458	151902
26.47270	149311
26.48082	152728
26.48895	143392
26.49707	138447
26.50518	125507
26.51332	120400
26.52143	107038
26.52957	104333
26.53768	96646
26.54580	96400
26.55393	87946
26.56205	83861
26.57018	88755
26.57830	86006
26.58642	79216
26.59455	84378
26.60267	81976
26.61078	82087
26.61892	77377
26.62703	81759
26.63517	82019
26.64328	82828
26.65140	90670
26.65953	88386
26.66765	89960
26.67578	89784
26.68390	88355
26.69202	91385
26.70015	84535
26.70827	86181
26.71640	85561
26.72452	81209
26.73263	80473
26.74077	89767
26.74888	84794
26.75700	85280
26.76513	86986
26.77325	87578
26.78138	90823
26.78950	87683
26.79762	92910
26.80575	95108
26.81387	93174
26.82200	96774
26.83012	96112
26.83823	97901
26.84637	96278
26.85448	101947
26.86262	96663
26.87073	108692
26.87885	110961
26.88698	106395
26.89510	108224
26.90322	102834
26.91135	106770
26.91947	93072
26.92760	98860
26.93572	98013
26.94383	106633
26.95197	110082
26.96008	135088
26.96822	204371
26.97633	370558
26.98445	754842
26.99258	1555077
27.00070	2952689
27.00882	4801704
27.01695	6519359
27.02507	6945482
27.03320	6186761
27.04132	4888732
27.04943	3530454
27.05757	2425117
27.06568	1722256
27.07382	1300320
27.08193	966924
27.09005	773106
27.09818	654514
27.10630	575036
27.11443	524327
27.12255	476217
27.13067	436311
27.13880	405165
27.14692	385459
27.15503	383378
27.16317	360935
27.17128	344837
27.17942	333368
27.18753	313785
27.19565	298241
27.20378	288895
27.21190	259460
27.22003	266472
27.22815	252775
27.23627	228444
27.24440	216956
27.25252	203440
27.26063	202552
27.26877	194398
27.27688	192159
27.28502	189039
27.29313	184949
27.30125	175933
27.30938	173647
27.31750	166606
27.32563	163939
27.33375	164316
27.34187	160637
27.35000	156336
27.35812	153405
27.36625	153064
27.37437	155151
27.38248	148282
27.39062	152160
27.39873	143900
27.40685	150765
27.41498	134544
27.42310	141231
27.43123	135712
27.43935	127420
27.44747	128735
27.45560	138479
27.46372	128879
27.47185	133210
27.47997	124369
27.48808	123144
27.49622	122883
27.50433	124623
27.51247	124825
27.52058	121759
27.52870	125488
27.53683	129464
27.54495	131127
27.55307	138004
27.56120	129281
27.56932	130729
27.57745	120862
27.58557	122079
27.59368	123957
27.60182	120940
27.60993	124636
27.61807	130444
27.62618	131753
27.63430	133866
27.64243	133970
27.65055	120689
27.65867	117699
27.66680	111231
27.67492	107561
27.68305	104720
27.69117	102526
27.69928	104711
27.70742	99730
27.71553	102289
27.72367	97436
27.73178	97414
27.73990	96673
27.74803	96816
27.75615	92962
27.76428	100279
27.77240	98948
27.78052	96906
27.78865	98786
27.79677	104136
27.80488	101984
27.81302	103465
27.82113	111033
27.82927	104626
27.83738	103723
27.84550	103926
27.85363	98709
27.86175	100235
27.86988	98781
27.87800	103770
27.88612	97096
27.89425	89395
27.90237	97762
27.91050	97205
27.91862	88421
27.92673	92693
27.93487	88238
27.94298	88721
27.95110	87879
27.95923	87942
27.96735	91478
27.97548	81930
27.98360	87333
27.99172	87345
27.99985	92890
28.00797	92123
28.01610	88724
28.02422	84613
28.03233	95408
28.04047	99233
28.04858	96533
28.05670	99182
28.06483	98563
28.07295	95792
28.08108	103057
28.08920	98716
28.09732	95056
28.10545	97669
28.11357	89641
28.12170	85922
28.12982	83066
28.13793	82513
28.14607	81962
28.15418	86875
28.16232	84221
28.17043	76979
28.17855	87273
28.18668	83836
28.19480	87000
28.20292	88022
28.21105	103614
28.21917	114413
28.22730	128102
28.23542	132208
28.24353	134337
28.25167	127570
28.25978	99405
28.26792	105224
28.27603	101092
28.28415	97956
28.29228	97414
28.30040	110517
28.30852	125487
28.31665	164356
28.32477	222617
28.33290	316522
28.34102	446269
28.34913	570186
28.35727	711607
28.36538	839853
28.37352	866303
28.38163	879924
28.38975	810919
28.39788	726291
28.40600	599942
28.41413	521536
28.42225	437355
28.43037	374814
28.43850	333018
28.44662	290662
28.45473	251637
28.46287	232014
28.47098	218713
28.47912	198016
28.48723	191665
28.49535	186281
28.50348	175576
28.51160	165872
28.51973	159650
28.52785	162086
28.53597	157369
28.54410	150224
28.55222	141266
28.56035	143922
28.56847	140537
28.57658	142946
28.58472	133055
28.59283	129053
28.60095	129327
28.60908	132704
28.61720	127916
28.62533	132049
28.63345	129146
28.64157	146020
28.64970	146007
28.65782	154880
28.66595	143742
28.67407	152353
28.68218	141168
28.69032	143542
28.69843	127872
28.70657	126109
28.71468	113253
28.72280	108337
28.73093	115712
28.73905	107902
28.74717	112251
28.75530	120128
28.76342	146481
28.77155	191207
28.77967	260841
28.78778	333740
28.79592	394052
28.80403	390409
28.81217	323471
28.82028	248087
28.82840	171095
28.83653	133768
28.84465	111976
28.85277	107704
28.86090	106962
28.86902	97275
28.87715	100258
28.88527	104756
28.89338	105047
28.90152	96283
28.90963	104260
28.91777	96564
28.92588	101686
28.93400	102702
28.94213	111531
28.95025	111626
28.95838	114790
28.96650	122356
28.97462	119846
28.98275	123378
28.99087	116668
28.99898	114214
29.00712	107722
29.01523	99482
29.02337	98564
29.03148	98589
29.03960	101370
29.04773	96917
29.05585	95299
29.06398	97542
29.07210	95865
29.08022	96151
29.08835	101194
29.09647	102381
29.10458	88658
29.11272	94675
29.12083	92652
29.12897	98103
29.13708	102068
29.14520	111372
29.15333	108087
29.16145	108040
29.16958	106409
29.17770	103210
29.18582	104777
29.19395	107046
29.20207	104467
29.21020	105747
29.21832	107967
29.22643	104502
29.23457	98839
29.24268	95585
29.25080	102727
29.25893	96770
29.26705	103137
29.27518	98401
29.28330	95563
29.29142	97586
29.29955	100860
29.30767	96289
29.31580	93669
29.32392	96657
29.33203	99067
29.34017	97249
29.34828	90935
29.35642	92284
29.36453	91404
29.37265	86282
29.38078	85779
29.38890	87664
29.39702	95467
29.40515	92398
29.41327	95400
29.42140	96942
29.42952	103658
29.43763	100873
29.44577	95946
29.45388	98784
29.46202	93702
29.47013	92926
29.47825	97036
29.48638	104662
29.49450	115396
29.50262	118641
29.51075	125566
29.51887	121991
29.52700	125322
29.53512	125452
29.54323	109030
29.55137	102474
29.55948	100011
29.56762	95396
29.57573	89182
29.58385	87756
29.59198	85301
29.60010	90227
29.60823	91224
29.61635	92005
29.62447	93914
29.63260	90742
29.64072	93735
29.64883	93518
29.65697	88048
29.66508	89484
29.67322	81377
29.68133	85369
29.68945	80831
29.69758	79631
29.70570	89319
29.71383	82601
29.72195	82812
29.73007	91848
29.73820	83909
29.74632	89847
29.75445	97106
29.76257	85474
29.77068	85751
29.77882	84991
29.78693	82280
29.79505	80730
29.80318	77743
29.81130	76970
29.81943	79380
29.82755	79319
29.83567	80722
29.84380	79326
29.85192	73729
29.86005	86839
29.86817	89501
29.87628	108108
29.88442	125076
29.89253	151747
29.90065	172223
29.90878	184199
29.91690	164294
29.92503	150715
29.93315	126988
29.94127	103759
29.94940	106349
29.95752	108720
29.96565	113019
29.97377	133410
29.98188	165133
29.99002	191904
29.99813	234463
30.00627	269844
30.01438	337596
30.02250	367121
30.03063	392812
30.03875	399390
30.04687	399359
30.05500	386521
30.06312	373637
30.07125	345737
30.07937	317206
30.08748	293699
30.09562	270064
30.10373	247447
30.11187	219692
30.11998	206484
30.12810	192047
30.13623	169728
30.14435	167441
30.15247	165038
30.16060	157998
30.16872	158604
30.17685	156339
30.18497	151174
30.19308	135300
30.20122	135613
30.20933	137285
30.21747	122167
30.22558	123169
30.23370	122137
30.24183	127039
30.24995	116015
30.25808	114844
30.26620	111297
30.27432	104089
30.28245	104816
30.29057	109488
30.29868	102873
30.30682	108938
30.31493	106489
30.32307	97422
30.33118	102596
30.33930	100637
30.34743	102917
30.35555	107861
30.36368	104373
30.37180	97328
30.37992	101086
30.38805	92280
30.39617	97117
30.40430	95690
30.41242	92807
30.42053	90264
30.42867	87515
30.43678	90103
30.44490	93306
30.45303	95600
30.46115	81272
30.46928	88150
30.47740	84576
30.48552	90634
30.49365	90161
30.50177	93249
30.50990	91669
30.51802	89036
30.52613	90107
30.53427	85111
30.54238	84560
30.55050	84219
30.55863	77317
30.56675	77071
30.57488	83631
30.58300	82384
30.59112	83703
30.59925	83008
30.60737	76259
30.61550	83661
30.62362	78423
30.63173	80139
30.63987	82270
30.64798	78796
30.65612	83078
30.66423	84564
30.67235	85419
30.68048	77953
30.68860	78693
30.69672	89606
30.70485	89286
30.71297	81192
30.72110	81799
30.72922	81088
30.73733	83943
30.74547	81577
30.75358	83840
30.76172	82420
30.76983	84150
30.77795	85188
30.78608	83914
30.79420	97692
30.80233	109376
30.81045	111785
30.81857	114105
30.82670	117099
30.83482	113556
30.84293	110114
30.85107	97099
30.85918	96970
30.86732	87335
30.87543	81636
30.88355	88833
30.89168	79404
30.89980	75648
30.90793	83323
30.91605	80052
30.92417	78536
30.93230	81521
30.94042	76029
30.94853	77086
30.95667	77963
30.96478	81399
30.97292	82084
30.98103	82473
30.98915	87844
30.99728	87073
31.00540	92372
31.01353	92496
31.02165	101856
31.02977	102454
31.03790	115949
31.04602	103628
31.05415	103508
31.06227	99483
31.07038	97398
31.07852	115467
31.08663	147565
31.09475	188181
31.10288	239020
31.11100	286491
31.11913	315799
31.12725	286695
31.13537	246445
31.14350	186748
31.15162	144377
31.15975	121405
31.16787	113822
31.17598	114204
31.18412	118388
31.19223	135031
31.20035	157536
31.20848	195324
31.21660	227360
31.22473	254569
31.23285	266715
31.24097	250291
31.24910	223543
31.25722	188293
31.26535	157757
31.27347	131673
31.28158	110856
31.28972	112576
31.29783	94297
31.30597	96333
31.31408	101764
31.32220	96208
31.33033	89106
31.33845	87701
31.34657	81328
31.35470	79610
31.36282	86995
31.37095	94433
31.37907	102739
31.38718	100380
31.39532	113999
31.40343	104980
31.41157	108771
31.41968	101540
31.42780	101326
31.43593	101130
31.44405	98440
31.45218	115677
31.46030	102985
31.46842	96253
31.47655	90777
31.48467	84395
31.49278	83641
31.50092	83412
31.50903	81315
31.51717	85385
31.52528	82613
31.53340	84600
31.54153	84467
31.54965	90574
31.55778	84328
31.56590	82072
31.57402	79124
31.58215	80304
31.59027	80629
31.59838	83086
31.60652	79344
31.61463	90065
31.62277	82759
31.63088	87672
31.63900	89982
31.64713	89592
31.65525	90422
31.66338	101685
31.67150	94667
31.67962	87212
31.68775	90666
31.69587	80722
31.70400	78911
31.71212	86919
31.72023	77050
31.72837	77455
31.73648	76553
31.74460	75752
31.75273	75106
31.76085	72963
31.76898	79350
31.77710	78250
31.78522	76419
31.79335	87679
31.80147	85983
31.80960	91857
31.81772	87468
31.82583	93884
31.83397	96423
31.84208	97380
31.85022	105179
31.85833	124854
31.86645	127952
31.87458	133665
31.88270	136479
31.89082	126145
31.89895	120445
31.90707	118987
31.91520	117814
31.92332	123835
31.93143	145543
31.93957	166148
31.94768	183852
31.95582	217841
31.96393	247617
31.97205	274428
31.98018	300289
31.98830	330317
31.99642	327184
32.00455	306194
32.01267	296067
32.02080	264929
32.02892	258450
32.03703	219286
32.04517	203312
32.05328	183023
32.06142	176588
32.06953	165816
32.07765	169094
32.08578	163596
32.09390	174034
32.10203	183160
32.11015	183958
32.11827	162443
32.12640	151375
32.13452	136942
32.14263	133910
32.15077	125138
32.15888	121899
32.16702	116904
32.17513	113607
32.18325	113251
32.19138	118091
32.19950	104245
32.20763	100863
32.21575	109082
32.22387	110013
32.23200	105078
32.24012	107714
32.24825	103848
32.25637	102488
32.26448	105930
32.27262	107975
32.28073	116264
32.28885	109481
32.29698	108032
32.30510	100873
32.31323	100445
32.32135	101554
32.32947	105518
32.33760	110726
32.34572	108744
32.35385	118721
32.36197	114923
32.37008	113970
32.37822	116030
32.38633	114047
32.39445	106777
32.40258	110197
32.41070	103712
32.41883	102346
32.42695	98852
32.43507	103099
32.44320	103427
32.45132	96816
32.45945	94245
32.46757	94607
32.47568	98920
32.48382	91373
32.49193	95729
32.50007	97732
32.50818	95525
32.51630	94964
32.52443	91101
32.53255	91933
32.54067	95609
32.54880	94156
32.55692	101451
32.56505	93457
32.57317	88966
32.58128	97877
32.58942	93686
32.59753	91456
32.60567	91471
32.61378	92353
32.62190	92241
32.63003	95598
32.63815	92858
32.64627	94693
32.65440	119745
32.66252	144906
32.67065	199310
32.67877	272532
32.68688	329518
32.69502	353874
32.70313	322773
32.71127	263532
32.71938	201789
32.72750	162589
32.73563	136865
32.74375	118593
32.75188	114650
32.76000	110483
32.76812	102138
32.77625	100118
32.78437	97075
32.79248	97106
32.80062	93212
32.80873	94549
32.81687	93135
32.82498	89580
32.83310	87169
32.84123	89261
32.84935	92209
32.85748	94721
32.86560	97791
32.87372	96236
32.88185	96166
32.88997	93767
32.89810	95161
32.90622	96873
32.91433	108114
32.92247	101855
32.93058	97427
32.93870	100964
32.94683	98823
32.95495	92016
32.96308	97915
32.97120	95210
32.97932	92886
32.98745	92699
32.99557	96825
33.00370	95902
33.01182	99212
33.01993	103653
33.02807	99585
33.03618	95022
33.04430	91111
33.05243	88393
33.06055	85619
33.06868	87686
33.07680	94870
33.08492	100425
33.09305	104179
33.10117	117220
33.10930	148849
33.11742	174561
33.12553	214616
33.13367	233775
33.14178	221280
33.14992	194192
33.15803	156767
33.16615	132649
33.17428	112092
33.18240	103093
33.19052	107439
33.19865	109227
33.20677	109644
33.21490	110559
33.22302	121510
33.23113	133445
33.23927	121140
33.24738	118390
33.25552	119437
33.26363	115541
33.27175	104255
33.27988	100810
33.28800	107623
33.29613	103516
33.30425	99590
33.31237	100849
33.32050	102184
33.32862	106581
33.33673	98139
33.34487	100140
33.35298	100463
33.36112	99962
33.36923	105243
33.37735	102625
33.38548	99853
33.39360	98228
33.40173	97775
33.40985	98168
33.41797	94780
33.42610	96547
33.43422	92460
33.44233	97401
33.45047	97220
33.45858	95556
33.46672	94719
33.47483	98331
33.48295	95721
33.49108	96850
33.49920	100237
33.50733	101724
33.51545	100364
33.52357	99601
33.53170	105101
33.53982	104501
33.54795	104226
33.55607	108018
33.56418	107480
33.57232	113544
33.58043	114755
33.58855	119384
33.59668	112104
33.60480	119820
33.61293	111266
33.62105	113363
33.62917	107587
33.63730	117045
33.64542	123819
33.65355	124112
33.66167	122773
33.66978	121815
33.67792	123625
33.68603	121223
33.69415	119097
33.70228	116872
33.71040	123232
33.71853	118185
33.72665	122338
33.73477	121338
33.74290	125111
33.75102	120614
33.75915	121692
33.76727	121612
33.77538	123948
33.78352	129155
33.79163	138204
33.79977	136811
33.80788	133034
33.81600	137630
33.82413	135220
33.83225	134155
33.84037	130543
33.84850	145229
33.85662	142592
33.86475	145290
33.87287	143430
33.88098	146473
33.88912	136533
33.89723	138270
33.90537	151884
33.91348	136147
33.92160	138600
33.92973	132541
33.93785	139899
33.94598	139152
33.95410	138739
33.96222	131132
33.97035	123497
33.97847	132478
33.98658	130523
33.99472	126297
34.00283	126363
34.01097	119164
34.01908	119078
34.02720	110561
34.03533	115881
34.04345	119089
34.05158	113591
34.05970	119295
34.06782	115056
34.07595	116303
34.08407	117957
34.09220	117270
34.10032	123143
34.10843	113173
34.11657	119852
34.12468	114070
34.13280	115555
34.14093	115036
34.14905	116190
34.15718	107861
34.16530	113748
34.17342	117257
34.18155	112182
34.18967	115123
34.19780	115870
34.20592	117432
34.21403	106233
34.22217	110193
34.23028	106479
34.23840	107314
34.24653	109935
34.25465	106853
34.26278	113372
34.27090	109149
34.27902	109206
34.28715	106118
34.29527	105803
34.30340	114792
34.31152	106085
34.31963	106100
34.32777	109684
34.33588	105516
34.34402	105204
34.35213	109156
34.36025	110406
34.36838	114343
34.37650	105358
34.38462	110020
34.39275	109185
34.40087	105540
34.40900	106281
34.41712	108657
34.42523	104732
34.43337	103896
34.44148	106896
34.44962	108119
34.45773	102484
34.46585	106381
34.47398	104673
34.48210	111953
34.49022	109845
34.49835	102283
34.50647	111197
34.51460	115576
34.52272	114091
34.53083	129999
34.53897	147179
34.54708	177584
34.55522	217206
34.56333	247277
34.57145	268483
34.57958	286594
34.58770	277135
34.59583	264947
34.60395	243387
34.61207	212442
34.62020	190186
34.62832	175440
34.63643	170412
34.64457	169365
34.65268	162123
34.66082	158099
34.66893	154424
34.67705	143102
34.68518	143047
34.69330	147713
34.70143	143650
34.70955	140613
34.71767	135579
34.72580	139386
34.73392	137938
34.74205	136804
34.75017	141929
34.75828	143625
34.76642	132553
34.77453	135323
34.78265	128602
34.79078	125803
34.79890	129736
34.80703	127653
34.81515	129717
34.82327	126204
34.83140	122355
34.83952	126467
34.84765	129473
34.85577	130102
34.86388	123539
34.87202	119196
34.88013	125375
34.88825	129157
34.89638	128825
34.90450	119169
34.91263	123086
34.92075	128666
34.92887	129841
34.93700	128550
34.94512	142649
34.95325	163313
34.96137	208305
34.96948	267796
34.97762	353138
34.98573	419889
34.99387	453839
35.00198	413749
35.01010	340719
35.01823	269291
35.02635	215345
35.03447	180829
35.04260	172332
35.05072	166342
35.05885	169725
35.06697	160301
35.07508	161860
35.08322	165841
35.09133	165004
35.09947	161490
35.10758	155714
35.11570	161229
35.12383	157839
35.13195	159728
35.14008	160502
35.14820	159716
35.15632	169364
35.16445	175219
35.17257	177360
35.18068	167046
35.18882	175558
35.19693	168721
35.20507	153483
35.21318	141748
35.22130	139846
35.22943	131959
35.23755	131644
35.24568	127728
35.25380	129074
35.26192	135071
35.27005	134246
35.27817	142851
35.28628	140526
35.29442	138883
35.30253	134474
35.31067	126357
35.31878	127125
35.32690	121744
35.33503	125935
35.34315	124222
35.35128	124524
35.35940	121677
35.36752	120271
35.37565	115075
35.38377	115355
35.39190	118152
35.40002	117706
35.40813	118329
35.41627	117593
35.42438	118353
35.43250	123368
35.44063	126139
35.44875	129847
35.45688	130558
35.46500	140003
35.47312	138728
35.48125	134100
35.48937	135644
35.49750	129985
35.50562	135577
35.51373	127691
35.52187	126343
35.52998	130783
35.53810	125860
35.54623	124192
35.55435	114843
35.56248	125077
35.57060	133030
35.57872	126677
35.58685	126219
35.59497	135039
35.60310	128137
35.61122	131974
35.61933	131653
35.62747	129177
35.63558	131566
35.64372	124050
35.65183	118172
35.65995	124894
35.66808	123729
35.67620	123903
35.68432	128607
35.69245	144333
35.70057	146020
35.70870	157714
35.71682	157114
35.72493	158102
35.73307	151280
35.74118	145261
35.74932	149942
35.75743	142938
35.76555	142753
35.77368	147251
35.78180	140964
35.78993	146724
35.79805	134791
35.80617	130585
35.81430	130107
35.82242	132847
35.83053	128673
35.83867	120659
35.84678	127325
35.85492	126255
35.86303	130129
35.87115	127324
35.87928	124270
35.88740	125889
35.89553	128059
35.90365	123029
35.91177	118932
35.91990	129602
35.92802	125003
35.93613	136611
35.94427	129023
35.95238	130805
35.96052	135135
35.96863	135074
35.97675	130589
35.98488	131175
35.99300	141506
36.00113	134323
36.00925	137826
36.01737	139260
36.02550	145034
36.03362	144830
36.04175	149214
36.04987	165902
36.05798	165468
36.06612	178800
36.07423	181145
36.08235	186882
36.09048	186246
36.09860	172680
36.10673	164214
36.11485	154908
36.12297	147020
36.13110	149175
36.13922	146396
36.14735	151135
36.15547	148086
36.16358	158834
36.17172	151552
36.17983	156967
36.18797	156764
36.19608	162444
36.20420	159078
36.21233	159488
36.22045	154765
36.22857	151319
36.23670	152831
36.24482	159087
36.25295	150031
36.26107	146516
36.26918	142539
36.27732	131607
36.28543	140276
36.29357	152278
36.30168	171096
36.30980	219551
36.31793	290170
36.32605	373633
36.33417	440674
36.34230	478702
36.35042	445740
36.35855	380620
36.36667	306474
36.37478	271450
36.38292	250418
36.39103	258231
36.39917	252761
36.40728	238682
36.41540	226276
36.42353	216701
36.43165	212813
36.43978	188303
36.44790	178134
36.45602	172843
36.46415	176974
36.47227	159113
36.48038	154666
36.48852	152891
36.49663	137133
36.50477	157569
36.51288	148890
36.52100	153424
36.52913	153674
36.53725	151760
36.54538	162814
36.55350	157424
36.56162	155127
36.56975	149760
36.57787	157612
36.58598	156141
36.59412	151557
36.60223	153050
36.61037	161556
36.61848	170605
36.62660	169157
36.63473	170920
36.64285	176705
36.65098	177597
36.65910	171507
36.66722	174356
36.67535	164657
36.68347	169176
36.69160	174507
36.69972	175723
36.70783	162886
36.71597	172814
36.72408	173843
36.73220	172008
36.74033	167166
36.74845	166940
36.75658	170038
36.76470	164796
36.77282	164805
36.78095	163424
36.78907	167831
36.79720	162785
36.80532	162735
36.81343	164130
36.82157	165026
36.82968	170213
36.83782	158420
36.84593	158010
36.85405	166187
36.86218	167551
36.87030	168638
36.87842	163208
36.88655	162009
36.89467	158696
36.90280	161290
36.91092	152273
36.91903	167991
36.92717	163754
36.93528	164707
36.94342	161541
36.95153	161746
36.95965	162107
36.96778	166368
36.97590	163445
36.98402	167709
36.99215	162179
37.00027	153953
37.00840	162866
37.01652	159976
37.02463	158764
37.03277	154367
37.04088	168301
37.04902	165530
37.05713	172976
37.06525	164086
37.07338	180147
37.08150	180370
37.08963	176285
37.09775	180406
37.10587	183626
37.11400	178485
37.12212	180946
37.13023	179115
37.13837	174855
37.14648	172412
37.15462	174316
37.16273	172193
37.17085	177410
37.17898	176760
37.18710	169549
37.19523	168774
37.20335	175777
37.21147	191980
37.21960	187772
37.22772	185249
37.23585	188752
37.24397	187358
37.25208	181378
37.26022	189370
37.26833	183567
37.27645	174429
37.28458	179573
37.29270	183901
37.30083	183648
37.30895	179633
37.31707	181100
37.32520	195202
37.33332	195400
37.34145	206767
37.34957	213302
37.35768	237694
37.36582	260583
37.37393	285110
37.38205	292718
37.39018	304001
37.39830	305932
37.40643	292974
37.41455	278133
37.42267	268629
37.43080	263888
37.43892	260102
37.44705	247199
37.45517	250267
37.46328	256410
37.47142	247600
37.47953	239665
37.48767	233385
