Z:\data\JTB-E02\BACandBLUE\JTB-E02-191-13.D Wed Dec 12 15:34:39 2018
Start of data points
2.09540	71724
2.10352	74536
2.11163	77130
2.11977	74557
2.12788	70974
2.13600	73720
2.14413	70573
2.15225	73593
2.16038	87999
2.16850	71783
2.17662	68382
2.18475	69143
2.19287	68803
2.20100	71332
2.20912	67211
2.21723	68097
2.22537	70541
2.23348	65186
2.24160	59848
2.24973	66615
2.25785	65758
2.26598	166332
2.27410	650570
2.28222	1254832
2.29035	1174591
2.29847	602151
2.30660	399726
2.31472	309618
2.32283	258736
2.33097	228255
2.33908	215607
2.34722	201886
2.35533	187406
2.36345	183392
2.37158	176922
2.37970	176191
2.38782	167880
2.39595	161026
2.40407	163122
2.41220	161255
2.42032	165530
2.42843	165445
2.43657	154713
2.44468	153333
2.45282	155051
2.46093	150981
2.46905	149846
2.47718	143669
2.48530	143633
2.49343	150210
2.50155	153551
2.50967	150005
2.51780	136339
2.52592	137189
2.53403	131502
2.54217	136770
2.55028	138851
2.55842	144745
2.56653	149718
2.57465	133770
2.58278	131029
2.59090	123037
2.59903	141630
2.60715	249998
2.61527	493644
2.62340	537137
2.63152	345701
2.63963	240263
2.64777	193424
2.65588	171256
2.66402	151658
2.67213	141064
2.68025	141745
2.68838	128881
2.69650	127605
2.70463	124381
2.71275	117150
2.72087	121659
2.72900	116757
2.73712	116679
2.74525	106293
2.75337	116384
2.76148	111234
2.76962	123511
2.77773	329313
2.78585	900770
2.79398	1280780
2.80210	931349
2.81023	545402
2.81835	430829
2.82647	387702
2.83460	322343
2.84272	263534
2.85085	223636
2.85897	198926
2.86708	183833
2.87522	168069
2.88333	154872
2.89145	155873
2.89958	140031
2.90770	136195
2.91583	123896
2.92395	127421
2.93207	126919
2.94020	120911
2.94832	119221
2.95645	121946
2.96457	130562
2.97268	137976
2.98082	129028
2.98893	118830
2.99707	125896
3.00518	124583
3.01330	122748
3.02143	117697
3.02955	115638
3.03767	111576
3.04580	109517
3.05392	108214
3.06205	100662
3.07017	106584
3.07828	138492
3.08642	357888
3.09453	956496
3.10267	2383347
3.11078	4831351
3.11890	6273695
3.12703	4839519
3.13515	2959582
3.14328	1996872
3.15140	1485974
3.15952	1165910
3.16765	973963
3.17577	950546
3.18388	1330270
3.19202	2920138
3.20013	5051755
3.20827	4940833
3.21638	3421509
3.22450	2366324
3.23263	1809499
3.24075	1451051
3.24888	1211570
3.25700	1005176
3.26512	886537
3.27325	771624
3.28137	698290
3.28948	694389
3.29762	973062
3.30573	1832142
3.31387	2855385
3.32198	3140540
3.33010	2553715
3.33823	1840408
3.34635	1390739
3.35448	1130494
3.36260	958585
3.37072	844477
3.37885	760836
3.38697	701438
3.39510	644900
3.40322	585835
3.41133	557677
3.41947	524996
3.42758	502961
3.43570	492058
3.44383	514312
3.45195	478305
3.46008	495174
3.46820	599781
3.47632	811093
3.48445	830348
3.49257	675325
3.50070	511725
3.50882	440849
3.51693	389874
3.52507	375248
3.53318	390794
3.54132	426562
3.54943	444830
3.55755	420339
3.56568	371496
3.57380	335969
3.58192	307168
3.59005	295468
3.59817	278518
3.60630	275492
3.61442	273693
3.62253	275928
3.63067	279505
3.63878	285235
3.64692	280961
3.65503	385745
3.66315	1847956
3.67128	9752047
3.67940	2.544026E+07
3.68752	3.725047E+07
3.69565	3.591428E+07
3.70377	2.597374E+07
3.71190	1.739894E+07
3.72002	1.302537E+07
3.72813	1.040154E+07
3.73627	8660370
3.74438	7384531
3.75252	6332730
3.76063	5563255
3.76875	4864954
3.77688	4319563
3.78500	3876488
3.79313	3555495
3.80125	3331423
3.80937	3325579
3.81750	3596370
3.82562	3791911
3.83373	3508328
3.84187	3015028
3.84998	2655699
3.85812	2402532
3.86623	2216986
3.87435	2048063
3.88248	1907459
3.89060	1808781
3.89873	1707855
3.90685	1625598
3.91497	1630197
3.92310	1839210
3.93122	2279409
3.93933	2439389
3.94747	2210749
3.95558	1903377
3.96372	1858432
3.97183	1988471
3.97995	1905064
3.98808	1606789
3.99620	1419803
4.00433	1495799
4.01245	1920969
4.02057	2424934
4.02870	2351492
4.03682	1875932
4.04495	1432187
4.05307	1181569
4.06118	1044891
4.06932	957910
4.07743	897970
4.08555	863865
4.09368	838032
4.10180	799493
4.10993	778857
4.11805	755768
4.12617	724195
4.13430	699725
4.14242	684961
4.15055	692406
4.15867	723992
4.16678	700721
4.17492	696287
4.18303	705120
4.19117	658193
4.19928	664226
4.20740	889680
4.21553	2676406
4.22365	8090819
4.23177	1.718335E+07
4.23990	2.517743E+07
4.24802	3.075406E+07
4.25615	3.47404E+07
4.26427	3.58576E+07
4.27238	2.985827E+07
4.28052	1.645632E+07
4.28863	9832669
4.29677	7316005
4.30488	5835267
4.31300	4838243
4.32113	4077779
4.32925	3519471
4.33737	3066358
4.34550	2669428
4.35362	2401664
4.36175	2248887
4.36987	2191526
4.37798	2109494
4.38612	1952869
4.39423	1693987
4.40237	1533830
4.41048	1362858
4.41860	1271151
4.42673	1179680
4.43485	1110833
4.44298	1054146
4.45110	994972
4.45922	937913
4.46735	883716
4.47547	863205
4.48358	826796
4.49172	795416
4.49983	771689
4.50797	738797
4.51608	717843
4.52420	695284
4.53233	688795
4.54045	662779
4.54858	673385
4.55670	672766
4.56482	657528
4.57295	628276
4.58107	589951
4.58920	571051
4.59732	563021
4.60543	543248
4.61357	533210
4.62168	560472
4.62980	697697
4.63793	1095465
4.64605	1574109
4.65418	1800229
4.66230	1570444
4.67042	1183667
4.67855	920748
4.68667	794674
4.69480	705256
4.70292	632681
4.71103	580946
4.71917	525229
4.72728	496866
4.73540	483052
4.74353	478122
4.75165	450409
4.75978	450837
4.76790	430212
4.77602	428574
4.78415	411784
4.79227	440574
4.80040	528882
4.80852	652409
4.81663	752020
4.82477	699261
4.83288	614719
4.84102	597003
4.84913	635509
4.85725	699438
4.86538	700494
4.87350	610640
4.88162	529985
4.88975	481413
4.89787	446073
4.90600	414768
4.91412	403043
4.92223	421269
4.93037	389439
4.93848	398408
4.94662	513646
4.95473	819294
4.96285	1344696
4.97098	1827475
4.97910	1973014
4.98722	1739296
4.99535	1354232
5.00347	1060851
5.01160	877169
5.01972	779282
5.02783	826165
5.03597	1128557
5.04408	1590837
5.05222	1866314
5.06033	1734059
5.06845	1453671
5.07658	1170750
5.08470	992188
5.09283	885509
5.10095	794724
5.10907	754064
5.11720	694607
5.12532	649655
5.13343	620033
5.14157	594951
5.14968	599823
5.15782	666343
5.16593	844012
5.17405	1005042
5.18218	1019985
5.19030	913720
5.19843	811099
5.20655	805333
5.21467	855839
5.22280	884118
5.23092	805772
5.23905	741941
5.24717	668231
5.25528	609541
5.26342	544223
5.27153	471815
5.27965	455932
5.28778	409423
5.29590	389327
5.30403	374758
5.31215	366953
5.32027	370901
5.32840	379771
5.33652	381358
5.34465	396617
5.35277	384432
5.36088	370351
5.36902	359967
5.37713	346473
5.38527	327975
5.39338	343239
5.40150	356114
5.40963	378400
5.41775	372701
5.42587	371273
5.43400	341422
5.44212	330545
5.45025	341732
5.45837	372297
5.46648	394464
5.47462	390665
5.48273	358090
5.49087	332328
5.49898	296991
5.50710	299072
5.51523	291668
5.52335	297868
5.53147	286058
5.53960	291455
5.54772	294707
5.55585	316711
5.56397	424082
5.57208	567889
5.58022	756976
5.58833	800077
5.59647	663190
5.60458	524075
5.61270	404732
5.62083	360714
5.62895	327143
5.63708	296359
5.64520	297575
5.65332	288610
5.66145	285339
5.66957	276938
5.67768	279686
5.68582	318015
5.69393	377425
5.70207	451122
5.71018	459761
5.71830	434304
5.72643	366545
5.73455	321473
5.74268	294754
5.75080	273516
5.75892	260764
5.76705	255470
5.77517	252725
5.78328	242327
5.79142	240820
5.79953	233856
5.80767	242559
5.81578	233610
5.82390	242227
5.83203	230900
5.84015	233909
5.84828	235258
5.85640	227887
5.86452	220972
5.87265	225636
5.88077	225182
5.88890	230059
5.89702	223559
5.90513	225179
5.91327	209130
5.92138	218996
5.92950	231023
5.93763	229328
5.94575	245996
5.95388	269834
5.96200	350119
5.97012	453318
5.97825	610327
5.98637	794433
5.99450	979381
6.00262	1108495
6.01073	1080223
6.01887	892764
6.02698	675666
6.03512	496414
6.04323	374151
6.05135	312096
6.05948	285449
6.06760	269436
6.07572	249106
6.08385	234714
6.09197	222335
6.10010	221619
6.10822	207390
6.11633	216638
6.12447	244722
6.13258	415181
6.14072	778097
6.14883	1269793
6.15695	1577911
6.16508	1469891
6.17320	1114450
6.18132	763486
6.18945	570944
6.19757	482707
6.20570	417690
6.21382	382625
6.22193	340119
6.23007	323270
6.23818	318020
6.24632	310357
6.25443	305153
6.26255	332015
6.27068	334638
6.27880	331180
6.28693	312032
6.29505	295106
6.30317	281443
6.31130	271670
6.31942	273214
6.32753	286872
6.33567	285645
6.34378	294579
6.35192	313919
6.36003	292689
6.36815	290681
6.37628	270002
6.38440	265678
6.39253	261906
6.40065	261104
6.40877	252901
6.41690	252089
6.42502	249227
6.43315	251217
6.44127	246683
6.44938	253012
6.45752	259318
6.46563	269374
6.47375	262654
6.48188	259580
6.49000	261648
6.49813	259091
6.50625	269253
6.51437	259379
6.52250	262212
6.53062	267308
6.53875	275752
6.54687	262280
6.55498	258992
6.56312	271213
6.57123	334441
6.57935	458428
6.58748	585576
6.59560	642544
6.60373	585294
6.61185	461374
6.61997	364171
6.62810	321610
6.63622	253791
6.64435	225492
6.65247	213247
6.66058	198672
6.66872	186022
6.67683	193468
6.68497	190204
6.69308	180400
6.70120	170142
6.70933	170261
6.71745	167382
6.72557	167342
6.73370	158473
6.74182	151590
6.74995	156988
6.75807	156919
6.76618	161906
6.77432	152756
6.78243	160228
6.79057	151225
6.79868	146629
6.80680	150355
6.81493	140359
6.82305	144195
6.83117	138197
6.83930	148687
6.84742	138649
6.85555	148809
6.86367	164551
6.87178	176496
6.87992	200817
6.88803	218919
6.89617	191002
6.90428	172633
6.91240	145113
6.92053	139727
6.92865	124360
6.93678	124979
6.94490	117513
6.95302	116826
6.96115	116204
6.96927	125450
6.97738	138716
6.98552	146894
6.99363	154408
7.00177	159384
7.00988	148936
7.01800	140360
7.02613	140909
7.03425	140198
7.04238	129533
7.05050	129092
7.05862	121908
7.06675	126458
7.07487	143696
7.08300	176802
7.09112	197450
7.09923	202897
7.10737	193104
7.11548	172515
7.12360	144727
7.13173	132151
7.13985	131103
7.14798	144308
7.15610	175558
7.16422	209770
7.17235	273958
7.18047	520337
7.18860	1337761
7.19672	3428580
7.20483	6721323
7.21297	9872519
7.22108	1.068187E+07
7.22920	8636116
7.23733	5055877
7.24545	2297223
7.25358	885436
7.26170	365758
7.26982	225068
7.27795	179616
7.28607	165524
7.29420	171259
7.30232	159647
7.31043	161184
7.31857	160666
7.32668	158607
7.33482	183139
7.34293	218278
7.35105	271216
7.35918	311138
7.36730	320844
7.37542	292565
7.38355	250116
7.39167	204222
7.39980	166648
7.40792	157693
7.41603	140342
7.42417	142606
7.43228	129115
7.44042	128575
7.44853	126567
7.45665	121957
7.46478	132514
7.47290	131812
7.48103	132108
7.48915	126748
7.49727	126406
7.50540	116813
7.51352	117047
7.52163	112157
7.52977	122537
7.53788	144798
7.54602	229787
7.55413	438879
7.56225	855624
7.57038	1520949
7.57850	2296946
7.58663	2931521
7.59475	3161830
7.60287	2796049
7.61100	2148395
7.61912	1478840
7.62723	932281
7.63537	604364
7.64348	414870
7.65162	308360
7.65973	254365
7.66785	201450
7.67598	178315
7.68410	161682
7.69223	130415
7.70035	120109
7.70847	124590
7.71660	131131
7.72472	163755
7.73285	183728
7.74097	211815
7.74908	222298
7.75722	224703
7.76533	206609
7.77345	193546
7.78158	186069
7.78970	170373
7.79783	173867
7.80595	176678
7.81407	193741
7.82220	207374
7.83032	222184
7.83845	210564
7.84657	183413
7.85468	152030
7.86282	137822
7.87093	138110
7.87905	140313
7.88718	160891
7.89530	184713
7.90343	231246
7.91155	253853
7.91967	255021
7.92780	221308
7.93592	190391
7.94405	202045
7.95217	215740
7.96028	244220
7.96842	259897
7.97653	245052
7.98467	219895
7.99278	180589
8.00090	147853
8.00903	128165
8.01715	122297
8.02527	113164
8.03340	101896
8.04152	102004
8.04965	107088
8.05777	100810
8.06588	95930
8.07402	98828
8.08213	96461
8.09027	96967
8.09838	95018
8.10650	91123
8.11463	85368
8.12275	90173
8.13088	104861
8.13900	133968
8.14712	191363
8.15525	267255
8.16337	329916
8.17148	342756
8.17962	290273
8.18773	217371
8.19587	165628
8.20398	138687
8.21210	116314
8.22023	110005
8.22835	101029
8.23648	94154
8.24460	91265
8.25272	86089
8.26085	88723
8.26897	86847
8.27708	82671
8.28522	84762
8.29333	84960
8.30147	82844
8.30958	79238
8.31770	83397
8.32583	81778
8.33395	84722
8.34208	91423
8.35020	93276
8.35832	91735
8.36645	86315
8.37457	79529
8.38270	75765
8.39082	77687
8.39893	77608
8.40707	76814
8.41518	77023
8.42330	75790
8.43143	71321
8.43955	70164
8.44768	72394
8.45580	74312
8.46392	67422
8.47205	72017
8.48017	72019
8.48830	68511
8.49642	65726
8.50453	68588
8.51267	77131
8.52078	106885
8.52892	164910
8.53703	247389
8.54515	294879
8.55328	278702
8.56140	204066
8.56952	143874
8.57765	96195
8.58577	82943
8.59390	76275
8.60202	85538
8.61013	84272
8.61827	104843
8.62638	135296
8.63452	166991
8.64263	173334
8.65075	176657
8.65888	156706
8.66700	125082
8.67512	106776
8.68325	92236
8.69137	81974
8.69950	74860
8.70762	70582
8.71573	67604
8.72387	67551
8.73198	66703
8.74012	68903
8.74823	71462
8.75635	69846
8.76448	72898
8.77260	98125
8.78073	151316
8.78885	275308
8.79697	480020
8.80510	701807
8.81322	803408
8.82133	754569
8.82947	583203
8.83758	440103
8.84572	338176
8.85383	287298
8.86195	244933
8.87008	224718
8.87820	216544
8.88633	196436
8.89445	184041
8.90257	175184
8.91070	168724
8.91882	186525
8.92695	238228
8.93507	323385
8.94318	429093
8.95132	427938
8.95943	385683
8.96755	297709
8.97568	234753
8.98380	205243
8.99193	205692
9.00005	217686
9.00817	220437
9.01630	212604
9.02442	181845
9.03255	157806
9.04067	134814
9.04878	130064
9.05692	116903
9.06503	123921
9.07315	128364
9.08128	124539
9.08940	121663
9.09753	116927
9.10565	142595
9.11377	173537
9.12190	224599
9.13002	258387
9.13815	278740
9.14627	241138
9.15438	203373
9.16252	173782
9.17063	148690
9.17877	138967
9.18688	132056
9.19500	124961
9.20313	115904
9.21125	122825
9.21937	118178
9.22750	116213
9.23562	122035
9.24375	127240
9.25187	124017
9.25998	116425
9.26812	114646
9.27623	109502
9.28437	105623
9.29248	104914
9.30060	98485
9.30873	103271
9.31685	100720
9.32497	102171
9.33310	96826
9.34122	95732
9.34935	95511
9.35747	94732
9.36558	91991
9.37372	87566
9.38183	88968
9.38997	92568
9.39808	96737
9.40620	107002
9.41433	131249
9.42245	157162
9.43058	188169
9.43870	226399
9.44682	278125
9.45495	323242
9.46307	329774
9.47118	303603
9.47932	251786
9.48743	196696
9.49557	154458
9.50368	132368
9.51180	124674
9.51993	132920
9.52805	147419
9.53618	159953
9.54430	156301
9.55242	153237
9.56055	141809
9.56867	124856
9.57680	114676
9.58492	100144
9.59303	94036
9.60117	84892
9.60928	80097
9.61740	83746
9.62553	80368
9.63365	75925
9.64178	71693
9.64990	70137
9.65802	69056
9.66615	70468
9.67427	69430
9.68240	74756
9.69052	67337
9.69863	68299
9.70677	70439
9.71488	67489
9.72300	79082
9.73113	79803
9.73925	81146
9.74738	75488
9.75550	71629
9.76362	64488
9.77175	64953
9.77987	61908
9.78800	60134
9.79612	64606
9.80423	63820
9.81237	66739
9.82048	63393
9.82862	63142
9.83673	62710
9.84485	59663
9.85298	60934
9.86110	61527
9.86922	66294
9.87735	61507
9.88547	61071
9.89360	64166
9.90172	55468
9.90983	60132
9.91797	61922
9.92608	62978
9.93422	68141
9.94233	84466
9.95045	114225
9.95858	159598
9.96670	229962
9.97483	302157
9.98295	356566
9.99107	326551
9.99920	267257
10.00732	204337
10.01543	151726
10.02357	114187
10.03168	102963
10.03982	94633
10.04793	100781
10.05605	109575
10.06418	104310
10.07230	112115
10.08043	106439
10.08855	108235
10.09667	101950
10.10480	108104
10.11292	97445
10.12103	91429
10.12917	91660
10.13728	84604
10.14542	79756
10.15353	84977
10.16165	83324
10.16978	82165
10.17790	79200
10.18603	82488
10.19415	82949
10.20227	79375
10.21040	77007
10.21852	72653
10.22665	79507
10.23477	72461
10.24288	86878
10.25102	97490
10.25913	150469
10.26725	345567
10.27538	921978
10.28350	2220928
10.29163	4424967
10.29975	7282052
10.30787	1.035492E+07
10.31600	1.376599E+07
10.32412	1.770028E+07
10.33225	2.368732E+07
10.34037	3.09529E+07
10.34848	3.95644E+07
10.35662	4.628243E+07
10.36473	4.834315E+07
10.37285	4.099034E+07
10.38098	2.373618E+07
10.38910	1.02814E+07
10.39723	4890028
10.40535	3201761
10.41347	2329293
10.42160	1717401
10.42972	1315922
10.43785	1110966
10.44597	976713
10.45408	919043
10.46222	904252
10.47033	845602
10.47847	784318
10.48658	714704
10.49470	639235
10.50283	571687
10.51095	511087
10.51907	460167
10.52720	457509
10.53532	423720
10.54345	416115
10.55157	399061
10.55968	397734
10.56782	381727
10.57593	376459
10.58407	379037
10.59218	365054
10.60030	348096
10.60843	332537
10.61655	315993
10.62468	295442
10.63280	269343
10.64092	267219
10.64905	258182
10.65717	241692
10.66528	232985
10.67342	238546
10.68153	236632
10.68967	223031
10.69778	228642
10.70590	226870
10.71403	231794
10.72215	231009
10.73028	232064
10.73840	225381
10.74652	218576
10.75465	215099
10.76277	210475
10.77090	205932
10.77902	196190
10.78713	199115
10.79527	184998
10.80338	176182
10.81150	174468
10.81963	182129
10.82775	184225
10.83588	189995
10.84400	184334
10.85212	172134
10.86025	163996
10.86837	149162
10.87650	151022
10.88462	147601
10.89273	145118
10.90087	143693
10.90898	139166
10.91710	136936
10.92523	146938
10.93335	136585
10.94148	135746
10.94960	131305
10.95772	129017
10.96585	127581
10.97397	129490
10.98210	126813
10.99022	128124
10.99833	133716
11.00647	129001
11.01458	137872
11.02272	132572
11.03083	138660
11.03895	140448
11.04708	128274
11.05520	130379
11.06332	126037
11.07145	127793
11.07957	140351
11.08770	138696
11.09582	147506
11.10393	152437
11.11207	145666
11.12018	142713
11.12832	138814
11.13643	122942
11.14455	112393
11.15268	94733
11.16080	98980
11.16892	100689
11.17705	96286
11.18517	100537
11.19330	91528
11.20142	90510
11.20953	88944
11.21767	82608
11.22578	85973
11.23392	79836
11.24203	77866
11.25015	73093
11.25828	77104
11.26640	71347
11.27453	68865
11.28265	69131
11.29077	65963
11.29890	71310
11.30702	79801
11.31513	122121
11.32327	205146
11.33138	421885
11.33952	805973
11.34763	1308775
11.35575	1831062
11.36388	2034254
11.37200	1942884
11.38013	1610495
11.38825	1191057
11.39637	868185
11.40450	684446
11.41262	541026
11.42075	454602
11.42887	392875
11.43698	327512
11.44512	268885
11.45323	237042
11.46135	214426
11.46948	187946
11.47760	169288
11.48573	178021
11.49385	199484
11.50197	254237
11.51010	318025
11.51822	395104
11.52635	445039
11.53447	454294
11.54258	416219
11.55072	368599
11.55883	321422
11.56695	281268
11.57508	245579
11.58320	228899
11.59133	234227
11.59945	276639
11.60757	377664
11.61570	541414
11.62382	715221
11.63195	769907
11.64007	723536
11.64818	591928
11.65632	424964
11.66443	293012
11.67257	213125
11.68068	162402
11.68880	146610
11.69693	139656
11.70505	135347
11.71317	129400
11.72130	129151
11.72942	136299
11.73755	135687
11.74567	124677
11.75378	118879
11.76192	107571
11.77003	99423
11.77817	93368
11.78628	94994
11.79440	86121
11.80253	81012
11.81065	82473
11.81878	82262
11.82690	85832
11.83502	75019
11.84315	77048
11.85127	76396
11.85938	76541
11.86752	72672
11.87563	74099
11.88377	76037
11.89188	71855
11.90000	71253
11.90813	68605
11.91625	70345
11.92438	75236
11.93250	84719
11.94062	88021
11.94875	88857
11.95687	82039
11.96498	74436
11.97312	69890
11.98123	69731
11.98937	61162
11.99748	63019
12.00560	62079
12.01373	61136
12.02185	61391
12.02998	58985
12.03810	62515
12.04622	59704
12.05435	58549
12.06247	70909
12.07060	65047
12.07872	70853
12.08683	71525
12.09497	74715
12.10308	81799
12.11120	100325
12.11933	129415
12.12745	190231
12.13558	303471
12.14370	411269
12.15182	512738
12.15995	510228
12.16807	471367
12.17620	354831
12.18432	270988
12.19243	212081
12.20057	180645
12.20868	163599
12.21680	152371
12.22493	140672
12.23305	140806
12.24118	125738
12.24930	121280
12.25742	111828
12.26555	115151
12.27367	108496
12.28180	112160
12.28992	107904
12.29803	105004
12.30617	100143
12.31428	95748
12.32242	92889
12.33053	89044
12.33865	87253
12.34678	89005
12.35490	85979
12.36302	89024
12.37115	86071
12.37927	86241
12.38740	86994
12.39552	94038
12.40363	106090
12.41177	137490
12.41988	219138
12.42802	277845
12.43613	352426
12.44425	369610
12.45238	317576
12.46050	252680
12.46863	186786
12.47675	151039
12.48487	132929
12.49300	117544
12.50112	101690
12.50923	100442
12.51737	93839
12.52548	95098
12.53362	113535
12.54173	135892
12.54985	179888
12.55798	241527
12.56610	303846
12.57423	335122
12.58235	333431
12.59047	258428
12.59860	195327
12.60672	160337
12.61483	126645
12.62297	114480
12.63108	105395
12.63922	102324
12.64733	94609
12.65545	91788
12.66358	96053
12.67170	92663
12.67983	88247
12.68795	96099
12.69607	91016
12.70420	87122
12.71232	82034
12.72045	81881
12.72857	79520
12.73668	87509
12.74482	89752
12.75293	88398
12.76105	89464
12.76918	95488
12.77730	84468
12.78543	73156
12.79355	69000
12.80167	72600
12.80980	71436
12.81792	71720
12.82605	65675
12.83417	63227
12.84228	61810
12.85042	57598
12.85853	59540
12.86667	52834
12.87478	57197
12.88290	54834
12.89103	53478
12.89915	56897
12.90727	55877
12.91540	53927
12.92352	57432
12.93165	56771
12.93977	55727
12.94788	50463
12.95602	49055
12.96413	57665
12.97227	61688
12.98038	68485
12.98850	80426
12.99663	82252
13.00475	75681
13.01287	72319
13.02100	65845
13.02912	62162
13.03725	57241
13.04537	55211
13.05348	58776
13.06162	54614
13.06973	55872
13.07787	57415
13.08598	61201
13.09410	61037
13.10223	68881
13.11035	72800
13.11848	68657
13.12660	58919
13.13472	57140
13.14285	61825
13.15097	51655
13.15908	57651
13.16722	59049
13.17533	58191
13.18347	66400
13.19158	66064
13.19970	63496
13.20783	67961
13.21595	66989
13.22408	65895
13.23220	69888
13.24032	74950
13.24845	71410
13.25657	77957
13.26468	79811
13.27282	89904
13.28093	83535
13.28907	79896
13.29718	72364
13.30530	67267
13.31343	60714
13.32155	57687
13.32968	53171
13.33780	50929
13.34592	52141
13.35405	57701
13.36217	54844
13.37030	55387
13.37842	51572
13.38653	50078
13.39467	51427
13.40278	47422
13.41090	50478
13.41903	52202
13.42715	50111
13.43528	50388
13.44340	50471
13.45152	51370
13.45965	52914
13.46777	53883
13.47590	54899
13.48402	54973
13.49213	54924
13.50027	57864
13.50838	60219
13.51652	55282
13.52463	66200
13.53275	69570
13.54088	78413
13.54900	73511
13.55712	69194
13.56525	63711
13.57337	63322
13.58150	58086
13.58962	65037
13.59773	68983
13.60587	81852
13.61398	99536
13.62212	131455
13.63023	146377
13.63835	147132
13.64648	141081
13.65460	113102
13.66272	91789
13.67085	71759
13.67897	67519
13.68710	55577
13.69522	50838
13.70333	53592
13.71147	50684
13.71958	51070
13.72772	44030
13.73583	47389
13.74395	51492
13.75208	57972
13.76020	71756
13.76833	109248
13.77645	149749
13.78457	224363
13.79270	296216
13.80082	402582
13.80893	516356
13.81707	603638
13.82518	659382
13.83332	723641
13.84143	837469
13.84955	947489
13.85768	987985
13.86580	946818
13.87393	791450
13.88205	603097
13.89017	447054
13.89830	317321
13.90642	238155
13.91455	183494
13.92267	153198
13.93078	129331
13.93892	111918
13.94703	105221
13.95515	90730
13.96328	90711
13.97140	85559
13.97953	79387
13.98765	78210
13.99577	78249
14.00390	79301
14.01202	84209
14.02015	91332
14.02827	88429
14.03638	88715
14.04452	79327
14.05263	75588
14.06075	72732
14.06888	64222
14.07700	71967
14.08513	69005
14.09325	63246
14.10137	71176
14.10950	68074
14.11762	59802
14.12575	59043
14.13387	60975
14.14198	60596
14.15012	60778
14.15823	67253
14.16637	68945
14.17448	66125
14.18260	73542
14.19073	73707
14.19885	83952
14.20697	93206
14.21510	112799
14.22322	138919
14.23135	168221
14.23947	191274
14.24758	209143
14.25572	215522
14.26383	226904
14.27197	227072
14.28008	219024
14.28820	199785
14.29633	171974
14.30445	150355
14.31258	135680
14.32070	116674
14.32882	105170
14.33695	105044
14.34507	105636
14.35318	105062
14.36132	101906
14.36943	95753
14.37757	92692
14.38568	95515
14.39380	90358
14.40193	86235
14.41005	105449
14.41818	148921
14.42630	201252
14.43442	252859
14.44255	282197
14.45067	263797
14.45878	217092
14.46692	172528
14.47503	134537
14.48317	117743
14.49128	116046
14.49940	110371
14.50753	113341
14.51565	99998
14.52378	97770
14.53190	88092
14.54002	81660
14.54815	79855
14.55627	83497
14.56440	74816
14.57252	69770
14.58063	67221
14.58877	64797
14.59688	61008
14.60500	57951
14.61313	57077
14.62125	55792
14.62938	55448
14.63750	54082
14.64562	57800
14.65375	54579
14.66187	51286
14.67000	50766
14.67812	48153
14.68623	48943
14.69437	47611
14.70248	48102
14.71060	47477
14.71873	49463
14.72685	53968
14.73498	51280
14.74310	55240
14.75122	59663
14.75935	57736
14.76747	58503
14.77560	63563
14.78372	68199
14.79183	88562
14.79997	190673
14.80808	562640
14.81622	1613361
14.82433	4009841
14.83245	7926186
14.84058	1.322692E+07
14.84870	1.838608E+07
14.85682	2.216451E+07
14.86495	2.144159E+07
14.87307	1.70127E+07
14.88120	1.079559E+07
14.88932	6041161
14.89743	3394185
14.90557	2178208
14.91368	1641299
14.92182	1336453
14.92993	1152918
14.93805	1043951
14.94618	975398
14.95430	841008
14.96243	777267
14.97055	733599
14.97867	681563
14.98680	636502
14.99492	607890
15.00303	563426
15.01117	544425
15.01928	522895
15.02742	475296
15.03553	454850
15.04365	427338
15.05178	410099
15.05990	391012
15.06803	367615
15.07615	339633
15.08427	332185
15.09240	324917
15.10052	315133
15.10863	298305
15.11677	295793
15.12488	301108
15.13302	300876
15.14113	346325
15.14925	410489
15.15738	468609
15.16550	473204
15.17363	431393
15.18175	329027
15.18987	244637
15.19800	179437
15.20612	144259
15.21425	123528
15.22237	120816
15.23048	110136
15.23862	106977
15.24673	104241
15.25485	96743
15.26298	93607
15.27110	86245
15.27923	87834
15.28735	86947
15.29547	88766
15.30360	80186
15.31172	85654
15.31985	79691
15.32797	76549
15.33608	78052
15.34422	73711
15.35233	74429
15.36047	75380
15.36858	77620
15.37670	77611
15.38483	88091
15.39295	85799
15.40107	95543
15.40920	86682
15.41732	85800
15.42545	79573
15.43357	76243
15.44168	79759
15.44982	68158
15.45793	70327
15.46607	68938
15.47418	73760
15.48230	96528
15.49043	136989
15.49855	197153
15.50667	254297
15.51480	330477
15.52292	386792
15.53105	381036
15.53917	351053
15.54728	294709
15.55542	230762
15.56353	174149
15.57167	139994
15.57978	107316
15.58790	104533
15.59603	97563
15.60415	87828
15.61228	83802
15.62040	75882
15.62852	77501
15.63665	78619
15.64477	72601
15.65288	70922
15.66102	74599
15.66913	72173
15.67727	73579
15.68538	72255
15.69350	71833
15.70163	61321
15.70975	58734
15.71788	56862
15.72600	60754
15.73412	56355
15.74225	59878
15.75037	68862
15.75848	91537
15.76662	165747
15.77473	345924
15.78287	717064
15.79098	1261461
15.79910	1798939
15.80723	2059141
15.81535	1914036
15.82348	1485579
15.83160	978848
15.83972	610930
15.84785	387042
15.85597	279546
15.86410	223129
15.87222	203570
15.88033	179982
15.88847	167592
15.89658	152528
15.90470	151055
15.91283	143275
15.92095	137373
15.92908	125519
15.93720	122205
15.94532	116658
15.95345	110152
15.96157	111597
15.96970	105501
15.97782	97674
15.98593	101415
15.99407	96280
16.00218	94422
16.01032	97722
16.01843	112537
16.02655	114463
16.03468	124886
16.04280	121924
16.05092	128055
16.05905	116249
16.06717	115197
16.07530	103161
16.08342	84919
16.09153	74538
16.09967	80629
16.10778	74223
16.11592	72424
16.12403	74521
16.13215	79066
16.14028	84333
16.14840	99428
16.15653	117941
16.16465	126157
16.17277	126242
16.18090	117695
16.18902	111202
16.19713	97779
16.20527	92007
16.21338	90282
16.22152	84558
16.22963	99136
16.23775	92882
16.24588	93194
16.25400	86408
16.26213	74943
16.27025	70149
16.27837	69351
16.28650	72163
16.29462	72708
16.30273	87306
16.31087	96413
16.31898	102020
16.32712	101777
16.33523	104527
16.34335	96354
16.35148	93989
16.35960	89259
16.36773	87174
16.37585	78079
16.38397	78092
16.39210	82441
16.40022	78097
16.40835	71276
16.41647	64594
16.42458	68010
16.43272	77102
16.44083	83069
16.44895	106519
16.45708	217005
16.46520	531830
16.47333	1276244
16.48145	2649343
16.48957	4347657
16.49770	5683103
16.50582	5914989
16.51395	5180840
16.52207	3677816
16.53018	2259275
16.53832	1235795
16.54643	756036
16.55455	531492
16.56268	425473
16.57080	367239
16.57893	320274
16.58705	291109
16.59517	274830
16.60330	272133
16.61142	243750
16.61955	220839
16.62767	209601
16.63578	191103
16.64392	178722
16.65203	161546
16.66017	160260
16.66828	155250
16.67640	158962
16.68453	148711
16.69265	145262
16.70077	135172
16.70890	130725
16.71702	122577
16.72515	115597
16.73327	103845
16.74138	98757
16.74952	99182
16.75763	106919
16.76577	125512
16.77388	161792
16.78200	180754
16.79013	192446
16.79825	163285
16.80638	130180
16.81450	106490
16.82262	86117
16.83075	77756
16.83887	81524
16.84698	66818
16.85512	65579
16.86323	70137
16.87137	64899
16.87948	60390
16.88760	60812
16.89573	60693
16.90385	57732
16.91198	56473
16.92010	60008
16.92822	60450
16.93635	57129
16.94447	57380
16.95258	60460
16.96072	57815
16.96883	56536
16.97697	61191
16.98508	59044
16.99320	63917
17.00133	65541
17.00945	64917
17.01758	69556
17.02570	63636
17.03382	69134
17.04195	79197
17.05007	95025
17.05820	126137
17.06632	154064
17.07443	169279
17.08257	167036
17.09068	142850
17.09880	126086
17.10693	96989
17.11505	88603
17.12318	79475
17.13130	79023
17.13942	86054
17.14755	85834
17.15567	88612
17.16380	81229
17.17192	87283
17.18003	83255
17.18817	79355
17.19628	74540
17.20442	77095
17.21253	67316
17.22065	61244
17.22878	56504
17.23690	56966
17.24502	57327
17.25315	60261
17.26127	60240
17.26940	67444
17.27752	62689
17.28563	67087
17.29377	62710
17.30188	61348
17.31002	55688
17.31813	66189
17.32625	78272
17.33438	106692
17.34250	140815
17.35062	190547
17.35875	225488
17.36687	252541
17.37500	232464
17.38312	213584
17.39123	178087
17.39937	164629
17.40748	141859
17.41562	139743
17.42373	138255
17.43185	139836
17.43998	134337
17.44810	137720
17.45623	123018
17.46435	127535
17.47247	117716
17.48060	110360
17.48872	103450
17.49683	89950
17.50497	90482
17.51308	93119
17.52122	87023
17.52933	87459
17.53745	85662
17.54558	84504
17.55370	83283
17.56183	101272
17.56995	146231
17.57807	276167
17.58620	628110
17.59432	1370622
17.60243	2586408
17.61057	4036537
17.61868	5206214
17.62682	5712887
17.63493	5247961
17.64305	4149586
17.65118	2860088
17.65930	1777077
17.66743	1075630
17.67555	660205
17.68367	456650
17.69180	341630
17.69992	282694
17.70805	247974
17.71617	237051
17.72428	205770
17.73242	189427
17.74053	167814
17.74865	164176
17.75678	150891
17.76490	127089
17.77303	119045
17.78115	113123
17.78927	109327
17.79740	98962
17.80552	84176
17.81365	90686
17.82177	88389
17.82988	89253
17.83802	92258
17.84613	104644
17.85427	122832
17.86238	139553
17.87050	179185
17.87863	205171
17.88675	217385
17.89487	225875
17.90300	182883
17.91112	141692
17.91925	111489
17.92737	95384
17.93548	86854
17.94362	74809
17.95173	73979
17.95987	70533
17.96798	71599
17.97610	65397
17.98423	64182
17.99235	62370
18.00047	62436
18.00860	65940
18.01672	76103
18.02485	95802
18.03297	140695
18.04108	209698
18.04922	305573
18.05733	400340
18.06547	579888
18.07358	1006571
18.08170	2144876
18.08983	4147128
18.09795	7050247
18.10608	9921468
18.11420	1.106415E+07
18.12232	1.05961E+07
18.13045	8613451
18.13857	6363126
18.14668	4424231
18.15482	3298996
18.16293	2594047
18.17107	2156417
18.17918	1821270
18.18730	1665585
18.19543	1425764
18.20355	1262911
18.21168	1140813
18.21980	1033562
18.22792	962629
18.23605	883966
18.24417	786916
18.25230	754631
18.26042	679852
18.26853	671374
18.27667	597877
18.28478	528277
18.29290	442768
18.30103	351774
18.30915	267275
18.31728	213158
18.32540	170855
18.33352	148574
18.34165	138855
18.34977	133785
18.35790	126322
18.36602	118287
18.37413	118882
18.38227	107160
18.39038	109812
18.39850	114161
18.40663	108170
18.41475	112024
18.42288	112471
18.43100	129458
18.43912	144324
18.44725	174055
18.45537	243507
18.46350	355413
18.47162	592661
18.47973	1031701
18.48787	1540553
18.49598	1908202
18.50412	2058594
18.51223	1876863
18.52035	1473797
18.52848	1011132
18.53660	643957
18.54472	407666
18.55285	267447
18.56097	196713
18.56910	166421
18.57722	134561
18.58533	121481
18.59347	108335
18.60158	105888
18.60972	113022
18.61783	107706
18.62595	113093
18.63408	116523
18.64220	122107
18.65032	110443
18.65845	108763
18.66657	99399
18.67470	95914
18.68282	87006
18.69093	80356
18.69907	72789
18.70718	73106
18.71532	67660
18.72343	71278
18.73155	64671
18.73968	63780
18.74780	62874
18.75593	64587
18.76405	65664
18.77217	61910
18.78030	60892
18.78842	59854
18.79653	66950
18.80467	61807
18.81278	65415
18.82092	65551
18.82903	67774
18.83715	58220
18.84528	66779
18.85340	65757
18.86153	64782
18.86965	63296
18.87777	66595
18.88590	70143
18.89402	76228
18.90215	70409
18.91027	72803
18.91838	76412
18.92652	78546
18.93463	87789
18.94275	96095
18.95088	107414
18.95900	111169
18.96713	132081
18.97525	137180
18.98337	119914
18.99150	115777
18.99962	111706
19.00775	97284
19.01587	89056
19.02398	75856
19.03212	74160
19.04023	71404
19.04835	66151
19.05648	62255
19.06460	65345
19.07273	68385
19.08085	72568
19.08897	98166
19.09710	144509
19.10522	219542
19.11335	328017
19.12147	410522
19.12958	432739
19.13772	394541
19.14583	308916
19.15397	217527
19.16208	157057
19.17020	112798
19.17833	91226
19.18645	88832
19.19457	75904
19.20270	75820
19.21082	96900
19.21895	135049
19.22707	166139
19.23518	191117
19.24332	206087
19.25143	204704
19.25957	216313
19.26768	212459
19.27580	215567
19.28393	221483
19.29205	223441
19.30018	241773
19.30830	246720
19.31642	250127
19.32455	257102
19.33267	242425
19.34078	246608
19.34892	243839
19.35703	258309
19.36517	291685
19.37328	374042
19.38140	491759
19.38953	573940
19.39765	599451
19.40578	582004
19.41390	489101
19.42202	408850
19.43015	335111
19.43827	297041
19.44638	279260
19.45452	268769
19.46263	261891
19.47077	251547
19.47888	249979
19.48700	253120
19.49513	249872
19.50325	253316
19.51138	271168
19.51950	283189
19.52762	301624
19.53575	331128
19.54387	337488
19.55200	337760
19.56012	329879
19.56823	296218
19.57637	284250
19.58448	274558
19.59260	235046
19.60073	228144
19.60885	215591
19.61698	210508
19.62510	201950
19.63322	202010
19.64135	203009
19.64947	209410
19.65760	231791
19.66572	263677
19.67383	332030
19.68197	414851
19.69008	495889
19.69822	552329
19.70633	582999
19.71445	583029
19.72258	544984
19.73070	507096
19.73882	456543
19.74695	400262
19.75507	350344
19.76320	322069
19.77132	290345
19.77943	259730
19.78757	275212
19.79568	289750
19.80382	314022
19.81193	363409
19.82005	378613
19.82818	375711
19.83630	359585
19.84442	324865
19.85255	278343
19.86067	247030
19.86880	252317
19.87692	274185
19.88503	370118
19.89317	503891
19.90128	768294
19.90942	1003580
19.91753	1188081
19.92565	1193372
19.93378	1012858
19.94190	825568
19.95003	638523
19.95815	494304
19.96627	407574
19.97440	384218
19.98252	350958
19.99063	330465
19.99877	316354
20.00688	296878
20.01502	295305
20.02313	293105
20.03125	277897
20.03938	273758
20.04750	260823
20.05563	258826
20.06375	251370
20.07187	251833
20.08000	263332
20.08812	286375
20.09623	298450
20.10437	316313
20.11248	319376
20.12062	306919
20.12873	282851
20.13685	248023
20.14498	227585
20.15310	224566
20.16123	248451
20.16935	293900
20.17747	393277
20.18560	534667
20.19372	701484
20.20185	882103
20.20997	972826
20.21808	964309
20.22622	910707
20.23433	754225
20.24245	615257
20.25058	523751
20.25870	505769
20.26683	569970
20.27495	673682
20.28307	834188
20.29120	972883
20.29932	1037132
20.30745	1052456
20.31557	947345
20.32368	789887
20.33182	623107
20.33993	489851
20.34807	388674
20.35618	314093
20.36430	259758
20.37243	228306
20.38055	207953
20.38867	197519
20.39680	191525
20.40492	185761
20.41305	174779
20.42117	171574
20.42928	176859
20.43742	177987
20.44553	185857
20.45367	188897
20.46178	208928
20.46990	215851
20.47803	214861
20.48615	213743
20.49427	188424
20.50240	179798
20.51052	177199
20.51865	163848
20.52677	158481
20.53488	164108
20.54302	169314
20.55113	175809
20.55927	175323
20.56738	180780
20.57550	177317
20.58363	171893
20.59175	162559
20.59988	153103
20.60800	156405
20.61612	147484
20.62425	149053
20.63237	148268
20.64048	142590
20.64862	140773
20.65673	150891
20.66487	149182
20.67298	155148
20.68110	164413
20.68923	163048
20.69735	158241
20.70548	152660
20.71360	141952
20.72172	141769
20.72985	136791
20.73797	137107
20.74610	140484
20.75422	139086
20.76233	143598
20.77047	154515
20.77858	178658
20.78670	188525
20.79483	234165
20.80295	338442
20.81108	561169
20.81920	906567
20.82732	1325934
20.83545	1584281
20.84357	1606559
20.85170	1391922
20.85982	1009314
20.86793	676566
20.87607	425219
20.88418	289985
20.89230	230099
20.90043	193326
20.90855	187047
20.91668	182998
20.92480	182380
20.93292	185253
20.94105	191799
20.94917	199089
20.95730	207264
20.96542	200367
20.97353	192589
20.98167	191465
20.98978	168693
20.99792	156453
21.00603	140357
21.01415	134037
21.02228	137010
21.03040	132477
21.03852	142110
21.04665	138587
21.05477	143335
21.06290	146302
21.07102	137284
21.07913	133736
21.08727	129766
21.09538	136055
21.10352	130409
21.11163	137105
21.11975	130217
21.12788	125963
21.13600	127240
21.14412	154087
21.15225	195465
21.16037	260422
21.16850	349736
21.17662	428965
21.18473	480617
21.19287	457484
21.20098	379385
21.20912	308797
21.21723	252330
21.22535	215955
21.23348	194339
21.24160	182206
21.24973	165629
21.25785	150721
21.26597	139213
21.27410	130248
21.28222	127563
21.29033	119692
21.29847	116358
21.30658	114545
21.31472	113947
21.32283	115658
21.33095	112667
21.33908	112715
21.34720	109185
21.35533	104771
21.36345	106578
21.37157	121286
21.37970	118352
21.38782	129418
21.39595	152503
21.40407	191033
21.41218	243442
21.42032	311074
21.42843	357680
21.43655	386252
21.44468	357385
21.45280	306649
21.46093	244760
21.46905	207099
21.47717	182369
21.48530	168748
21.49342	163800
21.50155	151759
21.50967	134765
21.51778	129264
21.52592	119788
21.53403	119984
21.54217	111293
21.55028	114719
21.55840	109503
21.56653	112572
21.57465	113155
21.58277	120511
21.59090	149072
21.59902	175607
21.60715	197354
21.61527	215180
21.62338	206364
21.63152	189394
21.63963	168512
21.64777	176570
21.65588	176668
21.66400	190957
21.67213	220630
21.68025	250548
21.68837	273775
21.69650	289940
21.70462	291117
21.71275	281682
21.72087	240332
21.72898	199152
21.73712	160370
21.74523	147947
21.75337	126665
21.76148	116854
21.76960	121446
21.77773	113943
21.78585	113709
21.79398	107795
21.80210	111412
21.81022	110678
21.81835	108118
21.82647	108544
21.83458	112430
21.84272	123021
21.85083	128335
21.85897	145015
21.86708	160610
21.87520	164224
21.88333	163220
21.89145	158278
21.89958	142918
21.90770	135852
21.91582	132322
21.92395	135731
21.93207	127971
21.94018	123803
21.94832	118534
21.95643	110902
21.96457	104755
21.97268	101136
21.98080	86240
21.98893	86792
21.99705	86644
22.00518	77876
22.01330	82887
22.02142	86954
22.02955	90871
22.03767	98790
22.04580	105371
22.05392	110281
22.06203	116375
22.07017	121792
22.07828	117270
22.08640	110155
22.09453	105209
22.10265	95389
22.11078	93873
22.11890	87673
22.12702	90321
22.13515	86511
22.14327	81321
22.15140	83219
22.15952	81462
22.16763	80479
22.17577	79265
22.18388	83314
22.19202	80176
22.20013	79925
22.20825	84324
22.21638	73301
22.22450	76563
22.23262	90010
22.24075	83285
22.24887	90074
22.25700	92659
22.26512	96663
22.27323	99731
22.28137	100527
22.28948	111453
22.29762	115925
22.30573	119900
22.31385	122932
22.32198	126423
22.33010	124675
22.33822	113837
22.34635	111686
22.35447	113492
22.36260	102018
22.37072	98993
22.37883	97444
22.38697	98665
22.39508	114044
22.40322	143754
22.41133	211664
22.41945	292644
22.42758	423351
22.43570	508326
22.44383	541420
22.45195	484232
22.46007	402587
22.46820	309829
22.47632	232306
22.48443	188527
22.49257	177278
22.50068	191824
22.50882	207770
22.51693	240087
22.52505	262894
22.53318	261549
22.54130	240899
22.54943	209214
22.55755	187588
22.56567	165086
22.57380	144010
22.58192	137691
22.59005	120477
22.59817	110341
22.60628	102067
22.61442	94203
22.62253	89095
22.63065	84900
22.63878	84067
22.64690	90436
22.65503	95196
22.66315	95117
22.67127	108387
22.67940	111513
22.68752	116738
22.69565	128659
22.70377	157369
22.71188	211529
22.72002	272122
22.72813	349805
22.73625	395378
22.74438	394536
22.75250	359302
22.76063	306163
22.76875	244937
22.77687	215686
22.78500	201493
22.79312	249280
22.80125	332595
22.80937	472698
22.81748	632615
22.82562	732449
22.83373	791741
22.84187	717533
22.84998	607321
22.85810	474893
22.86623	377670
22.87435	296949
22.88247	269468
22.89060	253514
22.89872	262347
22.90685	270505
22.91497	289782
22.92308	320988
22.93122	361947
22.93933	417592
22.94747	463076
22.95558	453639
22.96370	417078
22.97183	323518
22.97995	243120
22.98807	202736
22.99620	147365
23.00432	129911
23.01245	111624
23.02057	106906
23.02868	98957
23.03682	89284
23.04493	84885
23.05307	91483
23.06118	89892
23.06930	91847
23.07743	92820
23.08555	95666
23.09368	96672
23.10180	102702
23.10992	100964
23.11805	92659
23.12617	90399
23.13428	85434
23.14242	79367
23.15053	82536
23.15867	80661
23.16678	80295
23.17490	76532
23.18303	78751
23.19115	72531
23.19928	73724
23.20740	69509
23.21552	72773
23.22365	70484
23.23177	69578
23.23990	68674
23.24802	73930
23.25613	84292
23.26427	112127
23.27238	132106
23.28050	165969
23.28863	177079
23.29675	169887
23.30488	153208
23.31300	135900
23.32112	114430
23.32925	104891
23.33737	104253
23.34550	114284
23.35362	144584
23.36173	203094
23.36987	247071
23.37798	291679
23.38610	332752
23.39423	336349
23.40235	318530
23.41048	280381
23.41860	227517
23.42672	195500
23.43485	180908
23.44297	161114
23.45110	155223
23.45922	141983
23.46733	139020
23.47547	134138
23.48358	127341
23.49172	125963
23.49983	116269
23.50795	119863
23.51608	101671
23.52420	103814
23.53232	105143
23.54045	100247
23.54857	93890
23.55670	103334
23.56482	106724
23.57293	112665
23.58107	127880
23.58918	148169
23.59732	182912
23.60543	232047
23.61355	270552
23.62168	287869
23.62980	293495
23.63793	244776
23.64605	201003
23.65417	164541
23.66230	136309
23.67042	127116
23.67853	126946
23.68667	123467
23.69478	122461
23.70292	115546
23.71103	104926
23.71915	91501
23.72728	90520
23.73540	85121
23.74353	77056
23.75165	76140
23.75977	76947
23.76790	94400
23.77602	115448
23.78413	204956
23.79227	373996
23.80038	608889
23.80852	878776
23.81663	1028668
23.82475	1118721
23.83288	983320
23.84100	780280
23.84913	602274
23.85725	495772
23.86537	383682
23.87350	323767
23.88162	274148
23.88975	241618
23.89787	232103
23.90598	233290
23.91412	263169
23.92223	308831
23.93035	368972
23.93848	392517
23.94660	383897
23.95473	341366
23.96285	280605
23.97097	220143
23.97910	178812
23.98722	160112
23.99535	145293
24.00347	132323
24.01158	125475
24.01972	122954
24.02783	129454
24.03595	135899
24.04408	147497
24.05220	146981
24.06033	160415
24.06845	148803
24.07657	129727
24.08470	117637
24.09282	111670
24.10095	94031
24.10907	99253
24.11718	94149
24.12532	94629
24.13343	93528
24.14157	94035
24.14968	103345
24.15780	119259
24.16593	141208
24.17405	150817
24.18217	161932
24.19030	164224
24.19842	167571
24.20655	167439
24.21467	159657
24.22278	152525
24.23092	146760
24.23903	135656
24.24717	126385
24.25528	119292
24.26340	116553
24.27153	105963
24.27965	97856
24.28778	94224
24.29590	100149
24.30402	96663
24.31215	99100
24.32027	102334
24.32838	108013
24.33652	113678
24.34463	110933
24.35277	114307
24.36088	107095
24.36900	97108
24.37713	89923
24.38525	84817
24.39338	92114
24.40150	91973
24.40962	92467
24.41775	109243
24.42587	117783
24.43398	123675
24.44212	129682
24.45023	118455
24.45837	109719
24.46648	101217
24.47460	95675
24.48273	96388
24.49085	92181
24.49898	86650
24.50710	88009
24.51522	94721
24.52335	91864
24.53147	101873
24.53960	112374
24.54772	130235
24.55583	148178
24.56397	174044
24.57208	183968
24.58020	206280
24.58833	198902
24.59645	200143
24.60458	173779
24.61270	165072
24.62082	149687
24.62895	139211
24.63707	130974
24.64520	114272
24.65332	110021
24.66143	103109
24.66957	99998
24.67768	100339
24.68582	89911
24.69393	92395
24.70205	92273
24.71018	90270
24.71830	83058
24.72642	88259
24.73455	81794
24.74267	91986
24.75080	96084
24.75892	90551
24.76703	95394
24.77517	104757
24.78328	115015
24.79142	133872
24.79953	149134
24.80765	151647
24.81578	160199
24.82390	159473
24.83202	159355
24.84015	169205
24.84827	213596
24.85640	302576
24.86452	454801
24.87263	668568
24.88077	989586
24.88888	1492185
24.89702	2048534
24.90513	2641178
24.91325	2926050
24.92138	2877064
24.92950	2426040
24.93763	1775315
24.94575	1159757
24.95387	699250
24.96200	415809
24.97012	270961
24.97823	196564
24.98637	160884
24.99448	137279
25.00262	124886
25.01073	120175
25.01885	120708
25.02698	114851
25.03510	109465
25.04323	112509
25.05135	109586
25.05947	110308
25.06760	111290
25.07572	108954
25.08385	108852
25.09197	112467
25.10008	127399
25.10822	184556
25.11633	374474
25.12445	886466
25.13258	2087868
25.14070	4406400
25.14883	7289858
25.15695	1.07224E+07
25.16507	1.329806E+07
25.17320	1.371436E+07
25.18132	1.192463E+07
25.18945	8946305
25.19757	5879785
25.20568	3360572
25.21382	1793226
25.22193	931099
25.23005	541195
25.23818	345869
25.24630	281687
25.25443	294676
25.26255	373124
25.27067	489319
25.27880	648619
25.28692	759139
25.29505	797157
25.30317	726392
25.31128	603665
25.31942	445302
25.32753	312188
25.33567	209843
25.34378	160847
25.35190	134201
25.36003	112386
25.36815	109358
25.37627	100405
25.38440	100336
25.39252	86639
25.40065	85631
25.40877	81505
25.41688	82063
25.42502	81799
25.43313	77913
25.44127	78004
25.44938	81737
25.45750	80627
25.46563	74684
25.47375	74293
25.48187	82668
25.49000	77794
25.49812	82726
25.50625	82162
25.51437	82908
25.52248	79293
25.53062	81421
25.53873	77377
25.54687	76698
25.55498	74119
25.56310	74494
25.57123	73831
25.57935	73205
25.58748	67549
25.59560	78283
25.60372	80591
25.61185	93029
25.61997	102364
25.62808	102899
25.63622	89081
25.64433	85964
25.65247	69787
25.66058	74041
25.66870	70520
25.67683	72472
25.68495	74733
25.69308	70386
25.70120	76668
25.70932	81975
25.71745	80202
25.72557	82818
25.73370	84283
25.74182	84276
25.74993	82521
25.75807	74443
25.76618	79283
25.77430	72592
25.78243	66388
25.79055	65334
25.79868	61792
25.80680	64918
25.81492	65387
25.82305	66278
25.83117	63921
25.83930	69406
25.84742	62916
25.85553	66917
25.86367	75412
25.87178	66421
25.87990	69283
25.88803	63582
25.89615	66541
25.90428	70574
25.91240	65855
25.92052	64473
25.92865	67789
25.93677	65941
25.94490	63336
25.95302	75622
25.96113	73259
25.96927	75181
25.97738	76345
25.98552	77151
25.99363	78051
26.00175	81785
26.00988	115146
26.01800	169941
26.02612	250657
26.03425	313168
26.04237	367226
26.05050	383529
26.05862	390349
26.06673	392715
26.07487	401847
26.08298	397118
26.09112	408982
26.09923	426734
26.10735	420392
26.11548	416251
26.12360	415375
26.13173	416737
26.13985	420600
26.14797	420981
26.15610	408614
26.16422	405688
26.17233	416477
26.18047	422693
26.18858	421772
26.19672	418987
26.20483	416636
26.21295	403207
26.22108	407564
26.22920	398928
26.23733	403617
26.24545	397213
26.25357	405907
26.26170	405855
26.26982	378343
26.27793	381194
26.28607	373957
26.29418	378480
26.30232	380677
26.31043	369542
26.31855	372196
26.32668	359166
26.33480	350786
26.34293	361077
26.35105	356012
26.35917	359847
26.36730	383463
26.37542	444114
26.38355	535764
26.39167	669751
26.39978	823241
26.40792	987142
26.41603	1065230
26.42415	1086260
26.43228	950759
26.44040	821099
26.44853	686530
26.45665	535025
26.46477	468428
26.47290	407195
26.48102	394316
26.48915	375937
26.49727	369295
26.50538	362597
26.51352	353599
26.52163	340902
26.52975	328635
26.53788	316222
26.54600	316872
26.55413	311095
26.56225	297919
26.57037	298946
26.57850	299318
26.58662	296152
26.59475	293511
26.60287	290330
26.61098	293361
26.61912	290892
26.62723	288704
26.63537	288815
26.64348	287681
26.65160	281761
26.65973	285916
26.66785	285820
26.67597	295617
26.68410	289339
26.69222	273183
26.70035	268907
26.70847	275291
26.71658	272059
26.72472	276825
26.73283	258417
26.74097	263034
26.74908	246660
26.75720	265844
26.76533	259327
26.77345	256404
26.78158	256291
26.78970	252497
26.79782	249795
26.80595	256433
26.81407	261341
26.82218	254184
26.83032	258955
26.83843	262394
26.84657	248830
26.85468	256339
26.86280	234594
26.87093	253644
26.87905	240128
26.88718	239615
26.89530	233518
26.90342	233536
26.91155	227840
26.91967	231426
26.92780	219123
26.93592	226093
26.94403	217896
26.95217	219389
26.96028	221182
26.96840	226383
26.97653	232209
26.98465	255222
26.99278	269341
27.00090	290122
27.00902	333056
27.01715	399696
27.02527	482152
27.03340	561545
27.04152	615308
27.04963	607579
27.05777	583169
27.06588	528915
27.07400	463213
27.08213	393991
27.09025	354999
27.09838	325186
27.10650	304385
27.11462	301119
27.12275	297308
27.13087	304140
27.13900	296194
27.14712	283429
27.15523	286812
27.16337	277793
27.17148	279969
27.17962	284821
27.18773	306357
27.19585	338203
27.20398	363391
27.21210	373399
27.22022	365197
27.22835	334214
27.23647	313045
27.24460	277745
27.25272	256560
27.26083	233292
27.26897	225904
27.27708	210923
27.28522	207501
27.29333	195925
27.30145	185726
27.30958	186727
27.31770	183027
27.32582	182592
27.33395	184569
27.34207	186398
27.35020	188603
27.35832	199441
27.36643	188143
27.37457	196660
27.38268	193598
27.39082	197863
27.39893	200301
27.40705	197275
27.41518	183761
27.42330	172444
27.43143	169137
27.43955	170185
27.44767	166162
27.45580	162783
27.46392	169847
27.47203	162232
27.48017	160112
27.48828	156236
27.49642	152970
27.50453	155605
27.51265	156872
27.52078	154300
27.52890	153567
27.53703	152413
27.54515	145113
27.55327	149581
27.56140	145703
27.56952	149798
27.57765	155658
27.58577	176922
27.59388	203546
27.60202	239893
27.61013	285067
27.61825	308783
27.62638	297262
27.63450	265168
27.64263	238630
27.65075	199558
27.65887	174881
27.66700	162624
27.67512	157804
27.68325	153424
27.69137	145992
27.69948	143870
27.70762	148304
27.71573	143327
27.72385	143011
27.73198	154668
27.74010	132958
27.74823	132886
27.75635	122261
27.76447	124397
27.77260	136600
27.78072	136562
27.78885	139773
27.79697	147946
27.80508	156313
27.81322	160817
27.82133	161074
27.82947	157839
27.83758	145974
27.84570	132213
27.85383	128851
27.86195	119341
27.87007	117529
27.87820	114239
27.88632	119395
27.89445	122114
27.90257	117868
27.91068	115580
27.91882	111704
27.92693	115196
27.93507	115720
27.94318	114259
27.95130	105346
27.95943	105678
27.96755	106039
27.97568	102302
27.98380	103010
27.99192	100785
28.00005	105105
28.00817	109341
28.01628	113777
28.02442	123470
28.03253	129116
28.04067	141507
28.04878	147319
28.05690	167337
28.06503	182687
28.07315	191180
28.08128	188593
28.08940	173242
28.09752	142464
28.10565	121242
28.11377	111612
28.12188	108884
28.13002	104211
28.13813	100055
28.14627	90336
28.15438	94423
28.16250	93180
28.17063	97724
28.17875	97059
28.18688	94232
28.19500	98804
28.20312	118951
28.21125	153763
28.21937	187879
28.22750	234839
28.23562	281332
28.24373	303417
28.25187	296096
28.25998	263550
28.26810	216197
28.27623	186696
28.28435	141938
28.29248	119297
28.30060	111923
28.30872	109747
28.31685	118445
28.32497	139908
28.33310	158616
28.34122	177988
28.34933	180934
28.35747	177191
28.36558	170178
28.37370	159512
28.38183	162185
28.38995	149171
28.39808	151390
28.40620	161315
28.41432	164069
28.42245	168994
28.43057	174706
28.43870	165636
28.44682	158281
28.45493	146427
28.46307	130646
28.47118	127711
28.47932	120563
28.48743	121489
28.49555	121636
28.50368	122040
28.51180	126834
28.51992	125118
28.52805	136522
28.53617	129521
28.54430	126258
28.55242	117419
28.56053	108862
28.56867	96581
28.57678	102702
28.58492	99370
28.59303	94051
28.60115	93434
28.60928	83942
28.61740	92986
28.62553	98358
28.63365	99752
28.64177	107331
28.64990	104917
28.65802	111268
28.66613	110133
28.67427	114051
28.68238	109163
28.69052	105266
28.69863	102692
28.70675	102141
28.71488	91370
28.72300	92147
28.73113	92061
28.73925	88762
28.74737	85819
28.75550	84884
28.76362	79223
28.77173	86582
28.77987	87097
28.78798	89639
28.79612	99870
28.80423	113618
28.81235	127031
28.82048	139900
28.82860	154236
28.83673	157518
28.84485	152123
28.85297	136998
28.86110	126367
28.86922	113157
28.87735	112596
28.88547	118689
28.89358	138583
28.90172	157484
28.90983	206600
28.91795	225413
28.92608	221510
28.93420	210383
28.94233	177939
28.95045	141309
28.95857	118988
28.96670	105706
28.97482	99918
28.98295	100239
28.99107	88222
28.99918	84904
29.00732	80435
29.01543	85053
29.02357	79502
29.03168	82920
29.03980	83789
29.04793	83194
29.05605	83245
29.06417	81733
29.07230	88090
29.08042	92620
29.08855	93595
29.09667	102841
29.10478	109517
29.11292	105727
29.12103	106264
29.12917	100925
29.13728	95295
29.14540	89788
29.15353	81850
29.16165	81845
29.16977	80937
29.17790	79717
29.18602	90380
29.19415	96649
29.20227	126895
29.21038	192430
29.21852	249867
29.22663	334139
29.23477	389834
29.24288	405655
29.25100	374285
29.25913	314789
29.26725	243967
29.27538	198518
29.28350	166498
29.29162	134932
29.29975	114233
29.30787	106840
29.31598	89854
29.32412	86854
29.33223	79211
29.34037	77017
29.34848	76253
29.35660	76163
29.36473	76697
29.37285	72972
29.38098	72293
29.38910	76239
29.39722	73175
29.40535	77007
29.41347	82397
29.42160	75802
29.42972	88153
29.43783	81084
29.44597	90415
29.45408	87699
29.46220	82715
29.47033	86354
29.47845	86114
29.48658	76694
29.49470	75918
29.50282	77769
29.51095	86495
29.51907	79182
29.52720	86266
29.53532	88827
29.54343	84226
29.55157	89407
29.55968	84032
29.56780	82264
29.57593	81517
29.58405	78775
29.59218	74254
29.60030	70984
29.60842	75955
29.61655	73613
29.62467	73040
29.63280	76906
29.64092	76378
29.64903	73586
29.65717	75352
29.66528	67830
29.67342	80585
29.68153	77249
29.68965	85738
29.69778	95602
29.70590	107670
29.71402	120901
29.72215	125664
29.73027	114674
29.73840	108746
29.74652	94485
29.75463	86041
29.76277	78461
29.77088	80617
29.77902	78032
29.78713	71353
29.79525	66136
29.80338	67416
29.81150	68108
29.81962	72290
29.82775	68625
29.83587	68971
29.84400	70690
29.85212	72536
29.86023	77268
29.86837	69857
29.87648	79041
29.88462	89936
29.89273	121646
29.90085	160491
29.90898	207781
29.91710	253960
29.92523	266904
29.93335	240479
29.94147	194475
29.94960	155165
29.95772	106843
29.96583	92810
29.97397	76874
29.98208	79855
29.99022	84861
29.99833	91105
30.00645	90279
30.01458	95008
30.02270	103936
30.03083	108781
30.03895	107233
30.04707	108318
30.05520	112892
30.06332	105791
30.07145	104782
30.07957	104978
30.08768	103424
30.09582	99453
30.10393	101400
30.11205	105152
30.12018	105334
30.12830	101410
30.13643	100843
30.14455	96072
30.15267	94129
30.16080	98084
30.16892	90800
30.17705	86145
30.18517	87025
30.19328	87754
30.20142	96683
30.20953	96873
30.21765	88439
30.22578	94791
30.23390	91254
30.24203	84013
30.25015	81547
30.25827	89698
30.26640	78729
30.27452	77394
30.28265	77018
30.29077	77876
30.29888	71601
30.30702	79563
30.31513	72541
30.32327	70349
30.33138	73879
30.33950	71867
30.34763	71256
30.35575	70483
30.36387	73282
30.37200	82368
30.38012	82814
30.38825	77707
30.39637	77424
30.40448	79212
30.41262	72067
30.42073	67752
30.42887	69698
30.43698	69695
30.44510	70332
30.45323	73500
30.46135	71345
30.46948	70302
30.47760	69437
30.48572	67397
30.49385	74039
30.50197	72307
30.51008	70808
30.51822	70210
30.52633	71945
30.53447	76984
30.54258	73077
30.55070	73853
30.55883	75001
30.56695	73481
30.57508	75972
30.58320	75209
30.59132	79467
30.59945	72055
30.60757	75182
30.61568	77852
30.62382	78546
30.63193	80882
30.64007	76630
30.64818	75996
30.65630	73186
30.66443	69347
30.67255	65129
30.68068	61685
30.68880	66727
30.69692	65131
30.70505	64221
30.71317	61909
30.72130	64869
30.72942	69965
30.73753	70913
30.74567	71347
30.75378	65540
30.76190	71023
30.77003	70842
30.77815	76498
30.78628	80886
30.79440	113134
30.80252	148466
30.81065	239046
30.81877	325470
30.82690	400472
30.83502	421596
30.84313	373798
30.85127	307812
30.85938	224464
30.86750	162886
30.87563	121662
30.88375	98812
30.89188	96564
30.90000	93280
30.90812	98662
30.91625	90147
30.92437	78373
30.93250	77617
30.94062	69465
30.94873	72605
30.95687	78411
30.96498	75621
30.97312	87262
30.98123	88256
30.98935	79566
30.99748	81850
31.00560	77274
31.01372	83578
31.02185	77635
31.02997	71693
31.03810	70820
31.04622	74507
31.05433	70192
31.06247	70169
31.07058	71131
31.07872	71478
31.08683	71250
31.09495	79181
31.10308	88253
31.11120	99740
31.11933	117979
31.12745	125607
31.13557	130366
31.14370	129424
31.15182	113177
31.15993	110256
31.16807	116786
31.17618	120064
31.18432	125055
31.19243	122014
31.20055	137740
31.20868	143940
31.21680	173622
31.22493	223849
31.23305	261856
31.24117	273008
31.24930	287831
31.25742	253591
31.26553	212526
31.27367	164321
31.28178	117324
31.28992	97064
31.29803	91490
31.30615	81483
31.31428	80739
31.32240	87913
31.33053	88743
31.33865	102370
31.34677	112329
31.35490	127772
31.36302	120723
31.37115	123855
31.37927	111429
31.38738	107128
31.39552	93938
31.40363	86369
31.41175	79057
31.41988	76938
31.42800	73201
31.43613	75870
31.44425	72023
31.45237	73092
31.46050	70152
31.46862	69796
31.47675	74362
31.48487	70290
31.49298	76621
31.50112	84952
31.50923	83245
31.51737	86389
31.52548	89599
31.53360	88844
31.54173	97870
31.54985	91985
31.55797	86631
31.56610	91765
31.57422	96784
31.58235	88856
31.59047	92034
31.59858	85878
31.60672	79810
31.61483	79000
31.62297	69905
31.63108	72971
31.63920	75396
31.64733	73955
31.65545	75888
31.66357	91142
31.67170	99072
31.67982	115194
31.68795	127321
31.69607	143639
31.70418	144277
31.71232	139763
31.72043	124328
31.72857	99955
31.73668	90260
31.74480	82995
31.75293	79802
31.76105	72764
31.76918	71412
31.77730	68727
31.78542	70453
31.79355	68234
31.80167	71765
31.80978	72023
31.81792	74555
31.82603	70291
31.83417	78531
31.84228	69365
31.85040	74133
31.85853	75430
31.86665	77422
31.87478	80095
31.88290	78921
31.89102	77354
31.89915	80327
31.90727	73360
31.91538	74309
31.92352	72556
31.93163	73458
31.93977	73669
31.94788	78617
31.95600	76087
31.96413	81170
31.97225	82959
31.98038	87885
31.98850	98233
31.99662	96618
32.00475	105685
32.01287	110562
32.02100	113209
32.02912	121171
32.03723	117195
32.04537	112198
32.05348	111193
32.06160	101291
32.06973	95403
32.07785	93761
32.08598	87201
32.09410	87713
32.10222	84030
32.11035	85078
32.11847	86035
32.12660	80055
32.13472	82118
32.14283	76802
32.15097	73782
32.15908	75341
32.16722	73673
32.17533	73377
32.18345	71418
32.19158	73235
32.19970	78253
32.20782	70719
32.21595	75595
32.22407	74425
32.23220	70469
32.24032	68238
32.24843	75858
32.25657	75883
32.26468	72883
32.27282	71709
32.28093	73547
32.28905	80267
32.29718	77305
32.30530	77236
32.31343	74576
32.32155	71294
32.32967	69502
32.33780	66663
32.34592	66314
32.35403	66537
32.36217	69820
32.37028	77858
32.37842	73044
32.38653	69676
32.39465	76122
32.40278	72184
32.41090	69366
32.41903	67028
32.42715	67589
32.43527	66782
32.44340	66473
32.45152	68773
32.45963	68258
32.46777	70749
32.47588	68624
32.48402	65920
32.49213	69414
32.50025	64077
32.50838	70716
32.51650	68257
32.52463	73593
32.53275	77114
32.54087	75049
32.54900	71282
32.55712	69159
32.56525	78536
32.57337	69185
32.58148	70923
32.58962	69424
32.59773	72119
32.60585	66680
32.61398	69866
32.62210	68127
32.63023	62398
32.63835	67801
32.64647	64206
32.65460	64763
32.66272	65083
32.67085	69954
32.67897	68021
32.68708	69955
32.69522	77016
32.70333	84585
32.71145	84394
32.71958	84844
32.72770	78924
32.73583	78194
32.74395	72403
32.75207	72974
32.76020	74070
32.76832	72013
32.77645	70234
32.78457	74075
32.79268	71812
32.80082	68679
32.80893	72150
32.81707	70064
32.82518	69989
32.83330	68384
32.84143	68783
32.84955	69320
32.85767	70145
32.86580	71984
32.87392	67317
32.88205	71624
32.89017	79355
32.89828	92130
32.90642	87373
32.91453	99636
32.92267	107696
32.93078	107484
32.93890	107417
32.94703	100510
32.95515	95146
32.96328	83473
32.97140	86559
32.97952	81846
32.98765	98401
32.99577	126907
33.00388	177554
33.01202	242572
33.02013	289232
33.02827	301539
33.03638	285839
33.04450	232466
33.05263	194451
33.06075	154323
33.06888	147045
33.07700	155419
33.08512	164429
33.09325	179211
33.10137	191125
33.10948	188070
33.11762	190984
33.12573	198933
33.13387	192869
33.14198	183183
33.15010	160882
33.15823	155581
33.16635	142763
33.17448	132875
33.18260	132970
33.19072	123778
33.19885	106666
33.20697	95617
33.21510	87637
33.22322	93342
33.23133	88492
33.23947	90309
33.24758	92756
33.25570	87676
33.26383	87656
33.27195	83079
33.28008	88550
33.28820	77869
33.29632	79594
33.30445	76661
33.31257	80695
33.32070	76579
33.32882	76050
33.33693	78521
33.34507	83135
33.35318	77383
33.36132	97042
33.36943	94593
33.37755	113978
33.38568	115932
33.39380	113408
33.40192	109167
33.41005	100592
33.41817	85620
33.42630	80171
33.43442	71524
33.44253	75565
33.45067	68152
33.45878	70774
33.46692	69481
33.47503	70774
33.48315	68789
33.49128	68383
33.49940	69772
33.50752	73012
33.51565	88611
33.52377	88415
33.53190	90825
33.54002	95194
33.54813	105877
33.55627	117171
33.56438	133112
33.57252	151199
33.58063	156173
33.58875	152214
33.59688	136826
33.60500	114236
33.61313	97443
33.62125	86597
33.62937	78567
33.63750	81160
33.64562	75700
33.65373	89045
33.66187	85806
33.66998	91239
33.67812	89436
33.68623	101283
33.69435	95394
33.70248	88602
33.71060	90092
33.71873	85170
33.72685	78816
33.73497	79032
33.74310	78586
33.75122	78130
33.75933	77061
33.76747	72535
33.77558	73157
33.78372	72009
33.79183	78257
33.79995	73729
33.80808	71978
33.81620	73739
33.82433	71681
33.83245	71902
33.84057	73116
33.84870	78522
33.85682	69321
33.86495	77314
33.87307	75401
33.88118	77030
33.88932	84015
33.89743	76317
33.90555	79424
33.91368	79530
33.92180	80352
33.92993	78289
33.93805	79956
33.94617	71332
33.95430	73352
33.96242	73438
33.97055	72200
33.97867	70964
33.98678	67877
33.99492	73934
34.00303	77577
34.01117	73104
34.01928	72398
34.02740	74278
34.03553	69064
34.04365	71872
34.05177	79057
34.05990	76630
34.06802	70524
34.07615	77435
34.08427	70428
34.09238	70566
34.10052	72201
34.10863	71032
34.11677	75558
34.12488	75343
34.13300	70766
34.14113	72565
34.14925	72717
34.15737	73424
34.16550	77670
34.17362	73162
34.18175	76201
34.18987	71034
34.19798	73002
34.20612	68710
34.21423	77487
34.22237	78602
34.23048	75699
34.23860	74140
34.24673	77492
34.25485	68285
34.26298	75347
34.27110	66955
34.27922	72656
34.28735	72678
34.29547	63775
34.30358	67578
34.31172	72193
34.31983	72298
34.32797	68346
34.33608	68211
34.34420	70089
34.35233	71715
34.36045	74251
34.36858	69293
34.37670	73479
34.38482	70995
34.39295	72148
34.40107	69873
34.40920	70120
34.41732	68753
34.42543	72381
34.43357	77781
34.44168	77226
34.44980	75574
34.45793	69137
34.46605	69768
34.47418	71141
34.48230	72788
34.49042	73100
34.49855	73354
34.50667	75218
34.51480	65709
34.52292	70136
34.53103	72718
34.53917	76149
34.54728	75327
34.55540	83687
34.56353	89952
34.57165	92600
34.57978	106177
34.58790	110409
34.59602	112910
34.60415	103988
34.61227	98317
34.62040	100732
34.62852	94324
34.63663	87037
34.64477	88944
34.65288	82255
34.66102	85208
34.66913	86210
34.67725	83495
34.68538	77989
34.69350	78263
34.70162	80766
34.70975	80628
34.71787	73938
34.72600	76629
34.73412	76460
34.74223	81038
34.75037	76703
34.75848	77524
34.76662	78905
34.77473	85646
34.78285	79770
34.79098	84236
34.79910	87365
34.80722	84397
34.81535	82089
34.82347	83887
34.83160	85214
34.83972	80135
34.84783	72800
34.85597	77323
34.86408	77921
34.87222	82055
34.88033	84660
34.88845	79738
34.89658	80898
34.90470	78011
34.91283	76965
34.92095	73742
34.92907	73946
34.93720	74195
34.94532	79466
34.95343	77975
34.96157	84178
34.96968	83155
34.97782	90156
34.98593	98743
34.99405	101528
35.00218	103748
35.01030	100778
35.01843	90035
35.02655	85530
35.03467	83935
35.04280	82871
35.05092	84410
35.05905	79864
35.06717	79447
35.07528	81985
35.08342	74968
35.09153	85482
35.09965	74537
35.10778	74163
35.11590	77710
35.12403	80318
35.13215	81794
35.14027	74361
35.14840	75274
35.15652	86760
35.16465	84590
35.17277	82534
35.18088	82579
35.18902	86759
35.19713	87721
35.20525	78920
35.21338	80264
35.22150	75955
35.22963	77760
35.23775	79076
35.24587	75440
35.25400	76797
35.26212	76402
35.27025	81230
35.27837	79707
35.28648	78887
35.29462	83428
35.30273	80391
35.31087	77242
35.31898	82947
35.32710	77421
35.33523	82038
35.34335	81668
35.35147	77504
35.35960	73526
35.36772	79931
35.37585	78350
35.38397	76916
35.39208	79490
35.40022	80963
35.40833	80530
35.41647	80157
35.42458	86935
35.43270	86821
35.44083	91617
35.44895	97650
35.45708	93724
35.46520	93958
35.47332	84548
35.48145	88767
35.48957	86225
35.49768	93124
35.50582	90811
35.51393	89169
35.52207	92116
35.53018	92087
35.53830	87978
35.54643	81721
35.55455	75152
35.56268	86723
35.57080	82309
35.57892	76294
35.58705	82640
35.59517	80906
35.60328	78527
35.61142	78840
35.61953	81690
35.62767	75378
35.63578	79457
35.64390	81180
35.65203	81014
35.66015	78511
35.66828	81376
35.67640	79172
35.68452	77221
35.69265	82292
35.70077	82012
35.70890	81583
35.71702	80654
35.72513	82433
35.73327	83264
35.74138	82304
35.74950	88398
35.75763	101039
35.76575	104714
35.77388	123226
35.78200	137603
35.79012	146361
35.79825	150817
35.80637	134898
35.81450	116593
35.82262	106170
35.83073	104416
35.83887	89391
35.84698	90325
35.85512	90366
35.86323	84215
35.87135	83217
35.87948	83752
35.88760	79875
35.89572	80744
35.90385	84900
35.91197	88786
35.92010	81112
35.92822	85579
35.93633	85947
35.94447	81187
35.95258	87748
35.96072	90468
35.96883	81950
35.97695	79718
35.98508	83313
35.99320	79576
36.00132	82997
36.00945	81183
36.01757	86218
36.02570	86744
36.03382	87302
36.04193	89654
36.05007	92022
36.05818	85425
36.06632	83386
36.07443	84393
36.08255	87547
36.09068	85748
36.09880	82250
36.10693	83922
36.11505	79975
36.12317	93310
36.13130	88339
36.13942	88532
36.14753	98226
36.15567	101739
36.16378	101862
36.17192	104280
36.18003	102337
36.18815	101262
36.19628	91922
36.20440	89979
36.21253	81972
36.22065	80725
36.22877	78639
36.23690	82597
36.24502	81512
36.25313	84097
36.26127	77990
36.26938	81385
36.27752	78472
36.28563	84760
36.29375	84584
36.30188	86035
36.31000	89365
36.31813	83779
36.32625	89445
36.33437	86158
36.34250	97556
36.35062	93792
36.35875	94851
36.36687	92136
36.37498	92622
36.38312	93080
36.39123	89922
36.39935	95233
36.40748	92274
36.41560	92173
36.42373	94620
36.43185	93423
36.43997	103755
36.44810	105109
36.45622	106553
36.46435	95191
36.47247	95358
36.48058	83735
36.48872	84436
36.49683	88877
36.50497	86762
36.51308	81368
36.52120	78603
36.52933	84236
36.53745	86457
36.54557	85588
36.55370	85047
36.56182	85331
36.56995	81784
36.57807	83804
36.58618	88736
36.59432	81697
36.60243	77159
36.61057	81135
36.61868	82688
36.62680	85720
36.63493	83594
36.64305	86416
36.65117	89360
36.65930	87512
36.66742	84857
36.67555	86486
36.68367	81427
36.69178	82281
36.69992	85952
36.70803	80246
36.71617	83773
36.72428	85652
36.73240	87729
36.74053	90597
36.74865	92248
36.75678	85175
36.76490	93066
36.77302	99943
36.78115	91622
36.78927	88376
36.79738	89104
36.80552	89243
36.81363	89289
36.82177	91510
36.82988	86685
36.83800	86319
36.84613	84126
36.85425	81910
36.86238	87143
36.87050	86111
36.87862	76395
36.88675	81318
36.89487	85797
36.90300	83326
36.91112	84001
36.91923	83910
36.92737	81170
36.93548	82714
36.94360	89931
36.95173	100657
36.95985	128386
36.96798	162513
36.97610	214910
36.98422	269054
36.99235	299427
37.00047	284266
37.00860	260096
37.01672	200250
37.02483	163078
37.03297	129679
37.04108	107691
37.04920	97969
37.05733	100027
37.06545	100694
37.07358	102456
37.08170	100678
37.08982	96897
37.09795	101385
37.10607	105058
37.11420	110300
37.12232	109980
37.13043	102197
37.13857	104171
37.14668	97634
37.15482	92408
37.16293	94470
37.17105	97047
37.17918	91779
37.18730	96732
37.19542	90368
37.20355	89797
37.21167	86833
37.21980	90732
37.22792	91520
37.23603	88861
37.24417	95999
37.25228	90874
37.26042	90043
37.26853	93338
37.27665	91489
37.28478	91825
37.29290	93135
37.30102	87687
37.30915	92801
37.31727	98661
37.32540	91219
37.33352	89699
37.34163	94213
37.34977	91848
37.35788	93392
37.36602	91947
37.37413	95541
37.38225	98574
37.39038	97645
37.39850	98154
37.40663	98627
37.41475	102556
37.42287	98356
37.43100	106037
37.43912	108310
37.44723	106505
37.45537	114294
37.46348	114806
37.47162	105132
37.47973	102521
37.48785	98197
