C:\MassHunter\GCMS\1\data\20191125_ALKANES\BURNOFFS\JTB-E18-40-16.D Wed Nov 27 10:54:47 2019
Start of data points
2.09515,84116
2.10327,102912
2.11140,117073
2.11952,160087
2.12763,214271
2.13577,289924
2.14388,412170
2.15200,511411
2.16013,665253
2.16825,811174
2.17638,942412
2.18450,1046164
2.19262,1165582
2.20075,1248593
2.20887,1291536
2.21700,1313033
2.22512,1294233
2.23323,1268549
2.24137,1238977
2.24948,1190514
2.25762,1124481
2.26573,1040895
2.27385,977723
2.28198,937683
2.29010,864933
2.29822,816530
2.30635,751037
2.31447,694150
2.32260,650347
2.33072,590688
2.33883,546148
2.34697,513570
2.35508,479045
2.36322,444003
2.37133,413050
2.37945,378633
2.38758,355643
2.39570,333728
2.40382,306891
2.41195,288934
2.42007,275453
2.42820,249332
2.43632,240594
2.44443,218375
2.45257,213865
2.46068,196579
2.46882,190415
2.47693,181472
2.48505,171865
2.49318,162356
2.50130,162811
2.50943,153113
2.51755,140769
2.52567,135130
2.53380,130744
2.54192,129466
2.55003,120436
2.55817,123812
2.56628,113867
2.57442,107891
2.58253,113998
2.59065,109885
2.59878,101256
2.60690,100045
2.61503,98618
2.62315,97281
2.63127,96136
2.63940,87723
2.64752,89936
2.65565,95761
2.66377,84382
2.67188,85703
2.68002,81485
2.68813,83797
2.69625,82388
2.70438,83298
2.71250,77358
2.72063,76454
2.72875,74669
2.73687,76550
2.74500,75456
2.75312,71517
2.76125,71701
2.76937,72875
2.77748,72347
2.78562,72372
2.79373,70045
2.80185,69784
2.80998,69732
2.81810,66538
2.82623,67228
2.83435,68143
2.84247,66913
2.85060,68978
2.85872,68646
2.86685,65600
2.87497,67437
2.88308,62866
2.89122,64608
2.89933,61408
2.90747,60113
2.91558,66326
2.92370,60177
2.93183,64442
2.93995,61838
2.94807,60978
2.95620,64996
2.96432,62126
2.97245,60618
2.98057,61369
2.98868,60245
2.99682,61982
3.00493,57352
3.01307,67813
3.02118,58001
3.02930,56602
3.03743,54329
3.04555,58610
3.05368,55932
3.06180,58825
3.06992,56602
3.07805,54430
3.08617,54054
3.09428,57029
3.10242,57196
3.11053,54781
3.11867,54421
3.12678,55025
3.13490,56184
3.14303,53675
3.15115,55519
3.15928,62537
3.16740,57762
3.17552,59671
3.18365,58065
3.19177,58984
3.19988,55761
3.20802,61828
3.21613,57993
3.22427,58499
3.23238,58598
3.24050,56857
3.24863,56692
3.25675,61081
3.26488,58874
3.27300,62136
3.28112,58835
3.28925,57579
3.29737,57690
3.30550,60380
3.31362,60950
3.32173,58549
3.32987,57719
3.33798,63420
3.34610,56805
3.35423,58830
3.36235,56573
3.37048,58106
3.37860,56474
3.38672,57416
3.39485,57438
3.40297,53840
3.41110,51152
3.41922,59314
3.42733,56036
3.43547,52696
3.44358,54440
3.45170,56505
3.45983,57595
3.46795,55844
3.47608,60025
3.48420,55727
3.49232,54910
3.50045,55728
3.50857,54381
3.51670,54048
3.52482,57881
3.53293,54664
3.54107,54968
3.54918,53901
3.55732,56011
3.56543,56202
3.57355,60775
3.58168,56935
3.58980,57186
3.59792,55460
3.60605,53853
3.61417,53542
3.62230,54885
3.63042,55364
3.63853,53675
3.64667,56222
3.65478,53626
3.66292,56621
3.67103,52796
3.67915,55562
3.68728,61110
3.69540,54007
3.70353,50003
3.71165,52762
3.71977,51441
3.72790,53507
3.73602,49767
3.74413,56202
3.75227,54902
3.76038,49766
3.76852,54544
3.77663,51834
3.78475,52478
3.79288,54262
3.80100,51779
3.80913,52436
3.81725,52806
3.82537,53604
3.83350,51703
3.84162,53617
3.84973,52901
3.85787,53020
3.86598,50645
3.87412,55345
3.88223,52520
3.89035,54767
3.89848,54159
3.90660,50421
3.91473,50414
3.92285,51625
3.93097,52569
3.93910,52017
3.94722,51405
3.95535,50441
3.96347,50399
3.97158,50924
3.97972,49460
3.98783,48880
3.99595,55198
4.00408,52814
4.01220,47523
4.02033,51049
4.02845,61990
4.03657,53455
4.04470,52409
4.05282,48245
4.06095,47793
4.06907,53251
4.07718,49298
4.08532,51529
4.09343,53538
4.10157,50181
4.10968,50512
4.11780,50722
4.12593,52016
4.13405,49139
4.14217,51370
4.15030,51743
4.15842,50683
4.16655,52478
4.17467,48534
4.18278,49745
4.19092,48052
4.19903,47735
4.20717,48817
4.21528,49792
4.22340,49521
4.23153,56783
4.23965,48364
4.24777,53044
4.25590,48190
4.26402,52571
4.27215,55957
4.28027,54450
4.28838,50311
4.29652,53046
4.30463,51624
4.31277,49229
4.32088,48500
4.32900,48879
4.33713,49991
4.34525,50103
4.35338,50628
4.36150,52627
4.36962,49971
4.37775,48694
4.38587,47464
4.39398,51166
4.40212,51416
4.41023,46921
4.41837,47176
4.42648,46263
4.43460,48236
4.44273,47927
4.45085,49983
4.45898,51136
4.46710,50106
4.47522,47110
4.48335,49675
4.49147,51808
4.49958,48912
4.50772,51628
4.51583,49082
4.52397,45440
4.53208,49040
4.54020,49621
4.54833,46165
4.55645,50393
4.56458,45698
4.57270,49894
4.58082,49469
4.58895,49739
4.59707,46449
4.60520,48591
4.61332,48610
4.62143,45359
4.62957,49347
4.63768,46710
4.64580,46637
4.65393,49269
4.66205,48611
4.67018,46777
4.67830,47784
4.68642,47995
4.69455,49210
4.70267,46908
4.71080,49488
4.71892,51068
4.72703,48540
4.73517,49999
4.74328,49380
4.75142,48279
4.75953,44315
4.76765,46861
4.77578,49634
4.78390,48133
4.79202,45244
4.80015,49620
4.80827,44072
4.81640,47260
4.82452,46718
4.83263,44298
4.84077,47482
4.84888,45922
4.85702,46747
4.86513,47981
4.87325,53886
4.88138,49578
4.88950,48258
4.89763,47777
4.90575,50941
4.91387,50036
4.92200,47984
4.93012,51372
4.93823,46741
4.94637,51282
4.95448,49614
4.96262,44373
4.97073,46833
4.97885,44096
4.98698,48458
4.99510,49322
5.00323,45312
5.01135,47266
5.01947,47284
5.02760,46684
5.03572,48689
5.04383,49217
5.05197,45743
5.06008,50770
5.06822,47332
5.07633,48599
5.08445,51204
5.09258,49429
5.10070,48859
5.10883,56360
5.11695,48171
5.12507,51580
5.13320,49734
5.14132,43830
5.14945,47576
5.15757,47866
5.16568,49479
5.17382,48949
5.18193,44557
5.19005,46331
5.19818,47251
5.20630,48870
5.21443,47824
5.22255,46920
5.23067,48313
5.23880,43558
5.24692,47402
5.25505,49595
5.26317,47774
5.27128,47241
5.27942,45009
5.28753,46268
5.29565,44145
5.30378,46633
5.31190,44486
5.32003,46916
5.32815,42690
5.33627,42156
5.34440,42593
5.35252,42981
5.36065,41451
5.36877,42693
5.37688,45578
5.38502,42517
5.39313,45556
5.40127,42111
5.40938,47394
5.41750,47472
5.42563,47130
5.43375,46155
5.44187,42075
5.45000,43427
5.45812,40963
5.46625,45801
5.47437,42211
5.48248,42852
5.49062,42056
5.49873,41138
5.50687,43129
5.51498,43111
5.52310,45623
5.53123,41244
5.53935,40847
5.54747,43183
5.55560,43983
5.56372,43443
5.57185,40575
5.57997,42999
5.58808,42080
5.59622,43713
5.60433,46873
5.61247,46575
5.62058,44474
5.62870,42281
5.63683,42727
5.64495,43141
5.65308,40755
5.66120,40986
5.66932,41754
5.67745,40042
5.68557,45418
5.69368,44686
5.70182,45230
5.70993,42901
5.71807,44400
5.72618,45941
5.73430,43340
5.74243,43292
5.75055,41171
5.75868,41679
5.76680,48402
5.77492,44176
5.78305,41533
5.79117,43596
5.79930,45109
5.80742,43355
5.81553,43840
5.82367,41930
5.83178,43506
5.83990,40898
5.84803,40220
5.85615,40477
5.86428,38154
5.87240,42912
5.88052,41273
5.88865,42602
5.89677,46201
5.90490,39184
5.91302,37713
5.92113,37803
5.92927,40950
5.93738,34563
5.94552,37594
5.95363,38402
5.96175,38586
5.96988,35765
5.97800,34804
5.98612,37574
5.99425,37187
6.00237,38572
6.01050,35254
6.01862,37858
6.02673,36947
6.03487,32243
6.04298,39430
6.05112,32917
6.05923,38980
6.06735,36328
6.07548,36607
6.08360,32931
6.09172,38079
6.09985,36665
6.10797,38022
6.11610,34817
6.12422,34614
6.13233,34973
6.14047,33087
6.14858,33469
6.15672,32899
6.16483,33416
6.17295,35177
6.18108,31115
6.18920,36842
6.19733,35710
6.20545,32386
6.21357,33472
6.22170,33968
6.22982,33843
6.23793,34299
6.24607,34303
6.25418,36093
6.26232,36574
6.27043,36392
6.27855,34700
6.28668,34242
6.29480,34050
6.30293,37926
6.31105,34376
6.31917,36601
6.32730,38484
6.33542,34302
6.34353,35072
6.35167,31656
6.35978,35387
6.36792,37880
6.37603,34764
6.38415,35755
6.39228,34829
6.40040,35673
6.40853,37495
6.41665,31100
6.42477,36278
6.43290,32174
6.44102,36840
6.44915,32455
6.45727,34394
6.46538,33845
6.47352,34977
6.48163,37557
6.48975,35028
6.49788,37150
6.50600,36846
6.51413,36229
6.52225,32656
6.53037,33078
6.53850,33583
6.54662,33185
6.55475,32485
6.56287,31683
6.57098,30991
6.57912,36173
6.58723,33711
6.59537,34005
6.60348,35731
6.61160,33738
6.61973,38048
6.62785,31260
6.63597,31515
6.64410,34083
6.65222,31861
6.66035,33267
6.66847,36406
6.67658,33604
6.68472,40252
6.69283,35066
6.70097,32632
6.70908,35830
6.71720,33955
6.72533,34403
6.73345,34047
6.74157,32188
6.74970,35347
6.75782,33358
6.76595,32597
6.77407,36690
6.78218,33750
6.79032,35303
6.79843,37390
6.80657,33983
6.81468,33406
6.82280,33225
6.83093,32925
6.83905,30241
6.84718,30557
6.85530,29293
6.86342,29636
6.87155,30993
6.87967,29312
6.88778,32464
6.89592,27022
6.90403,28978
6.91217,34899
6.92028,37562
6.92840,30627
6.93653,28260
6.94465,28454
6.95278,30917
6.96090,28490
6.96902,32086
6.97715,32464
6.98527,31340
6.99340,31183
7.00152,35380
7.00963,35639
7.01777,33624
7.02588,28584
7.03400,32232
7.04213,29578
7.05025,32650
7.05838,29010
7.06650,28829
7.07462,31674
7.08275,28746
7.09087,29405
7.09900,29863
7.10712,30896
7.11523,29964
7.12337,29126
7.13148,28881
7.13960,31322
7.14773,28962
7.15585,29946
7.16398,32311
7.17210,29680
7.18022,35234
7.18835,31057
7.19647,29110
7.20460,31424
7.21272,29818
7.22083,31535
7.22897,29431
7.23708,30137
7.24522,33913
7.25333,31607
7.26145,30294
7.26958,28535
7.27770,31813
7.28582,29331
7.29395,33322
7.30207,32507
7.31020,27972
7.31832,30829
7.32643,28553
7.33457,34568
7.34268,31491
7.35082,29137
7.35893,30525
7.36705,29549
7.37518,29352
7.38330,30751
7.39142,29548
7.39955,29458
7.40767,31543
7.41580,29128
7.42392,30161
7.43203,32785
7.44017,31293
7.44828,30475
7.45642,28391
7.46453,27222
7.47265,29693
7.48078,30594
7.48890,30150
7.49703,29111
7.50515,27094
7.51327,28268
7.52140,30301
7.52952,29028
7.53763,29458
7.54577,30894
7.55388,27790
7.56202,26412
7.57013,28503
7.57825,28716
7.58638,30153
7.59450,28870
7.60263,29272
7.61075,32735
7.61887,29516
7.62700,28673
7.63512,29649
7.64325,32340
7.65137,28482
7.65948,28106
7.66762,28684
7.67573,29094
7.68385,29423
7.69198,29563
7.70010,26684
7.70823,28188
7.71635,28034
7.72447,25937
7.73260,26298
7.74072,25316
7.74885,28279
7.75697,32653
7.76508,28251
7.77322,28603
7.78133,29240
7.78945,30706
7.79758,32350
7.80570,30439
7.81383,27541
7.82195,29063
7.83007,31968
7.83820,28696
7.84632,25856
7.85445,28281
7.86257,28064
7.87068,30799
7.87882,33294
7.88693,32654
7.89507,29784
7.90318,27994
7.91130,26697
7.91943,29232
7.92755,29657
7.93567,26869
7.94380,26742
7.95192,29975
7.96005,30006
7.96817,28754
7.97628,27350
7.98442,29312
7.99253,29141
8.00067,27695
8.00878,29769
8.01690,25187
8.02503,25588
8.03315,26644
8.04128,24755
8.04940,27008
8.05752,24474
8.06565,28637
8.07377,29511
8.08188,28209
8.09002,28990
8.09813,29583
8.10627,27589
8.11438,27734
8.12250,28776
8.13063,30951
8.13875,28445
8.14688,29372
8.15500,27105
8.16312,27344
8.17125,29217
8.17937,25914
8.18748,26257
8.19562,26401
8.20373,29562
8.21187,32931
8.21998,27642
8.22810,27697
8.23623,27327
8.24435,27488
8.25248,28426
8.26060,24625
8.26872,25986
8.27685,29630
8.28497,26653
8.29310,24592
8.30122,25485
8.30933,26687
8.31747,30645
8.32558,28685
8.33370,26268
8.34183,28840
8.34995,23762
8.35808,23402
8.36620,25374
8.37432,25204
8.38245,24770
8.39057,27234
8.39870,24058
8.40682,25537
8.41493,25540
8.42307,25182
8.43118,28468
8.43932,25819
8.44743,27162
8.45555,25158
8.46368,26991
8.47180,26399
8.47992,29519
8.48805,28841
8.49617,26784
8.50430,23690
8.51242,24265
8.52053,27622
8.52867,26054
8.53678,26276
8.54492,26891
8.55303,25283
8.56115,25393
8.56928,27616
8.57740,26579
8.58552,23755
8.59365,25790
8.60177,33358
8.60990,27427
8.61802,24774
8.62613,24096
8.63427,27436
8.64238,25686
8.65052,25447
8.65863,26309
8.66675,24242
8.67488,25341
8.68300,24546
8.69113,26622
8.69925,30283
8.70737,25893
8.71550,28632
8.72362,26163
8.73173,25615
8.73987,30562
8.74798,25264
8.75612,25199
8.76423,29602
8.77235,28158
8.78048,25232
8.78860,31917
8.79673,29725
8.80485,26569
8.81297,29882
8.82110,29911
8.82922,26970
8.83733,26980
8.84547,26107
8.85358,26611
8.86172,24635
8.86983,22971
8.87795,27599
8.88608,25517
8.89420,28024
8.90233,24664
8.91045,27873
8.91857,29301
8.92670,27371
8.93482,27269
8.94295,27554
8.95107,27362
8.95918,25957
8.96732,27054
8.97543,23677
8.98355,27823
8.99168,26974
8.99980,24433
9.00793,27757
9.01605,29100
9.02417,26050
9.03230,26887
9.04042,26159
9.04855,26907
9.05667,26539
9.06478,29698
9.07292,26069
9.08103,27900
9.08917,28605
9.09728,23751
9.10540,26151
9.11353,26593
9.12165,26903
9.12977,26698
9.13790,26133
9.14602,24533
9.15415,26840
9.16227,24336
9.17038,25073
9.17852,26008
9.18663,25470
9.19477,22870
9.20288,30959
9.21100,29621
9.21913,26277
9.22725,26730
9.23537,26049
9.24350,25942
9.25162,28127
9.25975,28289
9.26787,25807
9.27598,27896
9.28412,25168
9.29223,26582
9.30037,24735
9.30848,29868
9.31660,27125
9.32473,25974
9.33285,25329
9.34098,23026
9.34910,26434
9.35722,28102
9.36535,24764
9.37347,25871
9.38158,25111
9.38972,25391
9.39783,23457
9.40597,25049
9.41408,24584
9.42220,24800
9.43033,26468
9.43845,23198
9.44658,24488
9.45470,24729
9.46282,28764
9.47095,26321
9.47907,23030
9.48720,24057
9.49532,29239
9.50343,25124
9.51157,25637
9.51968,25284
9.52780,25586
9.53593,29709
9.54405,26794
9.55218,27512
9.56030,25537
9.56842,28021
9.57655,25142
9.58467,29787
9.59280,29137
9.60092,22744
9.60903,25117
9.61717,23365
9.62528,26239
9.63340,25740
9.64153,25593
9.64965,22877
9.65778,22588
9.66590,25639
9.67402,24487
9.68215,21871
9.69027,22337
9.69840,23342
9.70652,26485
9.71463,32033
9.72277,26342
9.73088,25529
9.73902,24247
9.74713,25725
9.75525,28329
9.76338,25042
9.77150,24991
9.77962,26305
9.78775,25299
9.79587,25273
9.80400,26311
9.81212,26005
9.82023,22278
9.82837,29259
9.83648,25788
9.84462,24889
9.85273,24489
9.86085,22695
9.86898,25975
9.87710,25701
9.88522,24603
9.89335,27237
9.90147,22942
9.90960,24213
9.91772,30039
9.92583,26420
9.93397,25399
9.94208,26908
9.95022,26453
9.95833,29585
9.96645,24635
9.97458,23627
9.98270,26351
9.99083,24783
9.99895,26051
10.00707,26259
10.01520,24699
10.02332,24233
10.03143,25532
10.03957,24524
10.04768,24744
10.05582,23856
10.06393,26967
10.07205,23433
10.08018,24537
10.08830,23137
10.09643,24180
10.10455,28397
10.11267,25690
10.12080,24135
10.12892,22756
10.13705,27240
10.14517,28688
10.15328,24342
10.16142,24876
10.16953,25607
10.17765,23894
10.18578,23128
10.19390,25219
10.20203,26103
10.21015,24294
10.21827,25534
10.22640,22489
10.23452,24114
10.24265,28693
10.25077,23837
10.25888,24169
10.26702,24215
10.27513,26474
10.28327,25440
10.29138,23232
10.29950,27098
10.30763,26301
10.31575,29421
10.32387,27056
10.33200,24183
10.34012,23986
10.34825,24395
10.35637,28629
10.36448,23607
10.37262,23940
10.38073,26557
10.38887,25002
10.39698,26057
10.40510,28320
10.41323,29242
10.42135,22124
10.42947,23578
10.43760,23856
10.44572,23490
10.45385,23992
10.46197,25148
10.47008,23216
10.47822,24384
10.48633,24659
10.49447,23517
10.50258,28120
10.51070,23153
10.51883,23441
10.52695,23655
10.53508,23355
10.54320,24186
10.55132,22975
10.55945,24515
10.56757,24735
10.57568,23174
10.58382,21539
10.59193,24265
10.60007,26547
10.60818,23357
10.61630,22805
10.62443,22157
10.63255,24890
10.64068,24865
10.64880,25292
10.65692,23860
10.66505,23687
10.67317,23145
10.68128,22883
10.68942,24391
10.69753,23043
10.70567,25165
10.71378,23310
10.72190,24015
10.73003,23686
10.73815,23399
10.74628,23094
10.75440,25660
10.76252,25350
10.77065,23762
10.77877,24422
10.78690,25424
10.79502,26894
10.80313,23009
10.81127,25096
10.81938,25768
10.82750,25306
10.83563,24526
10.84375,25138
10.85188,23535
10.86000,25097
10.86812,23370
10.87625,25344
10.88437,30023
10.89250,24382
10.90062,20779
10.90873,23606
10.91687,24832
10.92498,19953
10.93312,25499
10.94123,22225
10.94935,24483
10.95748,23315
10.96560,27295
10.97372,24848
10.98185,27722
10.98997,25508
10.99810,22049
11.00622,26246
11.01433,22922
11.02247,24138
11.03058,26109
11.03872,24908
11.04683,25680
11.05495,24468
11.06308,22224
11.07120,23595
11.07932,23452
11.08745,25776
11.09557,20578
11.10370,21536
11.11182,21576
11.11993,20728
11.12807,23712
11.13618,25061
11.14432,24167
11.15243,22734
11.16055,22719
11.16868,24108
11.17680,23285
11.18493,23329
11.19305,23448
11.20117,25471
11.20930,27233
11.21742,23834
11.22553,23702
11.23367,21526
11.24178,22541
11.24992,23089
11.25803,23240
11.26615,23076
11.27428,22462
11.28240,22148
11.29053,23559
11.29865,23171
11.30677,25569
11.31490,22162
11.32302,30337
11.33115,22604
11.33927,22073
11.34738,22737
11.35552,23960
11.36363,24051
11.37175,22066
11.37988,27515
11.38800,22082
11.39613,22896
11.40425,22559
11.41237,24991
11.42050,23148
11.42862,22529
11.43675,23376
11.44487,23197
11.45298,23779
11.46112,23255
11.46923,24479
11.47735,23754
11.48548,21097
11.49360,23371
11.50173,24952
11.50985,23165
11.51797,21995
11.52610,23771
11.53422,21372
11.54235,22407
11.55047,24534
11.55858,23120
11.56672,22079
11.57483,24652
11.58297,22907
11.59108,22413
11.59920,24298
11.60733,22918
11.61545,23580
11.62357,22423
11.63170,22462
11.63982,23051
11.64795,22104
11.65607,22861
11.66418,20620
11.67232,24026
11.68043,23712
11.68857,22629
11.69668,23382
11.70480,23170
11.71293,22933
11.72105,26315
11.72917,22722
11.73730,24702
11.74542,23354
11.75355,26905
11.76167,20992
11.76978,27437
11.77792,24109
11.78603,22617
11.79417,19282
11.80228,22464
11.81040,24042
11.81853,25760
11.82665,20823
11.83478,23866
11.84290,25822
11.85102,23656
11.85915,21545
11.86727,23148
11.87538,21877
11.88352,20642
11.89163,19925
11.89977,21360
11.90788,21578
11.91600,25839
11.92413,22136
11.93225,25516
11.94038,21734
11.94850,23393
11.95662,23464
11.96475,22383
11.97287,20224
11.98100,21256
11.98912,26484
11.99723,22633
12.00537,25709
12.01348,23427
12.02160,21884
12.02973,24398
12.03785,28329
12.04598,26450
12.05410,20768
12.06222,21359
12.07035,21102
12.07847,25794
12.08660,26012
12.09472,21234
12.10283,22847
12.11097,25555
12.11908,25439
12.12720,22976
12.13533,20837
12.14345,25332
12.15158,19140
12.15970,22030
12.16782,21706
12.17595,24507
12.18407,22794
12.19220,23805
12.20032,23182
12.20843,22432
12.21657,21614
12.22468,21221
12.23282,22540
12.24093,24050
12.24905,26735
12.25718,22018
12.26530,23071
12.27342,20397
12.28155,22465
12.28967,22764
12.29780,23963
12.30592,23486
12.31403,23678
12.32217,23196
12.33028,26400
12.33842,23088
12.34653,23983
12.35465,21605
12.36278,22830
12.37090,22766
12.37903,21673
12.38715,26285
12.39527,25511
12.40340,22536
12.41152,23264
12.41963,19124
12.42777,22273
12.43588,22668
12.44402,24101
12.45213,21717
12.46025,21151
12.46838,22009
12.47650,25540
12.48463,25019
12.49275,21450
12.50087,22356
12.50900,21394
12.51712,19796
12.52523,22502
12.53337,23549
12.54148,23056
12.54962,19643
12.55773,23647
12.56585,20555
12.57398,21876
12.58210,23244
12.59023,22308
12.59835,25188
12.60647,20675
12.61460,22250
12.62272,21006
12.63085,24360
12.63897,21090
12.64708,21879
12.65522,22143
12.66333,21718
12.67145,25446
12.67958,23838
12.68770,19385
12.69583,24376
12.70395,24189
12.71207,22056
12.72020,24446
12.72832,22658
12.73645,23721
12.74457,23729
12.75268,17453
12.76082,19421
12.76893,21718
12.77705,22533
12.78518,22331
12.79330,20789
12.80143,25075
12.80955,26073
12.81767,22182
12.82580,26511
12.83392,20332
12.84205,22916
12.85017,21226
12.85828,20095
12.86642,21861
12.87453,21493
12.88267,23048
12.89078,26426
12.89890,21213
12.90703,23518
12.91515,20795
12.92327,23452
12.93140,24364
12.93952,23028
12.94765,20148
12.95577,22120
12.96388,19194
12.97202,24472
12.98013,22129
12.98827,19505
12.99638,22392
13.00450,22596
13.01263,23317
13.02075,24886
13.02888,22137
13.03700,22479
13.04512,24777
13.05325,19105
13.06137,20024
13.06948,21567
13.07762,25479
13.08573,22310
13.09387,21391
13.10198,21087
13.11010,21709
13.11823,21718
13.12635,23600
13.13448,20365
13.14260,21996
13.15072,21751
13.15885,20007
13.16697,23116
13.17508,22138
13.18322,22303
13.19133,22692
13.19947,22863
13.20758,21098
13.21570,22793
13.22383,23185
13.23195,23364
13.24008,18237
13.24820,24864
13.25632,21800
13.26445,21318
13.27257,20962
13.28070,23372
13.28882,22625
13.29693,20809
13.30507,21821
13.31318,21978
13.32130,22560
13.32943,22574
13.33755,19027
13.34568,21152
13.35380,22627
13.36192,22711
13.37005,27124
13.37817,23688
13.38630,20526
13.39442,21332
13.40253,23084
13.41067,20803
13.41878,23361
13.42692,21269
13.43503,22684
13.44315,23463
13.45128,20179
13.45940,20428
13.46752,22745
13.47565,24560
13.48377,20954
13.49190,21466
13.50002,24739
13.50813,19811
13.51627,21099
13.52438,21848
13.53252,21668
13.54063,22300
13.54875,24019
13.55688,22398
13.56500,19913
13.57312,20632
13.58125,24368
13.58937,23309
13.59750,19423
13.60562,20404
13.61373,21411
13.62187,20999
13.62998,19777
13.63812,22263
13.64623,21805
13.65435,22011
13.66248,21161
13.67060,23633
13.67873,19933
13.68685,17791
13.69497,20106
13.70310,19655
13.71122,26315
13.71933,19710
13.72747,21806
13.73558,21840
13.74372,20951
13.75183,22096
13.75995,20766
13.76808,20860
13.77620,22255
13.78433,21636
13.79245,24035
13.80057,20678
13.80870,20602
13.81682,21759
13.82495,21318
13.83307,25678
13.84118,20870
13.84932,18648
13.85743,19270
13.86555,17122
13.87368,24542
13.88180,21921
13.88993,22534
13.89805,18342
13.90617,19662
13.91430,20144
13.92242,22048
13.93055,19628
13.93867,19361
13.94678,22634
13.95492,20878
13.96303,23487
13.97115,19967
13.97928,22174
13.98740,22861
13.99553,19846
14.00365,23118
14.01177,19551
14.01990,21850
14.02802,21074
14.03615,25327
14.04427,20708
14.05238,20108
14.06052,23219
14.06863,24843
14.07677,19176
14.08488,20086
14.09300,24653
14.10113,20912
14.10925,19030
14.11737,21071
14.12550,21768
14.13362,20135
14.14175,22276
14.14987,20754
14.15798,22921
14.16612,20822
14.17423,22026
14.18237,21125
14.19048,22024
14.19860,21427
14.20673,23420
14.21485,21436
14.22297,18993
14.23110,19212
14.23922,20111
14.24735,23027
14.25547,21621
14.26358,21337
14.27172,20468
14.27983,24150
14.28797,22436
14.29608,21458
14.30420,21556
14.31233,22472
14.32045,21676
14.32858,18998
14.33670,22352
14.34482,20887
14.35295,20838
14.36107,21666
14.36918,18963
14.37732,22894
14.38543,20422
14.39357,19375
14.40168,18397
14.40980,18680
14.41793,20350
14.42605,18317
14.43418,20284
14.44230,23464
14.45042,20302
14.45855,19111
14.46667,18168
14.47480,23219
14.48292,20658
14.49103,19886
14.49917,21800
14.50728,19399
14.51540,18100
14.52353,23133
14.53165,20528
14.53978,21272
14.54790,18835
14.55602,22106
14.56415,19736
14.57227,22937
14.58040,21585
14.58852,20758
14.59663,18272
14.60477,24580
14.61288,18254
14.62100,20366
14.62913,19275
14.63725,20305
14.64538,19988
14.65350,18829
14.66162,26147
14.66975,20035
14.67787,19791
14.68600,18738
14.69412,19467
14.70223,24374
14.71037,19803
14.71848,19456
14.72662,18733
14.73473,19838
14.74285,23868
14.75098,21179
14.75910,20244
14.76722,21086
14.77535,26701
14.78347,18620
14.79160,20992
14.79972,22616
14.80783,21448
14.81597,16617
14.82408,21349
14.83222,20828
14.84033,18266
14.84845,18114
14.85658,20998
14.86470,18236
14.87283,20127
14.88095,20178
14.88907,21017
14.89720,19752
14.90532,20642
14.91343,21228
14.92157,25311
14.92968,23796
14.93782,21970
14.94593,20817
14.95405,22214
14.96218,20511
14.97030,21679
14.97843,23642
14.98655,20093
14.99467,19937
15.00280,18727
15.01092,20856
15.01903,19492
15.02717,20310
15.03528,21752
15.04342,20804
15.05153,19693
15.05965,20387
15.06778,20306
15.07590,21307
15.08403,24213
15.09215,18983
15.10027,21357
15.10840,19759
15.11652,20814
15.12465,23516
15.13277,19548
15.14088,21859
15.14902,17826
15.15713,19526
15.16525,21085
15.17338,19660
15.18150,20428
15.18963,18924
15.19775,20242
15.20587,20536
15.21400,20531
15.22212,22732
15.23025,25854
15.23837,20614
15.24648,19493
15.25462,20755
15.26273,23631
15.27085,20343
15.27898,23485
15.28710,22440
15.29523,20083
15.30335,20660
15.31147,17975
15.31960,18788
15.32772,21177
15.33585,18068
15.34397,21055
15.35208,19608
15.36022,20478
15.36833,21248
15.37647,20117
15.38458,18481
15.39270,16898
15.40083,19261
15.40895,20629
15.41707,21034
15.42520,18704
15.43332,21174
15.44145,22191
15.44957,18717
15.45768,19619
15.46582,18828
15.47393,19267
15.48207,18664
15.49018,21179
15.49830,19237
15.50643,19932
15.51455,21907
15.52268,18373
15.53080,17336
15.53892,23289
15.54705,25137
15.55517,19231
15.56328,23056
15.57142,19346
15.57953,18936
15.58767,17884
15.59578,20835
15.60390,19267
15.61203,21635
15.62015,18979
15.62828,20645
15.63640,22353
15.64452,22302
15.65265,20298
15.66077,21449
15.66890,19474
15.67702,18265
15.68513,20049
15.69327,20015
15.70138,21467
15.70950,21013
15.71763,18348
15.72575,19950
15.73388,22813
15.74200,20433
15.75012,22467
15.75825,18355
15.76637,22257
15.77450,24529
15.78262,22783
15.79073,19772
15.79887,20921
15.80698,21495
15.81510,19854
15.82323,18181
15.83135,20265
15.83948,20464
15.84760,18770
15.85572,18785
15.86385,18932
15.87197,22160
15.88010,17103
15.88822,19842
15.89633,19705
15.90447,18669
15.91258,20898
15.92072,20933
15.92883,24096
15.93695,17200
15.94508,18656
15.95320,21927
15.96132,19846
15.96945,17863
15.97757,20869
15.98570,21462
15.99382,19871
16.00193,23282
16.01007,17321
16.01818,19847
16.02632,21824
16.03443,19682
16.04255,19745
16.05068,17854
16.05880,19207
16.06692,19274
16.07505,18682
16.08317,17244
16.09130,20144
16.09942,18189
16.10753,21666
16.11567,20284
16.12378,18367
16.13192,18659
16.14003,20313
16.14815,19170
16.15628,19817
16.16440,18029
16.17253,24029
16.18065,21173
16.18877,19163
16.19690,21489
16.20502,20190
16.21313,20040
16.22127,22219
16.22938,20250
16.23752,19822
16.24563,19141
16.25375,18284
16.26188,20094
16.27000,19848
16.27813,19111
16.28625,18828
16.29437,24385
16.30250,23350
16.31062,20242
16.31875,17266
16.32687,17409
16.33498,18038
16.34312,22731
16.35123,16928
16.35935,18723
16.36748,21793
16.37560,19893
16.38373,21109
16.39185,17303
16.39997,18495
16.40810,19306
16.41622,17817
16.42435,19312
16.43247,21607
16.44058,20536
16.44872,20588
16.45683,18723
16.46495,18509
16.47308,18335
16.48120,19663
16.48933,20370
16.49745,19877
16.50557,19061
16.51370,19225
16.52182,20418
16.52995,21305
16.53807,19444
16.54618,20188
16.55432,21692
16.56243,19333
16.57057,19685
16.57868,24222
16.58680,19342
16.59493,21072
16.60305,22033
16.61117,17811
16.61930,19193
16.62742,15836
16.63555,17862
16.64367,18449
16.65178,18395
16.65992,20800
16.66803,18843
16.67617,17714
16.68428,19946
16.69240,16571
16.70053,23658
16.70865,19768
16.71678,19879
16.72490,17961
16.73302,21111
16.74115,23320
16.74927,19679
16.75738,19471
16.76552,18933
16.77363,18871
16.78177,20869
16.78988,16355
16.79800,18026
16.80613,20270
16.81425,22074
16.82238,24077
16.83050,17385
16.83862,19894
16.84675,20053
16.85487,20053
16.86298,18140
16.87112,17432
16.87923,18968
16.88737,20124
16.89548,19438
16.90360,19827
16.91173,17764
16.91985,19527
16.92798,20996
16.93610,20207
16.94422,26181
16.95235,21260
16.96047,22444
16.96860,20742
16.97672,19207
16.98483,17564
16.99297,18831
17.00108,21450
17.00920,19546
17.01733,19897
17.02545,18745
17.03358,18700
17.04170,17794
17.04982,19676
17.05795,16409
17.06607,17484
17.07420,18260
17.08232,19630
17.09043,19730
17.09857,21043
17.10668,19823
17.11480,17932
17.12293,14893
17.13105,20137
17.13918,20429
17.14730,18492
17.15542,18701
17.16355,18336
17.17167,17637
17.17980,18292
17.18792,17030
17.19603,21910
17.20417,20456
17.21228,18072
17.22042,15008
17.22853,16342
17.23665,18319
17.24478,19910
17.25290,21496
17.26102,23580
17.26915,20367
17.27727,16116
17.28540,17341
17.29352,19960
17.30163,24283
17.30977,18024
17.31788,18479
17.32602,18857
17.33413,20050
17.34225,17747
17.35038,19691
17.35850,19527
17.36663,16962
17.37475,19058
17.38287,19949
17.39100,17422
17.39912,23658
17.40723,18744
17.41537,20324
17.42348,19323
17.43162,17852
17.43973,19185
17.44785,19014
17.45598,20828
17.46410,17525
17.47223,20776
17.48035,20557
17.48847,19975
17.49660,21961
17.50472,19838
17.51283,20788
17.52097,20001
17.52908,19216
17.53722,22948
17.54533,20813
17.55345,18192
17.56158,21740
17.56970,21140
17.57783,21522
17.58595,19345
17.59407,19951
17.60220,20277
17.61032,19057
17.61845,20274
17.62657,21308
17.63468,21852
17.64282,21392
17.65093,17652
17.65905,19695
17.66718,20514
17.67530,20666
17.68343,20454
17.69155,19352
17.69967,19376
17.70780,19202
17.71592,20292
17.72405,20401
17.73217,19283
17.74028,19330
17.74842,18692
17.75653,18253
17.76467,19490
17.77278,19410
17.78090,16454
17.78903,16904
17.79715,18853
17.80527,17559
17.81340,17847
17.82152,18330
17.82965,18467
17.83777,18968
17.84588,17968
17.85402,16607
17.86213,18330
17.87027,21412
17.87838,19253
17.88650,19083
17.89463,21547
17.90275,20126
17.91087,20127
17.91900,19068
17.92712,18385
17.93525,19361
17.94337,22446
17.95148,23248
17.95962,17371
17.96773,18759
17.97587,16199
17.98398,19556
17.99210,18542
18.00023,19323
18.00835,18062
18.01648,18099
18.02460,18463
18.03272,17439
18.04085,20916
18.04897,18549
18.05708,18543
18.06522,21607
18.07333,19373
18.08147,19135
18.08958,18133
18.09770,20489
18.10583,17878
18.11395,17861
18.12208,18556
18.13020,18373
18.13832,18697
18.14645,18531
18.15457,19690
18.16270,23030
18.17082,17381
18.17893,18143
18.18707,18667
18.19518,17638
18.20330,20470
18.21143,19580
18.21955,18634
18.22768,20558
18.23580,19340
18.24392,19225
18.25205,20451
18.26017,22903
18.26830,20053
18.27642,21338
18.28453,16183
18.29267,19935
18.30078,19153
18.30890,19337
18.31703,22089
18.32515,20926
18.33328,15847
18.34140,19985
18.34952,20373
18.35765,19831
18.36577,19082
18.37390,18339
18.38202,16758
18.39013,16803
18.39827,17750
18.40638,17082
18.41452,19288
18.42263,20253
18.43075,17875
18.43888,19114
18.44700,20738
18.45512,20192
18.46325,18865
18.47137,19198
18.47950,17032
18.48762,18238
18.49573,19762
18.50387,17202
18.51198,20478
18.52012,15998
18.52823,18356
18.53635,19849
18.54448,25275
18.55260,18588
18.56072,20604
18.56885,17124
18.57697,20097
18.58510,19279
18.59322,19880
18.60133,19784
18.60947,19043
18.61758,18710
18.62572,15231
18.63383,18813
18.64195,21908
18.65008,19841
18.65820,22428
18.66633,23840
18.67445,18649
18.68257,19135
18.69070,19463
18.69882,19626
18.70693,22641
18.71507,18594
18.72318,18031
18.73132,17339
18.73943,21679
18.74755,18574
18.75568,19993
18.76380,22380
18.77193,19430
18.78005,21243
18.78817,19216
18.79630,20609
18.80442,18685
18.81255,18743
18.82067,19801
18.82878,16750
18.83692,18039
18.84503,16424
18.85315,15468
18.86128,18965
18.86940,20154
18.87753,15933
18.88565,19372
18.89377,18765
18.90190,16932
18.91002,18662
18.91815,15571
18.92627,19460
18.93438,18173
18.94252,17652
18.95063,17569
18.95875,17349
18.96688,18740
18.97500,19110
18.98313,20007
18.99125,16642
18.99937,17170
19.00750,19216
19.01562,18717
19.02375,20086
19.03187,18368
19.03998,21365
19.04812,17393
19.05623,21212
19.06437,19849
19.07248,18814
19.08060,19306
19.08873,21079
19.09685,16517
19.10497,18319
19.11310,17247
19.12122,20011
19.12935,16634
19.13747,19207
19.14558,17574
19.15372,19484
19.16183,17893
19.16997,19786
19.17808,17947
19.18620,16251
19.19433,17504
19.20245,16667
19.21058,19066
19.21870,19097
19.22682,19370
19.23495,17016
19.24307,17868
19.25118,20149
19.25932,18641
19.26743,21665
19.27557,20300
19.28368,17658
19.29180,16054
19.29993,18401
19.30805,20590
19.31618,19851
19.32430,18810
19.33242,19289
19.34055,21040
19.34867,23597
19.35678,18083
19.36492,17894
19.37303,19024
19.38117,18123
19.38928,17915
19.39740,18586
19.40553,19431
19.41365,19325
19.42178,18462
19.42990,24099
19.43802,17478
19.44615,24459
19.45427,19644
19.46240,20102
19.47052,18754
19.47863,17679
19.48677,19123
19.49488,20685
19.50300,19992
19.51113,17775
19.51925,14635
19.52738,18880
19.53550,18452
19.54362,19084
19.55175,17761
19.55987,24909
19.56800,22270
19.57612,21053
19.58423,21295
19.59237,20451
19.60048,18087
19.60860,20251
19.61673,19870
19.62485,19118
19.63298,19105
19.64110,17628
19.64922,18196
19.65735,23031
19.66547,20359
19.67360,17738
19.68172,19505
19.68983,18652
19.69797,18262
19.70608,18784
19.71422,18694
19.72233,16762
19.73045,17884
19.73858,20434
19.74670,17640
19.75482,16698
19.76295,16267
19.77107,18589
19.77920,19351
19.78732,16884
19.79543,19312
19.80357,18055
19.81168,17978
19.81982,18148
19.82793,17227
19.83605,19022
19.84418,22401
19.85230,20006
19.86043,21712
19.86855,21104
19.87667,16947
19.88480,18288
19.89292,17463
19.90103,16889
19.90917,17585
19.91728,17087
19.92542,17988
19.93353,19791
19.94165,16154
19.94978,17807
19.95790,17542
19.96603,17384
19.97415,19729
19.98227,18291
19.99040,19179
19.99852,16958
20.00663,19017
20.01477,18699
20.02288,16062
20.03102,17620
20.03913,22037
20.04725,18094
20.05538,16208
20.06350,18726
20.07163,19016
20.07975,19450
20.08787,19916
20.09600,17418
20.10412,15663
20.11225,15661
20.12037,18775
20.12848,21509
20.13662,19012
20.14473,20551
20.15285,18182
20.16098,19500
20.16910,19524
20.17723,16883
20.18535,22860
20.19347,17836
20.20160,17231
20.20972,17887
20.21785,18118
20.22597,16904
20.23408,21500
20.24222,18346
20.25033,18882
20.25847,18844
20.26658,20710
20.27470,19707
20.28283,21756
20.29095,19362
20.29907,17547
20.30720,17813
20.31532,19759
20.32345,18398
20.33157,17755
20.33968,16551
20.34782,19651
20.35593,19038
20.36407,24253
20.37218,18599
20.38030,18832
20.38843,18795
20.39655,18840
20.40467,17263
20.41280,18349
20.42092,19971
20.42905,23076
20.43717,19574
20.44528,17258
20.45342,22428
20.46153,17295
20.46967,17854
20.47778,22719
20.48590,13958
20.49403,16622
20.50215,18970
20.51028,18758
20.51840,19805
20.52652,15622
20.53465,17720
20.54277,15182
20.55088,18138
20.55902,18374
20.56713,19438
20.57527,21804
20.58338,18450
20.59150,17157
20.59963,18699
20.60775,18253
20.61588,17661
20.62400,20095
20.63212,21139
20.64025,22151
20.64837,20487
20.65648,18929
20.66462,16858
20.67273,18954
20.68087,20301
20.68898,18589
20.69710,18004
20.70523,16701
20.71335,19017
20.72148,18180
20.72960,17490
20.73772,19190
20.74585,19723
20.75397,19497
20.76210,17166
20.77022,18271
20.77833,21574
20.78647,17341
20.79458,19713
20.80270,17290
20.81083,20688
20.81895,15948
20.82708,18342
20.83520,19417
20.84332,19390
20.85145,17394
20.85957,17839
20.86770,18652
20.87582,15735
20.88393,20114
20.89207,21459
20.90018,19618
20.90832,17569
20.91643,18383
20.92455,21456
20.93268,18946
20.94080,18865
20.94892,18118
20.95705,16365
20.96517,16711
20.97330,17308
20.98142,18977
20.98953,17867
20.99767,19259
21.00578,17152
21.01392,17510
21.02203,15885
21.03015,16973
21.03828,17926
21.04640,19370
21.05453,18162
21.06265,20073
21.07077,17488
21.07890,16368
21.08702,19159
21.09513,17139
21.10327,19389
21.11138,17380
21.11952,17625
21.12763,17199
21.13575,17902
21.14388,18515
21.15200,20077
21.16013,20287
21.16825,18662
21.17637,17295
21.18450,19016
21.19262,18995
21.20073,18211
21.20887,19833
21.21698,19072
21.22512,16788
21.23323,18476
21.24135,16404
21.24948,17989
21.25760,19515
21.26573,18393
21.27385,17770
21.28197,20133
21.29010,17418
21.29822,17031
21.30635,19022
21.31447,16201
21.32258,21207
21.33072,19124
21.33883,18090
21.34695,18583
21.35508,21068
21.36320,19085
21.37133,17900
21.37945,15735
21.38757,18234
21.39570,17220
21.40382,16322
21.41195,14969
21.42007,18573
21.42818,18079
21.43632,16884
21.44443,18216
21.45255,18796
21.46068,17270
21.46880,16949
21.47693,24170
21.48505,15431
21.49317,16957
21.50130,19648
21.50942,18371
21.51755,19082
21.52567,20825
21.53378,16382
21.54192,16286
21.55003,21335
21.55817,17903
21.56628,14720
21.57440,20482
21.58253,19360
21.59065,19194
21.59877,17635
21.60690,14331
21.61502,17241
21.62315,18092
21.63127,18460
21.63938,19378
21.64752,21475
21.65563,17775
21.66377,19341
21.67188,19679
21.68000,20438
21.68813,17307
21.69625,17291
21.70438,16163
21.71250,22597
21.72062,19775
21.72875,17794
21.73687,18207
21.74498,17564
21.75312,18029
21.76123,21034
21.76937,17350
21.77748,19262
21.78560,18818
21.79373,17996
21.80185,17853
21.80998,16651
21.81810,18226
21.82622,17042
21.83435,19170
21.84247,17715
21.85058,20579
21.85872,18613
21.86683,18185
21.87497,19981
21.88308,18722
21.89120,18562
21.89933,17260
21.90745,17671
21.91558,18234
21.92370,17507
21.93182,18996
21.93995,18068
21.94807,19214
21.95620,18429
21.96432,24302
21.97243,17901
21.98057,17889
21.98868,17936
21.99680,17147
22.00493,17992
22.01305,18912
22.02118,19323
22.02930,17209
22.03742,17636
22.04555,19611
22.05367,19532
22.06180,18483
22.06992,18080
22.07803,18415
22.08617,22535
22.09428,16828
22.10242,15767
22.11053,20609
22.11865,17064
22.12678,16694
22.13490,19883
22.14302,19531
22.15115,18025
22.15927,18570
22.16740,17490
22.17552,19066
22.18363,16934
22.19177,16311
22.19988,17323
22.20802,17209
22.21613,16200
22.22425,17313
22.23238,16699
22.24050,18931
22.24862,18148
22.25675,17998
22.26487,19464
22.27300,19864
22.28112,19390
22.28923,18846
22.29737,21536
22.30548,19229
22.31362,17771
22.32173,19581
22.32985,18199
22.33798,16100
22.34610,18390
22.35423,16759
22.36235,17788
22.37047,17513
22.37860,17228
22.38672,18973
22.39483,18410
22.40297,16386
22.41108,18168
22.41922,17784
22.42733,18713
22.43545,18058
22.44358,20742
22.45170,19753
22.45983,18990
22.46795,19387
22.47607,19478
22.48420,17500
22.49232,16005
22.50043,16571
22.50857,16558
22.51668,17340
22.52482,18029
22.53293,19355
22.54105,17907
22.54918,15788
22.55730,18166
22.56543,17644
22.57355,17055
22.58167,19099
22.58980,17041
22.59792,16807
22.60605,16921
22.61417,19298
22.62228,17471
22.63042,20734
22.63853,18895
22.64665,18793
22.65478,20280
22.66290,18203
22.67103,18802
22.67915,19200
22.68727,19788
22.69540,17304
22.70352,16849
22.71165,15978
22.71977,18975
22.72788,17899
22.73602,19421
22.74413,16968
22.75227,19270
22.76038,16382
22.76850,17220
22.77663,17548
22.78475,17664
22.79287,18493
22.80100,18523
22.80912,19069
22.81725,16034
22.82537,17232
22.83348,17564
22.84162,15487
22.84973,20239
22.85787,23434
22.86598,16445
22.87410,21464
22.88223,18312
22.89035,18915
22.89847,18146
22.90660,17456
22.91472,17823
22.92285,20666
22.93097,18154
22.93908,17378
22.94722,17094
22.95533,19853
22.96347,17118
22.97158,17229
22.97970,19058
22.98783,22380
22.99595,17288
23.00408,18732
23.01220,19877
23.02032,19205
23.02845,16870
23.03657,17647
23.04468,17031
23.05282,19507
23.06093,16622
23.06907,23148
23.07718,19986
23.08530,22792
23.09343,17196
23.10155,20441
23.10968,18691
23.11780,17891
23.12592,17116
23.13405,18752
23.14217,19751
23.15030,24187
23.15842,18128
23.16653,18972
23.17467,16780
23.18278,17733
23.19090,17451
23.19903,21185
23.20715,17148
23.21528,18617
23.22340,15590
23.23152,19501
23.23965,19257
23.24777,17223
23.25590,18610
23.26402,18355
23.27213,16673
23.28027,18217
23.28838,19201
23.29650,18487
23.30463,18618
23.31275,17892
23.32088,17394
23.32900,18029
23.33712,21034
23.34525,20027
23.35337,18216
23.36150,22221
23.36962,17494
23.37773,18918
23.38587,20035
23.39398,15775
23.40212,22482
23.41023,17420
23.41835,18945
23.42648,18822
23.43460,17298
23.44272,19012
23.45085,18148
23.45897,18211
23.46710,18787
23.47522,18322
23.48333,18647
23.49147,18960
23.49958,17779
23.50772,16661
23.51583,18381
23.52395,15497
23.53208,20639
23.54020,18384
23.54832,18755
23.55645,18754
23.56457,18949
23.57270,19483
23.58082,18938
23.58893,15585
23.59707,20551
23.60518,15578
23.61332,18386
23.62143,19641
23.62955,15361
23.63768,19880
23.64580,20897
23.65393,17301
23.66205,18756
23.67017,17145
23.67830,22134
23.68642,18744
23.69453,17620
23.70267,18811
23.71078,21748
23.71892,19884
23.72703,17120
23.73515,18468
23.74328,17072
23.75140,19449
23.75953,21652
23.76765,20167
23.77577,19033
23.78390,19743
23.79202,18041
23.80015,19281
23.80827,17302
23.81638,20662
23.82452,17526
23.83263,20387
23.84075,18634
23.84888,19317
23.85700,21064
23.86513,22098
23.87325,17043
23.88137,17491
23.88950,21709
23.89762,17959
23.90575,21046
23.91387,17616
23.92198,19282
23.93012,18881
23.93823,17034
23.94635,18317
23.95448,17116
23.96260,22162
23.97073,19003
23.97885,18228
23.98697,18285
23.99510,18799
24.00322,18122
24.01135,17675
24.01947,18162
24.02758,21324
24.03572,18993
24.04383,20365
24.05197,18901
24.06008,20662
24.06820,19764
24.07633,18220
24.08445,18787
24.09257,16463
24.10070,16563
24.10882,19350
24.11695,19241
24.12507,17472
24.13318,14630
24.14132,17293
24.14943,17084
24.15757,22252
24.16568,18709
24.17380,19264
24.18193,20164
24.19005,20273
24.19818,18604
24.20630,19202
24.21442,19544
24.22255,19056
24.23067,17094
24.23878,18131
24.24692,16548
24.25503,20141
24.26317,17946
24.27128,18622
24.27940,18274
24.28753,18897
24.29565,18919
24.30378,18786
24.31190,21307
24.32002,17338
24.32815,19968
24.33627,20196
24.34438,23086
24.35252,20396
24.36063,17046
24.36877,16574
24.37688,18870
24.38500,17112
24.39313,16038
24.40125,18071
24.40938,19167
24.41750,17013
24.42562,17638
24.43375,20447
24.44187,19013
24.45000,18428
24.45812,19532
24.46623,18268
24.47437,18901
24.48248,16677
24.49060,18547
24.49873,19305
24.50685,19309
24.51498,17265
24.52310,18820
24.53122,17955
24.53935,17018
24.54747,18256
24.55560,18909
24.56372,18141
24.57183,18768
24.57997,19928
24.58808,18926
24.59622,21485
24.60433,19129
24.61245,19186
24.62058,18973
24.62870,17895
24.63682,17304
24.64495,18403
24.65307,17286
24.66120,18202
24.66932,19115
24.67743,16748
24.68557,17881
24.69368,18978
24.70182,22917
24.70993,17582
24.71805,17887
24.72618,20616
24.73430,18262
24.74242,20940
24.75055,19284
24.75867,19189
24.76680,19620
24.77492,19789
24.78303,18314
24.79117,24479
24.79928,18359
24.80742,19942
24.81553,21024
24.82365,21738
24.83178,19785
24.83990,14610
24.84803,20238
24.85615,18522
24.86427,18478
24.87240,20525
24.88052,18266
24.88863,19870
24.89677,19327
24.90488,19632
24.91302,16798
24.92113,23040
24.92925,19471
24.93738,17889
24.94550,16521
24.95363,18813
24.96175,21145
24.96987,23330
24.97800,18852
24.98612,20635
24.99423,19409
25.00237,19474
25.01048,18188
25.01862,20273
25.02673,18445
25.03485,17413
25.04298,19149
25.05110,19979
25.05923,20901
25.06735,19354
25.07547,17574
25.08360,17911
25.09172,18407
25.09985,16070
25.10797,20533
25.11608,17685
25.12422,17424
25.13233,17374
25.14045,19994
25.14858,18592
25.15670,17285
25.16483,18645
25.17295,17764
25.18107,20455
25.18920,24156
25.19732,18736
25.20545,19498
25.21357,19806
25.22168,19897
25.22982,19875
25.23793,17179
25.24607,17500
25.25418,19142
25.26230,20488
25.27043,19440
25.27855,19682
25.28667,23772
25.29480,18610
25.30292,18140
25.31105,18800
25.31917,16066
25.32728,19505
25.33542,19913
25.34353,18246
25.35167,18225
25.35978,20811
25.36790,20833
25.37603,23049
25.38415,19034
25.39227,20844
25.40040,19678
25.40852,17930
25.41665,21117
25.42477,18987
25.43288,18325
25.44102,17770
25.44913,19661
25.45727,22754
25.46538,22772
25.47350,18538
25.48163,18999
25.48975,17193
25.49788,18927
25.50600,18311
25.51412,18854
25.52225,17583
25.53037,20537
25.53848,17993
25.54662,22114
25.55473,20861
25.56287,17675
25.57098,17738
25.57910,19091
25.58723,18830
25.59535,20414
25.60348,20702
25.61160,18910
25.61972,21216
25.62785,20037
25.63597,20670
25.64410,21703
25.65222,18602
25.66033,17356
25.66847,19261
25.67658,17565
25.68470,18433
25.69283,16678
25.70095,18418
25.70908,18425
25.71720,18061
25.72532,20561
25.73345,18980
25.74157,18717
25.74970,16214
25.75782,18958
25.76593,21016
25.77407,20054
25.78218,24132
25.79030,19960
25.79843,18002
25.80655,18196
25.81468,19781
25.82280,17723
25.83092,18813
25.83905,21485
25.84717,20081
25.85530,16710
25.86342,18099
25.87153,16518
25.87967,18020
25.88778,16526
25.89592,23704
25.90403,16306
25.91215,17049
25.92028,19411
25.92840,21103
25.93652,19621
25.94465,16566
25.95277,20971
25.96090,18520
25.96902,20143
25.97713,20096
25.98527,18962
25.99338,19764
26.00152,19058
26.00963,17884
26.01775,20301
26.02588,18011
26.03400,20201
26.04212,17111
26.05025,20532
26.05837,20982
26.06650,21523
26.07462,18956
26.08273,21773
26.09087,21098
26.09898,17315
26.10712,18793
26.11523,16828
26.12335,20050
26.13148,18987
26.13960,17534
26.14773,19228
26.15585,17591
26.16397,18742
26.17210,18555
26.18022,22268
26.18833,17172
26.19647,19389
26.20458,18959
26.21272,20086
26.22083,19833
26.22895,18907
26.23708,20185
26.24520,19593
26.25333,24874
26.26145,23786
26.26957,21106
26.27770,20334
26.28582,19825
26.29395,18863
26.30207,20329
26.31018,20636
26.31832,21135
26.32643,23371
26.33455,21654
26.34268,19411
26.35080,22449
26.35893,19854
26.36705,19947
26.37517,23259
26.38330,18856
26.39142,18638
26.39955,21974
26.40767,19366
26.41578,20117
26.42392,19514
26.43203,17335
26.44017,19417
26.44828,19790
26.45640,21183
26.46453,19124
26.47265,17820
26.48077,16318
26.48890,18833
26.49702,19290
26.50515,18708
26.51327,21486
26.52138,19260
26.52952,18350
26.53763,19832
26.54577,18265
26.55388,18052
26.56200,20786
26.57013,21233
26.57825,20497
26.58637,20595
26.59450,19677
26.60262,19231
26.61075,19880
26.61887,19592
26.62698,21498
26.63512,19150
26.64323,20173
26.65137,18470
26.65948,20220
26.66760,17034
26.67573,18161
26.68385,22754
26.69198,19843
26.70010,19251
26.70822,20341
26.71635,19158
26.72447,21141
26.73258,19836
26.74072,20333
26.74883,20499
26.75697,18760
26.76508,20361
26.77320,20615
26.78133,21766
26.78945,17949
26.79758,19880
26.80570,20690
26.81382,18436
26.82195,16645
26.83007,23653
26.83818,20250
26.84632,20009
26.85443,19818
26.86257,20982
26.87068,19388
26.87880,20686
26.88693,20019
26.89505,20363
26.90318,19750
26.91130,19042
26.91942,20650
26.92755,19469
26.93567,19880
26.94380,19111
26.95192,20098
26.96003,15990
26.96817,20235
26.97628,19158
26.98440,19913
26.99253,20308
27.00065,19561
27.00878,20062
27.01690,22381
27.02502,20840
27.03315,21923
27.04127,16840
27.04940,18899
27.05752,20340
27.06563,21627
27.07377,18846
27.08188,19432
27.09002,18859
27.09813,18618
27.10625,20315
27.11438,20523
27.12250,20097
27.13062,18044
27.13875,22134
27.14687,23685
27.15500,19926
27.16312,19742
27.17123,21753
27.17937,19851
27.18748,19294
27.19562,19457
27.20373,21519
27.21185,19313
27.21998,18851
27.22810,19133
27.23622,18887
27.24435,18762
27.25247,20917
27.26060,18573
27.26872,18995
27.27683,18042
27.28497,19376
27.29308,21843
27.30122,20705
27.30933,17263
27.31745,21426
27.32558,19536
27.33370,16167
27.34183,19073
27.34995,21463
27.35807,20644
27.36620,19950
27.37432,19523
27.38243,21380
27.39057,20628
27.39868,21199
27.40682,20352
27.41493,17277
27.42305,18829
27.43118,20988
27.43930,20382
27.44743,19896
27.45555,20396
27.46367,20896
27.47180,19157
27.47992,21115
27.48805,19640
27.49617,17768
27.50428,22185
27.51242,21170
27.52053,19915
27.52865,19223
27.53678,20521
27.54490,20291
27.55303,17865
27.56115,21555
27.56927,20166
27.57740,20240
27.58552,21299
27.59365,19223
27.60177,19166
27.60988,19786
27.61802,24289
27.62613,20311
27.63425,19312
27.64238,19473
27.65050,19746
27.65863,19308
27.66675,20596
27.67487,23740
27.68300,24035
27.69112,22604
27.69925,21604
27.70737,19060
27.71548,17952
27.72362,19418
27.73173,19104
27.73987,19287
27.74798,18802
27.75610,19345
27.76423,21902
27.77235,19523
27.78047,20491
27.78860,22892
27.79672,19797
27.80485,25052
27.81297,17447
27.82108,22770
27.82922,21523
27.83733,20298
27.84547,19327
27.85358,19999
27.86170,17821
27.86983,19721
27.87795,22865
27.88607,24850
27.89420,23404
27.90232,19043
27.91045,20478
27.91857,25220
27.92668,20070
27.93482,20004
27.94293,20633
27.95107,19631
27.95918,20376
27.96730,22168
27.97543,20592
27.98355,19624
27.99168,21862
27.99980,18726
28.00792,19637
28.01605,17783
28.02417,17005
28.03228,19141
28.04042,18195
28.04853,18209
28.05667,21384
28.06478,18454
28.07290,20546
28.08103,18349
28.08915,19770
28.09728,17250
28.10540,19100
28.11352,22628
28.12165,18236
28.12977,19777
28.13790,20917
28.14602,18265
28.15413,18496
28.16227,21042
28.17038,22461
28.17850,19634
28.18663,19321
28.19475,19125
28.20288,21459
28.21100,23337
28.21912,21052
28.22725,22098
28.23537,20657
28.24350,19012
28.25162,22424
28.25973,19295
28.26787,23405
28.27598,21677
28.28410,20840
28.29223,18267
28.30035,20118
28.30848,18314
28.31660,19629
28.32472,18909
28.33285,22192
28.34097,19716
28.34910,20653
28.35722,20947
28.36533,19495
28.37347,21905
28.38158,22921
28.38972,20522
28.39783,18846
28.40595,21165
28.41408,22337
28.42220,22097
28.43032,22398
28.43845,20413
28.44657,21746
28.45470,21577
28.46282,20859
28.47093,17942
28.47907,21765
28.48718,21392
28.49532,20449
28.50343,19326
28.51155,19183
28.51968,20068
28.52780,20620
28.53593,21216
28.54405,18439
28.55217,20280
28.56030,19075
28.56842,24783
28.57653,19667
28.58467,19198
28.59278,19972
28.60092,22950
28.60903,21250
28.61715,18570
28.62528,21305
28.63340,21018
28.64153,22490
28.64965,20386
28.65777,24325
28.66590,20568
28.67402,23224
28.68213,24222
28.69027,24650
28.69838,20972
28.70652,20066
28.71463,21979
28.72275,22778
28.73088,23072
28.73900,22368
28.74713,20674
28.75525,18648
28.76337,20680
28.77150,22009
28.77962,19055
28.78775,21876
28.79587,20346
28.80398,22469
28.81212,25759
28.82023,20857
28.82835,19521
28.83648,24539
28.84460,19706
28.85273,20155
28.86085,24379
28.86897,27375
28.87710,19784
28.88522,22375
28.89335,22888
28.90147,21212
28.90958,18746
28.91772,20053
28.92583,20294
28.93395,21001
28.94208,20835
28.95020,20225
28.95833,20359
28.96645,21299
28.97457,22547
28.98270,22929
28.99082,23016
28.99895,23262
29.00707,20441
29.01518,21002
29.02332,21650
29.03143,23415
29.03957,23475
29.04768,23224
29.05580,21627
29.06393,23135
29.07205,21265
29.08017,21052
29.08830,24960
29.09642,19775
29.10455,22526
29.11267,23285
29.12078,22384
29.12892,24169
29.13703,22266
29.14517,26399
29.15328,22624
29.16140,21150
29.16953,21477
29.17765,25696
29.18578,23209
29.19390,22180
29.20202,25779
29.21015,21035
29.21827,22149
29.22638,19006
29.23452,24489
29.24263,24389
29.25077,22787
29.25888,23286
29.26700,20532
29.27513,22304
29.28325,20874
29.29138,25693
29.29950,21129
29.30762,22583
29.31575,19179
29.32387,22720
29.33198,22557
29.34012,24117
29.34823,20954
29.35637,25275
29.36448,23432
29.37260,23995
29.38073,23528
29.38885,21356
29.39698,20381
29.40510,24754
29.41322,27239
29.42135,22926
29.42947,24710
29.43760,24013
29.44572,19702
29.45383,19977
29.46197,22837
29.47008,22603
29.47820,22117
29.48633,20961
29.49445,23132
29.50258,21620
29.51070,23945
29.51882,24445
29.52695,21218
29.53507,22051
29.54320,23783
29.55132,24197
29.55943,23106
29.56757,20659
29.57568,23254
29.58382,22826
29.59193,21161
29.60005,23861
29.60818,19207
29.61630,21775
29.62442,22393
29.63255,22755
29.64067,22145
29.64880,23216
29.65692,23707
29.66503,22996
29.67317,24813
29.68128,21869
29.68942,21946
29.69753,21889
29.70565,21452
29.71378,20530
29.72190,24129
29.73002,24801
29.73815,23106
29.74627,28353
29.75440,24230
29.76252,20692
29.77063,23069
29.77877,25595
29.78688,21521
29.79502,22636
29.80313,29896
29.81125,20445
29.81938,25925
29.82750,27840
29.83563,24241
29.84375,24986
29.85187,23075
29.86000,25082
29.86812,25124
29.87623,25428
29.88437,25512
29.89248,26453
29.90062,23220
29.90873,22879
29.91685,26772
29.92498,23317
29.93310,22866
29.94123,22511
29.94935,25255
29.95747,22872
29.96560,23046
29.97372,23958
29.98185,25561
29.98997,25869
29.99808,23105
30.00622,22850
30.01433,24580
30.02245,23361
30.03058,23927
30.03870,28453
30.04683,23454
30.05495,24388
30.06307,23964
30.07120,24033
30.07932,25531
30.08745,29569
30.09557,22342
30.10368,21304
30.11182,23390
30.11993,21929
30.12805,21814
30.13618,22983
30.14430,31742
30.15243,23297
30.16055,24662
30.16867,25613
30.17680,26614
30.18492,22424
30.19305,24093
30.20117,25910
30.20928,23681
30.21742,22720
30.22553,26679
30.23367,25140
30.24178,25147
30.24990,24327
30.25803,24171
30.26615,23687
30.27427,23863
30.28240,28006
30.29052,24189
30.29865,24882
30.30677,22116
30.31488,24212
30.32302,24277
30.33113,22520
30.33927,22935
30.34738,23519
30.35550,21211
30.36363,21886
30.37175,23775
30.37987,27149
30.38800,25359
30.39612,25477
30.40425,24896
30.41237,22155
30.42048,20725
30.42862,23620
30.43673,28412
30.44487,25383
30.45298,23325
30.46110,26436
30.46923,23106
30.47735,26191
30.48548,27467
30.49360,25580
30.50172,25325
30.50985,27331
30.51797,27116
30.52608,25863
30.53422,23093
30.54233,25523
30.55047,24147
30.55858,26042
30.56670,26157
30.57483,25591
30.58295,26248
30.59108,26023
30.59920,23905
30.60732,24814
30.61545,25416
30.62357,24744
30.63170,23983
30.63982,26861
30.64793,24459
30.65607,25112
30.66418,25373
30.67230,23868
30.68043,24278
30.68855,24714
30.69668,26039
30.70480,23563
30.71292,25271
30.72105,27233
30.72917,21162
30.73730,28187
30.74542,26122
30.75353,25200
30.76167,28720
30.76978,24508
30.77790,29324
30.78603,25960
30.79415,25386
30.80228,25420
30.81040,28539
30.81852,22757
30.82665,25282
30.83477,27112
30.84290,23041
30.85102,29197
30.85913,30960
30.86727,25231
30.87538,23568
30.88352,27166
30.89163,25197
30.89975,21561
30.90788,26405
30.91600,23638
30.92412,26149
30.93225,27617
30.94037,26896
30.94850,26817
30.95662,23162
30.96473,24274
30.97287,22633
30.98098,25987
30.98912,25942
30.99723,26707
31.00535,26677
31.01348,32844
31.02160,24697
31.02973,23863
31.03785,23889
31.04597,26380
31.05410,26067
31.06222,27176
31.07033,25465
31.07847,27633
31.08658,26678
31.09472,27333
31.10283,26633
31.11095,25075
31.11908,25264
31.12720,24659
31.13533,24319
31.14345,23815
31.15157,26510
31.15970,28181
31.16782,27940
31.17593,25115
31.18407,24352
31.19218,26826
31.20032,23750
31.20843,28353
31.21655,25002
31.22468,27599
31.23280,25114
31.24093,26005
31.24905,26099
31.25717,24564
31.26530,24958
31.27342,26936
31.28155,29957
31.28967,27558
31.29778,25610
31.30592,25596
31.31403,24290
31.32215,29958
31.33028,24170
31.33840,26788
31.34653,27861
31.35465,30286
31.36277,23167
31.37090,23756
31.37902,24949
31.38715,26680
31.39527,25287
31.40338,26291
31.41152,26142
31.41963,26369
31.42775,25343
31.43588,24917
31.44400,27443
31.45213,29073
31.46025,30831
31.46837,27159
31.47650,24422
31.48462,27278
31.49275,27476
31.50087,24882
31.50898,30158
31.51712,25516
31.52523,32238
31.53337,25481
31.54148,23685
31.54960,26705
31.55773,25621
31.56585,24111
31.57397,23712
31.58210,26819
31.59022,26073
31.59835,26466
31.60647,25964
31.61458,26497
31.62272,25988
31.63083,23963
31.63897,27339
31.64708,25101
31.65520,26268
31.66333,26909
31.67145,25792
31.67958,26635
31.68770,27406
31.69582,29139
31.70395,28418
31.71207,27528
31.72018,25979
31.72832,25659
31.73643,24750
31.74457,25420
31.75268,25909
31.76080,27644
31.76893,28035
31.77705,26760
31.78518,25726
31.79330,27492
31.80142,24832
31.80955,24604
31.81767,28180
31.82580,28750
31.83392,26878
31.84203,27543
31.85017,25803
31.85828,27962
31.86640,26900
31.87453,29031
31.88265,28677
31.89078,29886
31.89890,28761
31.90702,29046
31.91515,27040
31.92327,25825
31.93140,30239
31.93952,24976
31.94763,29432
31.95577,25974
31.96388,31451
31.97200,27878
31.98013,27626
31.98825,27115
31.99638,33143
32.00450,28875
32.01262,28692
32.02075,28975
32.02887,28611
32.03700,25985
32.04512,27070
32.05323,28347
32.06137,29233
32.06948,29335
32.07762,30166
32.08573,27619
32.09385,31427
32.10198,26934
32.11010,29850
32.11822,27193
32.12635,30427
32.13447,31171
32.14260,29543
32.15072,30450
32.15883,29306
32.16697,28307
32.17508,26762
32.18322,28261
32.19133,23340
32.19945,26004
32.20758,30050
32.21570,30151
32.22382,26425
32.23195,28692
32.24007,28165
32.24820,29450
32.25632,24078
32.26443,28378
32.27257,27315
32.28068,26570
32.28882,28760
32.29693,29361
32.30505,31295
32.31318,27769
32.32130,26317
32.32943,29467
32.33755,29609
32.34567,26384
32.35380,29350
32.36192,28513
32.37003,28382
32.37817,28644
32.38628,28980
32.39442,27286
32.40253,28428
32.41065,28570
32.41878,29254
32.42690,28338
32.43503,26055
32.44315,29790
32.45127,29560
32.45940,31056
32.46752,31017
32.47565,29376
32.48377,29801
32.49188,28265
32.50002,28655
32.50813,31692
32.51625,33023
32.52438,28381
32.53250,29250
32.54063,27800
32.54875,27261
32.55687,24901
32.56500,29865
32.57312,31061
32.58125,34617
32.58937,27758
32.59748,30077
32.60562,28252
32.61373,29688
32.62185,28922
32.62998,28914
32.63810,29197
32.64623,32407
32.65435,28174
32.66247,28429
32.67060,27939
32.67872,29461
32.68685,32454
32.69497,31385
32.70308,28389
32.71122,30719
32.71933,30185
32.72747,28475
32.73558,27367
32.74370,28710
32.75183,27403
32.75995,28650
32.76807,32840
32.77620,29620
32.78432,29463
32.79245,29475
32.80057,26918
32.80868,32424
32.81682,35243
32.82493,29692
32.83307,26499
32.84118,27662
32.84930,30508
32.85743,28509
32.86555,31292
32.87368,32351
32.88180,30033
32.88992,30774
32.89805,31776
32.90617,27337
32.91428,27446
32.92242,29937
32.93053,31949
32.93867,31620
32.94678,29722
32.95490,32973
32.96303,32092
32.97115,31128
32.97928,31203
32.98740,33899
32.99552,31940
33.00365,35527
33.01177,32924
33.01988,33027
33.02802,32687
33.03613,32669
33.04427,32277
33.05238,33884
33.06050,34524
33.06863,36663
33.07675,35158
33.08488,36827
33.09300,33732
33.10112,37072
33.10925,38751
33.11737,39162
33.12550,37702
33.13362,35513
33.14173,38474
33.14987,39010
33.15798,37322
33.16610,36643
33.17423,39395
33.18235,35867
33.19048,39187
33.19860,35501
33.20672,40301
33.21485,39752
33.22297,39523
33.23110,39312
33.23922,35865
33.24733,38474
33.25547,37754
33.26358,41566
33.27170,40432
33.27983,38697
33.28795,35305
33.29608,40222
33.30420,38147
33.31232,35717
33.32045,40061
33.32857,37326
33.33670,41093
33.34482,37495
33.35293,38101
33.36107,39623
33.36918,37203
33.37732,34663
33.38543,36399
33.39355,39684
33.40168,37876
33.40980,36346
33.41792,35738
33.42605,33513
33.43417,38498
33.44230,35579
33.45042,39643
33.45853,37180
33.46667,36955
33.47478,37202
33.48292,38981
33.49103,36968
33.49915,34760
33.50728,32943
33.51540,33817
33.52353,34461
33.53165,34854
33.53977,36913
33.54790,36311
33.55602,36057
33.56413,37920
33.57227,30764
33.58038,35938
33.58852,35036
33.59663,37444
33.60475,33190
33.61288,34483
33.62100,37916
33.62913,34805
33.63725,34316
33.64537,31126
33.65350,31951
33.66162,32066
33.66973,34542
33.67787,37022
33.68598,35135
33.69412,33013
33.70223,33566
33.71035,36278
33.71848,35041
33.72660,33070
33.73473,36209
33.74285,32811
33.75097,36878
33.75910,37691
33.76722,34716
33.77535,36252
33.78347,33921
33.79158,34150
33.79972,31493
33.80783,33082
33.81595,32505
33.82408,38400
33.83220,37291
33.84033,33884
33.84845,33303
33.85657,36845
33.86470,33631
33.87282,34597
33.88095,35356
33.88907,33925
33.89718,35354
33.90532,32696
33.91343,40938
33.92157,41532
33.92968,41057
33.93780,40549
33.94593,35732
33.95405,39429
33.96217,35672
33.97030,37826
33.97842,39307
33.98655,39447
33.99467,35943
34.00278,39765
34.01092,40213
34.01903,42352
34.02717,42293
34.03528,39659
34.04340,41030
34.05153,41782
34.05965,43531
34.06777,39561
34.07590,43423
34.08402,41800
34.09215,43846
34.10027,44373
34.10838,43838
34.11652,43425
34.12463,39331
34.13277,40199
34.14088,42566
34.14900,40032
34.15713,37875
34.16525,41948
34.17338,41311
34.18150,41131
34.18962,40272
34.19775,37644
34.20587,37469
34.21398,38600
34.22212,42665
34.23023,42213
34.23837,36031
34.24648,39509
34.25460,39403
34.26273,39689
34.27085,38076
34.27898,41074
34.28710,36773
34.29522,38710
34.30335,36530
34.31147,37924
34.31960,35372
34.32772,39928
34.33583,36730
34.34397,38245
34.35208,35282
34.36020,35682
34.36833,35147
34.37645,31942
34.38458,36483
34.39270,40023
34.40082,37018
34.40895,35553
34.41707,36827
34.42520,33950
34.43332,36551
34.44143,35745
34.44957,38135
34.45768,34725
34.46580,37115
34.47393,36516
34.48205,35171
34.49018,37637
34.49830,35197
34.50642,37516
34.51455,36186
34.52267,37261
34.53080,38103
34.53892,34676
34.54703,35227
34.55517,35372
34.56328,37439
34.57142,39383
34.57953,38248
34.58765,33892
34.59578,33367
34.60390,38359
34.61202,37384
34.62015,34536
34.62827,35161
34.63640,36822
34.64452,37545
34.65263,38374
34.66077,37268
34.66888,37307
34.67702,37481
34.68513,36525
34.69325,39861
34.70138,39080
34.70950,36575
34.71762,37860
34.72575,36695
34.73387,36670
34.74200,37721
34.75012,41231
34.75823,37229
34.76637,39859
34.77448,38786
34.78262,40471
34.79073,41488
34.79885,46204
34.80698,42933
34.81510,37706
34.82323,38997
34.83135,41430
34.83947,40064
34.84760,39435
34.85572,38031
34.86383,40463
34.87197,40522
34.88008,38059
34.88822,38527
34.89633,40492
34.90445,37504
34.91258,39834
34.92070,38105
34.92883,45764
34.93695,40679
34.94507,42424
34.95320,42850
34.96132,42161
34.96945,37412
34.97757,43857
34.98568,37228
34.99382,37849
35.00193,42055
35.01005,41207
35.01818,39857
35.02630,39117
35.03443,38121
35.04255,39345
35.05067,38231
35.05880,44142
35.06692,42725
35.07505,42305
35.08317,39117
35.09128,43366
35.09942,41257
35.10753,38920
35.11565,38834
35.12378,43523
35.13190,44544
35.14003,39017
35.14815,39078
35.15627,41353
35.16440,41064
35.17252,42363
35.18065,40739
35.18877,40402
35.19688,45315
35.20502,41914
35.21313,41653
35.22127,38805
35.22938,37509
35.23750,41310
35.24563,38740
35.25375,37167
35.26187,38360
35.27000,33570
35.27812,37498
35.28625,41123
35.29437,38137
35.30248,46859
35.31062,42480
35.31873,41738
35.32687,43960
35.33498,38214
35.34310,40655
35.35123,42627
35.35935,39469
35.36748,39394
35.37560,43777
35.38372,41812
35.39185,41580
35.39997,43234
35.40808,39159
35.41622,45994
35.42433,42156
35.43247,40900
35.44058,42903
35.44870,42389
35.45683,39436
35.46495,42344
35.47308,44895
35.48120,45980
35.48932,40988
35.49745,43473
35.50557,40991
35.51368,43320
35.52182,41342
35.52993,42612
35.53807,45414
35.54618,42434
35.55430,43239
35.56243,41602
35.57055,41119
35.57868,41727
35.58680,40787
35.59492,41382
35.60305,44487
35.61117,39109
35.61930,44434
35.62742,44621
35.63553,41599
35.64367,40477
35.65178,44520
35.65990,44356
35.66803,45011
35.67615,41533
35.68428,45227
35.69240,45676
35.70052,49056
35.70865,44918
35.71677,42730
35.72490,42112
35.73302,45405
35.74113,43520
35.74927,46496
35.75738,46694
35.76550,43993
35.77363,45216
35.78175,47945
35.78988,47637
35.79800,48105
35.80612,50307
35.81425,53765
35.82237,51639
35.83050,55581
35.83862,59756
35.84673,58314
35.85487,63803
35.86298,62986
35.87112,61201
35.87923,69977
35.88735,64208
35.89548,69286
35.90360,66537
35.91172,71434
35.91985,70920
35.92797,69751
35.93610,71886
35.94422,69333
35.95233,68881
35.96047,66746
35.96858,66760
35.97672,66915
35.98483,64879
35.99295,65907
36.00108,61821
36.00920,57458
36.01733,56687
36.02545,52541
36.03357,55408
36.04170,54753
36.04982,52229
36.05793,48646
36.06607,52106
36.07418,46340
36.08232,46550
36.09043,48790
36.09855,51563
36.10668,47859
36.11480,51693
36.12293,46004
36.13105,45797
36.13917,47847
36.14730,50564
36.15542,47564
36.16355,46943
36.17167,44754
36.17978,48477
36.18792,49006
36.19603,45405
36.20415,48878
36.21228,50467
36.22040,47907
36.22853,45703
36.23665,49782
36.24477,50764
36.25290,50873
36.26102,44687
36.26915,49138
36.27727,51044
36.28538,50342
36.29352,49492
36.30163,46176
36.30975,50271
36.31788,49111
36.32600,44425
36.33413,50444
36.34225,48315
36.35037,50711
36.35850,50271
36.36662,52934
36.37475,49732
36.38287,52750
36.39098,48320
36.39912,52674
36.40723,47811
36.41537,48980
36.42348,57293
36.43160,48006
36.43973,49471
36.44785,50606
36.45597,49423
36.46410,50859
36.47222,50255
36.48035,48922
36.48847,56203
36.49658,49763
36.50472,50828
36.51283,50025
36.52097,49948
36.52908,49450
36.53720,53415
36.54533,48637
36.55345,51021
36.56157,51623
36.56970,57241
36.57782,51081
36.58595,58369
36.59407,55358
36.60218,55318
36.61032,51619
36.61843,51980
36.62657,51082
36.63468,53370
36.64280,53615
36.65093,53800
36.65905,59255
36.66718,51299
36.67530,50849
36.68342,53722
36.69155,54685
36.69967,50533
36.70778,52154
36.71592,53063
36.72403,53839
36.73217,50198
36.74028,50079
36.74840,49509
36.75653,53024
36.76465,53441
36.77278,49615
36.78090,54891
36.78902,52820
36.79715,52105
36.80527,57272
36.81340,55011
36.82152,51676
36.82963,55498
36.83777,56862
36.84588,53286
36.85400,53290
36.86213,54033
36.87025,55583
36.87838,54011
36.88650,54263
36.89462,55094
36.90275,57128
36.91087,57238
36.91900,58606
36.92712,52258
36.93523,52977
36.94337,55380
36.95148,52524
36.95960,57254
36.96773,56199
36.97585,54262
36.98398,57287
36.99210,52553
37.00022,55463
37.00835,55787
37.01647,55079
37.02460,58081
37.03272,55808
37.04083,53737
37.04897,55348
37.05708,55101
37.06522,58812
37.07333,56154
37.08145,52646
37.08958,59427
37.09770,59800
37.10582,55507
37.11395,59495
37.12207,56196
37.13020,57283
37.13832,60256
37.14643,61256
37.15457,61634
37.16268,59263
37.17082,60214
37.17893,56676
37.18705,56607
37.19518,56209
37.20330,57892
37.21143,55542
37.21955,56089
37.22767,58741
37.23580,57327
37.24392,56316
37.25203,56344
37.26017,58561
37.26828,57873
37.27642,61435
37.28453,57367
37.29265,58635
37.30078,62796
37.30890,57392
37.31703,62541
37.32515,57791
37.33327,59710
37.34140,57820
37.34952,60930
37.35763,58527
37.36577,57381
37.37388,59928
37.38202,58202
37.39013,58411
37.39825,62328
37.40638,56598
37.41450,57619
37.42263,60808
37.43075,58829
37.43887,61995
37.44700,61257
37.45512,58810
37.46325,60893
37.47137,60699
37.47948,64490
37.48762,58207
