Z:\data\JTB-E02\BACandBLUE\JTB-E02-197-07.D Thu Feb 21 10:34:26 2019
Start of data points
2.09527,81663
2.10338,80187
2.11152,83733
2.11963,80121
2.12775,75492
2.13588,77119
2.14400,71400
2.15213,72592
2.16025,76972
2.16837,71302
2.17650,69625
2.18462,67595
2.19273,69619
2.20087,64987
2.20898,65436
2.21712,62316
2.22523,57171
2.23335,63875
2.24148,64275
2.24960,61004
2.25773,62741
2.26585,63666
2.27397,208770
2.28210,1387310
2.29022,2427871
2.29835,1714929
2.30647,886054
2.31458,610642
2.32272,487240
2.33083,428712
2.33895,357874
2.34708,319202
2.35520,273222
2.36333,246133
2.37145,221599
2.37957,203764
2.38770,201629
2.39582,203341
2.40395,187957
2.41207,190784
2.42018,187406
2.42832,206199
2.43643,208017
2.44455,175207
2.45268,175443
2.46080,179284
2.46893,163360
2.47705,148334
2.48517,147876
2.49330,152653
2.50142,149415
2.50955,144846
2.51767,135022
2.52578,137911
2.53392,141846
2.54203,134569
2.55017,145708
2.55828,152965
2.56640,152580
2.57453,140137
2.58265,133182
2.59077,125850
2.59890,121539
2.60702,127256
2.61515,125448
2.62327,133722
2.63138,135606
2.63952,132429
2.64763,121428
2.65577,123025
2.66388,116013
2.67200,123332
2.68013,116027
2.68825,112146
2.69637,119388
2.70450,110262
2.71262,106252
2.72075,113135
2.72887,104723
2.73698,107523
2.74512,109220
2.75323,105190
2.76137,112119
2.76948,101725
2.77760,97498
2.78573,102685
2.79385,98938
2.80198,98162
2.81010,99716
2.81822,105862
2.82635,113661
2.83447,100936
2.84258,102159
2.85072,99775
2.85883,100888
2.86697,107270
2.87508,104184
2.88320,109145
2.89133,104778
2.89945,106321
2.90758,104463
2.91570,97029
2.92382,101519
2.93195,95694
2.94007,92564
2.94820,94101
2.95632,92422
2.96443,93580
2.97257,89211
2.98068,90172
2.98880,93271
2.99693,92353
3.00505,93996
3.01318,94632
3.02130,95830
3.02942,101053
3.03755,92285
3.04567,93831
3.05380,91848
3.06192,91976
3.07003,87050
3.07817,92225
3.08628,91804
3.09440,91917
3.10253,83847
3.11065,93532
3.11878,102912
3.12690,111236
3.13502,109971
3.14315,104555
3.15127,90618
3.15940,91132
3.16752,91960
3.17563,85290
3.18377,87744
3.19188,90629
3.20002,81517
3.20813,91425
3.21625,83736
3.22438,82582
3.23250,76028
3.24062,85743
3.24875,81487
3.25687,81172
3.26500,78520
3.27312,82635
3.28123,77154
3.28937,88155
3.29748,160163
3.30562,683476
3.31373,2504945
3.32185,5717392
3.32998,7902119
3.33810,7463686
3.34623,5643128
3.35435,4008583
3.36247,2932942
3.37060,2238889
3.37872,1759199
3.38683,1411166
3.39497,1207008
3.40308,1034659
3.41122,928834
3.41933,825457
3.42745,764320
3.43558,718946
3.44370,676070
3.45183,651607
3.45995,632775
3.46807,621832
3.47620,589418
3.48432,575933
3.49243,571631
3.50057,532119
3.50868,528883
3.51682,491373
3.52493,472829
3.53305,444032
3.54118,416579
3.54930,399503
3.55743,386221
3.56555,363381
3.57367,361990
3.58180,345952
3.58992,343335
3.59805,341869
3.60617,339194
3.61428,329477
3.62242,320193
3.63053,327289
3.63865,313788
3.64678,316695
3.65490,311319
3.66303,300540
3.67115,292750
3.67927,297427
3.68740,285055
3.69552,287878
3.70365,268129
3.71177,271442
3.71988,270550
3.72802,262167
3.73613,264021
3.74425,251669
3.75238,250761
3.76050,249898
3.76863,241429
3.77675,247509
3.78487,230472
3.79300,237844
3.80112,235033
3.80925,234644
3.81737,235374
3.82548,228774
3.83362,234224
3.84173,232079
3.84987,227778
3.85798,225465
3.86610,226533
3.87423,229299
3.88235,221751
3.89047,207642
3.89860,212519
3.90672,208297
3.91485,204239
3.92297,209169
3.93108,197518
3.93922,202752
3.94733,205335
3.95547,195523
3.96358,195130
3.97170,195910
3.97983,196566
3.98795,194687
3.99608,192917
4.00420,193871
4.01232,200601
4.02045,189268
4.02857,184209
4.03668,197696
4.04482,188496
4.05293,192952
4.06107,183924
4.06918,186514
4.07730,182577
4.08543,184846
4.09355,180632
4.10168,179835
4.10980,173770
4.11792,177391
4.12605,172997
4.13417,179359
4.14228,177187
4.15042,177898
4.15853,189142
4.16667,191868
4.17478,196422
4.18290,184843
4.19103,177808
4.19915,176886
4.20728,179419
4.21540,160471
4.22352,170620
4.23165,163431
4.23977,175503
4.24790,179730
4.25602,180115
4.26413,177489
4.27227,171309
4.28038,171524
4.28850,166548
4.29663,162619
4.30475,165696
4.31288,162103
4.32100,162538
4.32912,170132
4.33725,169769
4.34537,172750
4.35350,170390
4.36162,164055
4.36973,167203
4.37787,161456
4.38598,166545
4.39412,170987
4.40223,166463
4.41035,161423
4.41848,157067
4.42660,153776
4.43472,159481
4.44285,161265
4.45097,155330
4.45910,160949
4.46722,156184
4.47533,148662
4.48347,149457
4.49158,155328
4.49972,142808
4.50783,153734
4.51595,148510
4.52408,152497
4.53220,146451
4.54032,148876
4.54845,151563
4.55657,148411
4.56470,140650
4.57282,151779
4.58093,145947
4.58907,139560
4.59718,140428
4.60532,143016
4.61343,152054
4.62155,147147
4.62968,146627
4.63780,138964
4.64593,142775
4.65405,145848
4.66217,139080
4.67030,136337
4.67842,140902
4.68653,135318
4.69467,134941
4.70278,141012
4.71092,137340
4.71903,141602
4.72715,133128
4.73528,138547
4.74340,137118
4.75153,139731
4.75965,135109
4.76777,142709
4.77590,142946
4.78402,134957
4.79213,135907
4.80027,136976
4.80838,133387
4.81652,133516
4.82463,132735
4.83275,131241
4.84088,133680
4.84900,129779
4.85713,127851
4.86525,135476
4.87337,139912
4.88150,133371
4.88962,138234
4.89775,132681
4.90587,133263
4.91398,126620
4.92212,135726
4.93023,133552
4.93835,126305
4.94648,145894
4.95460,226900
4.96273,526129
4.97085,1216559
4.97897,2179150
4.98710,3011450
4.99522,3073174
5.00335,2550457
5.01147,1900958
5.01958,1356217
5.02772,1021446
5.03583,846800
5.04397,706859
5.05208,645021
5.06020,598963
5.06833,569420
5.07645,547326
5.08457,498761
5.09270,489854
5.10082,459842
5.10895,430135
5.11707,402460
5.12518,373430
5.13332,367211
5.14143,351406
5.14957,352704
5.15768,335235
5.16580,330834
5.17393,327315
5.18205,335622
5.19018,313769
5.19830,314289
5.20642,315044
5.21455,306690
5.22267,300239
5.23078,295899
5.23892,295111
5.24703,290398
5.25517,298178
5.26328,289719
5.27140,277589
5.27953,270597
5.28765,260033
5.29578,250668
5.30390,252293
5.31202,243918
5.32015,246045
5.32827,241095
5.33638,234520
5.34452,234455
5.35263,228908
5.36077,235252
5.36888,231099
5.37700,229800
5.38513,219486
5.39325,225564
5.40138,222238
5.40950,219136
5.41762,224898
5.42575,211306
5.43387,214303
5.44200,211221
5.45012,207639
5.45823,207604
5.46637,214953
5.47448,211282
5.48260,202864
5.49073,201085
5.49885,201399
5.50698,200637
5.51510,201864
5.52322,190885
5.53135,195061
5.53947,194616
5.54760,197365
5.55572,189645
5.56383,187158
5.57197,191742
5.58008,184863
5.58820,179070
5.59633,190349
5.60445,191969
5.61258,190848
5.62070,188068
5.62882,207463
5.63695,212493
5.64507,210003
5.65320,240897
5.66132,235235
5.66943,214515
5.67757,200310
5.68568,192449
5.69382,200370
5.70193,216785
5.71005,222463
5.71818,232833
5.72630,219438
5.73442,205758
5.74255,197456
5.75067,179588
5.75880,175812
5.76692,174744
5.77503,180507
5.78317,177708
5.79128,168785
5.79942,166583
5.80753,168975
5.81565,172205
5.82378,171169
5.83190,161748
5.84003,169117
5.84815,163240
5.85627,159541
5.86440,161894
5.87252,160401
5.88063,166992
5.88877,168028
5.89688,161926
5.90502,160721
5.91313,156416
5.92125,136578
5.92938,124357
5.93750,124551
5.94563,115649
5.95375,120950
5.96187,119691
5.97000,122597
5.97812,119381
5.98623,125711
5.99437,139761
6.00248,144799
6.01062,149737
6.01873,139531
6.02685,137318
6.03498,125110
6.04310,130252
6.05123,122851
6.05935,122409
6.06747,120818
6.07560,119742
6.08372,124168
6.09185,110554
6.09997,110594
6.10808,114331
6.11622,114272
6.12433,117574
6.13245,118404
6.14058,115802
6.14870,121422
6.15683,115764
6.16495,123799
6.17307,127201
6.18120,126236
6.18932,127341
6.19745,131124
6.20557,132412
6.21368,130115
6.22182,131990
6.22993,140317
6.23807,140481
6.24618,137479
6.25430,143607
6.26243,150813
6.27055,153666
6.27867,152181
6.28680,149657
6.29492,153632
6.30305,163798
6.31117,163695
6.31928,162288
6.32742,165834
6.33553,168993
6.34367,173544
6.35178,165262
6.35990,166745
6.36803,177403
6.37615,185946
6.38427,186032
6.39240,186345
6.40052,185261
6.40865,194322
6.41677,186584
6.42488,197638
6.43302,186737
6.44113,191551
6.44927,193136
6.45738,199804
6.46550,208238
6.47363,209209
6.48175,209077
6.48988,217004
6.49800,206048
6.50612,215177
6.51425,210961
6.52237,209239
6.53048,217373
6.53862,212947
6.54673,217567
6.55487,215377
6.56298,216062
6.57110,175027
6.57923,153310
6.58735,150104
6.59548,141189
6.60360,138533
6.61172,133785
6.61985,138739
6.62797,137094
6.63608,136129
6.64422,125260
6.65233,130276
6.66047,124047
6.66858,121876
6.67670,124483
6.68483,119391
6.69295,129591
6.70108,128156
6.70920,121609
6.71732,123335
6.72545,116103
6.73357,109761
6.74170,117875
6.74982,112646
6.75793,113511
6.76607,116570
6.77418,113843
6.78230,107796
6.79043,117512
6.79855,114553
6.80668,112238
6.81480,111125
6.82292,111967
6.83105,110714
6.83917,112505
6.84730,114898
6.85542,105330
6.86353,97347
6.87167,94163
6.87978,81932
6.88792,86992
6.89603,88612
6.90415,96704
6.91228,95579
6.92040,85926
6.92852,77773
6.93665,72421
6.94477,74768
6.95290,69732
6.96102,71035
6.96913,76030
6.97727,68580
6.98538,67676
6.99352,71082
7.00163,67318
7.00975,69947
7.01788,63168
7.02600,65383
7.03412,66472
7.04225,72806
7.05037,64413
7.05850,69588
7.06662,69486
7.07473,67443
7.08287,69394
7.09098,68092
7.09912,67205
7.10723,68398
7.11535,66446
7.12348,69179
7.13160,69995
7.13973,69914
7.14785,72198
7.15597,65036
7.16410,65287
7.17222,60818
7.18033,68257
7.18847,60592
7.19658,63018
7.20472,67466
7.21283,65896
7.22095,63415
7.22908,66982
7.23720,66986
7.24533,66003
7.25345,64644
7.26157,67525
7.26970,64297
7.27782,62004
7.28595,63318
7.29407,60504
7.30218,68751
7.31032,64775
7.31843,64599
7.32655,64978
7.33468,64054
7.34280,60562
7.35093,61608
7.35905,64258
7.36717,59524
7.37530,61418
7.38342,61936
7.39155,61519
7.39967,62790
7.40778,65443
7.41592,60496
7.42403,66273
7.43215,67300
7.44028,63929
7.44840,75330
7.45653,78600
7.46465,84495
7.47277,80738
7.48090,80157
7.48902,70328
7.49715,67813
7.50527,67300
7.51338,63076
7.52152,63677
7.52963,62896
7.53777,64956
7.54588,64236
7.55400,59586
7.56213,59587
7.57025,61731
7.57837,65343
7.58650,63333
7.59462,60115
7.60275,65429
7.61087,64198
7.61898,65623
7.62712,64334
7.63523,61992
7.64337,67652
7.65148,63113
7.65960,65556
7.66773,59390
7.67585,63305
7.68397,62110
7.69210,62908
7.70022,63146
7.70835,63277
7.71647,61649
7.72458,62434
7.73272,61755
7.74083,58963
7.74897,56885
7.75708,60457
7.76520,59337
7.77333,59316
7.78145,59316
7.78958,62418
7.79770,61098
7.80582,63280
7.81395,64055
7.82207,62990
7.83018,62003
7.83832,58708
7.84643,59864
7.85457,61565
7.86268,62224
7.87080,58810
7.87893,55454
7.88705,58539
7.89518,58026
7.90330,57165
7.91142,45613
7.91955,56449
7.92767,58498
7.93580,57987
7.94392,56199
7.95203,57619
7.96017,52965
7.96828,54930
7.97640,57162
7.98453,59256
7.99265,62283
8.00078,65344
8.00890,65828
8.01702,58477
8.02515,56702
8.03327,52048
8.04140,55260
8.04952,54324
8.05763,59493
8.06577,55129
8.07388,57472
8.08200,56793
8.09013,56268
8.09825,58541
8.10638,56000
8.11450,60311
8.12262,63881
8.13075,60975
8.13887,57561
8.14700,54581
8.15512,60358
8.16323,60473
8.17137,59942
8.17948,67401
8.18762,66383
8.19573,64745
8.20385,66464
8.21198,63097
8.22010,59931
8.22822,61414
8.23635,58544
8.24447,60432
8.25260,57408
8.26072,55545
8.26883,55699
8.27697,56257
8.28508,53643
8.29322,56276
8.30133,57038
8.30945,58616
8.31758,56468
8.32570,57114
8.33383,58613
8.34195,63641
8.35007,67754
8.35820,66444
8.36632,71832
8.37443,76184
8.38257,71354
8.39068,64988
8.39882,61346
8.40693,55715
8.41505,63158
8.42318,56692
8.43130,54301
8.43943,62141
8.44755,58064
8.45567,59954
8.46380,60085
8.47192,61302
8.48003,61883
8.48817,58998
8.49628,58208
8.50442,57635
8.51253,60045
8.52065,60132
8.52878,62248
8.53690,72035
8.54503,73006
8.55315,79791
8.56127,73283
8.56940,71395
8.57752,65721
8.58565,65523
8.59377,65319
8.60188,61853
8.61002,62148
8.61813,60522
8.62625,63960
8.63438,64111
8.64250,62709
8.65063,59682
8.65875,64004
8.66687,61535
8.67500,60457
8.68312,57543
8.69125,55252
8.69937,60913
8.70748,59374
8.71562,59210
8.72373,57938
8.73187,58922
8.73998,55860
8.74810,56095
8.75623,56869
8.76435,57957
8.77247,59587
8.78060,64676
8.78872,90375
8.79685,148648
8.80497,286065
8.81308,480411
8.82122,659987
8.82933,690691
8.83747,632588
8.84558,529070
8.85370,429054
8.86183,369146
8.86995,317735
8.87807,288523
8.88620,270464
8.89432,238787
8.90245,213314
8.91057,209580
8.91868,199275
8.92682,191282
8.93493,182705
8.94307,180485
8.95118,179878
8.95930,174334
8.96743,167699
8.97555,159814
8.98368,155239
8.99180,155511
8.99992,150527
9.00805,156217
9.01617,146601
9.02428,140912
9.03242,139239
9.04053,139609
9.04867,141344
9.05678,144078
9.06490,136000
9.07303,133485
9.08115,133010
9.08928,126354
9.09740,121560
9.10552,121556
9.11365,125303
9.12177,117063
9.12988,120945
9.13802,119264
9.14613,124817
9.15427,125729
9.16238,117562
9.17050,112850
9.17863,112109
9.18675,118809
9.19488,112425
9.20300,112112
9.21112,115698
9.21925,114037
9.22737,114414
9.23550,108873
9.24362,109670
9.25173,101742
9.25987,104361
9.26798,101357
9.27610,101910
9.28423,106942
9.29235,107693
9.30048,97962
9.30860,102078
9.31672,100153
9.32485,101756
9.33297,100112
9.34110,95097
9.34922,101788
9.35733,98617
9.36547,94373
9.37358,92556
9.38172,98095
9.38983,89632
9.39795,93161
9.40608,99045
9.41420,90671
9.42232,87311
9.43045,83449
9.43857,87278
9.44670,87569
9.45482,92277
9.46293,85895
9.47107,90013
9.47918,85987
9.48732,82460
9.49543,90562
9.50355,90949
9.51168,82501
9.51980,89975
9.52793,79691
9.53605,83481
9.54417,90272
9.55230,89438
9.56042,88904
9.56853,86392
9.57667,83253
9.58478,75641
9.59292,71576
9.60103,65813
9.60915,70368
9.61728,72888
9.62540,76520
9.63353,72800
9.64165,67509
9.64977,66253
9.65790,61501
9.66602,62139
9.67413,56098
9.68227,60012
9.69038,54753
9.69852,61633
9.70663,53528
9.71475,56275
9.72288,51432
9.73100,55488
9.73913,52729
9.74725,53952
9.75537,55307
9.76350,49642
9.77162,56986
9.77975,56869
9.78787,54790
9.79598,57598
9.80412,53001
9.81223,50959
9.82035,52464
9.82848,53764
9.83660,50290
9.84473,56599
9.85285,56171
9.86097,60064
9.86910,55955
9.87722,57156
9.88535,59433
9.89347,56113
9.90158,54330
9.90972,54381
9.91783,50358
9.92595,51685
9.93408,56463
9.94220,50253
9.95033,52583
9.95845,50811
9.96657,56287
9.97470,54578
9.98282,56833
9.99095,60450
9.99907,55626
10.00718,58091
10.01532,59516
10.02343,66197
10.03157,69919
10.03968,73551
10.04780,75803
10.05593,79632
10.06405,74673
10.07217,73116
10.08030,79632
10.08842,72687
10.09655,74041
10.10467,68986
10.11278,61468
10.12092,66042
10.12903,62065
10.13717,62766
10.14528,58809
10.15340,58140
10.16153,58684
10.16965,56606
10.17778,57854
10.18590,60542
10.19402,55960
10.20215,58633
10.21027,57239
10.21838,55136
10.22652,54626
10.23463,58690
10.24277,61909
10.25088,58997
10.25900,60192
10.26713,63705
10.27525,62043
10.28338,68780
10.29150,62141
10.29962,63297
10.30775,55750
10.31587,57083
10.32398,56899
10.33212,54909
10.34023,59018
10.34837,59388
10.35648,61009
10.36460,59114
10.37273,57361
10.38085,61568
10.38898,51164
10.39710,56431
10.40522,54609
10.41335,56156
10.42147,52459
10.42960,55991
10.43772,55120
10.44583,59242
10.45397,52765
10.46208,52061
10.47020,54067
10.47833,51238
10.48645,52419
10.49458,50378
10.50270,55499
10.51082,53315
10.51895,50431
10.52707,51023
10.53520,52803
10.54332,52293
10.55143,50904
10.55957,52545
10.56768,50500
10.57582,51468
10.58393,55487
10.59205,51778
10.60018,52456
10.60830,52950
10.61642,51265
10.62455,48690
10.63267,51918
10.64080,50042
10.64892,50542
10.65703,47145
10.66517,47992
10.67328,54325
10.68142,52427
10.68953,51762
10.69765,49862
10.70578,56888
10.71390,60173
10.72202,50609
10.73015,52383
10.73827,54188
10.74640,48105
10.75452,50181
10.76263,51359
10.77077,54062
10.77888,51792
10.78702,55980
10.79513,56564
10.80325,54973
10.81138,52056
10.81950,50104
10.82763,51772
10.83575,46956
10.84387,50187
10.85200,52532
10.86012,50792
10.86823,49855
10.87637,47384
10.88448,47631
10.89262,52893
10.90073,48281
10.90885,47427
10.91698,47391
10.92510,46018
10.93323,48532
10.94135,51174
10.94947,49638
10.95760,46274
10.96572,50555
10.97383,49838
10.98197,52423
10.99008,51355
10.99822,53183
11.00633,50270
11.01445,52245
11.02258,51867
11.03070,50852
11.03883,46696
11.04695,53093
11.05507,48542
11.06320,51600
11.07132,48094
11.07945,51335
11.08757,46006
11.09568,46986
11.10382,47426
11.11193,48237
11.12005,49898
11.12818,50482
11.13630,45506
11.14443,51072
11.15255,45506
11.16067,47428
11.16880,46303
11.17692,46471
11.18505,51049
11.19317,51032
11.20128,55551
11.20942,65203
11.21753,70807
11.22567,69819
11.23378,70762
11.24190,68266
11.25003,63549
11.25815,52897
11.26627,53076
11.27440,52568
11.28252,50458
11.29065,51295
11.29877,48955
11.30688,45649
11.31502,45240
11.32313,45082
11.33127,45358
11.33938,49365
11.34750,48948
11.35563,52278
11.36375,48660
11.37187,46485
11.38000,43106
11.38812,42850
11.39625,45790
11.40437,45004
11.41248,44101
11.42062,45449
11.42873,44367
11.43687,44356
11.44498,43800
11.45310,43667
11.46123,43473
11.46935,42221
11.47748,40106
11.48560,41170
11.49372,39191
11.50185,43513
11.50997,43873
11.51808,40631
11.52622,41656
11.53433,43015
11.54247,43559
11.55058,39880
11.55870,43731
11.56683,44264
11.57495,40319
11.58308,42663
11.59120,41338
11.59932,40932
11.60745,45098
11.61557,44300
11.62370,40516
11.63182,39098
11.63993,40404
11.64807,41627
11.65618,43274
11.66430,40723
11.67243,39638
11.68055,39682
11.68868,41253
11.69680,43151
11.70492,42639
11.71305,44686
11.72117,46431
11.72930,46226
11.73742,45466
11.74553,46374
11.75367,47350
11.76178,47776
11.76990,46293
11.77803,45929
11.78615,41692
11.79428,46762
11.80240,45753
11.81052,47773
11.81865,47183
11.82677,46159
11.83490,44971
11.84302,45282
11.85113,41178
11.85927,41053
11.86738,44842
11.87552,48011
11.88363,49133
11.89175,43415
11.89988,41087
11.90800,45364
11.91612,42954
11.92425,47206
11.93237,43068
11.94050,44510
11.94862,41668
11.95673,41794
11.96487,42790
11.97298,40458
11.98112,41210
11.98923,42644
11.99735,44620
12.00548,43093
12.01360,44071
12.02172,44783
12.02985,39361
12.03797,42007
12.04610,45827
12.05422,42720
12.06233,42965
12.07047,38443
12.07858,42016
12.08672,41422
12.09483,43428
12.10295,40514
12.11108,43192
12.11920,41548
12.12733,41117
12.13545,41068
12.14357,38191
12.15170,40080
12.15982,42986
12.16793,43025
12.17607,45501
12.18418,43002
12.19232,43871
12.20043,44118
12.20855,43927
12.21668,46628
12.22480,43193
12.23293,42001
12.24105,42635
12.24917,45256
12.25730,46279
12.26542,42698
12.27355,44110
12.28167,47070
12.28978,42500
12.29792,45371
12.30603,42981
12.31415,41520
12.32228,42847
12.33040,39761
12.33853,41395
12.34665,43115
12.35477,46006
12.36290,39755
12.37102,38694
12.37915,42573
12.38727,42116
12.39538,39296
12.40352,45790
12.41163,41177
12.41975,43262
12.42788,45187
12.43600,43460
12.44413,44606
12.45225,45167
12.46037,50744
12.46850,51672
12.47662,53571
12.48475,52520
12.49287,52558
12.50098,48594
12.50912,52362
12.51723,49474
12.52537,43302
12.53348,44106
12.54160,42421
12.54973,43109
12.55785,41969
12.56597,44558
12.57410,47583
12.58222,45423
12.59035,43575
12.59847,41721
12.60658,42670
12.61472,46003
12.62283,46361
12.63097,41198
12.63908,43421
12.64720,44651
12.65533,43469
12.66345,42691
12.67158,41847
12.67970,45466
12.68782,41533
12.69595,42196
12.70407,44515
12.71218,46592
12.72032,40470
12.72843,41443
12.73657,45797
12.74468,47816
12.75280,53734
12.76093,55192
12.76905,58543
12.77718,62578
12.78530,61944
12.79342,53683
12.80155,44983
12.80967,48998
12.81778,46348
12.82592,45561
12.83403,47329
12.84217,47467
12.85028,43627
12.85840,44766
12.86653,44964
12.87465,41014
12.88278,43470
12.89090,42692
12.89902,43974
12.90715,42717
12.91527,46925
12.92340,42198
12.93152,43923
12.93963,41183
12.94777,40407
12.95588,43153
12.96400,41988
12.97213,42639
12.98025,40160
12.98838,42386
12.99650,43652
13.00462,41393
13.01275,40616
13.02087,46664
13.02900,44128
13.03712,40664
13.04523,45794
13.05337,39231
13.06148,43055
13.06962,42738
13.07773,39811
13.08585,39847
13.09398,42550
13.10210,39742
13.11022,40261
13.11835,42871
13.12647,43308
13.13460,44456
13.14272,43483
13.15083,48663
13.15897,43260
13.16708,43131
13.17522,43844
13.18333,41327
13.19145,39407
13.19958,44254
13.20770,51258
13.21582,46265
13.22395,51046
13.23207,56435
13.24020,58099
13.24832,49023
13.25643,55289
13.26457,49170
13.27268,46082
13.28082,45551
13.28893,43617
13.29705,49895
13.30518,46453
13.31330,44397
13.32143,49585
13.32955,48470
13.33767,43555
13.34580,42018
13.35392,43987
13.36203,43341
13.37017,41632
13.37828,46693
13.38642,40575
13.39453,42913
13.40265,43733
13.41078,42407
13.41890,44191
13.42703,42813
13.43515,38716
13.44327,43475
13.45140,40138
13.45952,40832
13.46763,41325
13.47577,37181
13.48388,37786
13.49202,40533
13.50013,40465
13.50825,40021
13.51638,40550
13.52450,39469
13.53263,41769
13.54075,37710
13.54887,46338
13.55700,38378
13.56512,38321
13.57325,44320
13.58137,43025
13.58948,43210
13.59762,39679
13.60573,39167
13.61385,40744
13.62198,39532
13.63010,40056
13.63823,40975
13.64635,41649
13.65447,44338
13.66260,39276
13.67072,37388
13.67885,39380
13.68697,38323
13.69508,40661
13.70322,37426
13.71133,39534
13.71947,40040
13.72758,37832
13.73570,39098
13.74383,35910
13.75195,37342
13.76007,36624
13.76820,37722
13.77632,43638
13.78445,42025
13.79257,39236
13.80068,41839
13.80882,41841
13.81693,40050
13.82507,38876
13.83318,39401
13.84130,40835
13.84943,43062
13.85755,43056
13.86567,41066
13.87380,40483
13.88192,42573
13.89005,38937
13.89817,39310
13.90628,38076
13.91442,41327
13.92253,40322
13.93067,41714
13.93878,43206
13.94690,43624
13.95503,44874
13.96315,48741
13.97128,42806
13.97940,46494
13.98752,45474
13.99565,42642
14.00377,42780
14.01188,45178
14.02002,44083
14.02813,39062
14.03627,42151
14.04438,43793
14.05250,40331
14.06063,38752
14.06875,45018
14.07688,47059
14.08500,45072
14.09312,47052
14.10125,46862
14.10937,51435
14.11750,48101
14.12562,46308
14.13373,44756
14.14187,45599
14.14998,42663
14.15810,39952
14.16623,41937
14.17435,46981
14.18248,43394
14.19060,46601
14.19872,54871
14.20685,78916
14.21497,115309
14.22310,166747
14.23122,234058
14.23933,273834
14.24747,281539
14.25558,260944
14.26370,217122
14.27183,181167
14.27995,169221
14.28808,148656
14.29620,130850
14.30432,123731
14.31245,118127
14.32057,112449
14.32870,106033
14.33682,97261
14.34493,92199
14.35307,88636
14.36118,82754
14.36932,81841
14.37743,73329
14.38555,69316
14.39368,58496
14.40180,51171
14.40992,48901
14.41805,48803
14.42617,48473
14.43430,45999
14.44242,44164
14.45053,45323
14.45867,46671
14.46678,47928
14.47492,44454
14.48303,43002
14.49115,46257
14.49928,46126
14.50740,42347
14.51552,39993
14.52365,44475
14.53177,42188
14.53990,44568
14.54802,43391
14.55613,43377
14.56427,46957
14.57238,43339
14.58052,41834
14.58863,45681
14.59675,44548
14.60488,43476
14.61300,43141
14.62113,40319
14.62925,40197
14.63737,42349
14.64550,44663
14.65362,40899
14.66173,41826
14.66987,44193
14.67798,46531
14.68612,40925
14.69423,42156
14.70235,41490
14.71048,42475
14.71860,37046
14.72673,42399
14.73485,45491
14.74297,39754
14.75110,40201
14.75922,40882
14.76735,41154
14.77547,39194
14.78358,42398
14.79172,41028
14.79983,43271
14.80795,39833
14.81608,40858
14.82420,42271
14.83233,40292
14.84045,42498
14.84857,48459
14.85670,48818
14.86482,52101
14.87295,52942
14.88107,56439
14.88918,51305
14.89732,48889
14.90543,51033
14.91357,53948
14.92168,55258
14.92980,51959
14.93793,52015
14.94605,53527
14.95417,54623
14.96230,51124
14.97042,53473
14.97855,52765
14.98667,50291
14.99478,53465
15.00292,51652
15.01103,56018
15.01917,52916
15.02728,52273
15.03540,55613
15.04353,54079
15.05165,51754
15.05977,48723
15.06790,48024
15.07602,49453
15.08415,46175
15.09227,51661
15.10038,43555
15.10852,49836
15.11663,48057
15.12477,49748
15.13288,48515
15.14100,48424
15.14913,47832
15.15725,50013
15.16538,45479
15.17350,45549
15.18162,50219
15.18975,40607
15.19787,44180
15.20598,44371
15.21412,44851
15.22223,46238
15.23037,43590
15.23848,42709
15.24660,46267
15.25473,44925
15.26285,44563
15.27098,43040
15.27910,44856
15.28722,49027
15.29535,41312
15.30347,45521
15.31158,45981
15.31972,41787
15.32783,44428
15.33597,40767
15.34408,41789
15.35220,42627
15.36033,42440
15.36845,45827
15.37658,43465
15.38470,45437
15.39282,43587
15.40095,39816
15.40907,45584
15.41720,39602
15.42532,42213
15.43343,43894
15.44157,40984
15.44968,41843
15.45780,43275
15.46593,45609
15.47405,43466
15.48218,43222
15.49030,43830
15.49842,41206
15.50655,46289
15.51467,44921
15.52280,47304
15.53092,51527
15.53903,44547
15.54717,46151
15.55528,44954
15.56342,44094
15.57153,40007
15.57965,43225
15.58778,42679
15.59590,41637
15.60402,44535
15.61215,46076
15.62027,44311
15.62840,45191
15.63652,44885
15.64463,39520
15.65277,43346
15.66088,38599
15.66902,43755
15.67713,44327
15.68525,39248
15.69338,45396
15.70150,43322
15.70962,41535
15.71775,44091
15.72587,43650
15.73400,37885
15.74212,42372
15.75023,40655
15.75837,43347
15.76648,42449
15.77462,41490
15.78273,42369
15.79085,43694
15.79898,42800
15.80710,46388
15.81523,46087
15.82335,43831
15.83147,38462
15.83960,39081
15.84772,42871
15.85583,43752
15.86397,43159
15.87208,41679
15.88022,42011
15.88833,41492
15.89645,39855
15.90458,42991
15.91270,38291
15.92083,44330
15.92895,38972
15.93707,43147
15.94520,41803
15.95332,41950
15.96145,42297
15.96957,43692
15.97768,39760
15.98582,42666
15.99393,45973
16.00205,44063
16.01018,44223
16.01830,59254
16.02643,71157
16.03455,97161
16.04267,126476
16.05080,159501
16.05892,164624
16.06705,158301
16.07517,134162
16.08328,110461
16.09142,84780
16.09953,77317
16.10765,73557
16.11578,67130
16.12390,66577
16.13203,62440
16.14015,61236
16.14827,60741
16.15640,57012
16.16452,59337
16.17265,56582
16.18077,57375
16.18888,53630
16.19702,52644
16.20513,56242
16.21327,50346
16.22138,52796
16.22950,49996
16.23763,49880
16.24575,49062
16.25387,50355
16.26200,51836
16.27012,50035
16.27825,52344
16.28637,50353
16.29448,50868
16.30262,48118
16.31073,54438
16.31887,53004
16.32698,48812
16.33510,51410
16.34323,48866
16.35135,49683
16.35947,47829
16.36760,49484
16.37572,50027
16.38385,50421
16.39197,49751
16.40008,47465
16.40822,44000
16.41633,50788
16.42447,46926
16.43258,46157
16.44070,46811
16.44883,44428
16.45695,46872
16.46508,46161
16.47320,49303
16.48132,47998
16.48945,46765
16.49757,44436
16.50568,44762
16.51382,44435
16.52193,42682
16.53007,45046
16.53818,48326
16.54630,45424
16.55443,45247
16.56255,44444
16.57068,43816
16.57880,46398
16.58692,45288
16.59505,43961
16.60317,46688
16.61130,43924
16.61942,41251
16.62753,42213
16.63567,44099
16.64378,43792
16.65190,41959
16.66003,39074
16.66815,40065
16.67628,40019
16.68440,47645
16.69252,41958
16.70065,41468
16.70877,43872
16.71690,40003
16.72502,37332
16.73313,41276
16.74127,37259
16.74938,37279
16.75750,37441
16.76563,38186
16.77375,40485
16.78188,38794
16.79000,39047
16.79812,41714
16.80625,41376
16.81437,41981
16.82250,41421
16.83062,41403
16.83873,39074
16.84687,39934
16.85498,42230
16.86312,38155
16.87123,38397
16.87935,36349
16.88748,35612
16.89560,37459
16.90372,38131
16.91185,38978
16.91997,41829
16.92810,39400
16.93622,40229
16.94433,41074
16.95247,39603
16.96058,43713
16.96872,38257
16.97683,41689
16.98495,41970
16.99308,40361
17.00120,40963
17.00933,40798
17.01745,36403
17.02557,39897
17.03370,40674
17.04182,35725
17.04993,39186
17.05807,38482
17.06618,39382
17.07432,39235
17.08243,41560
17.09055,38037
17.09868,41786
17.10680,41090
17.11493,42749
17.12305,42477
17.13117,39756
17.13930,38342
17.14742,37436
17.15553,43569
17.16367,39603
17.17178,40148
17.17992,38248
17.18803,39944
17.19615,40179
17.20428,37547
17.21240,41317
17.22053,38352
17.22865,41490
17.23677,37064
17.24490,39935
17.25302,38211
17.26115,36955
17.26927,41060
17.27738,40045
17.28552,39048
17.29363,41467
17.30175,37986
17.30988,37456
17.31800,40548
17.32613,41398
17.33425,39081
17.34237,37232
17.35050,37911
17.35862,39041
17.36675,38958
17.37487,44792
17.38298,47445
17.39112,45779
17.39923,44497
17.40737,46398
17.41548,47530
17.42360,46875
17.43173,47172
17.43985,48351
17.44797,45395
17.45610,43592
17.46422,46628
17.47235,44602
17.48047,42036
17.48858,43824
17.49672,40517
17.50483,41659
17.51297,44216
17.52108,41654
17.52920,41299
17.53733,40598
17.54545,40326
17.55357,47865
17.56170,45125
17.56982,43555
17.57795,44910
17.58607,43090
17.59418,43589
17.60232,43005
17.61043,42633
17.61857,41547
17.62668,39804
17.63480,41484
17.64293,44056
17.65105,41577
17.65918,43095
17.66730,42386
17.67542,40148
17.68355,40912
17.69167,40744
17.69978,44868
17.70792,46174
17.71603,42580
17.72417,40712
17.73228,45107
17.74040,48011
17.74853,44185
17.75665,44697
17.76478,43494
17.77290,45066
17.78102,40234
17.78915,43631
17.79727,44076
17.80538,45596
17.81352,43281
17.82163,39923
17.82977,40222
17.83788,39538
17.84600,42665
17.85413,40493
17.86225,39595
17.87038,43752
17.87850,41594
17.88662,41783
17.89475,42149
17.90287,38609
17.91100,40365
17.91912,38694
17.92723,38730
17.93537,37946
17.94348,36874
17.95160,36582
17.95973,38571
17.96785,40658
17.97598,38873
17.98410,37450
17.99222,37760
18.00035,32085
18.00847,37048
18.01660,41087
18.02472,36203
18.03283,38445
18.04097,39785
18.04908,37162
18.05722,35698
18.06533,36582
18.07345,38256
18.08158,37964
18.08970,46010
18.09782,46354
18.10595,57265
18.11407,60112
18.12220,62720
18.13032,65004
18.13843,70255
18.14657,64949
18.15468,70617
18.16282,67916
18.17093,62158
18.17905,59390
18.18718,62753
18.19530,63736
18.20342,58292
18.21155,55221
18.21967,58688
18.22780,56305
18.23592,54904
18.24403,55775
18.25217,59494
18.26028,57867
18.26842,55657
18.27653,56858
18.28465,54396
18.29278,52738
18.30090,54029
18.30903,43166
18.31715,43905
18.32527,44454
18.33340,40896
18.34152,42103
18.34963,41487
18.35777,41854
18.36588,41278
18.37402,44771
18.38213,43365
18.39025,39882
18.39838,42518
18.40650,39200
18.41463,39962
18.42275,41983
18.43087,43016
18.43900,39175
18.44712,40974
18.45525,37794
18.46337,35396
18.47148,39839
18.47962,39835
18.48773,41995
18.49585,40616
18.50398,39145
18.51210,42210
18.52023,37418
18.52835,36522
18.53647,39249
18.54460,37892
18.55272,35427
18.56085,37994
18.56897,37227
18.57708,37208
18.58522,35179
18.59333,42448
18.60145,37333
18.60958,37972
18.61770,41512
18.62583,37740
18.63395,39502
18.64207,37078
18.65020,39029
18.65832,42482
18.66645,36933
18.67457,39810
18.68268,36213
18.69082,37187
18.69893,36167
18.70707,38545
18.71518,38585
18.72330,35531
18.73143,35196
18.73955,34331
18.74767,36210
18.75580,39006
18.76392,35760
18.77205,41934
18.78017,35112
18.78828,37994
18.79642,35319
18.80453,37131
18.81267,35757
18.82078,33387
18.82890,33349
18.83703,36479
18.84515,33649
18.85327,36170
18.86140,35170
18.86952,38628
18.87765,38812
18.88577,33587
18.89388,36579
18.90202,35460
18.91013,35219
18.91827,37326
18.92638,35789
18.93450,35268
18.94263,35669
18.95075,40100
18.95888,38030
18.96700,33663
18.97512,32527
18.98325,40374
18.99137,35363
18.99948,36435
19.00762,33933
19.01573,37526
19.02387,37151
19.03198,33421
19.04010,36338
19.04823,35992
19.05635,36568
19.06448,34273
19.07260,36585
19.08072,36317
19.08885,38389
19.09697,37657
19.10510,36505
19.11322,38870
19.12133,39532
19.12947,43607
19.13758,48160
19.14570,41254
19.15383,43705
19.16195,39794
19.17008,43704
19.17820,40125
19.18632,42717
19.19445,45018
19.20257,41879
19.21070,41423
19.21882,40326
19.22693,42834
19.23507,37778
19.24318,41660
19.25130,34722
19.25943,36466
19.26755,40009
19.27568,39300
19.28380,42796
19.29192,45033
19.30005,51988
19.30817,58711
19.31630,63386
19.32442,67391
19.33253,57859
19.34067,55164
19.34878,50982
19.35692,55105
19.36503,48321
19.37315,47575
19.38128,48346
19.38940,45793
19.39752,49599
19.40565,42644
19.41377,45649
19.42190,43721
19.43002,45413
19.43813,44895
19.44627,49921
19.45438,48309
19.46252,46115
19.47063,42226
19.47875,44918
19.48688,53763
19.49500,65210
19.50313,78208
19.51125,98392
19.51937,140906
19.52750,185604
19.53562,210744
19.54373,216165
19.55187,187396
19.55998,155390
19.56812,103338
19.57623,78496
19.58435,58754
19.59248,51092
19.60060,51205
19.60873,47099
19.61685,48577
19.62497,48029
19.63310,48227
19.64122,53005
19.64933,62288
19.65747,83569
19.66558,138372
19.67372,199614
19.68183,292881
19.68995,375462
19.69808,425506
19.70620,411069
19.71433,350335
19.72245,273269
19.73057,201341
19.73870,154692
19.74682,130931
19.75495,113474
19.76307,101233
19.77118,88378
19.77932,78927
19.78743,75870
19.79555,70300
19.80368,64994
19.81180,67420
19.81993,60661
19.82805,62877
19.83617,61538
19.84430,57521
19.85242,58527
19.86055,58359
19.86867,55427
19.87678,54229
19.88492,58612
19.89303,70612
19.90115,88737
19.90928,121171
19.91740,163176
19.92553,219507
19.93365,263933
19.94177,293206
19.94990,314443
19.95802,327177
19.96615,324607
19.97427,319625
19.98238,286040
19.99052,275624
19.99863,267758
20.00677,255159
20.01488,249737
20.02300,233330
20.03113,229972
20.03925,222909
20.04737,220432
20.05550,200022
20.06362,169605
20.07175,155654
20.07987,124575
20.08798,109233
20.09612,102983
20.10423,93194
20.11237,79740
20.12048,76594
20.12860,77117
20.13673,84380
20.14485,75543
20.15298,69039
20.16110,69005
20.16922,73287
20.17735,66462
20.18547,69392
20.19358,66415
20.20172,73485
20.20983,72309
20.21797,73493
20.22608,76917
20.23420,80663
20.24233,80352
20.25045,77954
20.25858,83521
20.26670,104493
20.27482,137677
20.28295,174744
20.29107,246671
20.29920,316667
20.30732,335476
20.31543,355546
20.32357,336372
20.33168,270151
20.33980,227863
20.34793,184405
20.35605,155884
20.36418,130765
20.37230,110901
20.38042,108385
20.38855,96884
20.39667,93169
20.40480,93971
20.41292,87321
20.42103,88204
20.42917,85056
20.43728,99571
20.44540,112874
20.45353,130237
20.46165,137893
20.46978,155416
20.47790,153934
20.48602,145150
20.49415,126253
20.50227,116842
20.51040,105982
20.51852,93684
20.52663,87303
20.53477,81220
20.54288,75038
20.55102,73603
20.55913,74980
20.56725,71509
20.57538,71107
20.58350,71511
20.59162,69107
20.59975,68295
20.60787,71303
20.61600,68848
20.62412,71434
20.63223,69776
20.64037,68228
20.64848,69413
20.65662,70263
20.66473,70223
20.67285,60246
20.68098,68080
20.68910,66957
20.69722,69610
20.70535,62309
20.71347,64738
20.72160,66636
20.72972,64310
20.73783,66250
20.74597,67752
20.75408,62299
20.76222,61684
20.77033,66022
20.77845,63037
20.78658,62336
20.79470,62733
20.80283,64180
20.81095,59647
20.81907,64417
20.82720,60164
20.83532,61456
20.84343,65653
20.85157,62311
20.85968,61538
20.86782,59365
20.87593,61432
20.88405,58868
20.89218,59789
20.90030,61929
20.90843,64126
20.91655,57753
20.92467,61123
20.93280,56535
20.94092,57793
20.94905,56172
20.95717,63479
20.96528,57405
20.97342,60451
20.98153,56170
20.98965,56914
20.99778,54167
21.00590,56743
21.01403,60658
21.02215,59068
21.03027,57755
21.03840,55408
21.04652,54486
21.05465,57490
21.06277,52632
21.07088,58682
21.07902,56586
21.08713,55747
21.09525,58183
21.10338,55850
21.11150,54737
21.11963,54693
21.12775,58837
21.13587,56170
21.14400,52424
21.15212,59468
21.16025,54131
21.16837,55018
21.17648,55267
21.18462,60420
21.19273,58306
21.20087,54958
21.20898,59516
21.21710,59191
21.22523,60076
21.23335,58393
21.24147,52331
21.24960,54570
21.25772,54590
21.26585,59765
21.27397,55640
21.28208,55195
21.29022,57295
21.29833,57332
21.30647,53593
21.31458,54575
21.32270,58990
21.33083,53072
21.33895,55366
21.34708,52200
21.35520,53830
21.36332,56581
21.37145,50448
21.37957,51106
21.38768,51806
21.39582,50570
21.40393,54057
21.41207,52708
21.42018,52660
21.42830,49374
21.43643,55128
21.44455,53761
21.45268,52644
21.46080,52038
21.46892,53690
21.47705,51780
21.48517,54234
21.49328,56840
21.50142,54452
21.50953,53079
21.51767,50713
21.52578,51279
21.53390,54104
21.54203,51909
21.55015,53706
21.55828,53620
21.56640,53843
21.57452,54289
21.58265,49486
21.59077,50794
21.59890,51561
21.60702,51846
21.61513,51579
21.62327,56150
21.63138,59773
21.63950,72060
21.64763,88273
21.65575,109539
21.66388,129659
21.67200,131863
21.68012,123098
21.68825,114962
21.69637,93391
21.70450,82118
21.71262,67412
21.72073,65747
21.72887,63007
21.73698,62373
21.74510,54559
21.75323,54165
21.76135,61067
21.76948,51758
21.77760,51728
21.78572,54232
21.79385,56911
21.80197,54593
21.81010,54611
21.81822,57938
21.82633,61768
21.83447,67021
21.84258,80371
21.85072,97543
21.85883,106598
21.86695,114411
21.87508,105821
21.88320,97058
21.89132,84960
21.89945,71406
21.90757,61102
21.91570,59062
21.92382,56583
21.93193,50857
21.94007,51282
21.94818,56809
21.95632,50345
21.96443,50349
21.97255,57464
21.98068,53359
21.98880,55569
21.99693,50567
22.00505,49808
22.01317,47571
22.02130,49938
22.02942,43793
22.03753,47618
22.04567,49651
22.05378,46570
22.06192,45589
22.07003,46803
22.07815,48444
22.08628,43098
22.09440,49057
22.10253,48408
22.11065,45454
22.11877,46456
22.12690,47028
22.13502,46760
22.14313,42744
22.15127,45038
22.15938,45307
22.16752,51720
22.17563,46017
22.18375,45693
22.19188,49616
22.20000,45577
22.20813,48330
22.21625,44004
22.22437,44074
22.23250,53704
22.24062,50816
22.24875,59510
22.25687,63678
22.26498,60797
22.27312,57254
22.28123,56388
22.28935,49392
22.29748,43755
22.30560,42878
22.31373,45897
22.32185,46775
22.32997,44049
22.33810,49808
22.34622,45532
22.35435,49631
22.36247,52168
22.37058,50077
22.37872,46205
22.38683,47707
22.39497,46684
22.40308,46192
22.41120,47346
22.41933,43017
22.42745,45430
22.43557,44719
22.44370,45775
22.45182,44976
22.45995,40614
22.46807,48039
22.47618,50440
22.48432,50649
22.49243,44779
22.50057,47680
22.50868,49151
22.51680,45821
22.52493,38924
22.53305,42635
22.54117,38530
22.54930,41069
22.55742,44626
22.56555,38894
22.57367,40118
22.58178,42464
22.58992,42223
22.59803,42341
22.60617,36204
22.61428,38189
22.62240,40723
22.63053,38699
22.63865,37506
22.64678,42750
22.65490,37474
22.66302,37957
22.67115,38100
22.67927,39386
22.68738,40864
22.69552,39967
22.70363,38536
22.71177,43659
22.71988,42687
22.72800,45300
22.73613,42578
22.74425,44331
22.75238,41039
22.76050,43180
22.76862,41787
22.77675,42358
22.78487,44818
22.79300,41804
22.80112,40518
22.80923,43823
22.81737,40960
22.82548,41101
22.83360,39870
22.84173,41851
22.84985,43224
22.85798,43376
22.86610,42577
22.87422,43966
22.88235,44726
22.89047,44603
22.89860,44583
22.90672,45431
22.91483,47007
22.92297,52199
22.93108,61087
22.93920,66401
22.94733,73612
22.95545,82708
22.96358,90307
22.97170,88320
22.97982,82251
22.98795,83098
22.99607,81598
23.00420,70254
23.01232,65600
23.02043,65166
23.02857,57709
23.03668,56904
23.04482,52281
23.05293,46568
23.06105,46784
23.06918,48155
23.07730,47729
23.08542,45194
23.09355,44887
23.10167,44536
23.10980,38633
23.11792,44351
23.12603,40687
23.13417,39369
23.14228,40808
23.15042,43813
23.15853,41241
23.16665,40673
23.17478,41180
23.18290,44533
23.19102,38611
23.19915,38662
23.20727,37479
23.21540,41453
23.22352,40730
23.23163,40921
23.23977,40596
23.24788,40412
23.25602,34209
23.26413,41040
23.27225,36086
23.28038,39231
23.28850,43103
23.29663,37826
23.30475,35939
23.31287,34405
23.32100,39327
23.32912,36686
23.33723,40735
23.34537,41438
23.35348,35937
23.36162,38594
23.36973,39304
23.37785,38085
23.38598,44267
23.39410,39051
23.40223,37870
23.41035,39435
23.41847,40055
23.42660,39267
23.43472,42435
23.44285,39938
23.45097,38188
23.45908,38413
23.46722,37042
23.47533,39734
23.48345,39076
23.49158,41856
23.49970,39731
23.50783,39679
23.51595,40131
23.52407,41797
23.53220,37340
23.54032,36649
23.54845,33910
23.55657,37726
23.56468,40253
23.57282,43561
23.58093,39834
23.58905,40841
23.59718,41729
23.60530,42451
23.61343,42357
23.62155,41813
23.62967,48786
23.63780,42954
23.64592,43589
23.65405,43355
23.66217,46863
23.67028,47202
23.67842,50980
23.68653,58823
23.69467,61271
23.70278,59920
23.71090,63350
23.71903,58994
23.72715,56488
23.73527,61178
23.74340,60151
23.75152,59703
23.75965,83597
23.76777,178435
23.77588,461474
23.78402,1155346
23.79213,2379308
23.80027,3828900
23.80838,4975372
23.81650,5326191
23.82463,4688886
23.83275,3524355
23.84088,2499680
23.84900,1694242
23.85712,1178276
23.86525,855396
23.87337,672288
23.88148,549245
23.88962,452637
23.89773,393365
23.90587,350603
23.91398,310274
23.92210,286931
23.93023,261257
23.93835,244604
23.94648,224538
23.95460,208277
23.96272,191931
23.97085,187354
23.97897,177332
23.98708,167165
23.99522,166991
24.00333,150344
24.01147,138692
24.01958,144957
24.02770,144147
24.03583,136359
24.04395,124064
24.05208,127929
24.06020,125826
24.06832,123142
24.07645,121629
24.08457,113561
24.09270,114499
24.10082,110962
24.10893,108763
24.11707,103541
24.12518,102241
24.13330,102754
24.14143,103408
24.14955,113555
24.15768,111367
24.16580,117820
24.17392,117642
24.18205,108752
24.19017,103901
24.19830,99906
24.20642,94348
24.21453,91982
24.22267,100704
24.23078,99411
24.23890,106321
24.24703,112096
24.25515,112709
24.26328,100522
24.27140,98606
24.27952,93468
24.28765,86089
24.29577,80984
24.30390,80020
24.31202,80685
24.32013,80061
24.32827,71818
24.33638,75598
24.34452,74828
24.35263,68575
24.36075,72112
24.36888,73762
24.37700,72454
24.38512,71744
24.39325,83220
24.40137,97771
24.40950,114047
24.41762,136223
24.42573,161600
24.43387,164481
24.44198,152089
24.45012,120532
24.45823,96648
24.46635,80963
24.47448,72701
24.48260,74868
24.49073,65534
24.49885,69200
24.50697,68867
24.51510,77928
24.52322,84528
24.53133,92453
24.53947,98439
24.54758,99562
24.55572,91706
24.56383,87527
24.57195,80738
24.58008,73529
24.58820,75794
24.59633,74038
24.60445,66338
24.61257,68206
24.62070,63683
24.62882,71740
24.63695,64186
24.64507,68802
24.65318,65482
24.66132,67152
24.66943,66951
24.67755,69353
24.68568,67430
24.69380,69281
24.70193,68540
24.71005,60656
24.71817,64423
24.72630,62211
24.73442,59615
24.74255,53743
24.75067,58771
24.75878,59557
24.76692,57529
24.77503,54281
24.78315,55923
24.79128,55381
24.79940,55769
24.80753,57313
24.81565,58177
24.82377,52248
24.83190,57477
24.84002,59159
24.84815,54337
24.85627,55149
24.86438,55493
24.87252,52967
24.88063,53516
24.88877,54715
24.89688,54335
24.90500,54507
24.91313,58492
24.92125,53511
24.92937,53143
24.93750,51587
24.94562,54344
24.95375,52354
24.96187,50961
24.96998,50789
24.97812,52448
24.98623,51382
24.99437,50853
25.00248,50338
25.01060,50568
25.01873,47847
25.02685,48004
25.03497,52346
25.04310,49394
25.05122,50158
25.05935,47599
25.06747,51776
25.07558,45870
25.08372,51608
25.09183,53678
25.09997,46445
25.10808,48567
25.11620,51390
25.12433,49410
25.13245,53567
25.14058,51226
25.14870,52548
25.15682,54541
25.16495,62214
25.17307,60960
25.18118,64003
25.18932,61151
25.19743,62333
25.20557,60568
25.21368,55917
25.22180,56013
25.22993,55933
25.23805,54008
25.24618,53023
25.25430,56230
25.26242,51741
25.27055,47503
25.27867,49975
25.28680,49773
25.29492,51299
25.30303,53876
25.31117,53794
25.31928,54585
25.32740,56936
25.33553,58455
25.34365,58500
25.35178,57006
25.35990,54858
25.36802,54197
25.37615,48504
25.38427,47219
25.39240,49820
25.40052,50409
25.40863,48894
25.41677,50769
25.42488,47641
25.43300,46019
25.44113,46781
25.44925,45683
25.45738,47759
25.46550,46959
25.47362,47582
25.48175,50549
25.48987,53048
25.49800,57234
25.50612,59884
25.51423,56572
25.52237,60914
25.53048,56796
25.53862,54336
25.54673,50851
25.55485,47794
25.56298,47933
25.57110,44738
25.57922,50625
25.58735,44073
25.59547,43322
25.60360,45017
25.61172,39972
25.61983,43524
25.62797,42287
25.63608,45585
25.64422,43332
25.65233,44421
25.66045,42034
25.66858,41879
25.67670,41360
25.68483,46722
25.69295,45168
25.70107,40306
25.70920,43807
25.71732,40895
25.72543,42461
25.73357,42146
25.74168,42404
25.74982,41504
25.75793,40055
25.76605,40972
25.77418,42346
25.78230,43619
25.79043,41368
25.79855,42002
25.80667,42516
25.81480,43534
25.82292,43786
25.83103,42178
25.83917,43756
25.84728,47198
25.85542,40970
25.86353,41302
25.87165,42280
25.87978,45712
25.88790,44417
25.89603,41249
25.90415,44321
25.91227,41879
25.92040,42216
25.92852,40002
25.93665,41131
25.94477,41855
25.95288,46084
25.96102,44059
25.96913,41600
25.97725,41805
25.98538,39588
25.99350,45240
26.00163,41350
26.00975,41897
26.01787,39870
26.02600,42551
26.03412,42084
26.04225,42121
26.05037,40604
26.05848,42744
26.06662,45498
26.07473,48511
26.08285,41691
26.09098,41609
26.09910,42044
26.10723,46552
26.11535,44706
26.12347,48009
26.13160,48181
26.13972,49766
26.14785,49079
26.15597,50658
26.16408,52491
26.17222,55630
26.18033,58447
26.18847,59649
26.19658,58836
26.20470,56205
26.21283,57861
26.22095,56037
26.22907,53992
26.23720,53117
26.24532,50823
26.25345,54458
26.26157,50237
26.26968,48662
26.27782,50243
26.28593,53514
26.29407,55642
26.30218,52579
26.31030,54354
26.31843,46342
26.32655,49844
26.33468,49983
26.34280,46500
26.35092,48761
26.35905,43265
26.36717,45401
26.37528,44973
26.38342,45391
26.39153,47169
26.39967,43692
26.40778,44236
26.41590,47504
26.42403,43887
26.43215,48689
26.44028,46755
26.44840,48088
26.45652,47593
26.46465,42507
26.47277,40401
26.48088,45488
26.48902,41676
26.49713,46256
26.50527,42505
26.51338,40715
26.52150,42149
26.52963,40249
26.53775,40182
26.54588,39688
26.55400,41182
26.56212,37625
26.57025,41022
26.57837,43384
26.58650,41044
26.59462,41609
26.60273,37217
26.61087,45305
26.61898,46960
26.62710,42536
26.63523,40279
26.64335,40517
26.65148,43917
26.65960,50247
26.66772,48189
26.67585,53090
26.68397,57186
26.69210,58802
26.70022,57592
26.70833,58799
26.71647,51007
26.72458,54094
26.73272,48877
26.74083,46590
26.74895,45096
26.75708,48508
26.76520,47645
26.77332,48002
26.78145,45863
26.78957,42684
26.79770,42377
26.80582,49050
26.81393,43262
26.82207,46218
26.83018,42182
26.83832,46768
26.84643,47134
26.85455,49702
26.86268,52861
26.87080,50928
26.87892,50102
26.88705,54419
26.89517,50544
26.90330,48140
26.91142,47689
26.91953,44517
26.92767,46346
26.93578,44880
26.94392,45290
26.95203,41958
26.96015,49614
26.96828,56938
26.97640,77819
26.98453,122796
26.99265,241538
27.00077,502587
27.00890,983656
27.01702,1787227
27.02513,2827529
27.03327,3586998
27.04138,3767213
27.04952,3375541
27.05763,2677475
27.06575,1968924
27.07388,1346793
27.08200,941519
27.09013,730212
27.09825,556271
27.10637,478645
27.11450,410509
27.12262,343200
27.13075,297266
27.13887,281399
27.14698,258845
27.15512,241493
27.16323,220911
27.17135,197515
27.17948,192975
27.18760,180103
27.19573,175762
27.20385,164371
27.21197,162036
27.22010,153798
27.22822,149696
27.23635,145157
27.24447,141209
27.25258,134559
27.26072,129439
27.26883,119264
27.27695,113561
27.28508,112365
27.29320,105235
27.30133,106854
27.30945,103894
27.31757,97328
27.32570,97732
27.33382,96426
27.34195,91790
27.35007,94914
27.35818,96526
27.36632,89853
27.37443,86588
27.38257,80304
27.39068,83616
27.39880,79233
27.40693,81083
27.41505,84416
27.42317,78775
27.43130,84954
27.43942,80360
27.44755,80068
27.45567,78921
27.46378,71414
27.47192,75865
27.48003,72175
27.48817,71837
27.49628,74843
27.50440,72495
27.51253,72570
27.52065,70451
27.52877,69578
27.53690,69668
27.54502,74256
27.55315,63756
27.56127,72089
27.56938,68352
27.57752,71522
27.58563,68372
27.59377,64915
27.60188,64771
27.61000,66915
27.61813,64319
27.62625,63793
27.63438,68318
27.64250,69060
27.65062,62052
27.65875,59255
27.66687,60599
27.67498,60613
27.68312,56766
27.69123,54089
27.69937,57274
27.70748,57293
27.71560,56946
27.72373,56535
27.73185,54597
27.73998,54459
27.74810,55924
27.75622,55423
27.76435,56116
27.77247,53797
27.78060,52553
27.78872,53825
27.79683,55479
27.80497,51222
27.81308,56363
27.82120,61331
27.82933,51597
27.83745,55520
27.84558,50748
27.85370,52555
27.86182,50124
27.86995,51980
27.87807,50080
27.88620,50011
27.89432,51872
27.90243,55726
27.91057,48607
27.91868,50876
27.92680,50126
27.93493,47256
27.94305,45611
27.95118,46637
27.95930,50065
27.96742,47526
27.97555,46695
27.98367,48439
27.99180,47772
27.99992,48704
28.00803,52022
28.01617,52923
28.02428,45253
28.03242,47526
28.04053,49283
28.04865,45735
28.05678,46723
28.06490,52697
28.07302,45250
28.08115,48702
28.08927,50524
28.09740,50017
28.10552,52620
28.11363,49170
28.12177,46967
28.12988,49710
28.13802,48752
28.14613,46852
28.15425,44218
28.16238,44160
28.17050,45231
28.17863,48173
28.18675,50987
28.19487,45603
28.20300,52423
28.21112,49633
28.21923,54161
28.22737,65373
28.23548,64301
28.24362,61210
28.25173,59903
28.25985,59050
28.26798,54570
28.27610,48406
28.28423,51791
28.29235,52177
28.30047,50431
28.30860,57451
28.31672,77014
28.32483,100804
28.33297,145528
28.34108,208201
28.34922,293075
28.35733,369517
28.36545,466489
28.37358,509576
28.38170,557756
28.38983,569089
28.39795,532843
28.40607,469987
28.41420,430721
28.42232,356948
28.43045,318695
28.43857,274955
28.44668,235052
28.45482,213657
28.46293,191667
28.47105,167229
28.47918,150259
28.48730,138249
28.49543,137914
28.50355,136646
28.51167,114067
28.51980,114659
28.52792,110954
28.53605,106697
28.54417,103098
28.55228,96497
28.56042,93474
28.56853,94579
28.57665,92181
28.58478,91561
28.59290,91588
28.60103,81270
28.60915,84411
28.61727,80443
28.62540,83711
28.63352,77028
28.64165,82365
28.64977,79970
28.65788,78400
28.66602,88191
28.67413,77350
28.68227,80229
28.69038,82757
28.69850,81247
28.70663,75465
28.71475,74493
28.72287,72792
28.73100,71533
28.73912,68853
28.74725,63788
28.75537,68298
28.76348,68026
28.77162,76353
28.77973,83354
28.78787,92879
28.79598,108862
28.80410,106137
28.81223,96521
28.82035,87257
28.82848,77257
28.83660,72779
28.84472,63164
28.85285,58201
28.86097,58170
28.86908,56642
28.87722,60293
28.88533,61402
28.89347,58223
28.90158,60974
28.90970,58301
28.91783,59447
28.92595,58879
28.93408,57660
28.94220,54129
28.95032,58177
28.95845,56894
28.96657,54575
28.97470,59222
28.98282,64476
28.99093,56647
28.99907,58803
29.00718,60842
29.01530,57337
29.02343,61776
29.03155,52857
29.03968,57298
29.04780,53191
29.05592,55559
29.06405,54963
29.07217,58533
29.08030,57513
29.08842,55530
29.09653,52903
29.10467,53463
29.11278,53505
29.12090,49867
29.12903,53629
29.13715,51017
29.14528,52057
29.15340,52560
29.16152,50502
29.16965,54461
29.17777,55730
29.18590,55313
29.19402,50279
29.20213,57602
29.21027,51796
29.21838,54893
29.22652,56013
29.23463,57016
29.24275,54323
29.25088,53662
29.25900,51102
29.26712,54337
29.27525,51305
29.28337,53812
29.29150,52921
29.29962,52054
29.30773,48344
29.31587,50952
29.32398,51481
29.33212,51887
29.34023,47984
29.34835,47778
29.35648,48232
29.36460,50264
29.37272,48009
29.38085,49387
29.38897,49199
29.39710,50054
29.40522,51818
29.41333,53921
29.42147,53636
29.42958,54677
29.43772,51133
29.44583,57289
29.45395,54715
29.46208,49656
29.47020,48922
29.47833,48521
29.48645,47883
29.49457,53640
29.50270,54963
29.51082,55269
29.51893,59302
29.52707,57702
29.53518,52216
29.54332,56327
29.55143,54691
29.55955,53910
29.56768,49820
29.57580,54365
29.58393,46852
29.59205,47920
29.60017,47925
29.60830,49125
29.61642,49257
29.62455,47608
29.63267,49942
29.64078,44836
29.64892,48581
29.65703,52951
29.66515,44841
29.67328,44605
29.68140,43485
29.68953,47214
29.69765,47201
29.70577,48586
29.71390,45020
29.72202,46961
29.73015,41725
29.73827,47115
29.74638,46361
29.75452,49902
29.76263,50154
29.77075,43887
29.77888,46112
29.78700,43091
29.79513,45934
29.80325,47587
29.81137,46512
29.81950,41094
29.82762,42847
29.83575,44232
29.84387,44221
29.85198,45226
29.86012,47534
29.86823,45118
29.87637,41138
29.88448,46687
29.89260,47448
29.90073,51121
29.90885,51275
29.91697,54216
29.92510,59705
29.93322,55918
29.94135,59457
29.94947,55878
29.95758,56035
29.96572,60463
29.97383,69995
29.98197,83216
29.99008,95925
29.99820,121860
30.00633,146311
30.01445,176453
30.02258,190174
30.03070,211545
30.03882,216318
30.04695,219899
30.05507,208541
30.06318,212125
30.07132,201974
30.07943,187074
30.08757,175832
30.09568,162503
30.10380,151531
30.11193,141992
30.12005,126636
30.12818,128808
30.13630,104356
30.14442,107989
30.15255,101791
30.16067,95395
30.16878,86694
30.17692,85711
30.18503,84659
30.19317,82107
30.20128,78076
30.20940,71139
30.21753,66947
30.22565,73433
30.23378,73318
30.24190,68073
30.25002,66508
30.25815,67438
30.26627,61815
30.27440,62977
30.28252,62895
30.29063,57952
30.29877,57153
30.30688,59486
30.31500,59762
30.32313,56591
30.33125,56220
30.33938,58502
30.34750,59003
30.35562,60096
30.36375,56034
30.37187,53589
30.38000,58855
30.38812,56509
30.39623,54563
30.40437,57865
30.41248,53432
30.42060,54449
30.42873,51244
30.43685,54120
30.44498,53372
30.45310,52446
30.46122,51809
30.46935,48778
30.47747,52114
30.48560,51508
30.49372,53427
30.50183,51193
30.50997,52874
30.51808,51607
30.52622,48434
30.53433,49873
30.54245,50385
30.55058,48970
30.55870,47195
30.56682,47700
30.57495,47666
30.58307,48374
30.59120,46420
30.59932,47894
30.60743,45339
30.61557,45853
30.62368,44222
30.63182,46456
30.63993,43861
30.64805,49405
30.65618,44162
30.66430,41625
30.67243,43146
30.68055,41023
30.68867,41757
30.69680,43510
30.70492,46561
30.71303,47430
30.72117,43654
30.72928,48578
30.73742,46039
30.74553,46156
30.75365,47676
30.76178,48652
30.76990,49508
30.77803,44727
30.78615,43553
30.79427,48149
30.80240,48839
30.81052,45136
30.81863,48952
30.82677,52591
30.83488,50549
30.84302,49962
30.85113,51197
30.85925,49134
30.86738,44353
30.87550,48393
30.88363,45737
30.89175,43982
30.89987,44786
30.90800,46264
30.91612,45571
30.92425,48149
30.93237,51110
30.94048,43724
30.94862,42311
30.95673,42897
30.96485,43015
30.97298,42031
30.98110,42518
30.98923,47870
30.99735,45980
31.00547,42347
31.01360,47051
31.02172,44483
31.02985,50545
31.03797,43720
31.04608,48293
31.05422,50099
31.06233,48704
31.07047,47908
31.07858,47240
31.08670,45961
31.09483,49174
31.10295,49103
31.11107,56531
31.11920,65640
31.12732,66557
31.13545,61984
31.14357,63356
31.15168,57448
31.15982,55557
31.16793,49748
31.17607,55040
31.18418,57298
31.19230,70387
31.20043,81869
31.20855,119884
31.21667,155481
31.22480,204514
31.23292,258264
31.24105,276734
31.24917,276432
31.25728,210048
31.26542,171219
31.27353,118393
31.28167,88911
31.28978,67454
31.29790,59464
31.30603,50747
31.31415,44397
31.32228,48090
31.33040,46513
31.33852,46791
31.34665,45865
31.35477,47784
31.36288,46579
31.37102,43348
31.37913,47636
31.38727,45507
31.39538,46103
31.40350,42668
31.41163,43779
31.41975,48081
31.42788,47360
31.43600,49707
31.44412,46845
31.45225,51272
31.46037,51395
31.46850,49013
31.47662,46599
31.48473,42185
31.49287,43302
31.50098,41381
31.50910,44360
31.51723,42080
31.52535,44765
31.53348,42655
31.54160,39563
31.54972,45261
31.55785,40525
31.56597,41140
31.57410,44718
31.58222,39763
31.59033,43811
31.59847,42546
31.60658,44405
31.61470,42622
31.62283,41469
31.63095,45679
31.63908,39664
31.64720,36825
31.65532,46222
31.66345,45876
31.67157,45189
31.67970,45970
31.68782,43430
31.69593,43335
31.70407,43798
31.71218,42488
31.72032,41858
31.72843,39815
31.73655,42073
31.74468,41027
31.75280,39874
31.76092,43542
31.76905,40100
31.77717,43386
31.78530,39062
31.79342,43273
31.80153,41775
31.80967,44741
31.81778,44727
31.82592,43796
31.83403,46089
31.84215,44818
31.85028,49644
31.85840,46532
31.86652,54366
31.87465,54249
31.88277,54818
31.89090,51647
31.89902,55749
31.90713,52305
31.91527,48984
31.92338,59410
31.93152,62991
31.93963,73804
31.94775,88150
31.95588,99391
31.96400,111289
31.97213,116585
31.98025,127166
31.98837,141858
31.99650,133231
32.00462,130871
32.01273,125169
32.02087,118529
32.02898,115867
32.03712,101335
32.04523,102047
32.05335,91439
32.06148,87477
32.06960,80597
32.07773,78717
32.08585,77306
32.09397,79471
32.10210,78054
32.11022,77613
32.11835,77882
32.12647,71134
32.13458,74610
32.14272,63586
32.15083,62832
32.15895,56329
32.16708,55902
32.17520,52807
32.18333,57028
32.19145,59113
32.19957,51962
32.20770,53529
32.21582,54063
32.22395,51940
32.23207,56437
32.24018,51042
32.24832,50941
32.25643,52970
32.26455,54339
32.27268,56330
32.28080,51127
32.28893,50870
32.29705,48362
32.30517,45161
32.31330,49428
32.32142,47717
32.32955,51207
32.33767,46925
32.34578,47174
32.35392,52700
32.36203,49903
32.37017,49608
32.37828,50929
32.38640,52117
32.39453,51150
32.40265,48445
32.41077,52614
32.41890,48053
32.42702,46810
32.43515,47043
32.44327,45231
32.45138,44825
32.45952,44513
32.46763,46125
32.47577,44158
32.48388,48645
32.49200,47552
32.50013,45269
32.50825,44080
32.51638,46189
32.52450,45887
32.53262,50219
32.54075,44000
32.54887,47435
32.55698,45970
32.56512,48568
32.57323,51684
32.58137,46875
32.58948,49704
32.59760,47259
32.60573,44944
32.61385,47001
32.62198,45864
32.63010,43467
32.63822,47101
32.64635,47829
32.65447,48448
32.66258,49456
32.67072,55368
32.67883,67300
32.68697,73191
32.69508,81774
32.70320,73742
32.71133,69277
32.71945,59283
32.72758,57619
32.73570,54208
32.74382,52545
32.75195,53724
32.76007,48410
32.76820,46969
32.77632,52197
32.78443,42636
32.79257,46266
32.80068,43907
32.80880,44811
32.81693,42693
32.82505,45734
32.83318,43591
32.84130,47543
32.84942,42970
32.85755,45567
32.86567,42996
32.87380,41911
32.88192,44237
32.89003,44672
32.89817,45716
32.90628,39818
32.91440,45663
32.92253,45192
32.93065,48547
32.93878,51038
32.94690,49323
32.95502,47187
32.96315,44707
32.97127,42431
32.97940,44784
32.98752,48101
32.99563,42026
33.00377,45940
33.01188,48318
33.02002,45742
33.02813,47467
33.03625,44998
33.04438,42519
33.05250,44574
33.06062,43000
33.06875,44026
33.07687,41638
33.08500,44161
33.09312,47190
33.10123,51550
33.10937,51483
33.11748,53569
33.12562,58917
33.13373,64387
33.14185,66046
33.14998,66705
33.15810,58110
33.16623,57392
33.17435,50767
33.18247,49161
33.19060,48419
33.19872,50103
33.20683,43175
33.21497,50629
33.22308,48436
33.23122,51753
33.23933,49175
33.24745,46308
33.25558,49790
33.26370,47164
33.27183,48520
33.27995,46801
33.28807,46635
33.29620,48631
33.30432,44930
33.31243,45668
33.32057,44724
33.32868,47618
33.33682,47047
33.34493,43813
33.35305,44257
33.36118,44955
33.36930,43760
33.37743,44724
33.38555,45642
33.39367,47419
33.40180,48277
33.40992,44722
33.41805,45119
33.42617,43068
33.43428,45337
33.44242,48987
33.45053,43169
33.45865,43832
33.46678,41430
33.47490,44455
33.48303,45638
33.49115,45707
33.49927,46026
33.50740,45265
33.51552,47747
33.52365,47068
33.53177,46634
33.53988,44670
33.54802,42421
33.55613,47074
33.56427,47515
33.57238,47419
33.58050,45657
33.58863,46422
33.59675,46983
33.60487,46136
33.61300,48636
33.62112,45399
33.62925,45807
33.63737,43960
33.64548,43857
33.65362,45965
33.66173,48484
33.66987,48368
33.67798,44878
33.68610,49055
33.69423,46465
33.70235,46928
33.71047,45908
33.71860,44048
33.72672,43244
33.73485,44870
33.74297,47297
33.75108,40237
33.75922,41196
33.76733,42019
33.77547,44385
33.78358,44356
33.79170,45935
33.79983,49201
33.80795,47240
33.81608,48353
33.82420,52509
33.83232,49609
33.84045,49996
33.84857,45848
33.85668,49503
33.86482,51000
33.87293,49248
33.88107,54242
33.88918,52168
33.89730,49199
33.90543,48486
33.91355,51231
33.92168,54503
33.92980,44783
33.93792,42648
33.94605,45072
33.95417,46667
33.96228,46246
33.97042,51448
33.97853,42275
33.98667,50143
33.99478,48234
34.00290,47530
34.01103,50485
34.01915,48757
34.02728,43067
34.03540,47759
34.04352,45746
34.05165,44020
34.05977,45161
34.06790,42849
34.07602,46940
34.08413,48779
34.09227,41832
34.10038,47046
34.10850,43248
34.11663,47613
34.12475,52608
34.13288,49708
34.14100,45668
34.14912,47072
34.15725,51502
34.16537,46535
34.17350,45212
34.18162,50774
34.18973,47792
34.19787,44594
34.20598,46281
34.21412,43364
34.22223,46885
34.23035,40568
34.23848,45678
34.24660,49156
34.25472,44743
34.26285,46700
34.27097,47015
34.27910,45908
34.28722,48248
34.29533,49136
34.30347,48720
34.31158,47318
34.31972,51437
34.32783,50740
34.33595,46465
34.34408,53638
34.35220,49058
34.36033,49557
34.36845,49311
34.37657,49373
34.38470,48026
34.39282,48071
34.40093,46599
34.40907,51149
34.41718,51191
34.42532,51110
34.43343,51484
34.44155,49691
34.44968,45518
34.45780,50483
34.46593,47344
34.47405,48269
34.48217,48426
34.49030,43653
34.49842,47537
34.50653,53485
34.51467,50073
34.52278,53469
34.53092,49115
34.53903,63568
34.54715,71898
34.55528,81893
34.56340,93977
34.57153,97075
34.57965,105671
34.58777,97552
34.59590,92651
34.60402,94179
34.61215,87248
34.62027,80714
34.62838,74339
34.63652,70893
34.64463,68795
34.65275,66922
34.66088,61686
34.66900,59805
34.67713,62308
34.68525,60725
34.69337,61256
34.70150,64950
34.70962,65338
34.71775,59078
34.72587,56365
34.73398,56397
34.74212,57572
34.75023,61333
34.75835,60279
34.76648,59309
34.77460,58405
34.78273,59173
34.79085,58369
34.79897,57260
34.80710,56674
34.81522,55011
34.82335,58182
34.83147,50071
34.83958,56204
34.84772,53321
34.85583,50760
34.86397,56332
34.87208,56996
34.88020,54120
34.88833,55945
34.89645,47769
34.90457,53503
34.91270,50309
34.92082,52676
34.92895,57552
34.93707,54063
34.94518,59142
34.95332,58622
34.96143,55489
34.96957,61123
34.97768,64623
34.98580,63834
34.99393,68715
35.00205,69652
35.01018,60174
35.01830,62003
35.02642,65025
35.03455,60342
35.04267,60848
35.05078,61556
35.05892,57133
35.06703,62002
35.07517,53594
35.08328,61089
35.09140,58104
35.09953,56149
35.10765,58678
35.11578,59744
35.12390,57326
35.13202,63643
35.14015,63686
35.14827,66057
35.15638,63639
35.16452,69821
35.17263,78963
35.18077,68969
35.18888,67376
35.19700,68005
35.20513,62598
35.21325,60362
35.22138,58288
35.22950,53838
35.23762,52819
35.24575,54534
35.25387,58306
35.26200,55947
35.27012,54024
35.27823,55689
35.28637,59410
35.29448,57065
35.30260,55929
35.31073,59694
35.31885,54088
35.32698,51890
35.33510,53926
35.34322,51634
35.35135,48413
35.35947,56621
35.36760,55837
35.37572,51687
35.38383,51181
35.39197,51224
35.40008,55923
35.40822,53182
35.41633,49517
35.42445,51989
35.43258,54047
35.44070,54680
35.44882,53776
35.45695,51635
35.46507,56236
35.47320,57505
35.48132,54568
35.48943,53790
35.49757,57695
35.50568,51720
35.51382,56070
35.52193,54258
35.53005,52272
35.53818,52339
35.54630,50888
35.55442,52227
35.56255,57435
35.57067,53760
35.57880,52566
35.58692,54753
35.59503,58094
35.60317,52097
35.61128,60170
35.61942,56755
35.62753,53927
35.63565,53826
35.64378,55200
35.65190,54921
35.66003,55603
35.66815,55880
35.67627,52563
35.68440,56496
35.69252,63197
35.70063,58255
35.70877,67355
35.71688,65603
35.72502,65708
35.73313,59575
35.74125,60643
35.74938,55654
35.75750,58964
35.76563,58121
35.77375,58499
35.78187,58304
35.79000,59038
35.79812,55832
35.80623,56206
35.81437,55980
35.82248,58934
35.83062,55695
35.83873,53885
35.84685,59241
35.85498,58085
35.86310,53935
35.87123,56186
35.87935,60811
35.88747,57386
35.89560,59339
35.90372,54602
35.91185,54758
35.91997,50911
35.92808,57978
35.93622,53303
35.94433,55608
35.95245,53665
35.96058,50140
35.96870,50200
35.97683,50434
35.98495,53754
35.99307,54184
36.00120,57765
36.00932,57445
36.01745,57809
36.02557,60583
36.03368,61407
36.04182,63109
36.04993,61618
36.05807,60679
36.06618,55680
36.07430,62635
36.08243,58022
36.09055,59930
36.09867,58885
36.10680,56636
36.11492,58048
36.12305,57931
36.13117,55437
36.13928,58751
36.14742,60608
36.15553,63008
36.16367,58364
36.17178,59613
36.17990,58577
36.18803,59041
36.19615,60526
36.20427,56846
36.21240,59323
36.22052,58450
36.22865,66643
36.23677,63629
36.24488,60830
36.25302,60548
36.26113,60996
36.26927,59065
36.27738,55101
36.28550,57232
36.29363,60067
36.30175,56458
36.30988,61012
36.31800,66790
36.32612,80132
36.33425,78479
36.34237,83228
36.35048,83378
36.35862,75898
36.36673,81404
36.37487,72484
36.38298,78125
36.39110,77131
36.39923,80327
36.40735,79708
36.41548,67665
36.42360,71892
36.43172,70988
36.43985,64105
36.44797,69607
36.45610,65212
36.46422,59394
36.47233,57552
36.48047,56925
36.48858,54352
36.49670,53878
36.50483,55354
36.51295,59675
36.52108,58779
36.52920,50410
36.53732,58914
36.54545,58695
36.55357,59475
36.56170,57910
36.56982,58961
36.57793,60409
36.58607,63326
36.59418,59910
36.60230,57911
36.61043,55268
36.61855,60360
36.62668,57729
36.63480,61653
36.64292,60472
36.65105,60576
36.65917,61861
36.66730,57453
36.67542,59355
36.68353,60730
36.69167,65091
36.69978,64454
36.70792,62679
36.71603,63884
36.72415,65396
36.73228,58901
36.74040,60575
36.74852,58947
36.75665,64865
36.76477,62778
36.77290,56676
36.78102,59160
36.78913,56155
36.79727,56101
36.80538,60845
36.81352,58010
36.82163,59486
36.82975,58067
36.83788,58165
36.84600,53738
36.85413,60844
36.86225,56374
36.87037,61284
36.87850,58298
36.88662,60408
36.89473,58658
36.90287,59636
36.91098,64234
36.91912,61629
36.92723,62425
36.93535,61067
36.94348,59839
36.95160,63760
36.95973,56407
36.96785,57567
36.97597,60201
36.98410,61855
36.99222,59191
37.00033,56824
37.00847,60633
37.01658,57690
37.02472,56637
37.03283,60212
37.04095,59944
37.04908,62399
37.05720,62789
37.06533,60281
37.07345,61401
37.08157,62815
37.08970,65270
37.09782,63772
37.10595,58986
37.11407,64059
37.12218,60037
37.13032,60160
37.13843,64868
37.14655,59205
37.15468,57622
37.16280,61993
37.17093,59840
37.17905,65567
37.18717,62082
37.19530,62085
37.20342,66306
37.21155,64018
37.21967,65444
37.22778,66596
37.23592,64785
37.24403,63944
37.25215,61282
37.26028,61605
37.26840,66693
37.27653,63990
37.28465,65139
37.29277,66236
37.30090,66378
37.30902,67042
37.31715,65542
37.32527,66580
37.33338,65644
37.34152,69675
37.34963,76441
37.35777,84662
37.36588,89756
37.37400,93750
37.38213,100387
37.39025,92609
37.39837,99973
37.40650,95565
37.41462,87244
37.42275,81776
37.43087,79819
37.43898,81863
37.44712,81465
37.45523,79717
37.46337,78481
37.47148,81978
37.47960,83426
37.48773,79795
