Z:\data\JTB-E02\BACandBLUE\JTB-E02-203.D Fri Mar 08 08:40:12 2019
Start of data points
2.09520	63096
2.10333	68379
2.11145	70971
2.11957	78503
2.12770	83659
2.13582	85205
2.14393	94878
2.15207	100305
2.16018	104876
2.16832	111735
2.17643	111013
2.18455	116442
2.19268	113071
2.20080	109728
2.20893	109124
2.21705	102220
2.22517	105560
2.23330	96837
2.24142	93511
2.24955	88475
2.25767	91159
2.26578	87925
2.27392	82408
2.28203	94548
2.29015	362279
2.29828	1191143
2.30640	1067551
2.31453	615944
2.32265	455530
2.33077	369969
2.33890	343092
2.34702	298209
2.35515	290608
2.36327	268488
2.37138	240746
2.37952	226146
2.38763	202487
2.39577	201439
2.40388	184230
2.41200	177255
2.42013	167367
2.42825	168078
2.43637	168975
2.44450	192857
2.45262	171649
2.46075	158269
2.46887	147848
2.47698	149923
2.48512	153223
2.49323	145412
2.50137	128742
2.50948	123316
2.51760	124723
2.52573	118685
2.53385	117922
2.54197	118987
2.55010	112783
2.55822	108554
2.56635	114753
2.57447	114225
2.58258	115256
2.59072	111207
2.59883	105303
2.60697	103021
2.61508	104938
2.62320	99294
2.63133	111211
2.63945	106922
2.64758	101885
2.65570	99820
2.66382	98008
2.67195	97124
2.68007	101839
2.68818	93716
2.69632	88981
2.70443	89383
2.71257	83753
2.72068	86792
2.72880	88429
2.73693	80777
2.74505	85737
2.75318	86015
2.76130	81632
2.76942	84458
2.77755	78401
2.78567	80550
2.79378	82584
2.80192	75443
2.81003	73968
2.81817	83522
2.82628	82152
2.83440	75334
2.84253	78297
2.85065	80987
2.85878	81614
2.86690	77147
2.87502	73853
2.88315	77469
2.89127	74366
2.89940	75390
2.90752	77236
2.91563	74830
2.92377	73768
2.93188	76414
2.94000	74701
2.94813	71173
2.95625	73387
2.96438	71897
2.97250	67831
2.98062	72460
2.98875	71623
2.99687	67784
3.00500	71452
3.01312	71601
3.02123	67047
3.02937	75749
3.03748	69798
3.04562	72084
3.05373	67771
3.06185	70233
3.06998	69289
3.07810	65926
3.08622	67237
3.09435	68395
3.10247	66511
3.11060	64380
3.11872	70074
3.12683	73869
3.13497	79806
3.14308	74495
3.15122	77183
3.15933	74243
3.16745	73435
3.17558	70642
3.18370	66873
3.19182	65545
3.19995	65815
3.20807	70982
3.21620	66347
3.22432	73458
3.23243	70765
3.24057	69090
3.24868	67595
3.25682	62712
3.26493	64602
3.27305	68951
3.28118	62550
3.28930	63324
3.29743	68210
3.30555	104353
3.31367	326027
3.32180	864708
3.32992	1475227
3.33803	1722209
3.34617	1576356
3.35428	1331792
3.36242	1127725
3.37053	997164
3.37865	900332
3.38678	812435
3.39490	753209
3.40303	708692
3.41115	665732
3.41927	619605
3.42740	589355
3.43552	551435
3.44365	525443
3.45177	510446
3.45988	491489
3.46802	467699
3.47613	439151
3.48425	442686
3.49238	413499
3.50050	410447
3.50863	391653
3.51675	377754
3.52487	364625
3.53300	363907
3.54112	339893
3.54925	336894
3.55737	319054
3.56548	319922
3.57362	313264
3.58173	295733
3.58985	299568
3.59798	295471
3.60610	297345
3.61423	284533
3.62235	284386
3.63047	276153
3.63860	276835
3.64672	263138
3.65485	265311
3.66297	263727
3.67108	246488
3.67922	246280
3.68733	256486
3.69547	243976
3.70358	236264
3.71170	230573
3.71983	231097
3.72795	229472
3.73607	220890
3.74420	224052
3.75232	214557
3.76045	216775
3.76857	199838
3.77668	212678
3.78482	204378
3.79293	199871
3.80107	207926
3.80918	210959
3.81730	203638
3.82543	202540
3.83355	202255
3.84167	195839
3.84980	194295
3.85792	191115
3.86605	191573
3.87417	186470
3.88228	188829
3.89042	181552
3.89853	196980
3.90667	180171
3.91478	177151
3.92290	177260
3.93103	173755
3.93915	164928
3.94728	169731
3.95540	167250
3.96352	170425
3.97165	165915
3.97977	165132
3.98788	154846
3.99602	161709
4.00413	164496
4.01227	161387
4.02038	161856
4.02850	160279
4.03663	159469
4.04475	153617
4.05288	160337
4.06100	150788
4.06912	151324
4.07725	151248
4.08537	147429
4.09350	143335
4.10162	145635
4.10973	143230
4.11787	142276
4.12598	145110
4.13410	140240
4.14223	143515
4.15035	148020
4.15848	149636
4.16660	153135
4.17472	166577
4.18285	151208
4.19097	156221
4.19910	146071
4.20722	139430
4.21533	143179
4.22347	147758
4.23158	145009
4.23972	143626
4.24783	141268
4.25595	147675
4.26408	135769
4.27220	135778
4.28032	140313
4.28845	141364
4.29657	133338
4.30470	138053
4.31282	130727
4.32093	134153
4.32907	131261
4.33718	135934
4.34532	137457
4.35343	136520
4.36155	129802
4.36968	131668
4.37780	127347
4.38592	130140
4.39405	125747
4.40217	124825
4.41030	122846
4.41842	128636
4.42653	124119
4.43467	126418
4.44278	120580
4.45092	128017
4.45903	115803
4.46715	122994
4.47528	122593
4.48340	115041
4.49153	124412
4.49965	115892
4.50777	122290
4.51590	117740
4.52402	119444
4.53213	120973
4.54027	113325
4.54838	115773
4.55652	111294
4.56463	110824
4.57275	115264
4.58088	113371
4.58900	113991
4.59713	111149
4.60525	109304
4.61337	112196
4.62150	111205
4.62962	107154
4.63773	111364
4.64587	113522
4.65398	108663
4.66212	105839
4.67023	103578
4.67835	106032
4.68648	106769
4.69460	110838
4.70273	107869
4.71085	104208
4.71897	103189
4.72710	104994
4.73522	104628
4.74335	103737
4.75147	102359
4.75958	107805
4.76772	102753
4.77583	102005
4.78395	103738
4.79208	102410
4.80020	103550
4.80833	102746
4.81645	102945
4.82457	99345
4.83270	92315
4.84082	99809
4.84895	99561
4.85707	97791
4.86518	99027
4.87332	105606
4.88143	104500
4.88957	103333
4.89768	98800
4.90580	99711
4.91393	99778
4.92205	98107
4.93017	96077
4.93830	98031
4.94642	105389
4.95455	130105
4.96267	192915
4.97078	332970
4.97892	463784
4.98703	560497
4.99517	575580
5.00328	533008
5.01140	473340
5.01953	415108
5.02765	377086
5.03577	344759
5.04390	330220
5.05202	301499
5.06015	290035
5.06827	281976
5.07638	269076
5.08452	257575
5.09263	241029
5.10077	236534
5.10888	237180
5.11700	226555
5.12513	222396
5.13325	208031
5.14138	209750
5.14950	199574
5.15762	201296
5.16575	197172
5.17387	193875
5.18198	192215
5.19012	185546
5.19823	177083
5.20637	182434
5.21448	174023
5.22260	174759
5.23073	171738
5.23885	166606
5.24698	172444
5.25510	175531
5.26322	170674
5.27135	164913
5.27947	161869
5.28760	152518
5.29572	156022
5.30383	152403
5.31197	154747
5.32008	154221
5.32820	145022
5.33633	141046
5.34445	146340
5.35258	147608
5.36070	139899
5.36882	137860
5.37695	145608
5.38507	134586
5.39320	127187
5.40132	132594
5.40943	128129
5.41757	135066
5.42568	130750
5.43380	133225
5.44193	134248
5.45005	128484
5.45818	129276
5.46630	135005
5.47442	129652
5.48255	134214
5.49067	122456
5.49880	128997
5.50692	128816
5.51503	131605
5.52317	128052
5.53128	123382
5.53942	129826
5.54753	125169
5.55565	119728
5.56378	127830
5.57190	125227
5.58002	127511
5.58815	119174
5.59627	125258
5.60440	116997
5.61252	124251
5.62063	118527
5.62877	125392
5.63688	121847
5.64502	123875
5.65313	117551
5.66125	125353
5.66938	126527
5.67750	122867
5.68562	123282
5.69375	141048
5.70187	148619
5.71000	141788
5.71812	138000
5.72623	135481
5.73437	123457
5.74248	131038
5.75062	124344
5.75873	114917
5.76685	119858
5.77498	120221
5.78310	115239
5.79123	111157
5.79935	106778
5.80747	112499
5.81560	112057
5.82372	110740
5.83183	112424
5.83997	111691
5.84808	105436
5.85622	106471
5.86433	107374
5.87245	101017
5.88058	106318
5.88870	102081
5.89683	100204
5.90495	95752
5.91307	96081
5.92120	87763
5.92932	78995
5.93745	77857
5.94557	79646
5.95368	79423
5.96182	75480
5.96993	79291
5.97805	79548
5.98618	79754
5.99430	91047
6.00243	89048
6.01055	89217
6.01867	91982
6.02680	87317
6.03492	77942
6.04305	79192
6.05117	81630
6.05928	79019
6.06742	73049
6.07553	75883
6.08365	71538
6.09178	77648
6.09990	74304
6.10803	71395
6.11615	77426
6.12427	72504
6.13240	77818
6.14052	77840
6.14865	78452
6.15677	80193
6.16488	80479
6.17302	81713
6.18113	77710
6.18927	84484
6.19738	87154
6.20550	86815
6.21363	92548
6.22175	92161
6.22987	95802
6.23800	97357
6.24612	99786
6.25425	99818
6.26237	107079
6.27048	107260
6.27862	103168
6.28673	104566
6.29487	112066
6.30298	112501
6.31110	108234
6.31923	118827
6.32735	119073
6.33548	123957
6.34360	95447
6.35172	87747
6.35985	86988
6.36797	82161
6.37608	82828
6.38422	79934
6.39233	77036
6.40047	81427
6.40858	80753
6.41670	87979
6.42483	76659
6.43295	76976
6.44108	78004
6.44920	78431
6.45732	74193
6.46545	73816
6.47357	75864
6.48168	71031
6.48982	75891
6.49793	74631
6.50607	77490
6.51418	73599
6.52230	75857
6.53043	71955
6.53855	69226
6.54668	72603
6.55480	68283
6.56292	74966
6.57105	70150
6.57917	64942
6.58730	67502
6.59542	70732
6.60353	72652
6.61167	66520
6.61978	69635
6.62790	66911
6.63603	70431
6.64415	66737
6.65228	67147
6.66040	70682
6.66852	68212
6.67665	66889
6.68477	70623
6.69290	65730
6.70102	66339
6.70913	65816
6.71727	64957
6.72538	61364
6.73350	68419
6.74163	66040
6.74975	59700
6.75788	60417
6.76600	62919
6.77412	61589
6.78225	61474
6.79037	58744
6.79850	61464
6.80662	59957
6.81473	67961
6.82287	65207
6.83098	66187
6.83912	61838
6.84723	62947
6.85535	65008
6.86348	61648
6.87160	49345
6.87972	49182
6.88785	52397
6.89597	49340
6.90410	53411
6.91222	54942
6.92033	58681
6.92847	56583
6.93658	52952
6.94472	55974
6.95283	48360
6.96095	50246
6.96908	53464
6.97720	54964
6.98533	50640
6.99345	49015
7.00157	48840
7.00970	47858
7.01782	46931
7.02593	49271
7.03407	47144
7.04218	44093
7.05032	45733
7.05843	47603
7.06655	47705
7.07468	45394
7.08280	43825
7.09093	42743
7.09905	46143
7.10717	44160
7.11530	44351
7.12342	44871
7.13153	43910
7.13967	51913
7.14778	43859
7.15592	44399
7.16403	44237
7.17215	48217
7.18028	47191
7.18840	48872
7.19653	47417
7.20465	42813
7.21277	45816
7.22090	46708
7.22902	43477
7.23715	46426
7.24527	44847
7.25338	45373
7.26152	42015
7.26963	44686
7.27775	43894
7.28588	45029
7.29400	40258
7.30213	45246
7.31025	47654
7.31837	45392
7.32650	47583
7.33462	44890
7.34275	44719
7.35087	42907
7.35898	48302
7.36712	42699
7.37523	47903
7.38337	42727
7.39148	46991
7.39960	50398
7.40773	43060
7.41585	48163
7.42397	47315
7.43210	46872
7.44022	40253
7.44835	42952
7.45647	41113
7.46458	43861
7.47272	42694
7.48083	39002
7.48897	42542
7.49708	44348
7.50520	42887
7.51333	46255
7.52145	45075
7.52957	44465
7.53770	45121
7.54582	42241
7.55395	48217
7.56207	43809
7.57018	43386
7.57832	47086
7.58643	43587
7.59457	42194
7.60268	42497
7.61080	47507
7.61893	41976
7.62705	45905
7.63518	45855
7.64330	47529
7.65142	43031
7.65955	46323
7.66767	43402
7.67578	45747
7.68392	48374
7.69203	48437
7.70017	45925
7.70828	41417
7.71640	44864
7.72453	43028
7.73265	41099
7.74078	40258
7.74890	46566
7.75702	42119
7.76515	47552
7.77327	42451
7.78140	43718
7.78952	41900
7.79763	41558
7.80577	38806
7.81388	42295
7.82200	43800
7.83013	42265
7.83825	40086
7.84638	44197
7.85450	42005
7.86262	41349
7.87075	41358
7.87887	41511
7.88700	44512
7.89512	40063
7.90323	41151
7.91137	38866
7.91948	44593
7.92760	42305
7.93573	43063
7.94385	38464
7.95198	42967
7.96010	38826
7.96822	45129
7.97635	44679
7.98447	41372
7.99260	41840
8.00072	43863
8.00883	44471
8.01697	44628
8.02508	45337
8.03322	42068
8.04133	41125
8.04945	49383
8.05758	39301
8.06570	42714
8.07382	43778
8.08195	41316
8.09007	41392
8.09820	40952
8.10632	42818
8.11443	47021
8.12257	39796
8.13068	40138
8.13882	43298
8.14693	46181
8.15505	41478
8.16318	40998
8.17130	42962
8.17942	38311
8.18755	40408
8.19567	39520
8.20380	45574
8.21192	40281
8.22003	40989
8.22817	39574
8.23628	42197
8.24442	45280
8.25253	45850
8.26065	47894
8.26878	41447
8.27690	41070
8.28503	44240
8.29315	39935
8.30127	42708
8.30940	43358
8.31752	43495
8.32563	41633
8.33377	41351
8.34188	45218
8.35002	35396
8.35813	40442
8.36625	39760
8.37438	41984
8.38250	43887
8.39063	50590
8.39875	45409
8.40687	46817
8.41500	41799
8.42312	42196
8.43125	40634
8.43937	42202
8.44748	42274
8.45562	39251
8.46373	41573
8.47185	38578
8.47998	38341
8.48810	38550
8.49623	43657
8.50435	42369
8.51247	41717
8.52060	41460
8.52872	45498
8.53685	42233
8.54497	46552
8.55308	43216
8.56122	38902
8.56933	41700
8.57745	40405
8.58558	37837
8.59370	38032
8.60183	40870
8.60995	39613
8.61807	40704
8.62620	41044
8.63432	41281
8.64245	38548
8.65057	39292
8.65868	38097
8.66682	38890
8.67493	37216
8.68307	39596
8.69118	36791
8.69930	36670
8.70743	36129
8.71555	38192
8.72367	40544
8.73180	37574
8.73992	39279
8.74805	37591
8.75617	33076
8.76428	40006
8.77242	39254
8.78053	42485
8.78867	53452
8.79678	69929
8.80490	107147
8.81303	137784
8.82115	164290
8.82928	163828
8.83740	154810
8.84552	135644
8.85365	130645
8.86177	109502
8.86988	103325
8.87802	97328
8.88613	92675
8.89427	82575
8.90238	79194
8.91050	80642
8.91863	76113
8.92675	71451
8.93488	68099
8.94300	69186
8.95112	66501
8.95925	64741
8.96737	63784
8.97548	63696
8.98362	56617
8.99173	61233
8.99987	58494
9.00798	61257
9.01610	57999
9.02423	54708
9.03235	56705
9.04048	55446
9.04860	55911
9.05672	50629
9.06485	55844
9.07297	60127
9.08110	45610
9.08922	51072
9.09733	51669
9.10547	51009
9.11358	53123
9.12170	47912
9.12983	48088
9.13795	50804
9.14608	50427
9.15420	47347
9.16232	50546
9.17045	53727
9.17857	51065
9.18670	48261
9.19482	51101
9.20293	50643
9.21107	50002
9.21918	47294
9.22730	51711
9.23543	50835
9.24355	49805
9.25168	48465
9.25980	51338
9.26792	47881
9.27605	46751
9.28417	50256
9.29230	45816
9.30042	43148
9.30853	50488
9.31667	50689
9.32478	49218
9.33292	46567
9.34103	44608
9.34915	42987
9.35728	45447
9.36540	44184
9.37352	43431
9.38165	43792
9.38977	44659
9.39790	45433
9.40602	43201
9.41413	46118
9.42227	44169
9.43038	43316
9.43852	42749
9.44663	42407
9.45475	46246
9.46288	43063
9.47100	45343
9.47913	45961
9.48725	45387
9.49537	49734
9.50350	42155
9.51162	39698
9.51973	39090
9.52787	49977
9.53598	38950
9.54412	40265
9.55223	42752
9.56035	42254
9.56848	39838
9.57660	42717
9.58473	40198
9.59285	44647
9.60097	42458
9.60910	42702
9.61722	41016
9.62535	43909
9.63347	44222
9.64158	41631
9.64972	40126
9.65783	42983
9.66595	41142
9.67408	37928
9.68220	40563
9.69033	39855
9.69845	36709
9.70657	38741
9.71470	37318
9.72282	35936
9.73095	36775
9.73907	39931
9.74718	36854
9.75532	41562
9.76343	37270
9.77155	36426
9.77968	33500
9.78780	36156
9.79593	37221
9.80405	34577
9.81217	34307
9.82030	35019
9.82842	37999
9.83655	36773
9.84467	42787
9.85278	41666
9.86092	41016
9.86903	41565
9.87717	35310
9.88528	38645
9.89340	41311
9.90153	39721
9.90965	34093
9.91777	40987
9.92590	37110
9.93402	36365
9.94215	39091
9.95027	35239
9.95838	37425
9.96652	40752
9.97463	40001
9.98277	37395
9.99088	39241
9.99900	37152
10.00713	34410
10.01525	34229
10.02337	37662
10.03150	37240
10.03962	38672
10.04775	44263
10.05587	46875
10.06398	43911
10.07212	41684
10.08023	40740
10.08837	42680
10.09648	41495
10.10460	37293
10.11273	40066
10.12085	38777
10.12898	41668
10.13710	38289
10.14522	38597
10.15335	40763
10.16147	40394
10.16958	41065
10.17772	39408
10.18583	37770
10.19397	38274
10.20208	36371
10.21020	35588
10.21833	35764
10.22645	37674
10.23458	40497
10.24270	43745
10.25082	44452
10.25895	40672
10.26707	44411
10.27520	39152
10.28332	41623
10.29143	42149
10.29957	38239
10.30768	40310
10.31580	36445
10.32393	40822
10.33205	37176
10.34018	34813
10.34830	38276
10.35642	39445
10.36455	39865
10.37267	35481
10.38080	35690
10.38892	37720
10.39703	37126
10.40517	34208
10.41328	38390
10.42140	39125
10.42953	42318
10.43765	36307
10.44578	35694
10.45390	33278
10.46202	38723
10.47015	38159
10.47827	38059
10.48640	35443
10.49452	36119
10.50263	34670
10.51077	38904
10.51888	38186
10.52702	37346
10.53513	36295
10.54325	34192
10.55138	33435
10.55950	38162
10.56762	37381
10.57575	36254
10.58387	40912
10.59200	31421
10.60012	36539
10.60823	35887
10.61637	34227
10.62448	37560
10.63262	35117
10.64073	35965
10.64885	34508
10.65698	29143
10.66510	33868
10.67323	33666
10.68135	35353
10.68947	37915
10.69760	35741
10.70572	38917
10.71383	34634
10.72197	31584
10.73008	35957
10.73822	36264
10.74633	39739
10.75445	36746
10.76258	35956
10.77070	34216
10.77883	34777
10.78695	39506
10.79507	36574
10.80320	41128
10.81132	36809
10.81943	34793
10.82757	36038
10.83568	37853
10.84382	37852
10.85193	34426
10.86005	40038
10.86818	38117
10.87630	35321
10.88443	34357
10.89255	30492
10.90067	32990
10.90880	34472
10.91692	35519
10.92505	33011
10.93317	33161
10.94128	34679
10.94942	35260
10.95753	33593
10.96565	42770
10.97378	34973
10.98190	36714
10.99003	35317
10.99815	34517
11.00627	36638
11.01440	32902
11.02252	34694
11.03065	33205
11.03877	34818
11.04688	31016
11.05502	34941
11.06313	36153
11.07125	35072
11.07938	34028
11.08750	35847
11.09563	30424
11.10375	36492
11.11187	35652
11.12000	34584
11.12812	34653
11.13625	35288
11.14437	40542
11.15248	33637
11.16062	34955
11.16873	34551
11.17687	36759
11.18498	36379
11.19310	33906
11.20123	34894
11.20935	36641
11.21747	38531
11.22560	36635
11.23372	40979
11.24185	40561
11.24997	40392
11.25808	43190
11.26622	40411
11.27433	35900
11.28247	34428
11.29058	36787
11.29870	34416
11.30683	40543
11.31495	36684
11.32308	33412
11.33120	35031
11.33932	34375
11.34745	37360
11.35557	35535
11.36368	34134
11.37182	35657
11.37993	37411
11.38807	36465
11.39618	32199
11.40430	35115
11.41243	34106
11.42055	35431
11.42868	32850
11.43680	40174
11.44492	34063
11.45305	33441
11.46117	35900
11.46928	33749
11.47742	35562
11.48553	37530
11.49367	35977
11.50178	36176
11.50990	35557
11.51803	36532
11.52615	31600
11.53428	30651
11.54240	36988
11.55052	34215
11.55865	35847
11.56677	36831
11.57490	31334
11.58302	33301
11.59113	36366
11.59927	35355
11.60738	34853
11.61550	34896
11.62363	33793
11.63175	31725
11.63988	34388
11.64800	31001
11.65612	33720
11.66425	34262
11.67237	38973
11.68050	33391
11.68862	31475
11.69673	33467
11.70487	29108
11.71298	34797
11.72112	35521
11.72923	31643
11.73735	33629
11.74548	34224
11.75360	35901
11.76172	36233
11.76985	40258
11.77797	33569
11.78610	33825
11.79422	34858
11.80233	31012
11.81047	37211
11.81858	35647
11.82672	33197
11.83483	35238
11.84295	35099
11.85108	33472
11.85920	31395
11.86732	31100
11.87545	33102
11.88357	31687
11.89170	32426
11.89982	33911
11.90793	34918
11.91607	34732
11.92418	31739
11.93232	33648
11.94043	38473
11.94855	36621
11.95668	36430
11.96480	32305
11.97293	32640
11.98105	36429
11.98917	33949
11.99730	38995
12.00542	32816
12.01353	30891
12.02167	36209
12.02978	33972
12.03792	31386
12.04603	36966
12.05415	39792
12.06228	36129
12.07040	33091
12.07853	35980
12.08665	35061
12.09477	29900
12.10290	32040
12.11102	30702
12.11915	33247
12.12727	32661
12.13538	34220
12.14352	34735
12.15163	36086
12.15975	35020
12.16788	34078
12.17600	32907
12.18413	32723
12.19225	32422
12.20037	31375
12.20850	33031
12.21662	37611
12.22475	34659
12.23287	33371
12.24098	33610
12.24912	34241
12.25723	33919
12.26535	36882
12.27348	31405
12.28160	31591
12.28973	32392
12.29785	32802
12.30597	32730
12.31410	34552
12.32222	34361
12.33035	32974
12.33847	33878
12.34658	32097
12.35472	33527
12.36283	33408
12.37097	34023
12.37908	30681
12.38720	33004
12.39533	36787
12.40345	33531
12.41157	32765
12.41970	31161
12.42782	34392
12.43595	36092
12.44407	34821
12.45218	29980
12.46032	31754
12.46843	37215
12.47657	38044
12.48468	39842
12.49280	42400
12.50093	38979
12.50905	36516
12.51717	33017
12.52530	31601
12.53342	38565
12.54155	30796
12.54967	37741
12.55778	33554
12.56592	31909
12.57403	27350
12.58217	32212
12.59028	34470
12.59840	34728
12.60653	35512
12.61465	34787
12.62278	32689
12.63090	34717
12.63902	37312
12.64715	34214
12.65527	31427
12.66338	32917
12.67152	34564
12.67963	31564
12.68777	33054
12.69588	33406
12.70400	33494
12.71213	32348
12.72025	34255
12.72838	33383
12.73650	38102
12.74462	40740
12.75275	44172
12.76087	44015
12.76900	47520
12.77712	47871
12.78523	39484
12.79337	39697
12.80148	34824
12.80960	37320
12.81773	38337
12.82585	36530
12.83398	34133
12.84210	34101
12.85022	29942
12.85835	32925
12.86647	36967
12.87460	34592
12.88272	35914
12.89083	35112
12.89897	34037
12.90708	33803
12.91520	31391
12.92333	34503
12.93145	32213
12.93958	34676
12.94770	34102
12.95582	33524
12.96395	35521
12.97207	33626
12.98020	30991
12.98832	30313
12.99643	30934
13.00457	31569
13.01268	34077
13.02082	35473
13.02893	37959
13.03705	32718
13.04518	28476
13.05330	31583
13.06142	38323
13.06955	35290
13.07767	30519
13.08580	34278
13.09392	34412
13.10203	32274
13.11017	33554
13.11828	32523
13.12642	34516
13.13453	32104
13.14265	33537
13.15078	31764
13.15890	36241
13.16703	32253
13.17515	35420
13.18327	30108
13.19140	33765
13.19952	32906
13.20763	33010
13.21577	38038
13.22388	35234
13.23202	35757
13.24013	37012
13.24825	32733
13.25638	32961
13.26450	30746
13.27263	33445
13.28075	34755
13.28887	33645
13.29700	33891
13.30512	30001
13.31323	30014
13.32137	33795
13.32948	33769
13.33762	33905
13.34573	30378
13.35385	34757
13.36198	29399
13.37010	36470
13.37823	31338
13.38635	33048
13.39447	34119
13.40260	31456
13.41072	29939
13.41885	29887
13.42697	29011
13.43508	28152
13.44322	32263
13.45133	30750
13.45945	31856
13.46758	29595
13.47570	31596
13.48383	28909
13.49195	31718
13.50007	31709
13.50820	36941
13.51632	35544
13.52445	30448
13.53257	34807
13.54068	35924
13.54882	32887
13.55693	31790
13.56505	32059
13.57318	31145
13.58130	31614
13.58943	33098
13.59755	32048
13.60567	32716
13.61380	30156
13.62192	32457
13.63005	30975
13.63817	35086
13.64628	31307
13.65442	31416
13.66253	34643
13.67067	31044
13.67878	33181
13.68690	32061
13.69503	30437
13.70315	32960
13.71127	34231
13.71940	32043
13.72752	32941
13.73565	30600
13.74377	28324
13.75188	30935
13.76002	35475
13.76813	33201
13.77627	36746
13.78438	36545
13.79250	32120
13.80063	30230
13.80875	34743
13.81688	29495
13.82500	35825
13.83312	31854
13.84125	32721
13.84937	31600
13.85748	34887
13.86562	32579
13.87373	32173
13.88187	32827
13.88998	35441
13.89810	31236
13.90623	28583
13.91435	30746
13.92248	32737
13.93060	32216
13.93872	32942
13.94685	33302
13.95497	34276
13.96310	34930
13.97122	34835
13.97933	35908
13.98747	33054
13.99558	39913
14.00370	32340
14.01183	31522
14.01995	30875
14.02808	31138
14.03620	30086
14.04432	30538
14.05245	36657
14.06057	31548
14.06870	30839
14.07682	34087
14.08493	34132
14.09307	33645
14.10118	35008
14.10930	33292
14.11743	33475
14.12555	33468
14.13368	31803
14.14180	30704
14.14992	33649
14.15805	32103
14.16617	31123
14.17430	32487
14.18242	32481
14.19053	37157
14.19867	40584
14.20678	45132
14.21492	60413
14.22303	58191
14.23115	66798
14.23928	68105
14.24740	62455
14.25552	58694
14.26365	58779
14.27177	55917
14.27990	48346
14.28802	49370
14.29613	44817
14.30427	42676
14.31238	39595
14.32052	41779
14.32863	42031
14.33675	43237
14.34488	40574
14.35300	37307
14.36112	37225
14.36925	37263
14.37737	31016
14.38550	34040
14.39362	28958
14.40173	30840
14.40987	32553
14.41798	31324
14.42612	32665
14.43423	33255
14.44235	32225
14.45048	30362
14.45860	31358
14.46673	30230
14.47485	31360
14.48297	31676
14.49110	31076
14.49922	34965
14.50733	32772
14.51547	33402
14.52358	33756
14.53172	30488
14.53983	27843
14.54795	32824
14.55608	31402
14.56420	31629
14.57233	32387
14.58045	29468
14.58857	33016
14.59670	35112
14.60482	32231
14.61295	31789
14.62107	33970
14.62918	32632
14.63732	33408
14.64543	28548
14.65355	28809
14.66168	33777
14.66980	30658
14.67793	26738
14.68605	29569
14.69417	28400
14.70230	29559
14.71042	30938
14.71855	29044
14.72667	29289
14.73478	34085
14.74292	31437
14.75103	32733
14.75915	28993
14.76728	30706
14.77540	28038
14.78353	30280
14.79165	35388
14.79977	30778
14.80790	36937
14.81602	28543
14.82415	29677
14.83227	31378
14.84038	27122
14.84852	33159
14.85663	27617
14.86477	29990
14.87288	30966
14.88100	28440
14.88913	30407
14.89725	27917
14.90537	28704
14.91350	28106
14.92162	30101
14.92975	32174
14.93787	31918
14.94598	28857
14.95412	27652
14.96223	30548
14.97037	33627
14.97848	27385
14.98660	29327
14.99473	31460
15.00285	29496
15.01098	28905
15.01910	36375
15.02722	27946
15.03535	30210
15.04347	30416
15.05158	29838
15.05972	32142
15.06783	28618
15.07597	29437
15.08408	26391
15.09220	31799
15.10033	28892
15.10845	34276
15.11658	27531
15.12470	31261
15.13282	32333
15.14095	28724
15.14907	28959
15.15718	33084
15.16532	28091
15.17343	33742
15.18157	28542
15.18968	32623
15.19780	30264
15.20593	31789
15.21405	27866
15.22218	34934
15.23030	30186
15.23842	30155
15.24655	30228
15.25467	32328
15.26280	27805
15.27092	31911
15.27903	31400
15.28717	29046
15.29528	28438
15.30340	28999
15.31153	29811
15.31965	30461
15.32778	29006
15.33590	28769
15.34402	29950
15.35215	31583
15.36027	30180
15.36840	26612
15.37652	27834
15.38463	26691
15.39277	30998
15.40088	30581
15.40900	28791
15.41713	28767
15.42525	27333
15.43338	29106
15.44150	28549
15.44962	30114
15.45775	29031
15.46587	28499
15.47400	29583
15.48212	30786
15.49023	29486
15.49837	26415
15.50648	26545
15.51462	23785
15.52273	31393
15.53085	27718
15.53898	28955
15.54710	26066
15.55522	30773
15.56335	27010
15.57147	30394
15.57960	30416
15.58772	26431
15.59583	29259
15.60397	29234
15.61208	30974
15.62022	31073
15.62833	29486
15.63645	26001
15.64458	27740
15.65270	30117
15.66083	27010
15.66895	31091
15.67707	33332
15.68520	32222
15.69332	34247
15.70143	29933
15.70957	29384
15.71768	30006
15.72582	27854
15.73393	32434
15.74205	24409
15.75018	26033
15.75830	29201
15.76643	27763
15.77455	29555
15.78267	28942
15.79080	24393
15.79892	26798
15.80703	28883
15.81517	32195
15.82328	26619
15.83142	29746
15.83953	28140
15.84765	28313
15.85578	29221
15.86390	27188
15.87203	29367
15.88015	25092
15.88827	26338
15.89640	25102
15.90452	29483
15.91265	27026
15.92077	29875
15.92888	27731
15.93702	29945
15.94513	27685
15.95325	25781
15.96138	33489
15.96950	29538
15.97763	33007
15.98575	29336
15.99387	26890
16.00200	28017
16.01012	35278
16.01825	41509
16.02637	47825
16.03448	61088
16.04262	74856
16.05073	76780
16.05887	70656
16.06698	70300
16.07510	60499
16.08323	52269
16.09135	43485
16.09947	37501
16.10760	37122
16.11572	36324
16.12385	35645
16.13197	34089
16.14008	30911
16.14822	32010
16.15633	35937
16.16447	34005
16.17258	32619
16.18070	31404
16.18883	32538
16.19695	34469
16.20507	28581
16.21320	34097
16.22132	30859
16.22945	30678
16.23757	33860
16.24568	27602
16.25382	30627
16.26193	32586
16.27007	32104
16.27818	28448
16.28630	31957
16.29443	31343
16.30255	30996
16.31068	31962
16.31880	36236
16.32692	31984
16.33505	26037
16.34317	28832
16.35128	29961
16.35942	29346
16.36753	30749
16.37567	29443
16.38378	28625
16.39190	29966
16.40003	27622
16.40815	28807
16.41628	28401
16.42440	29676
16.43252	29073
16.44065	27142
16.44877	27111
16.45690	29961
16.46502	30611
16.47313	29971
16.48127	27062
16.48938	30214
16.49750	30037
16.50563	29536
16.51375	30157
16.52188	28976
16.53000	26226
16.53812	30079
16.54625	28897
16.55437	25737
16.56250	25955
16.57062	28652
16.57873	29462
16.58687	29326
16.59498	29229
16.60310	31657
16.61123	30334
16.61935	28822
16.62748	26010
16.63560	28473
16.64372	26656
16.65185	26432
16.65997	30362
16.66810	31199
16.67622	30407
16.68433	28950
16.69247	26836
16.70058	25811
16.70872	27413
16.71683	29363
16.72495	30239
16.73308	25695
16.74120	33576
16.74932	31885
16.75745	27117
16.76557	27215
16.77370	33473
16.78182	29500
16.78993	29081
16.79807	33775
16.80618	26274
16.81432	29886
16.82243	25615
16.83055	29316
16.83868	32682
16.84680	27493
16.85492	27804
16.86305	25231
16.87117	24328
16.87930	26860
16.88742	26663
16.89553	28215
16.90367	31335
16.91178	29095
16.91992	29171
16.92803	28130
16.93615	28501
16.94428	29046
16.95240	30041
16.96053	30306
16.96865	29352
16.97677	26897
16.98490	30048
16.99302	29487
17.00113	27027
17.00927	26518
17.01738	26103
17.02552	29974
17.03363	25489
17.04175	26086
17.04988	26481
17.05800	26891
17.06613	27724
17.07425	26776
17.08237	24354
17.09050	28961
17.09862	27414
17.10675	34589
17.11487	26829
17.12298	27877
17.13112	28153
17.13923	29463
17.14735	26104
17.15548	29293
17.16360	32021
17.17173	28411
17.17985	29434
17.18797	27769
17.19610	26963
17.20422	27515
17.21235	26616
17.22047	25674
17.22858	29619
17.23672	27942
17.24483	29752
17.25295	28410
17.26108	28970
17.26920	28400
17.27733	29320
17.28545	34396
17.29357	30205
17.30170	28162
17.30982	27173
17.31795	29487
17.32607	26032
17.33418	29839
17.34232	29028
17.35043	28299
17.35857	30673
17.36668	30632
17.37480	29460
17.38293	31670
17.39105	26157
17.39917	28579
17.40730	29516
17.41542	29585
17.42355	27206
17.43167	29351
17.43978	31967
17.44792	24435
17.45603	32020
17.46417	25801
17.47228	23839
17.48040	26936
17.48853	28865
17.49665	24510
17.50478	28946
17.51290	28150
17.52102	24610
17.52915	27484
17.53727	29354
17.54538	28289
17.55352	26641
17.56163	27320
17.56977	32933
17.57788	27734
17.58600	27902
17.59413	27839
17.60225	25690
17.61038	28158
17.61850	31042
17.62662	26201
17.63475	28696
17.64287	28945
17.65098	26080
17.65912	27802
17.66723	26693
17.67537	24681
17.68348	26196
17.69160	30769
17.69973	30929
17.70785	26542
17.71598	31665
17.72410	27649
17.73222	33010
17.74035	24201
17.74847	26555
17.75660	26949
17.76472	23488
17.77283	27356
17.78097	28474
17.78908	28836
17.79720	27349
17.80533	27559
17.81345	30975
17.82158	26164
17.82970	29409
17.83782	29406
17.84595	28363
17.85407	28929
17.86220	32468
17.87032	30572
17.87843	29839
17.88657	29065
17.89468	30036
17.90280	27835
17.91093	25768
17.91905	25210
17.92718	26002
17.93530	26176
17.94342	27297
17.95155	29595
17.95967	25864
17.96780	27408
17.97592	32030
17.98403	33738
17.99217	27117
18.00028	28966
18.00842	26308
18.01653	31226
18.02465	30409
18.03278	30465
18.04090	28850
18.04902	29158
18.05715	28544
18.06527	26339
18.07340	27563
18.08152	28499
18.08963	26468
18.09777	29261
18.10588	29340
18.11402	28591
18.12213	32474
18.13025	30926
18.13838	32117
18.14650	30328
18.15463	32533
18.16275	28245
18.17087	29999
18.17900	29266
18.18712	30152
18.19523	29215
18.20337	28231
18.21148	30023
18.21962	27469
18.22773	26781
18.23585	29814
18.24398	29803
18.25210	30441
18.26023	29974
18.26835	31923
18.27647	28626
18.28460	31148
18.29272	28440
18.30083	31141
18.30897	31721
18.31708	25197
18.32522	27219
18.33333	23984
18.34145	25208
18.34958	29098
18.35770	30479
18.36583	25509
18.37395	23683
18.38207	26105
18.39020	24704
18.39832	28630
18.40645	26362
18.41457	26227
18.42268	25737
18.43082	27884
18.43893	27739
18.44705	23847
18.45518	29124
18.46330	25932
18.47143	27036
18.47955	28308
18.48767	27755
18.49580	29681
18.50392	30144
18.51205	34833
18.52017	27227
18.52828	25658
18.53642	32715
18.54453	23434
18.55267	26548
18.56078	28097
18.56890	28369
18.57703	26631
18.58515	26046
18.59327	26948
18.60140	24101
18.60952	27471
18.61765	27325
18.62577	25371
18.63388	27112
18.64202	25059
18.65013	26586
18.65827	31700
18.66638	26926
18.67450	29410
18.68263	26961
18.69075	28078
18.69887	27986
18.70700	25718
18.71512	26503
18.72325	27175
18.73137	29468
18.73948	26044
18.74762	29425
18.75573	24825
18.76387	23899
18.77198	29516
18.78010	27707
18.78823	26091
18.79635	28759
18.80448	28783
18.81260	31631
18.82072	29437
18.82885	26091
18.83697	26675
18.84508	22935
18.85322	26692
18.86133	27192
18.86947	27087
18.87758	27767
18.88570	31022
18.89383	25387
18.90195	24049
18.91008	25839
18.91820	25589
18.92632	25390
18.93445	27815
18.94257	26716
18.95068	27180
18.95882	25740
18.96693	27408
18.97507	24653
18.98318	25661
18.99130	29141
18.99943	26255
19.00755	28643
19.01568	26567
19.02380	25595
19.03192	23536
19.04005	25131
19.04817	26038
19.05630	23146
19.06442	24367
19.07253	25841
19.08067	28017
19.08878	27396
19.09690	30606
19.10503	34047
19.11315	29245
19.12128	30256
19.12940	30258
19.13752	29903
19.14565	26229
19.15377	30102
19.16190	28880
19.17002	25156
19.17813	28609
19.18627	28931
19.19438	28305
19.20252	28044
19.21063	27382
19.21875	23759
19.22688	26970
19.23500	26244
19.24312	27191
19.25125	29112
19.25937	32076
19.26750	29315
19.27562	31857
19.28373	33043
19.29187	36132
19.29998	41631
19.30812	47790
19.31623	49113
19.32435	52013
19.33248	44416
19.34060	43985
19.34873	34258
19.35685	32004
19.36497	29283
19.37310	33555
19.38122	31338
19.38933	27606
19.39747	26863
19.40558	29998
19.41372	26103
19.42183	25954
19.42995	27947
19.43808	25316
19.44620	28753
19.45433	27012
19.46245	29254
19.47057	27444
19.47870	29033
19.48682	27430
19.49493	30626
19.50307	30445
19.51118	34965
19.51932	38210
19.52743	41581
19.53555	41320
19.54368	39319
19.55180	36261
19.55993	31969
19.56805	29721
19.57617	35392
19.58430	29804
19.59242	27261
19.60055	29664
19.60867	29601
19.61678	27235
19.62492	26592
19.63303	32673
19.64115	49547
19.64928	80164
19.65740	120680
19.66553	191420
19.67365	262553
19.68177	316685
19.68990	356542
19.69802	321538
19.70615	279047
19.71427	224526
19.72238	171811
19.73052	132215
19.73863	102443
19.74675	83976
19.75488	80377
19.76300	61079
19.77113	55242
19.77925	49400
19.78737	46603
19.79550	41530
19.80362	41368
19.81175	40595
19.81987	35969
19.82798	36467
19.83612	39251
19.84423	35408
19.85237	37948
19.86048	38668
19.86860	38027
19.87673	35583
19.88485	41253
19.89297	36851
19.90110	37855
19.90922	41252
19.91735	41002
19.92547	38856
19.93358	42932
19.94172	41896
19.94983	39775
19.95797	39257
19.96608	34871
19.97420	34165
19.98233	32628
19.99045	35271
19.99858	36839
20.00670	33141
20.01482	34353
20.02295	33347
20.03107	32843
20.03918	33255
20.04732	30544
20.05543	34829
20.06357	34469
20.07168	26681
20.07980	34779
20.08793	28709
20.09605	31168
20.10418	31119
20.11230	31090
20.12042	32597
20.12855	30049
20.13667	30998
20.14478	30601
20.15292	26829
20.16103	30173
20.16917	28865
20.17728	33903
20.18540	27573
20.19353	31287
20.20165	30741
20.20978	26077
20.21790	28774
20.22602	28156
20.23415	31425
20.24227	27022
20.25040	33336
20.25852	45161
20.26663	51628
20.27477	83982
20.28288	107734
20.29100	135445
20.29913	138930
20.30725	142366
20.31538	117852
20.32350	104499
20.33162	88380
20.33975	65481
20.34787	56264
20.35600	50830
20.36412	42812
20.37223	41717
20.38037	42925
20.38848	38211
20.39662	43209
20.40473	46124
20.41285	39591
20.42098	42125
20.42910	48258
20.43722	54615
20.44535	58611
20.45347	66697
20.46160	66600
20.46972	71122
20.47783	70132
20.48597	61904
20.49408	58811
20.50222	53161
20.51033	43876
20.51845	47361
20.52658	45234
20.53470	41017
20.54282	39742
20.55095	40547
20.55907	42815
20.56720	42697
20.57532	39407
20.58343	44341
20.59157	42056
20.59968	43686
20.60782	37577
20.61593	45669
20.62405	40176
20.63218	39274
20.64030	35796
20.64843	35341
20.65655	39413
20.66467	37964
20.67280	38791
20.68092	37332
20.68903	40729
20.69717	37150
20.70528	36255
20.71342	34454
20.72153	35107
20.72965	38357
20.73778	35011
20.74590	35606
20.75403	34969
20.76215	34934
20.77027	36220
20.77840	33349
20.78652	40360
20.79463	37802
20.80277	35652
20.81088	35411
20.81902	34897
20.82713	36272
20.83525	31568
20.84338	30539
20.85150	32662
20.85963	33517
20.86775	32301
20.87587	40141
20.88400	37588
20.89212	33456
20.90025	30863
20.90837	33884
20.91648	34350
20.92462	35007
20.93273	35104
20.94085	33613
20.94898	34929
20.95710	33952
20.96523	33821
20.97335	31212
20.98147	34098
20.98960	35840
20.99772	31667
21.00585	32148
21.01397	35102
21.02208	31697
21.03022	30056
21.03833	31927
21.04647	29353
21.05458	31631
21.06270	34208
21.07083	34084
21.07895	33349
21.08707	30962
21.09520	33751
21.10332	33127
21.11145	29717
21.11957	34286
21.12768	30577
21.13582	32532
21.14393	32753
21.15207	32941
21.16018	33808
21.16830	33582
21.17643	33698
21.18455	35642
21.19267	32467
21.20080	31783
21.20892	33112
21.21705	29092
21.22517	30765
21.23328	31940
21.24142	28498
21.24953	34217
21.25767	30468
21.26578	32481
21.27390	29133
21.28203	33048
21.29015	30054
21.29828	29854
21.30640	29786
21.31452	29768
21.32265	32327
21.33077	31996
21.33888	32066
21.34702	27028
21.35513	28908
21.36327	29254
21.37138	31928
21.37950	28618
21.38763	30723
21.39575	30930
21.40388	32471
21.41200	29852
21.42012	29594
21.42825	28322
21.43637	27433
21.44450	32194
21.45262	30569
21.46073	31241
21.46887	27870
21.47698	29836
21.48510	32207
21.49323	28188
21.50135	30300
21.50948	26769
21.51760	26810
21.52572	27770
21.53385	29688
21.54197	29756
21.55010	26363
21.55822	31272
21.56633	29292
21.57447	27446
21.58258	31758
21.59070	28373
21.59883	31031
21.60695	26208
21.61508	28857
21.62320	36835
21.63132	40847
21.63945	39613
21.64757	46777
21.65570	52053
21.66382	48143
21.67193	54694
21.68007	43851
21.68818	41081
21.69632	35791
21.70443	32863
21.71255	32290
21.72068	32519
21.72880	33283
21.73692	29369
21.74505	29865
21.75317	32073
21.76130	25859
21.76942	25972
21.77753	28763
21.78567	29647
21.79378	31540
21.80192	26046
21.81003	29168
21.81815	29882
21.82628	38096
21.83440	43375
21.84253	45431
21.85065	44258
21.85877	49757
21.86690	48311
21.87502	45000
21.88313	39803
21.89127	34452
21.89938	33574
21.90752	33034
21.91563	28940
21.92375	27699
21.93188	32413
21.94000	25357
21.94813	26049
21.95625	29416
21.96437	25508
21.97250	28469
21.98062	28270
21.98873	28878
21.99687	26421
22.00498	29942
22.01312	25315
22.02123	24719
22.02935	29786
22.03748	26295
22.04560	27028
22.05373	31355
22.06185	27186
22.06997	24766
22.07810	28408
22.08622	27711
22.09435	27991
22.10247	28345
22.11058	27095
22.11872	30329
22.12683	29714
22.13495	25485
22.14308	26476
22.15120	31090
22.15933	30542
22.16745	30308
22.17557	28145
22.18370	25956
22.19182	23911
22.19995	28802
22.20807	28960
22.21618	29254
22.22432	29312
22.23243	29583
22.24055	32260
22.24868	28912
22.25680	29908
22.26493	30795
22.27305	31071
22.28117	25073
22.28930	27050
22.29742	25719
22.30555	29688
22.31367	24670
22.32178	31355
22.32992	30256
22.33803	25405
22.34617	29827
22.35428	27164
22.36240	28621
22.37053	23417
22.37865	23463
22.38677	24555
22.39490	26713
22.40302	25444
22.41115	25089
22.41927	26046
22.42738	26059
22.43552	27431
22.44363	27352
22.45177	27026
22.45988	28990
22.46800	26918
22.47613	28710
22.48425	28657
22.49238	34316
22.50050	29930
22.50862	22500
22.51675	23288
22.52487	24839
22.53298	26958
22.54112	25643
22.54923	25443
22.55737	29824
22.56548	25784
22.57360	24274
22.58173	26397
22.58985	26944
22.59798	24356
22.60610	26024
22.61422	24204
22.62235	25599
22.63047	26670
22.63858	21881
22.64672	26910
22.65483	27752
22.66297	22068
22.67108	27014
22.67920	25778
22.68733	26019
22.69545	26079
22.70358	27078
22.71170	31425
22.71982	23965
22.72795	24340
22.73607	24951
22.74420	22743
22.75232	27355
22.76043	27135
22.76857	23403
22.77668	22561
22.78480	24001
22.79293	24217
22.80105	26734
22.80918	25770
22.81730	28635
22.82542	22727
22.83355	29143
22.84167	24348
22.84980	27385
22.85792	25742
22.86603	28875
22.87417	26252
22.88228	28650
22.89042	31087
22.89853	31015
22.90665	25768
22.91478	29254
22.92290	30020
22.93102	30257
22.93915	29829
22.94727	34691
22.95540	28206
22.96352	28555
22.97163	30400
22.97977	28714
22.98788	28438
22.99602	32339
23.00413	32524
23.01225	31275
23.02038	27443
23.02850	29501
23.03662	30039
23.04475	29065
23.05287	28428
23.06100	25910
23.06912	24890
23.07723	24409
23.08537	26882
23.09348	24686
23.10162	22960
23.10973	25923
23.11785	23025
23.12598	25455
23.13410	24100
23.14223	30077
23.15035	22489
23.15847	29696
23.16660	24985
23.17472	22392
23.18283	23340
23.19097	26117
23.19908	24785
23.20722	24909
23.21533	22375
23.22345	25807
23.23158	23863
23.23970	23506
23.24783	22154
23.25595	27323
23.26407	26940
23.27220	27577
23.28032	26250
23.28843	26062
23.29657	23314
23.30468	22846
23.31282	25410
23.32093	25405
23.32905	24489
23.33718	24553
23.34530	23856
23.35343	26523
23.36155	25030
23.36967	26952
23.37780	24605
23.38592	25193
23.39405	27072
23.40217	26209
23.41028	25159
23.41842	30436
23.42653	23596
23.43465	25784
23.44278	24303
23.45090	25027
23.45903	24511
23.46715	23966
23.47527	24141
23.48340	23191
23.49152	27469
23.49965	26923
23.50777	22611
23.51588	20883
23.52402	23550
23.53213	24081
23.54027	25257
23.54838	29529
23.55650	24163
23.56463	25159
23.57275	28967
23.58087	29875
23.58900	31708
23.59712	27508
23.60525	28112
23.61337	26350
23.62148	27826
23.62962	26199
23.63773	27519
23.64587	29814
23.65398	25552
23.66210	27723
23.67023	28509
23.67835	27092
23.68648	28203
23.69460	27168
23.70272	24772
23.71085	28188
23.71897	25107
23.72708	26679
23.73522	28493
23.74333	37952
23.75147	73450
23.75958	185644
23.76770	446974
23.77583	1039541
23.78395	1920645
23.79208	2832835
23.80020	3387191
23.80832	3247846
23.81645	2778542
23.82457	2129749
23.83268	1551892
23.84082	1125902
23.84893	826131
23.85707	598770
23.86518	471760
23.87330	393545
23.88143	329799
23.88955	282412
23.89768	239569
23.90580	218543
23.91392	197416
23.92205	188215
23.93017	175391
23.93830	152926
23.94642	156697
23.95453	145142
23.96267	128857
23.97078	122607
23.97890	118873
23.98703	116413
23.99515	110730
24.00328	106519
24.01140	98133
24.01952	103869
24.02765	97397
24.03577	90742
24.04390	80895
24.05202	89018
24.06013	82803
24.06827	82024
24.07638	78350
24.08450	76090
24.09263	75677
24.10075	77203
24.10888	71958
24.11700	77476
24.12512	74408
24.13325	70565
24.14137	75785
24.14950	74709
24.15762	75774
24.16573	71049
24.17387	70193
24.18198	63831
24.19012	63062
24.19823	63810
24.20635	60819
24.21448	64315
24.22260	60697
24.23072	61174
24.23885	61616
24.24697	60188
24.25510	58431
24.26322	63897
24.27133	63719
24.27947	64991
24.28758	66353
24.29572	62441
24.30383	69942
24.31195	60803
24.32008	64315
24.32820	54142
24.33633	52518
24.34445	56726
24.35257	50584
24.36070	47062
24.36882	46519
24.37693	51638
24.38507	49118
24.39318	52005
24.40132	51571
24.40943	50730
24.41755	49963
24.42568	51999
24.43380	55635
24.44193	49722
24.45005	48969
24.45817	52464
24.46630	42383
24.47442	46991
24.48253	43405
24.49067	46887
24.49878	43152
24.50692	45535
24.51503	48521
24.52315	49197
24.53128	49863
24.53940	46425
24.54753	48934
24.55565	45554
24.56377	44500
24.57190	44434
24.58002	52770
24.58815	40596
24.59627	44453
24.60438	45039
24.61252	50561
24.62063	49077
24.62875	49296
24.63688	58498
24.64500	52629
24.65313	56120
24.66125	48144
24.66937	43539
24.67750	45584
24.68562	40418
24.69375	40706
24.70187	40686
24.70998	45155
24.71812	38271
24.72623	42840
24.73437	38180
24.74248	38727
24.75060	45573
24.75873	35185
24.76685	38725
24.77497	36820
24.78310	41223
24.79122	37733
24.79935	35253
24.80747	37710
24.81558	37596
24.82372	35023
24.83183	35020
24.83997	39081
24.84808	39775
24.85620	36756
24.86433	33990
24.87245	33734
24.88057	40719
24.88870	38665
24.89682	35363
24.90495	36327
24.91307	33979
24.92118	34243
24.92932	37140
24.93743	37371
24.94557	38195
24.95368	34917
24.96180	39680
24.96993	35842
24.97805	36185
24.98618	37636
24.99430	37871
25.00242	29834
25.01055	35412
25.01867	34911
25.02678	34675
25.03492	39030
25.04303	35897
25.05117	34923
25.05928	34657
25.06740	30589
25.07553	34306
25.08365	27183
25.09178	38185
25.09990	33744
25.10802	37078
25.11615	37219
25.12427	34298
25.13238	30753
25.14052	31309
25.14863	32622
25.15677	34493
25.16488	35064
25.17300	33536
25.18113	32384
25.18925	34136
25.19738	32476
25.20550	34684
25.21362	36401
25.22175	33503
25.22987	33913
25.23800	32108
25.24612	38979
25.25423	33068
25.26237	32206
25.27048	33742
25.27860	33594
25.28673	33760
25.29485	38127
25.30298	36762
25.31110	37610
25.31922	42606
25.32735	41016
25.33547	39795
25.34360	38958
25.35172	36603
25.35983	37929
25.36797	33836
25.37608	32408
25.38422	33027
25.39233	30820
25.40045	34555
25.40858	32006
25.41670	28885
25.42482	32329
25.43295	30733
25.44107	32039
25.44920	30651
25.45732	27675
25.46543	33456
25.47357	34850
25.48168	36069
25.48982	35228
25.49793	37896
25.50605	38040
25.51418	37702
25.52230	35685
25.53042	32234
25.53855	35226
25.54667	32876
25.55480	33951
25.56292	33091
25.57103	30639
25.57917	31936
25.58728	31461
25.59542	38674
25.60353	31071
25.61165	29906
25.61978	30593
25.62790	30911
25.63603	33080
25.64415	31362
25.65227	26694
25.66040	27987
25.66852	29254
25.67663	31854
25.68477	32033
25.69288	38435
25.70102	30641
25.70913	31938
25.71725	34100
25.72538	30995
25.73350	28479
25.74163	32628
25.74975	29652
25.75787	30569
25.76600	31990
25.77412	30730
25.78225	31869
25.79037	31830
25.79848	33657
25.80662	32247
25.81473	29885
25.82285	30622
25.83098	30999
25.83910	29086
25.84723	33645
25.85535	27031
25.86347	31758
25.87160	29759
25.87972	29354
25.88785	30890
25.89597	29745
25.90408	27864
25.91222	28846
25.92033	33860
25.92845	31747
25.93658	28305
25.94470	28224
25.95283	29750
25.96095	31358
25.96907	28735
25.97720	29450
25.98532	32501
25.99345	31253
26.00157	29160
26.00968	30629
26.01782	34950
26.02593	28769
26.03407	29328
26.04218	27206
26.05030	33221
26.05843	32020
26.06655	30284
26.07467	27569
26.08280	32918
26.09092	28928
26.09905	30260
26.10717	30232
26.11528	31198
26.12342	34933
26.13153	37790
26.13967	35386
26.14778	33966
26.15590	35820
26.16403	32634
26.17215	33003
26.18027	30509
26.18840	30234
26.19652	32265
26.20465	27126
26.21277	26056
26.22088	28656
26.22902	31001
26.23713	31094
26.24527	34741
26.25338	27651
26.26150	35020
26.26963	31318
26.27775	36603
26.28588	26146
26.29400	27320
26.30212	26734
26.31025	30945
26.31837	28696
26.32648	28073
26.33462	30174
26.34273	27995
26.35087	28337
26.35898	27545
26.36710	29864
26.37523	28174
26.38335	29464
26.39148	28810
26.39960	27500
26.40772	30830
26.41585	29583
26.42397	31391
26.43210	28755
26.44022	27807
26.44833	28588
26.45647	28445
26.46458	34637
26.47270	30871
26.48083	31353
26.48895	30845
26.49708	29570
26.50520	28572
26.51332	28101
26.52145	26603
26.52957	27394
26.53770	28531
26.54582	27728
26.55393	30347
26.56207	30739
26.57018	27797
26.57830	28200
26.58643	34245
26.59455	27289
26.60268	32440
26.61080	29825
26.61892	30514
26.62705	31749
26.63517	32482
26.64330	27833
26.65142	29543
26.65953	30815
26.66767	27749
26.67578	29794
26.68392	35927
26.69203	30502
26.70015	26993
26.70828	30411
26.71640	31408
26.72452	27990
26.73265	30276
26.74077	35023
26.74890	29942
26.75702	26315
26.76513	29081
26.77327	29875
26.78138	30327
26.78952	28949
26.79763	31739
26.80575	35022
26.81388	27353
26.82200	30632
26.83013	30159
26.83825	32839
26.84637	31948
26.85450	35866
26.86262	32492
26.87073	30876
26.87887	29119
26.88698	31060
26.89512	34471
26.90323	28909
26.91135	31949
26.91948	30622
26.92760	30816
26.93573	30225
26.94385	32636
26.95197	31924
26.96010	36014
26.96822	50322
26.97633	83703
26.98447	166331
26.99258	289764
27.00072	551284
27.00883	883349
27.01695	1324004
27.02508	1773801
27.03320	1980066
27.04133	1899376
27.04945	1534530
27.05757	1183215
27.06570	891737
27.07382	657861
27.08195	509785
27.09007	400369
27.09818	325844
27.10632	284493
27.11443	245776
27.12255	214446
27.13068	192622
27.13880	171223
27.14693	161876
27.15505	143433
27.16317	138736
27.17130	132890
27.17942	119088
27.18755	120970
27.19567	111171
27.20378	101428
27.21192	100505
27.22003	107694
27.22817	89528
27.23628	88167
27.24440	89801
27.25253	90715
27.26065	91897
27.26877	83160
27.27690	75816
27.28502	73869
27.29315	74402
27.30127	68066
27.30938	74679
27.31752	66785
27.32563	69720
27.33377	69894
27.34188	65748
27.35000	64138
27.35813	66501
27.36625	59374
27.37437	59264
27.38250	61030
27.39062	64178
27.39875	55848
27.40687	56043
27.41498	57968
27.42312	52172
27.43123	58032
27.43937	57083
27.44748	51786
27.45560	50378
27.46373	55842
27.47185	52155
27.47998	48882
27.48810	54405
27.49622	54618
27.50435	48956
27.51247	49207
27.52058	50064
27.52872	50906
27.53683	47551
27.54497	46078
27.55308	48200
27.56120	46389
27.56933	51482
27.57745	46998
27.58558	50759
27.59370	43895
27.60182	41616
27.60995	43416
27.61807	46842
27.62618	43590
27.63432	42455
27.64243	43958
27.65057	44507
27.65868	38695
27.66680	40996
27.67493	43935
27.68305	39139
27.69118	44184
27.69930	40814
27.70742	42788
27.71555	38811
27.72367	41402
27.73180	42448
27.73992	40558
27.74803	39839
27.75617	37756
27.76428	40212
27.77240	44251
27.78053	42168
27.78865	42827
27.79678	37454
27.80490	41395
27.81302	41501
27.82115	38675
27.82927	35606
27.83740	39448
27.84552	44114
27.85363	40332
27.86177	40811
27.86988	38890
27.87802	37548
27.88613	35897
27.89425	39224
27.90238	35573
27.91050	35642
27.91862	36929
27.92675	40993
27.93487	36688
27.94300	37086
27.95112	34447
27.95923	36143
27.96737	36067
27.97548	38959
27.98362	38072
27.99173	36539
27.99985	33592
28.00798	32226
28.01610	36423
28.02422	32233
28.03235	35855
28.04047	37580
28.04860	35864
28.05672	36584
28.06483	34477
28.07297	35051
28.08108	37289
28.08922	38630
28.09733	39327
28.10545	35522
28.11358	34504
28.12170	35753
28.12983	36421
28.13795	32458
28.14607	40088
28.15420	31770
28.16232	36593
28.17043	36004
28.17857	34270
28.18668	33366
28.19482	33139
28.20293	34162
28.21105	36244
28.21918	36848
28.22730	36026
28.23543	34888
28.24355	32792
28.25167	30628
28.25980	33292
28.26792	34996
28.27605	37241
28.28417	36817
28.29228	36687
28.30042	40611
28.30853	43390
28.31665	58509
28.32478	72520
28.33290	86168
28.34103	106437
28.34915	128557
28.35727	156022
28.36540	178549
28.37352	191281
28.38165	192337
28.38977	181936
28.39788	174957
28.40602	167069
28.41413	147460
28.42225	138623
28.43038	126467
28.43850	106001
28.44663	93382
28.45475	85203
28.46287	86169
28.47100	78814
28.47912	68397
28.48725	65997
28.49537	66564
28.50348	63822
28.51162	60144
28.51973	59843
28.52787	58981
28.53598	63273
28.54410	55133
28.55223	52281
28.56035	50620
28.56847	52301
28.57660	50010
28.58472	51621
28.59285	52618
28.60097	48011
28.60908	48036
28.61722	49392
28.62533	46253
28.63347	45103
28.64158	46606
28.64970	45115
28.65783	48582
28.66595	47450
28.67407	48595
28.68220	49443
28.69032	40157
28.69845	41939
28.70657	45617
28.71468	42318
28.72282	37494
28.73093	40489
28.73907	40714
28.74718	38578
28.75530	42835
28.76343	42686
28.77155	41282
28.77968	40463
28.78780	38439
28.79592	44196
28.80405	40440
28.81217	43648
28.82028	42690
28.82842	36202
28.83653	39286
28.84467	37178
28.85278	37528
28.86090	38324
28.86903	39135
28.87715	37583
28.88528	39666
28.89340	38809
28.90152	36790
28.90965	38034
28.91777	37132
28.92590	37536
28.93402	39089
28.94213	39829
28.95027	37109
28.95838	37155
28.96650	39956
28.97463	37422
28.98275	32944
28.99088	40014
28.99900	38074
29.00712	35912
29.01525	39505
29.02337	39957
29.03150	33528
29.03962	37554
29.04773	34921
29.05587	34086
29.06398	34561
29.07212	36888
29.08023	31909
29.08835	35810
29.09648	36993
29.10460	39019
29.11272	37138
29.12085	34998
29.12897	34083
29.13710	35118
29.14522	35458
29.15333	34961
29.16147	40048
29.16958	36229
29.17772	32766
29.18583	33658
29.19395	32958
29.20208	39360
29.21020	29570
29.21832	31525
29.22645	33103
29.23457	29835
29.24270	34250
29.25082	33344
29.25893	33265
29.26707	33647
29.27518	34450
29.28332	35395
29.29143	33655
29.29955	35439
29.30768	32507
29.31580	35193
29.32393	37072
29.33205	33971
29.34017	34048
29.34830	35445
29.35642	34626
29.36453	31647
29.37267	35171
29.38078	39874
29.38892	31712
29.39703	37887
29.40515	40937
29.41328	33175
29.42140	31389
29.42953	32251
29.43765	34351
29.44577	34135
29.45390	33545
29.46202	30704
29.47013	30399
29.47827	32739
29.48638	31704
29.49452	34949
29.50263	32972
29.51075	35333
29.51888	36241
29.52700	32700
29.53513	39505
29.54325	32857
29.55137	34823
29.55950	34485
29.56762	35232
29.57575	33653
29.58387	37282
29.59198	31800
29.60012	28075
29.60823	31007
29.61635	29066
29.62448	31486
29.63260	32669
29.64073	31621
29.64885	36618
29.65697	34979
29.66510	33050
29.67322	29697
29.68135	30952
29.68947	31270
29.69758	33169
29.70572	31297
29.71383	31958
29.72197	30115
29.73008	33422
29.73820	32408
29.74633	36434
29.75445	31691
29.76257	31321
29.77070	32492
29.77882	33124
29.78695	29354
29.79507	33244
29.80318	30999
29.81132	30520
29.81943	35119
29.82757	33473
29.83568	30734
29.84380	33115
29.85193	31132
29.86005	36445
29.86817	31091
29.87630	32168
29.88442	33827
29.89255	31623
29.90067	34065
29.90878	37994
29.91692	27572
29.92503	29946
29.93317	34890
29.94128	35145
29.94940	35564
29.95753	33199
29.96565	39510
29.97378	50082
29.98190	42697
29.99002	49304
29.99815	54750
30.00627	53233
30.01438	59144
30.02252	60963
30.03063	58207
30.03877	63719
30.04688	62910
30.05500	60858
30.06313	60755
30.07125	61903
30.07938	57232
30.08750	53545
30.09562	52533
30.10375	44140
30.11187	48037
30.12000	48036
30.12812	45804
30.13623	45398
30.14437	39981
30.15248	35198
30.16060	36672
30.16873	41568
30.17685	39469
30.18498	36641
30.19310	35678
30.20122	37029
30.20935	32955
30.21747	32155
30.22560	33301
30.23372	31612
30.24183	37118
30.24997	35443
30.25808	34607
30.26620	34924
30.27433	31937
30.28245	39564
30.29058	33293
30.29870	37479
30.30682	33036
30.31495	31700
30.32307	34224
30.33120	34510
30.33932	32925
30.34743	35886
30.35557	30986
30.36368	32509
30.37182	31917
30.37993	34405
30.38805	30440
30.39618	30196
30.40430	32593
30.41242	31650
30.42055	34140
30.42867	33803
30.43680	33647
30.44492	32246
30.45303	31396
30.46117	28796
30.46928	29800
30.47742	30367
30.48553	38234
30.49365	31118
30.50178	30930
30.50990	33226
30.51802	30823
30.52615	32192
30.53427	34222
30.54240	32440
30.55052	33171
30.55863	33525
30.56677	33145
30.57488	28858
30.58302	30792
30.59113	37995
30.59925	32806
30.60738	33627
30.61550	31209
30.62363	32355
30.63175	30141
30.63987	31570
30.64800	30595
30.65612	32131
30.66423	32383
30.67237	27236
30.68048	33959
30.68862	29728
30.69673	28911
30.70485	37260
30.71298	27126
30.72110	28967
30.72923	30908
30.73735	29560
30.74547	30041
30.75360	30124
30.76172	29897
30.76985	30948
30.77797	32521
30.78608	31253
30.79422	33743
30.80233	33093
30.81045	32401
30.81858	34172
30.82670	35975
30.83483	31319
30.84295	35062
30.85107	31313
30.85920	35627
30.86732	31568
30.87545	32403
30.88357	32014
30.89168	28934
30.89982	30071
30.90793	32943
30.91605	36355
30.92418	33070
30.93230	28479
30.94043	32195
30.94855	32117
30.95667	29402
30.96480	28286
30.97292	28193
30.98105	31030
30.98917	28193
30.99728	31519
31.00542	30061
31.01353	34562
31.02167	38339
31.02978	29792
31.03790	29793
31.04603	30619
31.05415	29044
31.06227	31610
31.07040	28976
31.07852	29099
31.08665	28168
31.09477	35549
31.10288	37013
31.11102	34875
31.11913	37829
31.12727	33759
31.13538	34197
31.14350	32734
31.15163	27502
31.15975	31300
31.16788	27977
31.17600	29401
31.18412	28581
31.19225	31062
31.20037	32668
31.20848	31139
31.21662	30650
31.22473	32449
31.23287	31480
31.24098	38418
31.24910	37514
31.25723	30871
31.26535	28476
31.27348	30865
31.28160	29513
31.28972	29632
31.29785	31187
31.30597	30121
31.31408	32381
31.32222	35164
31.33033	27270
31.33847	28447
31.34658	31722
31.35470	31576
31.36283	33702
31.37095	32474
31.37908	31821
31.38720	28736
31.39532	32214
31.40345	28428
31.41157	32964
31.41970	32916
31.42782	32975
31.43593	30589
31.44407	32849
31.45218	32287
31.46030	33648
31.46843	30970
31.47655	33083
31.48468	31891
31.49280	30972
31.50092	33582
31.50905	26397
31.51717	29942
31.52530	30531
31.53342	28066
31.54153	30479
31.54967	30014
31.55778	28456
31.56590	31026
31.57403	34797
31.58215	30921
31.59028	34912
31.59840	31912
31.60652	30636
31.61465	31232
31.62277	28351
31.63090	30592
31.63902	31571
31.64713	30582
31.65527	33745
31.66338	30113
31.67152	28932
31.67963	32255
31.68775	31947
31.69588	32539
31.70400	35313
31.71212	29958
31.72025	34412
31.72837	26534
31.73650	29231
31.74462	33820
31.75273	27515
31.76087	32334
31.76898	32251
31.77712	30591
31.78523	30073
31.79335	34065
31.80148	30091
31.80960	30459
31.81773	31835
31.82585	32912
31.83397	30623
31.84210	31256
31.85022	30785
31.85833	31035
31.86647	30315
31.87458	31083
31.88272	29773
31.89083	30989
31.89895	34352
31.90708	31147
31.91520	35640
31.92333	30181
31.93145	33903
31.93957	34403
31.94770	37097
31.95582	41731
31.96393	39748
31.97207	37138
31.98018	41151
31.98832	39766
31.99643	37679
32.00455	37483
32.01268	45566
32.02080	43947
32.02893	37067
32.03705	38445
32.04517	36105
32.05330	34541
32.06142	34625
32.06955	33832
32.07767	32518
32.08578	34852
32.09392	34272
32.10203	38566
32.11015	31417
32.11828	38874
32.12640	32252
32.13453	35113
32.14265	31375
32.15077	31677
32.15890	33869
32.16702	33489
32.17515	31101
32.18327	31387
32.19138	30226
32.19952	31473
32.20763	31806
32.21577	28107
32.22388	38916
32.23200	34148
32.24013	30744
32.24825	29965
32.25637	32884
32.26450	30202
32.27262	32124
32.28075	30086
32.28887	28639
32.29698	32608
32.30512	31562
32.31323	29349
32.32137	30813
32.32948	33055
32.33760	30360
32.34573	31909
32.35385	32752
32.36197	34139
32.37010	34273
32.37822	36204
32.38635	32551
32.39447	30220
32.40258	33170
32.41072	33084
32.41883	37367
32.42697	31460
32.43508	32310
32.44320	29441
32.45133	33985
32.45945	32097
32.46758	32269
32.47570	32290
32.48382	34126
32.49195	30269
32.50007	31946
32.50818	32234
32.51632	29486
32.52443	32492
32.53257	34377
32.54068	32026
32.54880	29498
32.55693	33901
32.56505	32350
32.57318	31071
32.58130	32306
32.58942	33573
32.59755	35211
32.60567	28593
32.61380	30963
32.62192	30953
32.63003	29688
32.63817	32984
32.64628	33015
32.65440	30953
32.66253	30531
32.67065	29028
32.67878	38586
32.68690	38543
32.69502	34645
32.70315	33231
32.71127	30800
32.71940	32542
32.72752	30667
32.73563	33062
32.74377	35146
32.75188	33648
32.76000	31749
32.76813	32878
32.77625	36479
32.78438	31668
32.79250	35985
32.80062	33079
32.80875	30864
32.81687	30264
32.82500	32299
32.83312	29286
32.84123	32145
32.84937	33304
32.85748	32315
32.86562	32792
32.87373	32946
32.88185	32709
32.88998	31291
32.89810	32991
32.90622	32487
32.91435	33522
32.92247	30652
32.93060	29587
32.93872	34453
32.94683	32657
32.95497	32533
32.96308	29658
32.97122	34186
32.97933	32613
32.98745	30813
32.99558	33106
33.00370	33480
33.01182	34261
33.01995	30922
33.02807	35702
33.03620	33900
33.04432	31157
33.05243	32029
33.06057	31331
33.06868	33278
33.07682	30932
33.08493	32074
33.09305	29344
33.10118	30199
33.10930	35485
33.11743	33216
33.12555	34353
33.13367	33501
33.14180	36993
33.14992	34074
33.15803	34505
33.16617	35937
33.17428	37753
33.18242	31848
33.19053	34488
33.19865	34325
33.20678	33966
33.21490	29002
33.22303	34432
33.23115	30313
33.23927	30138
33.24740	33294
33.25552	31553
33.26365	36611
33.27177	31608
33.27988	31062
33.28802	33604
33.29613	33370
33.30425	31234
33.31238	31326
33.32050	30560
33.32863	35409
33.33675	36085
33.34487	31279
33.35300	34277
33.36112	31078
33.36925	30502
33.37737	34145
33.38548	33966
33.39362	32138
33.40173	33165
33.40985	34262
33.41798	35107
33.42610	30257
33.43423	32461
33.44235	38287
33.45047	36412
33.45860	35086
33.46672	34368
33.47485	33655
33.48297	30663
33.49108	30184
33.49922	32615
33.50733	31472
33.51547	30386
33.52358	35990
33.53170	34041
33.53983	34131
33.54795	33201
33.55607	33015
33.56420	36319
33.57232	33186
33.58045	31410
33.58857	31217
33.59668	36224
33.60482	32993
33.61293	34596
33.62107	31336
33.62918	34307
33.63730	35899
33.64543	34508
33.65355	33782
33.66168	34129
33.66980	34269
33.67792	33496
33.68605	37935
33.69417	31878
33.70228	31841
33.71042	34780
33.71853	32992
33.72667	32443
33.73478	32513
33.74290	34265
33.75103	30208
33.75915	32445
33.76728	33263
33.77540	35962
33.78352	34994
33.79165	35403
33.79977	31809
33.80788	28709
33.81602	33252
33.82413	31487
33.83227	33538
33.84038	35124
33.84850	34983
33.85663	38485
33.86475	34315
33.87288	36872
33.88100	35719
33.88912	30912
33.89725	35180
33.90537	32246
33.91350	30439
33.92162	38395
33.92973	34538
33.93787	33800
33.94598	33783
33.95410	34257
33.96223	36559
33.97035	32298
33.97848	34744
33.98660	29324
33.99472	29982
34.00285	31306
34.01097	32951
34.01910	34283
34.02722	34185
34.03533	35064
34.04347	34116
34.05158	35411
34.05970	37094
34.06783	36620
34.07595	34083
34.08408	34818
34.09220	38487
34.10032	36752
34.10845	33365
34.11657	34056
34.12470	32764
34.13282	36548
34.14093	32845
34.14907	36356
34.15718	36637
34.16532	31717
34.17343	36185
34.18155	32415
34.18968	32699
34.19780	35919
34.20592	34352
34.21405	36359
34.22217	34883
34.23030	34607
34.23842	35408
34.24653	34985
34.25467	37902
34.26278	36492
34.27092	33127
34.27903	33663
34.28715	38598
34.29528	35864
34.30340	35887
34.31153	34197
34.31965	33645
34.32777	35261
34.33590	32834
34.34402	39277
34.35213	37213
34.36027	36508
34.36838	38732
34.37652	36377
34.38463	34268
34.39275	32811
34.40088	38276
34.40900	37030
34.41713	34132
34.42525	34364
34.43337	38863
34.44150	38558
34.44962	34513
34.45775	33094
34.46587	35886
34.47398	37175
34.48212	34568
34.49023	35557
34.49835	32436
34.50648	32561
34.51460	32310
34.52273	34233
34.53085	38792
34.53897	39186
34.54710	38563
34.55522	37870
34.56335	36683
34.57147	39339
34.57958	42291
34.58772	34543
34.59583	39856
34.60395	39988
34.61208	39349
34.62020	36483
34.62833	39049
34.63645	37234
34.64457	36435
34.65270	38931
34.66082	41329
34.66895	35151
34.67707	36276
34.68518	37906
34.69332	36834
34.70143	36582
34.70957	42001
34.71768	42077
34.72580	38196
34.73393	35114
34.74205	41578
34.75017	42919
34.75830	34785
34.76642	38996
34.77455	37432
34.78267	40936
34.79078	38324
34.79892	38620
34.80703	44639
34.81517	39914
34.82328	39075
34.83140	39336
34.83953	37364
34.84765	37843
34.85577	41787
34.86390	35780
34.87202	37292
34.88015	35904
34.88827	37824
34.89638	35427
34.90452	33199
34.91263	35965
34.92077	34955
34.92888	35524
34.93700	37585
34.94513	38003
34.95325	36925
34.96138	34064
34.96950	36516
34.97762	41442
34.98575	38319
34.99387	38854
35.00198	37433
35.01012	38142
35.01823	36597
35.02637	38551
35.03448	34329
35.04260	36900
35.05073	34054
35.05885	34831
35.06698	35303
35.07510	37263
35.08322	35237
35.09135	39295
35.09947	35549
35.10760	38212
35.11572	36216
35.12383	37467
35.13197	36656
35.14008	37914
35.14820	38067
35.15633	40516
35.16445	43541
35.17258	40325
35.18070	37205
35.18882	35172
35.19695	39491
35.20507	39517
35.21320	36201
35.22132	36302
35.22943	34943
35.23757	38250
35.24568	41400
35.25380	39199
35.26193	36318
35.27005	38595
35.27818	40731
35.28630	38428
35.29442	40860
35.30255	42229
35.31067	37561
35.31880	34666
35.32692	38689
35.33503	38267
35.34317	37521
35.35128	40894
35.35942	40494
35.36753	36138
35.37565	38622
35.38378	41151
35.39190	38966
35.40002	39240
35.40815	40337
35.41627	38984
35.42440	37750
35.43252	36970
35.44063	38744
35.44877	38962
35.45688	38511
35.46502	41336
35.47313	41957
35.48125	39740
35.48938	38008
35.49750	41108
35.50563	41204
35.51375	39709
35.52187	41865
35.53000	38370
35.53812	36760
35.54623	44119
35.55437	37641
35.56248	40996
35.57062	40153
35.57873	39920
35.58685	36792
35.59498	37576
35.60310	39461
35.61123	39388
35.61935	37595
35.62747	39212
35.63560	43477
35.64372	46042
35.65183	38462
35.65997	45627
35.66808	43361
35.67622	36337
35.68433	38698
35.69245	40810
35.70058	41457
35.70870	40619
35.71683	41691
35.72495	40027
35.73307	40052
35.74120	41405
35.74932	42901
35.75745	38318
35.76557	42355
35.77368	39812
35.78182	40967
35.78993	38101
35.79805	38496
35.80618	42938
35.81430	37746
35.82243	41610
35.83055	40191
35.83867	44842
35.84680	40789
35.85492	43763
35.86305	37888
35.87117	40294
35.87928	41428
35.88742	40403
35.89553	42481
35.90365	41764
35.91178	40732
35.91990	40318
35.92803	38850
35.93615	45768
35.94427	41376
35.95240	42659
35.96052	46602
35.96865	40805
35.97677	39596
35.98488	37942
35.99302	38810
36.00113	43595
36.00927	44031
36.01738	41737
36.02550	44413
36.03363	43681
36.04175	43361
36.04987	45442
36.05800	44270
36.06612	40894
36.07425	41156
36.08237	42848
36.09048	42256
36.09862	39549
36.10673	44537
36.11487	44675
36.12298	42441
36.13110	45559
36.13923	41280
36.14735	48211
36.15548	41943
36.16360	43241
36.17172	40716
36.17985	42772
36.18797	39326
36.19608	43325
36.20422	45244
36.21233	41755
36.22047	43087
36.22858	44050
36.23670	42071
36.24483	45798
36.25295	42843
36.26108	48485
36.26920	42963
36.27732	45493
36.28545	48565
36.29357	42478
36.30168	41485
36.30982	40975
36.31793	42262
36.32607	42876
36.33418	43941
36.34230	42809
36.35043	43850
36.35855	38933
36.36668	47281
36.37480	45879
36.38292	47910
36.39105	46850
36.39917	40297
36.40730	43317
36.41542	41637
36.42353	43573
36.43167	44239
36.43978	48285
36.44790	45280
36.45603	43731
36.46415	47508
36.47228	46895
36.48040	51699
36.48852	43711
36.49665	44015
36.50477	45490
36.51290	46302
36.52102	45892
36.52913	46020
36.53727	44357
36.54538	51559
36.55352	41626
36.56163	45415
36.56975	47615
36.57788	42058
36.58600	42702
36.59412	47321
36.60225	41522
36.61037	45543
36.61850	41155
36.62662	43302
36.63473	43012
36.64287	46621
36.65098	47041
36.65912	45428
36.66723	44759
36.67535	47545
36.68348	48401
36.69160	41288
36.69972	43509
36.70785	46420
36.71597	43926
36.72410	44903
36.73222	45859
36.74033	45250
36.74847	42641
36.75658	45521
36.76472	45784
36.77283	44019
36.78095	45949
36.78908	44666
36.79720	44057
36.80533	46951
36.81345	45716
36.82157	50145
36.82970	52133
36.83782	48533
36.84593	47534
36.85407	47838
36.86218	41399
36.87032	45628
36.87843	46112
36.88655	48626
36.89468	46755
36.90280	47525
36.91093	46888
36.91905	43737
36.92717	48264
36.93530	47370
36.94342	48774
36.95153	43928
36.95967	47692
36.96778	49593
36.97592	45535
36.98403	45796
36.99215	46414
37.00028	46585
37.00840	46084
37.01653	46896
37.02465	47806
37.03277	45912
37.04090	45998
37.04902	50461
37.05715	45538
37.06527	48877
37.07338	47834
37.08152	51656
37.08963	48401
37.09775	44609
37.10588	48586
37.11400	47208
37.12213	44224
37.13025	48960
37.13837	46653
37.14650	51814
37.15462	50744
37.16275	45412
37.17087	51868
37.17898	48996
37.18712	46649
37.19523	46257
37.20337	50518
37.21148	47887
37.21960	45692
37.22773	49029
37.23585	52138
37.24397	53039
37.25210	45943
37.26022	48473
37.26835	48600
37.27647	56821
37.28458	49900
37.29272	51097
37.30083	47775
37.30897	50854
37.31708	52921
37.32520	51498
37.33333	48863
37.34145	50705
37.34957	51238
37.35770	51904
37.36582	51107
37.37395	51058
37.38207	56410
37.39018	53031
37.39832	57230
37.40643	53396
37.41457	51364
37.42268	47636
37.43080	53219
37.43893	50926
37.44705	47227
37.45518	53223
37.46330	55579
37.47142	52104
37.47955	53227
37.48767	53308
