C:\MassHunter\GCMS\1\data\JTB-E02\BACandBLUE\JTB-E18-015-09.D Wed Jun 26 11:32:12 2019
Start of data points
2.09520	49281
2.10332	48933
2.11145	50061
2.11957	48142
2.12768	47080
2.13582	45285
2.14393	43702
2.15205	48314
2.16018	43825
2.16830	45804
2.17643	46764
2.18455	42306
2.19267	45343
2.20080	87170
2.20892	469074
2.21705	1170674
2.22517	819366
2.23328	361086
2.24142	245116
2.24953	203859
2.25767	185915
2.26578	184128
2.27390	216111
2.28203	166253
2.29015	130552
2.29827	119165
2.30640	117448
2.31452	111368
2.32265	107299
2.33077	102780
2.33888	99482
2.34702	99582
2.35513	93806
2.36327	95905
2.37138	91631
2.37950	92699
2.38763	88433
2.39575	87961
2.40387	83872
2.41200	83163
2.42012	82629
2.42825	106553
2.43637	115755
2.44448	96299
2.45262	84118
2.46073	89003
2.46887	79239
2.47698	77880
2.48510	81807
2.49323	102776
2.50135	162387
2.50948	161613
2.51760	122453
2.52572	107026
2.53385	113078
2.54197	293841
2.55008	961101
2.55822	1099017
2.56633	598185
2.57447	346515
2.58258	253480
2.59070	203736
2.59883	165894
2.60695	144420
2.61508	131276
2.62320	125946
2.63132	114633
2.63945	107364
2.64757	105121
2.65570	99028
2.66382	99705
2.67193	94072
2.68007	87980
2.68818	89565
2.69630	87909
2.70443	81693
2.71255	89184
2.72068	154142
2.72880	270351
2.73692	239502
2.74505	162405
2.75317	139165
2.76130	151742
2.76942	146383
2.77753	130245
2.78567	110775
2.79378	99887
2.80190	96410
2.81003	92590
2.81815	89291
2.82628	80904
2.83440	77354
2.84252	80540
2.85065	79662
2.85877	80934
2.86690	73774
2.87502	72548
2.88313	72707
2.89127	74865
2.89938	91861
2.90752	110428
2.91563	113677
2.92375	94545
2.93188	90206
2.94000	87239
2.94812	83811
2.95625	85681
2.96437	78566
2.97250	75817
2.98062	79058
2.98873	70780
2.99687	74926
3.00498	75239
3.01312	82908
3.02123	214847
3.02935	1108051
3.03748	2902551
3.04560	4255833
3.05373	5460230
3.06185	4829657
3.06997	3053236
3.07810	2014561
3.08622	1519940
3.09433	1196679
3.10247	990999
3.11058	863164
3.11872	809001
3.12683	871410
3.13495	1423692
3.14308	1946748
3.15120	1604583
3.15933	1136582
3.16745	907147
3.17557	763798
3.18370	648963
3.19182	575333
3.19993	502172
3.20807	452727
3.21618	413219
3.22432	387964
3.23243	446880
3.24055	968058
3.24868	2479742
3.25680	4441685
3.26493	4951339
3.27305	3954126
3.28117	2702420
3.28930	1981480
3.29742	1581424
3.30555	1329959
3.31367	1135151
3.32178	997560
3.32992	914192
3.33803	829389
3.34615	757809
3.35428	709200
3.36240	668052
3.37053	618319
3.37865	591321
3.38677	563407
3.39490	539639
3.40302	504427
3.41115	510410
3.41927	517436
3.42738	523272
3.43552	488050
3.44363	461433
3.45175	433196
3.45988	415590
3.46800	413179
3.47613	410512
3.48425	425628
3.49237	422176
3.50050	410217
3.50862	391603
3.51675	425058
3.52487	497827
3.53298	495589
3.54112	434154
3.54923	385892
3.55737	375463
3.56548	379704
3.57360	379592
3.58173	363537
3.58985	371731
3.59797	351195
3.60610	396458
3.61422	1032598
3.62235	3388559
3.63047	6478852
3.63858	6521538
3.64672	4278882
3.65483	2715321
3.66297	2024031
3.67108	1658954
3.67920	1425242
3.68733	1279279
3.69545	1142753
3.70358	1031770
3.71170	964779
3.71982	927326
3.72795	850444
3.73607	817451
3.74418	798042
3.75232	1005020
3.76043	1718676
3.76857	2449143
3.77668	2345672
3.78480	1704794
3.79293	1276846
3.80105	1065393
3.80918	941393
3.81730	851749
3.82542	789327
3.83355	758905
3.84167	721437
3.84978	678981
3.85792	644364
3.86603	693113
3.87417	825367
3.88228	939926
3.89040	942905
3.89853	1233671
3.90665	2806518
3.91478	5668628
3.92290	7121986
3.93102	5743100
3.93915	3835663
3.94727	4545491
3.95540	1.186823E+07
3.96352	2.480052E+07
3.97163	3.182943E+07
3.97977	2.691577E+07
3.98788	1.568309E+07
3.99600	8459835
4.00413	5431362
4.01225	3952435
4.02038	3112638
4.02850	2533467
4.03662	2167467
4.04475	1872820
4.05287	1649022
4.06100	1472815
4.06912	1325250
4.07723	1206637
4.08537	1147933
4.09348	1171618
4.10162	1284842
4.10973	1350633
4.11785	1254332
4.12598	1085259
4.13410	983438
4.14222	908695
4.15035	847889
4.15847	934233
4.16660	1986331
4.17472	5743241
4.18283	1.222454E+07
4.19097	1.705957E+07
4.19908	1.71567E+07
4.20722	1.244067E+07
4.21533	7419400
4.22345	4933323
4.23158	3630546
4.23970	2865550
4.24782	2365475
4.25595	2004844
4.26407	1731843
4.27220	1549422
4.28032	1415925
4.28843	1329405
4.29657	1233517
4.30468	1186248
4.31282	1156856
4.32093	1119714
4.32905	1054561
4.33718	968428
4.34530	899929
4.35343	822705
4.36155	799177
4.36967	764340
4.37780	724724
4.38592	714460
4.39403	687284
4.40217	658975
4.41028	640879
4.41842	607854
4.42653	605208
4.43465	578978
4.44278	564003
4.45090	571613
4.45903	537934
4.46715	519690
4.47527	516728
4.48340	497321
4.49152	484075
4.49963	484899
4.50777	473314
4.51588	467109
4.52402	454649
4.53213	442484
4.54025	425645
4.54838	426963
4.55650	422085
4.56463	415949
4.57275	418740
4.58087	501500
4.58900	688771
4.59712	921630
4.60525	1001871
4.61337	861792
4.62148	665132
4.62962	542957
4.63773	488421
4.64585	475010
4.65398	447772
4.66210	408901
4.67023	395687
4.67835	388734
4.68647	372544
4.69460	353216
4.70272	359159
4.71085	347549
4.71897	350932
4.72708	331597
4.73522	334987
4.74333	336683
4.75147	355343
4.75958	440565
4.76770	489846
4.77583	489327
4.78395	451154
4.79207	413806
4.80020	421639
4.80832	424955
4.81645	419931
4.82457	406813
4.83268	385074
4.84082	374290
4.84893	350834
4.85707	326265
4.86518	316080
4.87330	311849
4.88143	309300
4.88955	314450
4.89768	361722
4.90580	534316
4.91392	995293
4.92205	1746420
4.93017	2368057
4.93828	2482185
4.94642	2113576
4.95453	1611460
4.96267	1227973
4.97078	1008331
4.97890	902228
4.98703	937312
4.99515	1195746
5.00328	1493425
5.01140	1538184
5.01952	1293784
5.02765	1053048
5.03577	905514
5.04388	816953
5.05202	734992
5.06013	687456
5.06827	666286
5.07638	613063
5.08450	607336
5.09263	567372
5.10075	554292
5.10888	542405
5.11700	559859
5.12512	613469
5.13325	633296
5.14137	612443
5.14950	552975
5.15762	562591
5.16573	580086
5.17387	594562
5.18198	587733
5.19010	549571
5.19823	504821
5.20635	480226
5.21448	467504
5.22260	434777
5.23072	410399
5.23885	396636
5.24697	396297
5.25510	388074
5.26322	378015
5.27133	374216
5.27947	365527
5.28758	377118
5.29570	399163
5.30383	430679
5.31195	424231
5.32008	407310
5.32820	375092
5.33632	362995
5.34445	358020
5.35257	363129
5.36070	366379
5.36882	359534
5.37693	358837
5.38507	356150
5.39318	319707
5.40132	322351
5.40943	324725
5.41755	332943
5.42568	328625
5.43380	320480
5.44192	316789
5.45005	301355
5.45817	299284
5.46630	292371
5.47442	294772
5.48253	303501
5.49067	300276
5.49878	294445
5.50692	295852
5.51503	285817
5.52315	312184
5.53128	339060
5.53940	361459
5.54753	365295
5.55565	348515
5.56377	316995
5.57190	293312
5.58002	289038
5.58813	290278
5.59627	310788
5.60438	311025
5.61252	311721
5.62063	305292
5.62875	298371
5.63688	279592
5.64500	296578
5.65313	316071
5.66125	345231
5.66937	344450
5.67750	333484
5.68562	304792
5.69373	282356
5.70187	270307
5.70998	261660
5.71812	264300
5.72623	249807
5.73435	257953
5.74248	244295
5.75060	254247
5.75873	249230
5.76685	242559
5.77497	242727
5.78310	238602
5.79122	239981
5.79935	242906
5.80747	241320
5.81558	243353
5.82372	245099
5.83183	245174
5.83995	226960
5.84808	230452
5.85620	227425
5.86433	231764
5.87245	224586
5.88057	229951
5.88870	223837
5.89682	221071
5.90495	215331
5.91307	198671
5.92118	200345
5.92932	215343
5.93743	240456
5.94557	272621
5.95368	301761
5.96180	327377
5.96993	327902
5.97805	300827
5.98617	264743
5.99430	226800
6.00242	205412
6.01055	190333
6.01867	182383
6.02678	172623
6.03492	170760
6.04303	169517
6.05117	165767
6.05928	161211
6.06740	170590
6.07553	174033
6.08365	167331
6.09177	209209
6.09990	287677
6.10802	428978
6.11615	555496
6.12427	563381
6.13238	472248
6.14052	371472
6.14863	299405
6.15677	263591
6.16488	240815
6.17300	228327
6.18113	231566
6.18925	219435
6.19738	219514
6.20550	216114
6.21362	207749
6.22175	213496
6.22987	220261
6.23798	210848
6.24612	218051
6.25423	207657
6.26237	204361
6.27048	207723
6.27860	205236
6.28673	203979
6.29485	210108
6.30298	220418
6.31110	223440
6.31922	226886
6.32735	212987
6.33547	215136
6.34358	208017
6.35172	206894
6.35983	207243
6.36797	214999
6.37608	206094
6.38420	209531
6.39233	203619
6.40045	206936
6.40858	211674
6.41670	206842
6.42482	207743
6.43295	202918
6.44107	201816
6.44920	203928
6.45732	206491
6.46543	201155
6.47357	207924
6.48168	210931
6.48980	215188
6.49793	217606
6.50605	219652
6.51418	214200
6.52230	203801
6.53042	222473
6.53855	224948
6.54667	253541
6.55480	275287
6.56292	280196
6.57103	265250
6.57917	238932
6.58728	230300
6.59542	230022
6.60353	225309
6.61165	235195
6.61978	320855
6.62790	563748
6.63602	975285
6.64415	1334560
6.65227	1288266
6.66040	986880
6.66852	666346
6.67663	482703
6.68477	391957
6.69288	352776
6.70102	302288
6.70913	275708
6.71725	259803
6.72538	238821
6.73350	227987
6.74162	221636
6.74975	211805
6.75787	195373
6.76600	189828
6.77412	189238
6.78223	184019
6.79037	172128
6.79848	173739
6.80662	172195
6.81473	175898
6.82285	200319
6.83098	233360
6.83910	272445
6.84723	269615
6.85535	245868
6.86347	196511
6.87160	158813
6.87972	121571
6.88783	112028
6.89597	107712
6.90408	95900
6.91222	97263
6.92033	102364
6.92845	106000
6.93658	112391
6.94470	134113
6.95283	160754
6.96095	158263
6.96907	148283
6.97720	132902
6.98532	121706
6.99345	113252
7.00157	112459
7.00968	111840
7.01782	101881
7.02593	99918
7.03405	102050
7.04218	97928
7.05030	100900
7.05843	98804
7.06655	90515
7.07467	91337
7.08280	85192
7.09092	91814
7.09905	87844
7.10717	97566
7.11528	115670
7.12342	160830
7.13153	224045
7.13965	266826
7.14778	268897
7.15590	215954
7.16403	180176
7.17215	156400
7.18027	216976
7.18840	458623
7.19652	946100
7.20465	1474506
7.21277	1596576
7.22088	1307102
7.22902	872970
7.23713	539374
7.24527	364965
7.25338	244587
7.26150	162957
7.26963	130626
7.27775	117428
7.28587	108426
7.29400	116755
7.30212	121759
7.31025	122420
7.31837	123346
7.32648	114368
7.33462	105467
7.34273	103043
7.35087	102641
7.35898	110202
7.36710	114552
7.37523	116586
7.38335	113265
7.39147	109079
7.39960	101253
7.40772	95828
7.41585	96216
7.42397	89555
7.43208	98407
7.44022	90270
7.44833	89633
7.45647	87977
7.46458	84504
7.47270	78024
7.48083	82669
7.48895	86682
7.49708	99959
7.50520	133256
7.51332	193662
7.52145	290138
7.52957	391485
7.53768	454634
7.54582	475688
7.55393	420919
7.56207	329368
7.57018	242943
7.57830	182937
7.58643	141850
7.59455	120476
7.60268	105177
7.61080	107949
7.61892	92906
7.62705	92187
7.63517	82094
7.64330	80435
7.65142	78658
7.65953	77034
7.66767	77990
7.67578	79631
7.68390	72912
7.69203	79614
7.70015	78776
7.70828	75947
7.71640	78457
7.72452	81527
7.73265	80863
7.74077	85188
7.74890	84389
7.75702	88869
7.76513	92092
7.77327	100151
7.78138	95021
7.78950	98046
7.79763	100002
7.80575	98281
7.81388	90148
7.82200	79384
7.83012	80055
7.83825	81089
7.84637	83361
7.85450	88217
7.86262	97554
7.87073	103268
7.87887	98142
7.88698	89445
7.89512	88097
7.90323	98356
7.91135	116773
7.91948	139730
7.92760	152205
7.93572	141909
7.94385	134059
7.95197	109736
7.96010	92565
7.96822	87164
7.97633	78385
7.98447	72615
7.99258	70720
8.00072	68782
8.00883	70532
8.01695	73267
8.02508	71367
8.03320	65716
8.04133	63823
8.04945	69411
8.05757	68566
8.06570	63453
8.07382	62282
8.08193	63417
8.09007	68198
8.09818	65048
8.10632	66765
8.11443	73035
8.12255	93448
8.13068	103401
8.13880	103277
8.14693	100064
8.15505	82505
8.16317	74079
8.17130	71474
8.17942	67372
8.18753	68395
8.19567	65661
8.20378	65030
8.21192	61423
8.22003	66845
8.22815	64197
8.23628	61895
8.24440	61883
8.25253	57766
8.26065	59686
8.26877	59105
8.27690	57201
8.28502	61356
8.29315	65869
8.30127	66460
8.30938	64990
8.31752	65278
8.32563	66770
8.33375	63784
8.34188	61963
8.35000	60314
8.35813	61115
8.36625	63081
8.37437	61798
8.38250	61582
8.39062	58097
8.39875	58624
8.40687	56475
8.41498	53168
8.42312	54008
8.43123	53871
8.43937	56346
8.44748	55502
8.45560	54441
8.46373	53376
8.47185	54992
8.47997	53975
8.48810	55423
8.49622	62332
8.50435	92665
8.51247	149428
8.52058	248859
8.52872	330875
8.53683	334439
8.54497	276608
8.55308	196689
8.56120	127966
8.56933	97249
8.57745	82680
8.58557	84750
8.59370	87099
8.60182	82071
8.60995	79602
8.61807	71553
8.62618	70447
8.63432	65929
8.64243	61886
8.65057	60983
8.65868	59315
8.66680	63831
8.67493	68343
8.68305	75394
8.69118	71643
8.69930	76338
8.70742	69381
8.71555	66581
8.72367	61112
8.73178	64375
8.73992	80507
8.74803	141745
8.75617	285589
8.76428	524147
8.77240	784333
8.78053	891157
8.78865	848589
8.79678	647141
8.80490	452310
8.81302	315324
8.82115	245864
8.82927	226483
8.83738	217478
8.84552	214945
8.85363	208896
8.86177	194910
8.86988	180779
8.87800	174356
8.88613	162651
8.89425	152588
8.90238	147396
8.91050	160755
8.91862	167563
8.92675	171130
8.93487	175813
8.94300	174359
8.95112	167210
8.95923	159123
8.96737	160325
8.97548	146638
8.98360	138580
8.99173	137931
8.99985	127780
9.00798	123562
9.01610	117678
9.02422	116023
9.03235	115593
9.04047	109263
9.04860	114769
9.05672	109822
9.06483	107965
9.07297	115067
9.08108	127070
9.08922	134690
9.09733	153287
9.10545	163485
9.11358	158212
9.12170	146059
9.12982	124418
9.13795	120565
9.14607	112296
9.15420	111821
9.16232	109963
9.17043	98548
9.17857	99008
9.18668	98375
9.19482	102714
9.20293	101897
9.21105	95474
9.21918	101050
9.22730	97843
9.23542	96971
9.24355	98423
9.25167	91172
9.25980	93157
9.26792	90448
9.27603	91344
9.28417	85496
9.29228	92161
9.30042	87299
9.30853	90997
9.31665	90260
9.32478	89706
9.33290	92863
9.34103	86149
9.34915	86545
9.35727	79942
9.36540	82495
9.37352	83574
9.38163	83896
9.38977	90730
9.39788	101486
9.40602	109485
9.41413	132033
9.42225	141019
9.43038	143050
9.43850	138680
9.44663	124612
9.45475	116321
9.46287	97434
9.47100	89670
9.47912	82311
9.48725	83903
9.49537	90125
9.50348	101157
9.51162	102083
9.51973	107973
9.52785	108924
9.53598	97574
9.54410	83237
9.55223	83065
9.56035	79451
9.56847	77174
9.57660	82022
9.58472	81630
9.59285	74815
9.60097	67345
9.60908	57069
9.61722	55294
9.62533	55343
9.63345	56196
9.64158	53276
9.64970	53977
9.65783	50927
9.66595	50711
9.67407	51671
9.68220	54526
9.69032	48216
9.69845	48421
9.70657	46282
9.71468	48036
9.72282	44835
9.73093	46126
9.73907	47998
9.74718	47026
9.75530	43945
9.76343	42249
9.77155	44724
9.77967	45855
9.78780	43741
9.79592	41936
9.80405	47147
9.81217	46037
9.82028	43962
9.82842	43149
9.83653	44498
9.84467	46947
9.85278	47064
9.86090	51881
9.86903	48996
9.87715	48113
9.88527	51759
9.89340	46929
9.90152	49283
9.90965	56547
9.91777	74632
9.92588	108386
9.93402	155131
9.94213	199032
9.95027	200411
9.95838	183851
9.96650	142841
9.97463	111519
9.98275	93661
9.99088	83225
9.99900	78908
10.00712	77061
10.01525	72555
10.02337	69766
10.03148	61074
10.03962	59276
10.04773	59746
10.05587	63698
10.06398	61154
10.07210	60983
10.08023	56003
10.08835	62072
10.09648	56315
10.10460	59211
10.11272	55038
10.12085	56363
10.12897	57024
10.13710	51796
10.14522	52454
10.15333	54898
10.16147	56620
10.16958	55434
10.17770	54783
10.18583	50257
10.19395	48799
10.20208	52509
10.21020	50310
10.21832	52213
10.22645	54184
10.23457	64871
10.24270	78190
10.25082	133284
10.25893	303941
10.26707	666079
10.27518	1242352
10.28332	1933661
10.29143	2717155
10.29955	3877801
10.30768	5615440
10.31580	7607999
10.32392	8818220
10.33205	8238849
10.34017	6143994
10.34830	3866535
10.35642	2287230
10.36453	1507080
10.37267	1082791
10.38078	819102
10.38892	596626
10.39703	440248
10.40515	341930
10.41328	298880
10.42140	278876
10.42952	248995
10.43765	244959
10.44577	226756
10.45390	218068
10.46202	204879
10.47013	185276
10.47827	177438
10.48638	168157
10.49452	154439
10.50263	144838
10.51075	145395
10.51888	140990
10.52700	140171
10.53513	125265
10.54325	128479
10.55137	131135
10.55950	123969
10.56762	125723
10.57573	120992
10.58387	112114
10.59198	110408
10.60012	105069
10.60823	99080
10.61635	97030
10.62448	95215
10.63260	97269
10.64073	91586
10.64885	91573
10.65697	88454
10.66510	84426
10.67322	89555
10.68133	86024
10.68947	83649
10.69758	86791
10.70572	84094
10.71383	88642
10.72195	88490
10.73008	83071
10.73820	85040
10.74633	83071
10.75445	79111
10.76257	74592
10.77070	77173
10.77882	75610
10.78695	74985
10.79507	75416
10.80318	74543
10.81132	76131
10.81943	71801
10.82755	63472
10.83568	66509
10.84380	64821
10.85193	57777
10.86005	62193
10.86817	65301
10.87630	64669
10.88442	58847
10.89255	67735
10.90067	60367
10.90878	61512
10.91692	56442
10.92503	60181
10.93317	57162
10.94128	60132
10.94940	57895
10.95753	56135
10.96565	60275
10.97377	60002
10.98190	59107
10.99002	58264
10.99815	57748
11.00627	57479
11.01438	56914
11.02252	57264
11.03063	56657
11.03877	53574
11.04688	53398
11.05500	56723
11.06313	55465
11.07125	60317
11.07937	66878
11.08750	56782
11.09562	61820
11.10375	54070
11.11187	54253
11.11998	51105
11.12812	47946
11.13623	46554
11.14437	45865
11.15248	47794
11.16060	50023
11.16873	53494
11.17685	55478
11.18498	60305
11.19310	62557
11.20122	57687
11.20935	52980
11.21747	49324
11.22558	46773
11.23372	46276
11.24183	43897
11.24997	44290
11.25808	43829
11.26620	44651
11.27433	45935
11.28245	48093
11.29058	64487
11.29870	92646
11.30682	155926
11.31495	268960
11.32307	402792
11.33120	535651
11.33932	624296
11.34743	583408
11.35557	461958
11.36368	332291
11.37180	230217
11.37993	175286
11.38805	141613
11.39618	127979
11.40430	123280
11.41242	113159
11.42055	104534
11.42867	94190
11.43680	90128
11.44492	86324
11.45303	86318
11.46117	91898
11.46928	124717
11.47740	166610
11.48553	205206
11.49365	226639
11.50178	217243
11.50990	187889
11.51802	153292
11.52615	125965
11.53427	106673
11.54240	99331
11.55052	94160
11.55863	92211
11.56677	86448
11.57488	88241
11.58302	98411
11.59113	102158
11.59925	125903
11.60738	140674
11.61550	145545
11.62362	146884
11.63175	117595
11.63987	93887
11.64800	80322
11.65612	72039
11.66423	68027
11.67237	67030
11.68048	67314
11.68862	63821
11.69673	65457
11.70485	64241
11.71298	70454
11.72110	67793
11.72922	61611
11.73735	55300
11.74547	56839
11.75360	58383
11.76172	55737
11.76983	54065
11.77797	50719
11.78608	56187
11.79422	56251
11.80233	57000
11.81045	55283
11.81858	53307
11.82670	55374
11.83483	54244
11.84295	62121
11.85107	63032
11.85920	63177
11.86732	54569
11.87543	51048
11.88357	51436
11.89168	48225
11.89982	50397
11.90793	51797
11.91605	52441
11.92418	57092
11.93230	55399
11.94043	56373
11.94855	48951
11.95667	47751
11.96480	52196
11.97292	65266
11.98105	93697
11.98917	122979
11.99728	168356
12.00542	202151
12.01353	183623
12.02165	157277
12.02978	110551
12.03790	89351
12.04603	74378
12.05415	67178
12.06227	66397
12.07040	60431
12.07852	65351
12.08665	62293
12.09477	60659
12.10288	59731
12.11102	60186
12.11913	64342
12.12725	67014
12.13538	64369
12.14350	62966
12.15163	56597
12.15975	54637
12.16787	47310
12.17600	48734
12.18412	51283
12.19225	52141
12.20037	47793
12.20848	53515
12.21662	49768
12.22473	51299
12.23287	53725
12.24098	46317
12.24910	46622
12.25723	47326
12.26535	53382
12.27347	45738
12.28160	47814
12.28972	46345
12.29785	47275
12.30597	50086
12.31408	44854
12.32222	44841
12.33033	42914
12.33847	42759
12.34658	42585
12.35470	46703
12.36283	41825
12.37095	43488
12.37908	42276
12.38720	48045
12.39532	62180
12.40345	77982
12.41157	96194
12.41968	109793
12.42782	111484
12.43593	101531
12.44407	88992
12.45218	80729
12.46030	68047
12.46843	63115
12.47655	62030
12.48468	53301
12.49280	53973
12.50092	52470
12.50905	52713
12.51717	55310
12.52528	59182
12.53342	76583
12.54153	103446
12.54967	120411
12.55778	136135
12.56590	143508
12.57403	123614
12.58215	96821
12.59028	81882
12.59840	72973
12.60652	61819
12.61465	60446
12.62277	57515
12.63090	53858
12.63902	55147
12.64713	53452
12.65527	52309
12.66338	51195
12.67150	47902
12.67963	48098
12.68775	47641
12.69588	44759
12.70400	45745
12.71212	50306
12.72025	51816
12.72837	51861
12.73650	59054
12.74462	51264
12.75273	51713
12.76087	46245
12.76898	43825
12.77712	40118
12.78523	42378
12.79335	42755
12.80148	44252
12.80960	40131
12.81772	40659
12.82585	34494
12.83397	42116
12.84210	37092
12.85022	41326
12.85833	34726
12.86647	37162
12.87458	37782
12.88272	37813
12.89083	32840
12.89895	36008
12.90708	37059
12.91520	33672
12.92332	36460
12.93145	37780
12.93957	36889
12.94770	43096
12.95582	58342
12.96393	70966
12.97207	87124
12.98018	97892
12.98832	94874
12.99643	79063
13.00455	66853
13.01268	55202
13.02080	53021
13.02893	47413
13.03705	44314
13.04517	45304
13.05330	41599
13.06142	42697
13.06953	43561
13.07767	43164
13.08578	44580
13.09392	42940
13.10203	41023
13.11015	41308
13.11828	39212
13.12640	40357
13.13453	37808
13.14265	40230
13.15077	39333
13.15890	43352
13.16702	44861
13.17513	41938
13.18327	49368
13.19138	42461
13.19952	44588
13.20763	45972
13.21575	42866
13.22388	46846
13.23200	42862
13.24013	41654
13.24825	43764
13.25637	40559
13.26450	38191
13.27262	38918
13.28075	36062
13.28887	37676
13.29698	37040
13.30512	39197
13.31323	36416
13.32135	36006
13.32948	37106
13.33760	35672
13.34573	38432
13.35385	41104
13.36197	37297
13.37010	40182
13.37822	37323
13.38635	33829
13.39447	36691
13.40258	35570
13.41072	33024
13.41883	34555
13.42697	35063
13.43508	36520
13.44320	37056
13.45133	35362
13.45945	35063
13.46757	37481
13.47570	36405
13.48382	38111
13.49195	35138
13.50007	36886
13.50818	36477
13.51632	38550
13.52443	41546
13.53257	37113
13.54068	35759
13.54880	40792
13.55693	38374
13.56505	33869
13.57317	38780
13.58130	42856
13.58942	52071
13.59755	69154
13.60567	98239
13.61378	128659
13.62192	145991
13.63003	141935
13.63817	115782
13.64628	93992
13.65440	70564
13.66253	54375
13.67065	51602
13.67878	46344
13.68690	42959
13.69502	39729
13.70315	40072
13.71127	43927
13.71938	47613
13.72752	62921
13.73563	112195
13.74377	234696
13.75188	492024
13.76000	873476
13.76813	1267459
13.77625	1531141
13.78438	1470760
13.79250	1189156
13.80062	838912
13.80875	613797
13.81687	526036
13.82500	479406
13.83312	478817
13.84123	449978
13.84937	399265
13.85748	339230
13.86560	280256
13.87373	230082
13.88185	191342
13.88998	170057
13.89810	149967
13.90622	134089
13.91435	126379
13.92247	123918
13.93060	118614
13.93872	110358
13.94683	108804
13.95497	115789
13.96308	111430
13.97120	119557
13.97933	120926
13.98745	116832
13.99558	117120
14.00370	110783
14.01182	100608
14.01995	98649
14.02807	92990
14.03620	86181
14.04432	86480
14.05243	87618
14.06057	88275
14.06868	85988
14.07682	88755
14.08493	80586
14.09305	74412
14.10118	77480
14.10930	75664
14.11742	74140
14.12555	73800
14.13367	77740
14.14180	79225
14.14992	81109
14.15803	82417
14.16617	86802
14.17428	96183
14.18242	120044
14.19053	160183
14.19865	204432
14.20678	259056
14.21490	270228
14.22302	263989
14.23115	241687
14.23927	201324
14.24740	187892
14.25552	174277
14.26363	160202
14.27177	149735
14.27988	137552
14.28802	120032
14.29613	111359
14.30425	106660
14.31238	101588
14.32050	95468
14.32863	96538
14.33675	93124
14.34487	86247
14.35300	86775
14.36112	77315
14.36923	63507
14.37737	65084
14.38548	79287
14.39362	113948
14.40173	184022
14.40985	285049
14.41798	378161
14.42610	413176
14.43423	375017
14.44235	275209
14.45047	195208
14.45860	132419
14.46672	111025
14.47485	94063
14.48297	93032
14.49108	87180
14.49922	82404
14.50733	77038
14.51545	74581
14.52358	74639
14.53170	69669
14.53983	69721
14.54795	63171
14.55607	63906
14.56420	58621
14.57232	56376
14.58045	59957
14.58857	54088
14.59668	48942
14.60482	51805
14.61293	49403
14.62107	51179
14.62918	49612
14.63730	51359
14.64543	50833
14.65355	49181
14.66167	49539
14.66980	45315
14.67792	45169
14.68605	47515
14.69417	48124
14.70228	44390
14.71042	49575
14.71853	49146
14.72667	48276
14.73478	48766
14.74290	54904
14.75103	53004
14.75915	50122
14.76727	55535
14.77540	56172
14.78352	70431
14.79165	133223
14.79977	320836
14.80788	708210
14.81602	1360186
14.82413	2112522
14.83227	2555799
14.84038	2510044
14.84850	1963348
14.85663	1357011
14.86475	867521
14.87288	552286
14.88100	373728
14.88912	288484
14.89725	237424
14.90537	201362
14.91348	176392
14.92162	163773
14.92973	154953
14.93787	139088
14.94598	129480
14.95410	125846
14.96223	115913
14.97035	111469
14.97848	108158
14.98660	111192
14.99472	103300
15.00285	93060
15.01097	93128
15.01908	90959
15.02722	93412
15.03533	85333
15.04347	79207
15.05158	80552
15.05970	76999
15.06783	81733
15.07595	73814
15.08408	73715
15.09220	68337
15.10032	68280
15.10845	66938
15.11657	68310
15.12470	75401
15.13282	75550
15.14093	83316
15.14907	86015
15.15718	79232
15.16530	72873
15.17343	63024
15.18155	59277
15.18968	59017
15.19780	53354
15.20592	52799
15.21405	48797
15.22217	48727
15.23030	46599
15.23842	47296
15.24653	42248
15.25467	46339
15.26278	46690
15.27092	44270
15.27903	44011
15.28715	39902
15.29528	42675
15.30340	46292
15.31152	42760
15.31965	40254
15.32777	46162
15.33590	39601
15.34402	41367
15.35213	40172
15.36027	40791
15.36838	40657
15.37652	39694
15.38463	40164
15.39275	42002
15.40088	43751
15.40900	42773
15.41712	41486
15.42525	38931
15.43337	40886
15.44150	39197
15.44962	38924
15.45773	41977
15.46587	50873
15.47398	62280
15.48212	81087
15.49023	106773
15.49835	130833
15.50648	143334
15.51460	136340
15.52273	136464
15.53085	134242
15.53897	140152
15.54710	130686
15.55522	131486
15.56333	109575
15.57147	89312
15.57958	75684
15.58772	57941
15.59583	57751
15.60395	53942
15.61208	48423
15.62020	49410
15.62833	46933
15.63645	45570
15.64457	46585
15.65270	45528
15.66082	41565
15.66895	46533
15.67707	41803
15.68518	41740
15.69332	37548
15.70143	37894
15.70955	41935
15.71768	40088
15.72580	43258
15.73393	44915
15.74205	42970
15.75017	55415
15.75830	71285
15.76642	115990
15.77455	173049
15.78267	233890
15.79078	278172
15.79892	263259
15.80703	226761
15.81515	157928
15.82328	119643
15.83140	90143
15.83953	78193
15.84765	69606
15.85577	64935
15.86390	61421
15.87202	58674
15.88015	56920
15.88827	56597
15.89638	50023
15.90452	52130
15.91263	48679
15.92077	52517
15.92888	49020
15.93700	51142
15.94513	58154
15.95325	63099
15.96137	74569
15.96950	89566
15.97762	96009
15.98575	95738
15.99387	93121
16.00198	84587
16.01012	76041
16.01823	76259
16.02637	74377
16.03448	71207
16.04260	69187
16.05073	64114
16.05885	61372
16.06697	52946
16.07510	55414
16.08322	47976
16.09135	50609
16.09947	51274
16.10758	48536
16.11572	50565
16.12383	51974
16.13197	54939
16.14008	56785
16.14820	55414
16.15633	58004
16.16445	55794
16.17258	54213
16.18070	50645
16.18882	50930
16.19695	47993
16.20507	48709
16.21318	49118
16.22132	47663
16.22943	44549
16.23757	46027
16.24568	43411
16.25380	42556
16.26193	41810
16.27005	43703
16.27818	49387
16.28630	47955
16.29442	50793
16.30255	54376
16.31067	56432
16.31880	54979
16.32692	48380
16.33503	45198
16.34317	53610
16.35128	63103
16.35940	76109
16.36753	90755
16.37565	99023
16.38378	107415
16.39190	88405
16.40002	79870
16.40815	70956
16.41627	59549
16.42440	53443
16.43252	54379
16.44063	60291
16.44877	77965
16.45688	115143
16.46500	181544
16.47313	280582
16.48125	373401
16.48938	385751
16.49750	355334
16.50562	258607
16.51375	189742
16.52187	127023
16.53000	101710
16.53812	77626
16.54623	72761
16.55437	69359
16.56248	68198
16.57062	73601
16.57873	69468
16.58685	72852
16.59498	75519
16.60310	83438
16.61122	95479
16.61935	94102
16.62747	89980
16.63560	85213
16.64372	74703
16.65183	64765
16.65997	57723
16.66808	54418
16.67622	57118
16.68433	52839
16.69245	54852
16.70058	52114
16.70870	47711
16.71683	47281
16.72495	50711
16.73307	45379
16.74120	44520
16.74932	50348
16.75743	48976
16.76557	46271
16.77368	49167
16.78182	45860
16.78993	50771
16.79805	43215
16.80618	41440
16.81430	41486
16.82243	43731
16.83055	36333
16.83867	42168
16.84680	39315
16.85492	38138
16.86303	43895
16.87117	38670
16.87928	38807
16.88742	44943
16.89553	41392
16.90365	39308
16.91178	38373
16.91990	40796
16.92803	38824
16.93615	41342
16.94427	41144
16.95240	40658
16.96052	38648
16.96865	39020
16.97677	44506
16.98488	40071
16.99302	39266
17.00113	42085
17.00925	41794
17.01738	44086
17.02550	43054
17.03363	43973
17.04175	44195
17.04987	49072
17.05800	49865
17.06612	54142
17.07425	55258
17.08237	46642
17.09048	43462
17.09862	41990
17.10673	44703
17.11485	42614
17.12298	43836
17.13110	41205
17.13923	45139
17.14735	43462
17.15547	45556
17.16360	44737
17.17172	46006
17.17985	44935
17.18797	45115
17.19608	42851
17.20422	40972
17.21233	44818
17.22047	39186
17.22858	41759
17.23670	42257
17.24483	41863
17.25295	40794
17.26107	40580
17.26920	42955
17.27732	38135
17.28545	39247
17.29357	39158
17.30168	39479
17.30982	44918
17.31793	43458
17.32607	44271
17.33418	52192
17.34230	59436
17.35043	60352
17.35855	62469
17.36668	60349
17.37480	55818
17.38292	54838
17.39105	56586
17.39917	52999
17.40728	52125
17.41542	53980
17.42353	55362
17.43167	53302
17.43978	54169
17.44790	54350
17.45603	47358
17.46415	48334
17.47228	44281
17.48040	45630
17.48852	40754
17.49665	43911
17.50477	42970
17.51288	41755
17.52102	45195
17.52913	43044
17.53727	42181
17.54538	46949
17.55350	53613
17.56163	72607
17.56975	114566
17.57788	194137
17.58600	341694
17.59412	565884
17.60225	783497
17.61037	915176
17.61850	924286
17.62662	780229
17.63473	561844
17.64287	401608
17.65098	297631
17.65910	227878
17.66723	179548
17.67535	158025
17.68348	137812
17.69160	126212
17.69972	117604
17.70785	103954
17.71597	93644
17.72410	89180
17.73222	87465
17.74033	78594
17.74847	77519
17.75658	78090
17.76472	70272
17.77283	66756
17.78095	66974
17.78908	68681
17.79720	85574
17.80532	117304
17.81345	163123
17.82157	210102
17.82970	255251
17.83782	260786
17.84593	233050
17.85407	190299
17.86218	163325
17.87032	132382
17.87843	113745
17.88655	98937
17.89468	84942
17.90280	83325
17.91092	73185
17.91905	71083
17.92717	63459
17.93530	64778
17.94342	56717
17.95153	60274
17.95967	57556
17.96778	52859
17.97592	53059
17.98403	54337
17.99215	51461
18.00028	54662
18.00840	53364
18.01653	59106
18.02465	67036
18.03277	82230
18.04090	94877
18.04902	117371
18.05713	188699
18.06527	371704
18.07338	752437
18.08152	1293554
18.08963	1932718
18.09775	2192035
18.10588	2128461
18.11400	1731795
18.12213	1284669
18.13025	899857
18.13837	659009
18.14650	522271
18.15462	430955
18.16275	374855
18.17087	321266
18.17898	290009
18.18712	266904
18.19523	245278
18.20335	237405
18.21148	207520
18.21960	194274
18.22773	180295
18.23585	169121
18.24397	162944
18.25210	150437
18.26022	139122
18.26835	138264
18.27647	121700
18.28458	106499
18.29272	85267
18.30083	78350
18.30895	68045
18.31708	66055
18.32520	60432
18.33333	59635
18.34145	56594
18.34957	54884
18.35770	53641
18.36582	53646
18.37395	52633
18.38207	52195
18.39018	54063
18.39832	51765
18.40643	55079
18.41457	54312
18.42268	56307
18.43080	63853
18.43893	70829
18.44705	88943
18.45517	115196
18.46330	150632
18.47142	206768
18.47955	271020
18.48767	333325
18.49578	377255
18.50392	379560
18.51203	345928
18.52017	318068
18.52828	293068
18.53640	284567
18.54453	270385
18.55265	264423
18.56077	264120
18.56890	254190
18.57702	250688
18.58515	248174
18.59327	252905
18.60138	250029
18.60952	258234
18.61763	257841
18.62577	264913
18.63388	253218
18.64200	250984
18.65013	249765
18.65825	233690
18.66638	236666
18.67450	236259
18.68262	235800
18.69075	224699
18.69887	220417
18.70698	218547
18.71512	216608
18.72323	210521
18.73137	214761
18.73948	208629
18.74760	217403
18.75573	197471
18.76385	201613
18.77198	197324
18.78010	202778
18.78822	200266
18.79635	191780
18.80447	196374
18.81260	195040
18.82072	185954
18.82883	186137
18.83697	195559
18.84508	180823
18.85320	183924
18.86133	181852
18.86945	182986
18.87758	182267
18.88570	175923
18.89382	177050
18.90195	179011
18.91007	173258
18.91820	171060
18.92632	171239
18.93443	171235
18.94257	171229
18.95068	180016
18.95880	175925
18.96693	176971
18.97505	178618
18.98318	172910
18.99130	171595
18.99942	164708
19.00755	157492
19.01567	157171
19.02380	158619
19.03192	153047
19.04003	153583
19.04817	158394
19.05628	163930
19.06442	184093
19.07253	236539
19.08065	370616
19.08878	543669
19.09690	807579
19.10502	1010463
19.11315	1057572
19.12127	973170
19.12940	798416
19.13752	582969
19.14563	430399
19.15377	320539
19.16188	254260
19.17002	224627
19.17813	213647
19.18625	191485
19.19438	176568
19.20250	179903
19.21063	163315
19.21875	161959
19.22687	158094
19.23500	146769
19.24312	145999
19.25123	143391
19.25937	142181
19.26748	132041
19.27562	140692
19.28373	139989
19.29185	138193
19.29998	144943
19.30810	136143
19.31623	137613
19.32435	141586
19.33247	134580
19.34060	136261
19.34872	145338
19.35683	155246
19.36497	178702
19.37308	200411
19.38122	211246
19.38933	203778
19.39745	177724
19.40558	156455
19.41370	141587
19.42183	134446
19.42995	126276
19.43807	124022
19.44620	123091
19.45432	118675
19.46245	119205
19.47057	121891
19.47868	125532
19.48682	144845
19.49493	177395
19.50305	219564
19.51118	249085
19.51930	256685
19.52743	243145
19.53555	202868
19.54367	180048
19.55180	150386
19.55992	129974
19.56805	119915
19.57617	112050
19.58428	111089
19.59242	110677
19.60053	100609
19.60865	96753
19.61678	96635
19.62490	104223
19.63303	111584
19.64115	127462
19.64927	156331
19.65740	205556
19.66552	254727
19.67365	306282
19.68177	318300
19.68988	319563
19.69802	298428
19.70613	267527
19.71427	242620
19.72238	212558
19.73050	192089
19.73863	166601
19.74675	151686
19.75487	140690
19.76300	123814
19.77112	132175
19.77925	132661
19.78737	139026
19.79548	148838
19.80362	146625
19.81173	149301
19.81987	143418
19.82798	132411
19.83610	120670
19.84423	138855
19.85235	213400
19.86048	479424
19.86860	1136354
19.87672	2464487
19.88485	4442866
19.89297	6869256
19.90108	8712598
19.90922	8967716
19.91733	7957569
19.92547	6131091
19.93358	4250990
19.94170	2738091
19.94983	1855866
19.95795	1388604
19.96608	1130763
19.97420	972195
19.98232	886081
19.99045	820344
19.99857	760768
20.00670	690400
20.01482	649518
20.02293	606207
20.03107	555729
20.03918	525122
20.04730	463997
20.05543	400096
20.06355	336098
20.07168	276198
20.07980	240945
20.08792	220480
20.09605	198009
20.10417	181441
20.11230	162991
20.12042	166832
20.12853	153440
20.13667	149121
20.14478	144459
20.15290	140027
20.16103	146989
20.16915	156244
20.17728	162710
20.18540	174243
20.19352	174491
20.20165	182496
20.20977	183802
20.21790	168537
20.22602	164584
20.23413	148815
20.24227	152090
20.25038	158554
20.25852	173828
20.26663	211409
20.27475	248061
20.28288	281712
20.29100	279643
20.29912	281565
20.30725	246464
20.31537	222111
20.32350	199525
20.33162	168280
20.33973	150813
20.34787	127204
20.35598	114882
20.36412	105870
20.37223	99133
20.38035	93357
20.38848	87436
20.39660	85223
20.40472	82443
20.41285	89032
20.42097	84894
20.42910	96324
20.43722	96616
20.44533	101727
20.45347	101853
20.46158	105586
20.46972	100628
20.47783	96747
20.48595	84010
20.49408	81247
20.50220	84598
20.51033	74831
20.51845	78166
20.52657	76110
20.53470	72228
20.54282	77910
20.55093	72373
20.55907	73793
20.56718	69895
20.57532	70244
20.58343	69051
20.59155	72817
20.59968	71961
20.60780	67306
20.61593	66864
20.62405	64787
20.63217	70320
20.64030	68021
20.64842	74310
20.65653	72978
20.66467	75125
20.67278	74396
20.68092	70578
20.68903	71859
20.69715	67607
20.70528	63618
20.71340	64767
20.72153	64968
20.72965	64591
20.73777	66145
20.74590	67422
20.75402	71570
20.76215	74912
20.77027	72085
20.77838	83896
20.78652	102573
20.79463	143402
20.80275	204587
20.81088	291211
20.81900	374441
20.82713	389629
20.83525	358133
20.84337	281387
20.85150	204902
20.85962	150582
20.86775	117610
20.87587	99206
20.88398	90113
20.89212	87782
20.90023	83975
20.90837	81151
20.91648	77941
20.92460	78572
20.93273	78008
20.94085	73275
20.94897	71232
20.95710	71325
20.96522	73206
20.97335	72741
20.98147	64328
20.98958	70365
20.99772	63746
21.00583	63666
21.01397	68651
21.02208	65733
21.03020	68732
21.03833	68968
21.04645	68017
21.05458	68103
21.06270	68067
21.07082	70585
21.07895	65689
21.08707	63000
21.09518	64420
21.10332	62814
21.11143	64368
21.11957	63921
21.12768	64930
21.13580	73460
21.14393	78716
21.15205	92128
21.16018	96593
21.16830	105810
21.17642	101724
21.18455	95401
21.19267	89366
21.20078	78429
21.20892	76599
21.21703	72286
21.22517	64073
21.23328	63857
21.24140	63019
21.24953	62897
21.25765	61481
21.26578	62213
21.27390	59000
21.28202	59424
21.29015	57798
21.29827	56579
21.30640	56930
21.31452	54798
21.32263	59336
21.33077	52176
21.33888	53604
21.34700	52522
21.35513	51356
21.36325	54833
21.37138	54927
21.37950	58838
21.38762	65265
21.39575	76527
21.40387	86379
21.41200	99133
21.42012	104970
21.42823	97595
21.43637	87005
21.44448	72932
21.45260	64458
21.46073	64482
21.46885	60784
21.47698	59310
21.48510	55565
21.49322	55031
21.50135	55053
21.50947	55622
21.51760	55140
21.52572	52565
21.53383	53280
21.54197	50898
21.55008	50862
21.55822	49354
21.56633	49180
21.57445	53871
21.58258	61572
21.59070	66903
21.59882	80604
21.60695	75398
21.61507	74730
21.62320	79717
21.63132	81950
21.63943	91043
21.64757	103232
21.65568	99100
21.66382	99049
21.67193	101763
21.68005	101761
21.68818	99930
21.69630	94557
21.70443	84760
21.71255	79523
21.72067	71745
21.72880	66943
21.73692	72663
21.74503	68110
21.75317	64565
21.76128	61078
21.76942	64531
21.77753	58218
21.78565	62865
21.79378	59664
21.80190	57532
21.81003	63203
21.81815	71787
21.82627	71622
21.83440	83985
21.84252	84456
21.85063	88240
21.85877	84432
21.86688	77395
21.87502	70153
21.88313	62956
21.89125	65290
21.89938	64114
21.90750	63552
21.91563	56005
21.92375	62395
21.93187	54993
21.94000	55383
21.94812	51386
21.95625	52704
21.96437	50113
21.97248	45153
21.98062	46461
21.98873	46387
21.99685	49379
22.00498	54710
22.01310	58312
22.02123	68614
22.02935	76104
22.03747	73874
22.04560	82605
22.05372	83184
22.06185	84209
22.06997	88213
22.07808	86706
22.08622	82837
22.09433	86783
22.10247	90623
22.11058	86640
22.11870	87881
22.12683	89968
22.13495	86601
22.14307	92647
22.15120	88719
22.15932	93110
22.16745	86674
22.17557	80545
22.18368	92171
22.19182	89872
22.19993	82477
22.20807	83496
22.21618	82356
22.22430	79928
22.23243	87961
22.24055	79359
22.24867	78168
22.25680	71482
22.26492	64316
22.27305	65438
22.28117	70623
22.28928	72535
22.29742	73314
22.30553	70094
22.31367	76899
22.32178	73890
22.32990	71742
22.33803	66027
22.34615	62339
22.35428	64663
22.36240	58783
22.37052	56947
22.37865	63322
22.38677	69295
22.39488	74844
22.40302	96417
22.41113	122567
22.41927	135117
22.42738	143364
22.43550	142784
22.44363	127437
22.45175	101774
22.45988	93872
22.46800	81813
22.47612	81519
22.48425	85986
22.49237	101083
22.50048	107792
22.50862	115831
22.51673	110074
22.52487	97663
22.53298	89421
22.54110	88472
22.54923	93891
22.55735	108266
22.56548	117123
22.57360	125529
22.58172	125888
22.58985	131767
22.59797	130782
22.60610	135568
22.61422	142196
22.62233	144170
22.63047	143497
22.63858	141842
22.64670	141664
22.65483	141747
22.66295	143287
22.67108	146755
22.67920	150297
22.68732	161869
22.69545	153057
22.70357	158346
22.71170	166862
22.71982	168340
22.72793	169648
22.73607	170013
22.74418	160611
22.75232	148642
22.76043	150759
22.76855	144774
22.77668	154141
22.78480	163301
22.79292	177153
22.80105	183337
22.80917	204263
22.81730	207728
22.82542	208166
22.83353	187090
22.84167	172536
22.84978	166546
22.85792	158343
22.86603	154657
22.87415	162039
22.88228	163937
22.89040	167532
22.89852	185187
22.90665	211686
22.91477	241372
22.92290	254452
22.93102	273304
22.93913	264749
22.94727	245719
22.95538	210605
22.96352	185602
22.97163	169625
22.97975	156199
22.98788	148517
22.99600	138692
23.00413	136621
23.01225	124366
23.02037	123328
23.02850	118101
23.03662	116901
23.04473	112914
23.05287	113867
23.06098	121652
23.06912	114558
23.07723	113930
23.08535	112459
23.09348	110444
23.10160	109890
23.10973	102734
23.11785	101140
23.12597	97662
23.13410	96072
23.14222	94437
23.15035	94135
23.15847	98961
23.16658	94418
23.17472	98938
23.18283	92026
23.19095	90770
23.19908	92356
23.20720	92205
23.21533	87099
23.22345	85848
23.23157	85200
23.23970	87102
23.24782	89421
23.25595	97924
23.26407	100044
23.27218	99092
23.28032	97851
23.28843	93825
23.29655	100166
23.30468	88901
23.31280	86950
23.32093	91691
23.32905	97126
23.33717	107181
23.34530	125982
23.35342	157909
23.36155	225540
23.36967	276274
23.37778	344874
23.38592	428288
23.39403	501417
23.40217	552668
23.41028	607037
23.41840	625986
23.42653	619590
23.43465	620679
23.44277	597404
23.45090	557782
23.45902	526246
23.46715	503748
23.47527	467919
23.48338	436560
23.49152	408284
23.49963	367709
23.50777	340062
23.51588	316647
23.52400	292377
23.53213	280237
23.54025	258581
23.54838	260855
23.55650	254352
23.56462	252373
23.57275	254904
23.58087	279827
23.58898	304204
23.59712	352454
23.60523	372130
23.61337	374353
23.62148	349066
23.62960	302061
23.63773	265079
23.64585	239065
23.65398	238288
23.66210	235289
23.67022	233515
23.67835	229686
23.68647	196180
23.69458	184320
23.70272	154355
23.71083	136183
23.71897	123228
23.72708	115838
23.73520	120532
23.74333	129732
23.75145	198414
23.75958	364281
23.76770	704413
23.77582	1308771
23.78395	2114637
23.79207	2736831
23.80020	2984177
23.80832	2891794
23.81643	2464370
23.82457	1919812
23.83268	1505838
23.84080	1157868
23.84893	875478
23.85705	705098
23.86518	576763
23.87330	501991
23.88142	446390
23.88955	397519
23.89767	366944
23.90580	335927
23.91392	317687
23.92203	294901
23.93017	279509
23.93828	259876
23.94640	248053
23.95453	219989
23.96265	209854
23.97078	196224
23.97890	188126
23.98702	184437
23.99515	173090
24.00327	175025
24.01140	178343
24.01952	194758
24.02763	218292
24.03577	238037
24.04388	238874
24.05202	223206
24.06013	196598
24.06825	175244
24.07638	153562
24.08450	137490
24.09262	129886
24.10075	123326
24.10887	124668
24.11700	119952
24.12512	118771
24.13323	127098
24.14137	125599
24.14948	128661
24.15762	128725
24.16573	127040
24.17385	120481
24.18198	119743
24.19010	121822
24.19823	121162
24.20635	120702
24.21447	115059
24.22260	115166
24.23072	106841
24.23883	105914
24.24697	104656
24.25508	95826
24.26322	95867
24.27133	106826
24.27945	134575
24.28758	151104
24.29570	172905
24.30383	186041
24.31195	190933
24.32007	211530
24.32820	208395
24.33632	218830
24.34443	214376
24.35257	215529
24.36068	220512
24.36882	224672
24.37693	244182
24.38505	253438
24.39318	284120
24.40130	287458
24.40943	288973
24.41755	282716
24.42567	259756
24.43380	239688
24.44192	228994
24.45005	223097
24.45817	235181
24.46628	239854
24.47442	263457
24.48253	291607
24.49065	294404
24.49878	302398
24.50690	303463
24.51503	301415
24.52315	290100
24.53127	291420
24.53940	284827
24.54752	295641
24.55565	303890
24.56377	306826
24.57188	292939
24.58002	284739
24.58813	252545
24.59627	234287
24.60438	226021
24.61250	211563
24.62063	213946
24.62875	203523
24.63687	204928
24.64500	201416
24.65312	193718
24.66125	195272
24.66937	192205
24.67748	191054
24.68562	196068
24.69373	187999
24.70187	184859
24.70998	184094
24.71810	195232
24.72623	191878
24.73435	187636
24.74247	188225
24.75060	194514
24.75872	196033
24.76685	201760
24.77497	204407
24.78308	198153
24.79122	209162
24.79933	211446
24.80747	208267
24.81558	205161
24.82370	204343
24.83183	222817
24.83995	232029
24.84808	273219
24.85620	313314
24.86432	382742
24.87245	500842
24.88057	607630
24.88868	711966
24.89682	765722
24.90493	758010
24.91307	629461
24.92118	497012
24.92930	403263
24.93743	301317
24.94555	244059
24.95368	209137
24.96180	184898
24.96992	182037
24.97805	159668
24.98617	166190
24.99428	153461
25.00242	148969
25.01053	150276
25.01867	146410
25.02678	140451
25.03490	146574
25.04303	137997
25.05115	139310
25.05928	131880
25.06740	128511
25.07552	121439
25.08365	114243
25.09177	118870
25.09990	152089
25.10802	257538
25.11613	513877
25.12427	964386
25.13238	1644107
25.14050	2432604
25.14863	2941363
25.15675	2958100
25.16488	2537667
25.17300	1895813
25.18112	1212878
25.18925	727996
25.19737	436899
25.20550	281266
25.21362	196263
25.22173	153953
25.22987	141550
25.23798	142251
25.24612	174003
25.25423	210928
25.26235	243956
25.27048	290966
25.27860	308041
25.28672	295173
25.29485	265223
25.30297	211216
25.31110	165937
25.31922	137015
25.32733	112472
25.33547	99632
25.34358	94040
25.35172	87815
25.35983	79383
25.36795	82184
25.37608	75657
25.38420	73861
25.39233	73234
25.40045	73233
25.40857	69808
25.41670	70194
25.42482	68164
25.43293	65260
25.44107	66625
25.44918	66252
25.45732	68285
25.46543	71624
25.47355	73285
25.48168	79532
25.48980	96645
25.49793	118398
25.50605	147201
25.51417	176752
25.52230	199868
25.53042	206958
25.53853	215804
25.54667	219116
25.55478	234151
25.56292	232282
25.57103	234947
25.57915	233427
25.58728	241038
25.59540	238343
25.60353	240324
25.61165	232998
25.61977	232902
25.62790	238645
25.63602	240426
25.64415	234647
25.65227	230066
25.66038	234504
25.66852	230290
25.67663	225798
25.68475	227085
25.69288	224504
25.70100	224234
25.70913	219716
25.71725	222971
25.72537	217379
25.73350	210252
25.74162	211912
25.74975	208024
25.75787	208414
25.76598	208703
25.77412	204085
25.78223	205402
25.79035	203414
25.79848	210130
25.80660	201671
25.81473	202313
25.82285	199777
25.83097	198117
25.83910	200556
25.84722	195843
25.85535	192311
25.86347	194147
25.87158	190997
25.87972	185960
25.88783	179673
25.89597	173944
25.90408	171147
25.91220	165668
25.92033	172384
25.92845	165827
25.93657	160121
25.94470	158821
25.95282	153710
25.96095	159337
25.96907	157567
25.97718	154953
25.98532	151958
25.99343	149752
26.00157	146248
26.00968	153195
26.01780	145729
26.02593	141153
26.03405	145486
26.04218	133769
26.05030	139405
26.05842	137075
26.06655	140981
26.07467	137825
26.08278	140337
26.09092	138217
26.09903	131733
26.10717	138644
26.11528	135868
26.12340	128620
26.13153	129120
26.13965	131742
26.14778	134769
26.15590	136389
26.16402	127047
26.17215	124093
26.18027	126050
26.18838	130530
26.19652	125371
26.20463	121586
26.21277	114288
26.22088	112390
26.22900	113372
26.23713	107873
26.24525	113130
26.25338	106421
26.26150	110454
26.26962	102972
26.27775	104386
26.28587	102700
26.29400	95861
26.30212	102897
26.31023	97164
26.31837	95914
26.32648	94235
26.33460	93738
26.34273	93541
26.35085	87748
26.35898	88472
26.36710	93239
26.37522	92165
26.38335	95761
26.39147	99489
26.39960	105225
26.40772	98268
26.41583	99899
26.42397	102835
26.43208	91830
26.44022	95295
26.44833	88282
26.45645	87688
26.46458	86894
26.47270	83511
26.48082	88182
26.48895	87370
26.49707	84106
26.50520	83065
26.51332	77670
26.52143	78857
26.52957	74779
26.53768	75754
26.54582	73791
26.55393	76283
26.56205	74973
26.57018	70293
26.57830	68011
26.58642	69492
26.59455	72928
26.60267	68537
26.61080	69869
26.61892	66226
26.62703	66845
26.63517	67731
26.64328	70271
26.65142	72859
26.65953	75651
26.66765	81567
26.67578	82717
26.68390	84528
26.69203	78307
26.70015	70865
26.70827	77103
26.71640	69200
26.72452	66092
26.73263	65964
26.74077	72866
26.74888	66383
26.75702	64830
26.76513	63901
26.77325	64711
26.78138	69236
26.78950	69354
26.79763	70048
26.80575	70864
26.81387	71319
26.82200	71401
26.83012	68634
26.83823	67261
26.84637	65769
26.85448	67301
26.86262	63793
26.87073	59788
26.87885	57788
26.88698	60650
26.89510	60483
26.90323	56682
26.91135	61651
26.91947	60140
26.92760	55173
26.93572	56611
26.94385	56872
26.95197	60466
26.96008	62139
26.96822	72999
26.97633	93678
26.98445	124826
26.99258	191280
27.00070	278164
27.00883	387580
27.01695	497793
27.02507	613857
27.03320	680443
27.04132	684096
27.04945	601573
27.05757	537167
27.06568	460204
27.07382	369330
27.08193	317634
27.09007	267207
27.09818	224041
27.10630	202530
27.11443	190984
27.12255	179560
27.13067	160505
27.13880	151297
27.14692	139098
27.15505	132823
27.16317	140491
27.17128	130276
27.17942	136941
27.18753	128221
27.19567	125878
27.20378	123125
27.21190	119717
27.22003	110305
27.22815	108799
27.23627	99747
27.24440	98807
27.25252	93965
27.26065	93851
27.26877	85108
27.27688	85097
27.28502	84633
27.29313	76470
27.30127	79461
27.30938	85266
27.31750	73154
27.32563	73440
27.33375	77089
27.34188	72998
27.35000	74178
27.35812	78088
27.36625	72404
27.37437	71977
27.38248	73007
27.39062	70188
27.39873	74103
27.40687	67935
27.41498	68767
27.42310	63622
27.43123	67982
27.43935	63372
27.44748	61226
27.45560	69013
27.46372	64042
27.47185	62661
27.47997	58091
27.48810	62766
27.49622	64587
27.50433	63231
27.51247	66864
27.52058	66634
27.52870	68476
27.53683	65804
27.54495	70688
27.55308	67997
27.56120	62519
27.56932	61816
27.57745	67097
27.58557	74764
27.59370	87532
27.60182	92109
27.60993	91279
27.61807	84539
27.62618	81373
27.63430	72570
27.64243	68173
27.65055	61685
27.65868	63401
27.66680	64495
27.67492	61530
27.68305	62636
27.69117	67543
27.69930	74788
27.70742	68070
27.71553	69562
27.72367	59589
27.73178	60310
27.73992	53473
27.74803	51103
27.75615	56986
27.76428	51516
27.77240	51168
27.78052	54641
27.78865	53185
27.79677	54817
27.80490	53917
27.81302	59355
27.82113	56354
27.82927	51210
27.83738	58245
27.84552	54068
27.85363	52764
27.86175	50422
27.86988	53094
27.87800	50434
27.88613	49026
27.89425	52965
27.90237	55217
27.91050	48726
27.91862	52615
27.92673	49003
27.93487	50490
27.94298	49804
27.95112	48170
27.95923	44256
27.96735	48025
27.97548	51540
27.98360	49614
27.99173	50952
27.99985	49193
28.00797	56090
28.01610	57765
28.02422	61869
28.03233	74528
28.04047	82724
28.04858	88549
28.05672	91933
28.06483	90432
28.07295	87152
28.08108	79736
28.08920	72498
28.09733	68583
28.10545	67142
28.11357	60723
28.12170	57327
28.12982	55717
28.13795	53027
28.14607	49041
28.15418	44903
28.16232	48281
28.17043	49674
28.17855	52447
28.18668	58923
28.19480	63716
28.20293	78213
28.21105	81386
28.21917	89207
28.22730	91273
28.23542	86844
28.24355	83265
28.25167	74209
28.25978	63755
28.26792	59946
28.27603	54686
28.28415	56369
28.29228	57410
28.30040	58857
28.30853	69186
28.31665	76912
28.32477	91233
28.33290	101084
28.34102	124708
28.34915	136336
28.35727	148101
28.36538	167273
28.37352	186756
28.38163	199105
28.38977	199810
28.39788	207267
28.40600	212954
28.41413	200318
28.42225	192739
28.43037	182881
28.43850	161336
28.44662	161345
28.45475	147314
28.46287	137302
28.47098	129133
28.47912	117071
28.48723	114102
28.49537	109431
28.50348	106894
28.51160	102358
28.51973	98060
28.52785	95142
28.53598	87555
28.54410	81076
28.55222	84694
28.56035	77534
28.56847	79213
28.57658	71023
28.58472	70402
28.59283	76720
28.60097	72107
28.60908	72302
28.61720	73796
28.62533	66581
28.63345	75734
28.64158	80884
28.64970	72065
28.65782	76191
28.66595	77957
28.67407	73425
28.68218	70053
28.69032	69612
28.69843	65153
28.70657	64973
28.71468	60558
28.72280	64630
28.73093	60205
28.73905	65857
28.74718	66603
28.75530	72979
28.76342	80401
28.77155	86365
28.77967	85333
28.78780	84150
28.79592	78228
28.80403	75587
28.81217	72776
28.82028	69982
28.82840	68669
28.83653	67747
28.84465	60865
28.85278	66340
28.86090	65731
28.86902	63625
28.87715	63526
28.88527	66897
28.89340	76496
28.90152	77386
28.90963	74994
28.91777	74003
28.92588	65937
28.93402	64839
28.94213	63471
28.95025	66770
28.95838	60239
28.96650	61960
28.97462	61289
28.98275	63096
28.99087	60026
28.99900	56542
29.00712	55720
29.01523	50230
29.02337	52256
29.03148	53193
29.03962	52559
29.04773	51188
29.05585	53714
29.06398	54363
29.07210	58952
29.08022	56285
29.08835	56835
29.09647	56879
29.10460	53273
29.11272	56129
29.12083	54046
29.12897	50807
29.13708	50827
29.14522	46145
29.15333	53355
29.16145	56659
29.16958	52343
29.17770	58106
29.18583	61959
29.19395	68324
29.20207	81933
29.21020	92942
29.21832	104363
29.22643	103875
29.23457	95588
29.24268	92217
29.25082	86356
29.25893	89886
29.26705	88838
29.27518	84377
29.28330	82971
29.29143	77713
29.29955	64981
29.30767	62301
29.31580	55671
29.32392	54026
29.33203	53103
29.34017	48870
29.34828	46898
29.35642	44537
29.36453	45935
29.37265	46912
29.38078	46428
29.38890	47836
29.39703	52285
29.40515	48497
29.41327	52955
29.42140	50595
29.42952	50900
29.43765	52038
29.44577	50414
29.45388	52751
29.46202	46609
29.47013	49228
29.47825	52990
29.48638	55030
29.49450	55176
29.50263	53518
29.51075	50161
29.51887	55325
29.52700	55366
29.53512	52704
29.54325	48766
29.55137	49425
29.55948	45814
29.56762	46122
29.57573	47255
29.58387	48629
29.59198	45418
29.60010	40774
29.60823	44926
29.61635	47855
29.62447	44043
29.63260	47097
29.64072	44330
29.64885	45173
29.65697	48192
29.66508	43429
29.67322	47738
29.68133	46028
29.68947	52103
29.69758	50651
29.70570	54412
29.71383	53345
29.72195	53227
29.73007	52278
29.73820	46757
29.74632	43935
29.75445	44241
29.76257	46020
29.77068	42093
29.77882	45296
29.78693	40260
29.79507	42579
29.80318	44631
29.81130	39772
29.81943	41072
29.82755	41997
29.83568	42204
29.84380	39081
29.85192	44347
29.86005	41825
29.86817	45111
29.87628	51537
29.88442	58210
29.89253	70099
29.90067	76500
29.90878	85324
29.91690	83050
29.92503	66175
29.93315	60886
29.94128	61537
29.94940	55859
29.95752	57866
29.96565	63313
29.97377	61920
29.98190	72273
29.99002	85381
29.99813	92135
30.00627	94392
30.01438	102038
30.02250	100312
30.03063	112210
30.03875	113114
30.04688	114551
30.05500	114167
30.06312	117216
30.07125	111953
30.07937	111782
30.08750	107551
30.09562	108653
30.10373	104217
30.11187	103123
30.11998	97087
30.12810	92132
30.13623	93264
30.14435	93595
30.15248	86909
30.16060	85026
30.16872	82399
30.17685	81199
30.18497	75065
30.19310	79381
30.20122	75986
30.20933	75339
30.21747	76208
30.22558	63838
30.23372	64194
30.24183	62841
30.24995	63049
30.25808	60789
30.26620	56556
30.27432	57906
30.28245	59880
30.29057	56618
30.29870	52864
30.30682	53447
30.31493	56439
30.32307	55103
30.33118	53552
30.33932	53098
30.34743	55512
30.35555	52393
30.36368	52642
30.37180	55463
30.37992	50409
30.38805	47005
30.39617	47231
30.40430	50240
30.41242	47319
30.42053	52757
30.42867	47989
30.43678	45524
30.44492	49693
30.45303	47593
30.46115	45553
30.46928	46297
30.47740	44867
30.48553	47145
30.49365	45247
30.50177	41651
30.50990	46139
30.51802	43920
30.52613	44829
30.53427	46504
30.54238	51485
30.55052	47874
30.55863	41131
30.56675	46197
30.57488	47894
30.58300	45959
30.59113	45142
30.59925	49367
30.60737	46627
30.61550	43712
30.62362	44705
30.63175	42469
30.63987	46726
30.64798	45550
30.65612	40187
30.66423	40144
30.67235	40238
30.68048	41340
30.68860	41923
30.69673	39118
30.70485	42779
30.71297	42096
30.72110	40139
30.72922	43009
30.73735	49041
30.74547	44113
30.75358	44014
30.76172	48022
30.76983	48689
30.77797	52880
30.78608	63434
30.79420	70053
30.80233	83350
30.81045	95204
30.81857	96783
30.82670	95005
30.83482	85960
30.84295	67529
30.85107	57881
30.85918	55551
30.86732	48508
30.87543	47761
30.88357	49628
30.89168	47463
30.89980	48343
30.90793	53198
30.91605	55782
30.92417	55294
30.93230	56029
30.94042	56894
30.94855	57271
30.95667	61881
30.96478	57117
30.97292	59154
30.98103	59719
30.98917	57706
30.99728	61136
31.00540	59239
31.01353	59688
31.02165	64036
31.02978	62787
31.03790	65790
31.04602	57286
31.05415	65860
31.06227	64306
31.07038	65280
31.07852	73095
31.08663	75145
31.09477	83872
31.10288	86876
31.11100	87422
31.11913	90947
31.12725	82154
31.13538	84048
31.14350	77937
31.15162	72034
31.15975	75771
31.16787	77794
31.17598	78602
31.18412	92933
31.19223	103190
31.20037	134518
31.20848	167831
31.21660	214088
31.22473	232952
31.23285	242183
31.24098	231092
31.24910	186541
31.25722	153181
31.26535	121621
31.27347	85763
31.28160	75554
31.28972	70553
31.29783	66850
31.30597	66932
31.31408	68450
31.32220	71916
31.33033	65288
31.33845	62446
31.34658	67278
31.35470	62835
31.36282	63484
31.37095	66116
31.37907	63175
31.38720	70812
31.39532	74687
31.40343	61705
31.41157	70944
31.41968	57929
31.42782	59683
31.43593	56836
31.44405	57317
31.45218	56517
31.46030	54745
31.46842	54901
31.47655	49887
31.48467	51799
31.49280	59552
31.50092	56910
31.50903	53455
31.51717	56955
31.52528	58111
31.53342	55738
31.54153	54029
31.54965	57067
31.55778	53013
31.56590	60253
31.57402	53361
31.58215	54463
31.59027	50043
31.59840	53107
31.60652	50420
31.61463	51789
31.62277	53334
31.63088	54790
31.63902	53189
31.64713	52742
31.65525	52694
31.66338	58112
31.67150	58745
31.67963	58710
31.68775	54295
31.69587	51585
31.70400	49545
31.71212	48662
31.72023	49758
31.72837	49283
31.73648	46040
31.74462	46328
31.75273	45288
31.76085	49452
31.76898	53601
31.77710	49733
31.78523	49530
31.79335	47360
31.80147	50239
31.80960	46423
31.81772	48750
31.82585	47783
31.83397	49577
31.84208	52695
31.85022	52100
31.85833	53576
31.86645	55956
31.87458	56904
31.88270	58837
31.89083	62561
31.89895	65540
31.90707	65021
31.91520	78967
31.92332	83147
31.93145	91052
31.93957	92837
31.94768	89559
31.95582	96341
31.96393	101108
31.97205	100468
31.98018	106297
31.98830	107333
31.99643	114974
32.00455	109184
32.01267	102109
32.02080	98027
32.02892	93168
32.03705	92063
32.04517	95073
32.05328	91120
32.06142	87265
32.06953	84327
32.07767	80764
32.08578	80734
32.09390	75349
32.10203	76321
32.11015	68006
32.11827	68893
32.12640	65444
32.13452	62776
32.14265	59827
32.15077	60916
32.15888	56178
32.16702	60428
32.17513	57721
32.18327	54324
32.19138	56565
32.19950	55098
32.20763	53422
32.21575	55281
32.22387	58070
32.23200	53799
32.24012	59450
32.24825	56225
32.25637	54785
32.26448	59415
32.27262	55724
32.28073	53580
32.28887	56216
32.29698	53396
32.30510	53831
32.31323	51160
32.32135	49819
32.32948	52528
32.33760	52611
32.34572	49363
32.35385	49674
32.36197	55923
32.37008	49398
32.37822	50504
32.38633	48312
32.39447	47303
32.40258	54758
32.41070	48672
32.41883	48587
32.42695	49665
32.43508	45859
32.44320	46083
32.45132	48661
32.45945	48084
32.46757	45329
32.47570	49478
32.48382	44744
32.49193	45465
32.50007	46269
32.50818	47308
32.51630	47402
32.52443	48674
32.53255	44159
32.54068	48761
32.54880	48986
32.55692	46902
32.56505	46557
32.57317	47193
32.58130	45120
32.58942	48832
32.59753	49481
32.60567	46906
32.61378	43996
32.62190	44748
32.63003	44933
32.63815	54803
32.64628	51524
32.65440	56354
32.66252	58755
32.67065	62199
32.67877	58023
32.68690	60735
32.69502	58100
32.70313	54438
32.71127	49377
32.71938	49893
32.72752	50858
32.73563	50070
32.74375	48274
32.75188	43787
32.76000	45139
32.76812	45865
32.77625	43494
32.78437	44132
32.79250	45887
32.80062	43672
32.80873	45828
32.81687	42993
32.82498	42128
32.83312	42740
32.84123	45691
32.84935	43023
32.85748	45943
32.86560	44125
32.87373	47224
32.88185	45418
32.88997	48527
32.89810	47834
32.90622	45755
32.91433	47283
32.92247	45832
32.93058	46366
32.93872	47911
32.94683	45957
32.95495	46102
32.96308	46658
32.97120	50972
32.97933	51923
32.98745	58632
32.99557	57073
33.00370	62013
33.01182	67880
33.01993	62986
33.02807	63227
33.03618	58614
33.04432	53340
33.05243	55055
33.06055	55806
33.06868	51935
33.07680	57279
33.08493	62769
33.09305	71461
33.10117	70052
33.10930	75161
33.11742	77879
33.12555	73308
33.13367	70525
33.14178	61666
33.14992	64055
33.15803	60157
33.16615	54783
33.17428	48916
33.18240	49765
33.19053	50664
33.19865	51887
33.20677	52067
33.21490	47770
33.22302	48006
33.23115	44799
33.23927	46841
33.24738	46182
33.25552	47198
33.26363	43963
33.27177	47552
33.27988	42505
33.28800	45353
33.29613	46850
33.30425	44423
33.31237	41820
33.32050	44972
33.32862	46499
33.33675	45765
33.34487	45272
33.35298	46951
33.36112	55102
33.36923	51694
33.37737	54654
33.38548	49175
33.39360	51424
33.40173	47347
33.40985	44238
33.41797	45668
33.42610	46439
33.43422	43805
33.44235	45144
33.45047	43699
33.45858	42108
33.46672	41637
33.47483	42794
33.48297	45972
33.49108	43997
33.49920	45101
33.50733	47382
33.51545	47366
33.52358	47882
33.53170	46608
33.53982	49284
33.54795	49760
33.55607	52863
33.56418	57692
33.57232	52484
33.58043	46641
33.58857	50460
33.59668	50534
33.60480	43780
33.61293	44027
33.62105	42818
33.62918	46526
33.63730	45101
33.64542	48239
33.65355	50898
33.66167	47621
33.66978	50023
33.67792	45956
33.68603	48949
33.69417	46714
33.70228	47217
33.71040	47660
33.71853	41029
33.72665	39071
33.73478	46178
33.74290	42299
33.75102	42764
33.75915	43382
33.76727	42351
33.77540	43094
33.78352	40721
33.79163	46895
33.79977	40561
33.80788	42811
33.81600	43818
33.82413	42703
33.83225	42887
33.84038	43485
33.84850	45098
33.85662	43784
33.86475	48741
33.87287	46424
33.88100	47424
33.88912	44263
33.89723	46944
33.90537	44970
33.91348	41929
33.92162	46569
33.92973	44939
33.93785	44297
33.94598	45125
33.95410	44339
33.96222	44285
33.97035	50040
33.97847	45765
33.98660	43245
33.99472	47866
34.00283	41682
34.01097	47522
34.01908	46473
34.02722	45583
34.03533	47085
34.04345	46969
34.05158	45618
34.05970	44619
34.06782	44886
34.07595	42117
34.08407	38258
34.09220	44336
34.10032	42215
34.10843	43363
34.11657	45432
34.12468	44106
34.13282	44855
34.14093	44602
34.14905	44648
34.15718	46500
34.16530	44511
34.17343	45433
34.18155	46706
34.18967	47414
34.19780	47320
34.20592	47841
34.21403	42282
34.22217	41288
34.23028	42072
34.23842	41612
34.24653	40304
34.25465	44314
34.26278	41804
34.27090	45227
34.27903	42015
34.28715	42664
34.29527	44472
34.30340	44865
34.31152	41273
34.31965	41781
34.32777	46858
34.33588	45307
34.34402	40566
34.35213	41731
34.36025	42056
34.36838	44592
34.37650	40205
34.38463	43008
34.39275	41761
34.40087	41477
34.40900	38499
34.41712	40533
34.42525	43552
34.43337	45080
34.44148	45791
34.44962	45494
34.45773	42368
34.46585	41873
34.47398	43143
34.48210	41358
34.49023	44943
34.49835	48700
34.50647	55042
34.51460	63967
34.52272	70776
34.53085	80902
34.53897	85055
34.54708	92026
34.55522	97817
34.56333	98464
34.57147	95645
34.57958	93750
34.58770	88660
34.59583	83356
34.60395	82534
34.61207	77507
34.62020	71450
34.62832	65726
34.63645	62944
34.64457	61709
34.65268	65156
34.66082	57622
34.66893	56674
34.67707	57335
34.68518	60777
34.69330	56764
34.70143	54265
34.70955	57118
34.71767	53413
34.72580	59910
34.73392	51800
34.74205	49556
34.75017	52646
34.75828	48745
34.76642	47188
34.77453	54577
34.78267	52783
34.79078	49814
34.79890	54906
34.80703	51361
34.81515	51477
34.82328	49066
34.83140	48855
34.83952	54427
34.84765	51089
34.85577	51666
34.86388	52068
34.87202	51090
34.88013	51247
34.88827	53315
34.89638	52124
34.90450	51093
34.91263	51338
34.92075	55067
34.92888	55671
34.93700	58453
34.94512	57792
34.95325	53515
34.96137	55139
34.96950	55576
34.97762	59691
34.98573	57843
34.99387	61222
35.00198	56720
35.01010	50413
35.01823	49053
35.02635	50744
35.03448	49687
35.04260	47632
35.05072	49003
35.05885	49522
35.06697	48366
35.07510	46236
35.08322	47193
35.09133	46511
35.09947	52522
35.10758	48909
35.11572	47055
35.12383	43924
35.13195	49419
35.14008	41762
35.14820	50310
35.15632	54621
35.16445	52969
35.17257	50475
35.18070	52056
35.18882	46993
35.19693	47890
35.20507	47388
35.21318	47492
35.22132	52043
35.22943	45974
35.23755	43396
35.24568	45827
35.25380	48093
35.26192	46075
35.27005	47387
35.27817	53231
35.28630	48927
35.29442	47975
35.30253	46014
35.31067	45981
35.31878	44976
35.32692	47835
35.33503	46763
35.34315	46254
35.35128	46124
35.35940	44960
35.36753	44415
35.37565	45585
35.38377	48645
35.39190	50707
35.40002	53033
35.40813	53180
35.41627	55637
35.42438	58628
35.43252	55347
35.44063	56764
35.44875	57561
35.45688	56759
35.46500	51710
35.47313	52062
35.48125	54840
35.48937	51603
35.49750	48884
35.50562	51820
35.51373	55131
35.52187	48541
35.52998	52132
35.53812	48562
35.54623	46745
35.55435	50199
35.56248	47237
35.57060	50525
35.57873	47468
35.58685	50922
35.59497	51949
35.60310	48283
35.61122	46963
35.61935	47125
35.62747	43827
35.63558	46822
35.64372	46844
35.65183	50938
35.65995	53414
35.66808	52281
35.67620	55214
35.68433	53371
35.69245	51340
35.70057	50769
35.70870	48457
35.71682	50468
35.72495	46932
35.73307	49395
35.74118	51859
35.74932	55279
35.75743	50916
35.76557	56976
35.77368	56421
35.78180	55378
35.78993	54538
35.79805	52657
35.80617	51970
35.81430	48413
35.82242	45361
35.83055	48856
35.83867	47672
35.84678	46983
35.85492	49811
35.86303	44912
35.87117	46678
35.87928	50375
35.88740	44869
35.89553	46872
35.90365	45804
35.91177	48036
35.91990	50521
35.92802	46751
35.93615	43972
35.94427	54083
35.95238	48039
35.96052	51795
35.96863	51752
35.97677	47298
35.98488	55216
35.99300	46790
36.00113	49824
36.00925	49737
36.01738	52061
36.02550	51066
36.03362	51818
36.04175	51063
36.04987	51304
36.05798	51563
36.06612	48359
36.07423	50099
36.08237	49586
36.09048	48153
36.09860	49852
36.10673	46291
36.11485	48123
36.12298	52746
36.13110	53601
36.13922	51373
36.14735	58287
36.15547	57120
36.16360	54181
36.17172	51103
36.17983	46273
36.18797	46114
36.19608	49434
36.20420	50653
36.21233	48957
36.22045	49807
36.22858	52801
36.23670	45164
36.24482	47940
36.25295	46060
36.26107	47649
36.26920	47030
36.27732	45949
36.28543	56469
36.29357	57667
36.30168	61200
36.30980	61885
36.31793	66302
36.32605	63065
36.33418	59800
36.34230	57870
36.35042	52628
36.35855	51181
36.36667	50971
36.37480	51278
36.38292	52527
36.39103	51860
36.39917	51982
36.40728	52259
36.41542	54933
36.42353	52711
36.43165	54833
36.43978	51711
36.44790	52708
36.45602	51837
36.46415	51810
36.47227	52712
36.48040	53646
36.48852	54562
36.49663	51347
36.50477	53311
36.51288	52777
36.52102	54829
36.52913	58118
36.53725	58117
36.54538	52297
36.55350	52732
36.56162	55256
36.56975	55168
36.57787	53426
36.58600	53360
36.59412	56420
36.60223	55055
36.61037	58424
36.61848	56518
36.62662	55791
36.63473	56464
36.64285	57568
36.65098	56662
36.65910	53765
36.66723	57261
36.67535	55716
36.68347	54612
36.69160	61158
36.69972	55250
36.70783	50241
36.71597	56052
36.72408	55851
36.73222	56133
36.74033	56719
36.74845	51121
36.75658	56289
36.76470	61360
36.77283	53579
36.78095	54763
36.78907	53538
36.79720	56019
36.80532	58477
36.81345	56971
36.82157	50408
36.82968	52740
36.83782	52198
36.84593	52634
36.85405	50047
36.86218	54138
36.87030	57054
36.87843	56112
36.88655	53842
36.89467	56361
36.90280	55837
36.91092	54191
36.91905	51616
36.92717	53494
36.93528	56406
36.94342	59257
36.95153	63706
36.95965	66511
36.96778	68320
36.97590	66855
36.98403	65838
36.99215	65753
37.00027	63566
37.00840	58323
37.01652	57197
37.02465	53403
37.03277	58504
37.04088	60116
37.04902	54294
37.05713	56434
37.06527	55236
37.07338	58319
37.08150	57171
37.08963	61700
37.09775	56251
37.10587	54742
37.11400	53980
37.12212	52827
37.13025	54490
37.13837	51563
37.14648	53828
37.15462	51081
37.16273	54023
37.17087	56009
37.17898	54525
37.18710	55505
37.19523	59818
37.20335	56364
37.21148	60850
37.21960	56511
37.22772	59263
37.23585	58473
37.24397	58795
37.25208	53917
37.26022	55947
37.26833	56181
37.27647	55856
37.28458	54366
37.29270	55399
37.30083	59089
37.30895	66661
37.31708	65586
37.32520	73724
37.33332	80526
37.34145	85977
37.34957	91468
37.35768	95437
37.36582	93159
37.37393	93244
37.38207	86637
37.39018	85775
37.39830	82240
37.40643	74643
37.41455	76871
37.42268	74624
37.43080	72791
37.43892	71460
37.44705	68872
37.45517	69690
37.46330	70400
37.47142	70445
37.47953	66125
37.48767	63351
