C:\MassHunter\GCMS\1\data\20191125_ALKANES\JTB-E18-40-15.D Tue Nov 26 15:48:24 2019
Start of data points
2.09510,138803
2.10322,152674
2.11135,149136
2.11947,162684
2.12760,176203
2.13572,185901
2.14383,206464
2.15197,226018
2.16008,245930
2.16820,281036
2.17633,311494
2.18445,349684
2.19258,388707
2.20070,433119
2.20882,455375
2.21695,475472
2.22507,494873
2.23320,503143
2.24132,509900
2.24943,487711
2.25757,481812
2.26568,707232
2.27382,2157021
2.28193,2587567
2.29005,1286816
2.29818,720908
2.30630,593805
2.31442,534384
2.32255,478981
2.33067,436542
2.33880,411915
2.34692,380040
2.35503,360195
2.36317,327075
2.37128,314371
2.37942,290162
2.38753,284114
2.39565,262601
2.40378,248461
2.41190,236144
2.42002,230913
2.42815,223306
2.43627,221914
2.44440,209663
2.45252,209938
2.46063,195591
2.46877,197941
2.47688,187285
2.48502,182913
2.49313,188773
2.50125,179659
2.50938,176846
2.51750,177355
2.52563,167379
2.53375,162185
2.54187,158159
2.55000,159032
2.55812,152496
2.56623,150920
2.57437,147808
2.58248,154383
2.59062,149323
2.59873,152409
2.60685,157980
2.61498,168154
2.62310,169369
2.63123,172707
2.63935,162815
2.64747,166868
2.65560,167767
2.66372,163833
2.67183,157396
2.67997,162850
2.68808,159221
2.69622,159768
2.70433,157136
2.71245,156594
2.72058,156601
2.72870,152360
2.73683,153079
2.74495,149866
2.75307,152858
2.76120,146634
2.76932,147229
2.77745,146276
2.78557,146242
2.79368,151039
2.80182,148273
2.80993,142401
2.81805,141767
2.82618,144685
2.83430,143380
2.84243,144926
2.85055,142006
2.85867,141052
2.86680,135817
2.87492,137344
2.88305,139802
2.89117,144792
2.89928,139087
2.90742,147483
2.91553,142424
2.92367,138126
2.93178,140357
2.93990,135214
2.94803,134012
2.95615,131822
2.96427,138521
2.97240,137940
2.98052,133492
2.98865,137922
2.99677,136376
3.00488,135677
3.01302,136586
3.02113,135253
3.02927,131952
3.03738,131098
3.04550,130834
3.05363,126791
3.06175,128904
3.06988,131862
3.07800,130215
3.08612,131902
3.09425,139834
3.10237,174266
3.11048,186454
3.11862,163426
3.12673,146828
3.13487,141257
3.14298,132977
3.15110,135213
3.15923,132822
3.16735,129421
3.17548,135745
3.18360,129492
3.19172,130964
3.19985,126819
3.20797,127955
3.21608,131067
3.22422,125554
3.23233,129499
3.24047,125860
3.24858,125806
3.25670,122651
3.26483,122621
3.27295,126102
3.28108,157014
3.28920,258235
3.29732,445848
3.30545,625269
3.31357,702112
3.32170,679085
3.32982,609816
3.33793,584120
3.34607,544265
3.35418,520861
3.36230,490186
3.37043,478906
3.37855,457012
3.38668,450128
3.39480,437500
3.40292,413307
3.41105,406624
3.41917,407261
3.42730,394898
3.43542,384532
3.44353,379306
3.45167,380249
3.45978,365814
3.46790,354343
3.47603,350267
3.48415,346233
3.49228,353797
3.50040,342488
3.50852,332597
3.51665,341169
3.52477,332298
3.53290,324487
3.54102,318822
3.54913,319314
3.55727,315496
3.56538,311581
3.57352,302690
3.58163,295799
3.58975,310035
3.59788,296729
3.60600,294379
3.61412,293549
3.62225,293529
3.63037,283280
3.63850,283073
3.64662,279103
3.65473,280895
3.66287,283389
3.67098,280533
3.67912,278044
3.68723,272382
3.69535,275399
3.70348,260670
3.71160,266019
3.71973,265145
3.72785,267195
3.73597,268063
3.74410,261292
3.75222,263133
3.76033,254020
3.76847,251246
3.77658,247174
3.78472,247863
3.79283,254631
3.80095,254261
3.80908,249511
3.81720,247344
3.82533,245731
3.83345,243526
3.84157,247619
3.84970,238517
3.85782,236481
3.86593,245053
3.87407,239624
3.88218,237390
3.89032,240755
3.89843,234515
3.90655,241336
3.91468,230447
3.92280,237045
3.93093,228137
3.93905,230751
3.94717,233218
3.95530,229261
3.96342,228963
3.97155,236089
3.97967,233057
3.98778,228169
3.99592,226336
4.00403,227758
4.01215,225358
4.02028,220268
4.02840,217611
4.03653,220524
4.04465,214442
4.05277,222365
4.06090,219117
4.06902,216188
4.07715,226465
4.08527,220093
4.09338,216086
4.10152,215474
4.10963,211471
4.11777,211537
4.12588,213452
4.13400,218280
4.14213,219963
4.15025,223055
4.15837,209699
4.16650,210152
4.17462,215822
4.18275,207105
4.19087,209571
4.19898,208641
4.20712,209966
4.21523,208465
4.22337,198802
4.23148,205258
4.23960,214812
4.24773,211278
4.25585,197739
4.26397,208178
4.27210,204996
4.28022,201594
4.28835,199493
4.29647,200105
4.30458,198583
4.31272,204418
4.32083,207390
4.32897,196913
4.33708,197575
4.34520,197679
4.35333,196465
4.36145,199105
4.36958,196949
4.37770,201882
4.38582,199339
4.39395,204534
4.40207,202010
4.41018,192194
4.41832,198666
4.42643,196628
4.43457,194035
4.44268,191293
4.45080,199291
4.45893,190556
4.46705,189860
4.47518,186718
4.48330,202256
4.49142,194335
4.49955,195576
4.50767,197876
4.51578,191826
4.52392,196161
4.53203,191657
4.54017,190674
4.54828,192786
4.55640,195236
4.56453,194451
4.57265,191118
4.58078,189787
4.58890,189923
4.59702,190302
4.60515,188291
4.61327,183156
4.62140,192837
4.62952,189921
4.63763,189103
4.64577,184864
4.65388,185564
4.66200,184527
4.67013,186636
4.67825,188416
4.68638,186979
4.69450,181229
4.70262,185462
4.71075,184916
4.71887,181016
4.72700,179013
4.73512,188281
4.74323,188297
4.75137,183041
4.75948,185727
4.76762,183793
4.77573,183511
4.78385,182092
4.79198,183305
4.80010,181568
4.80822,181535
4.81635,173638
4.82447,181495
4.83260,180876
4.84072,173262
4.84883,182353
4.85697,184768
4.86508,183363
4.87322,173560
4.88133,174190
4.88945,174356
4.89758,182622
4.90570,183146
4.91382,213551
4.92195,274890
4.93007,366865
4.93820,482220
4.94632,546774
4.95443,562886
4.96257,553294
4.97068,515188
4.97882,488644
4.98693,470445
4.99505,454400
5.00318,439394
5.01130,420496
5.01943,420929
5.02755,415673
5.03567,416020
5.04380,405466
5.05192,389831
5.06003,380613
5.06817,370747
5.07628,370195
5.08442,364886
5.09253,365212
5.10065,365700
5.10878,352539
5.11690,352051
5.12503,351819
5.13315,340688
5.14127,333620
5.14940,337925
5.15752,336007
5.16565,334540
5.17377,335897
5.18188,330499
5.19002,326149
5.19813,321365
5.20625,328961
5.21438,328556
5.22250,332588
5.23063,348136
5.23875,358886
5.24687,345720
5.25500,326835
5.26312,319762
5.27125,313496
5.27937,297005
5.28748,288784
5.29562,297842
5.30373,280082
5.31185,285025
5.31998,293324
5.32810,274177
5.33623,267324
5.34435,276359
5.35247,274338
5.36060,281908
5.36872,279389
5.37685,269058
5.38497,266156
5.39308,269670
5.40122,269899
5.40933,258938
5.41747,256085
5.42558,255600
5.43370,256572
5.44183,250969
5.44995,258055
5.45807,255995
5.46620,259985
5.47432,255509
5.48245,257462
5.49057,249528
5.49868,244212
5.50682,255175
5.51493,242589
5.52307,238572
5.53118,239266
5.53930,238674
5.54743,231803
5.55555,236123
5.56367,228997
5.57180,231710
5.57992,234652
5.58805,232515
5.59617,238632
5.60428,225668
5.61242,228523
5.62053,233410
5.62867,226192
5.63678,230264
5.64490,237005
5.65303,222410
5.66115,232152
5.66928,232338
5.67740,223256
5.68552,227686
5.69365,227900
5.70177,215652
5.70988,228481
5.71802,225880
5.72613,223054
5.73427,217560
5.74238,213739
5.75050,216749
5.75863,213187
5.76675,213140
5.77488,220449
5.78300,215512
5.79112,213576
5.79925,224519
5.80737,218764
5.81550,218242
5.82362,210723
5.83173,215329
5.83987,219299
5.84798,204507
5.85610,214581
5.86423,199204
5.87235,204590
5.88048,209733
5.88860,208339
5.89672,211159
5.90485,198225
5.91297,181494
5.92110,159948
5.92922,151867
5.93733,155678
5.94547,169402
5.95358,237233
5.96170,399564
5.96983,659514
5.97795,844714
5.98608,803527
5.99420,581485
6.00232,401201
6.01045,294896
6.01857,244368
6.02670,226978
6.03482,226472
6.04293,205549
6.05107,201880
6.05918,188040
6.06732,193598
6.07543,184039
6.08355,183465
6.09168,185169
6.09980,177551
6.10792,181238
6.11605,178740
6.12417,179127
6.13230,182851
6.14042,172619
6.14853,177363
6.15667,173022
6.16478,173580
6.17292,172135
6.18103,165406
6.18915,169129
6.19728,170308
6.20540,169795
6.21353,169234
6.22165,167420
6.22977,173464
6.23790,168010
6.24602,168954
6.25413,167848
6.26227,162636
6.27038,167105
6.27852,173558
6.28663,167215
6.29475,163569
6.30288,166743
6.31100,160096
6.31913,158314
6.32725,154464
6.33537,156775
6.34350,158036
6.35162,152576
6.35973,151964
6.36787,152842
6.37598,151775
6.38412,148912
6.39223,147255
6.40035,146641
6.40848,148245
6.41660,150661
6.42473,144168
6.43285,141954
6.44097,145330
6.44910,144913
6.45722,144356
6.46535,137682
6.47347,138439
6.48158,145058
6.48972,144279
6.49783,133089
6.50595,139501
6.51408,142226
6.52220,137356
6.53033,141222
6.53845,136524
6.54657,134542
6.55470,131916
6.56282,133660
6.57095,133590
6.57907,139778
6.58718,131655
6.59532,131121
6.60343,137240
6.61157,131877
6.61968,136420
6.62780,132236
6.63593,134197
6.64405,130826
6.65217,137915
6.66030,128088
6.66842,134894
6.67655,129446
6.68467,132837
6.69278,130869
6.70092,128758
6.70903,127603
6.71717,131161
6.72528,130185
6.73340,127611
6.74153,126147
6.74965,136277
6.75777,130838
6.76590,127283
6.77402,133857
6.78215,130188
6.79027,127697
6.79838,131211
6.80652,126169
6.81463,125959
6.82277,124210
6.83088,129331
6.83900,115958
6.84713,101826
6.85525,82208
6.86338,69722
6.87150,66775
6.87962,65628
6.88775,73857
6.89587,67225
6.90398,64534
6.91212,66106
6.92023,61986
6.92837,68194
6.93648,67897
6.94460,68599
6.95273,66455
6.96085,70592
6.96898,65398
6.97710,65784
6.98522,73790
6.99335,65300
7.00147,65568
7.00958,67622
7.01772,67615
7.02583,63096
7.03397,67428
7.04208,65265
7.05020,62326
7.05833,66490
7.06645,65317
7.07458,65482
7.08270,64353
7.09082,65594
7.09895,63165
7.10707,60700
7.11520,69272
7.12332,62328
7.13143,64185
7.13957,62354
7.14768,75615
7.15580,62430
7.16393,61443
7.17205,64488
7.18018,65615
7.18830,60453
7.19642,63827
7.20455,61930
7.21267,63981
7.22080,61765
7.22892,62071
7.23703,64251
7.24517,64406
7.25328,63409
7.26142,62369
7.26953,63620
7.27765,60171
7.28578,63010
7.29390,60437
7.30202,63929
7.31015,60640
7.31827,59113
7.32640,60861
7.33452,60921
7.34263,57639
7.35077,61301
7.35888,67075
7.36702,64150
7.37513,63106
7.38325,62840
7.39138,60874
7.39950,57954
7.40762,66166
7.41575,63152
7.42387,62880
7.43200,60289
7.44012,65134
7.44823,63265
7.45637,65374
7.46448,63272
7.47262,61911
7.48073,61196
7.48885,63942
7.49698,63125
7.50510,62809
7.51323,58431
7.52135,60542
7.52947,59623
7.53760,63136
7.54572,59431
7.55383,59881
7.56197,58318
7.57008,57499
7.57822,65731
7.58633,63470
7.59445,61170
7.60258,60850
7.61070,61310
7.61883,61229
7.62695,59630
7.63507,60893
7.64320,61129
7.65132,62155
7.65945,60150
7.66757,63395
7.67568,59656
7.68382,58522
7.69193,60405
7.70005,61431
7.70818,59514
7.71630,58689
7.72443,57517
7.73255,56787
7.74067,57784
7.74880,61591
7.75692,58215
7.76505,56265
7.77317,57076
7.78128,55673
7.78942,59171
7.79753,60306
7.80565,57389
7.81378,59812
7.82190,62067
7.83003,62129
7.83815,60220
7.84627,56082
7.85440,55650
7.86252,55736
7.87065,57234
7.87877,57488
7.88688,57118
7.89502,55862
7.90313,54359
7.91127,54926
7.91938,57469
7.92750,55160
7.93563,55175
7.94375,60660
7.95187,56244
7.96000,58025
7.96812,55031
7.97625,58575
7.98437,53943
7.99248,62867
8.00062,57066
8.00873,58475
8.01687,57221
8.02498,59887
8.03310,56236
8.04123,57787
8.04935,53894
8.05747,56584
8.06560,55739
8.07372,65088
8.08185,54782
8.08997,55616
8.09808,62660
8.10622,53764
8.11433,58382
8.12247,55853
8.13058,59603
8.13870,59304
8.14683,59909
8.15495,58953
8.16308,60743
8.17120,61787
8.17932,60317
8.18745,61670
8.19557,61827
8.20368,56349
8.21182,56760
8.21993,59639
8.22807,60002
8.23618,57046
8.24430,63882
8.25243,59974
8.26055,56079
8.26868,54931
8.27680,54080
8.28492,55424
8.29305,54942
8.30117,55008
8.30930,57615
8.31742,57549
8.32553,61978
8.33367,53961
8.34178,58016
8.34990,55727
8.35803,57479
8.36615,54432
8.37428,61249
8.38240,56778
8.39052,56646
8.39865,55926
8.40677,56560
8.41490,54111
8.42302,59187
8.43113,57566
8.43927,54018
8.44738,58845
8.45552,53777
8.46363,55667
8.47175,56456
8.47988,53858
8.48800,56251
8.49612,60769
8.50425,58932
8.51237,55123
8.52050,58311
8.52862,56431
8.53673,58264
8.54487,53667
8.55298,57087
8.56112,56549
8.56923,58874
8.57735,59347
8.58548,56436
8.59360,55135
8.60172,56375
8.60985,55151
8.61797,57018
8.62610,53284
8.63422,52399
8.64233,57746
8.65047,55321
8.65858,54667
8.66672,51970
8.67483,54500
8.68295,53982
8.69108,56649
8.69920,51702
8.70733,56967
8.71545,66750
8.72357,90460
8.73170,132763
8.73982,196193
8.74793,249534
8.75607,307408
8.76418,308038
8.77232,295504
8.78043,282591
8.78855,262783
8.79668,254598
8.80480,238071
8.81293,232689
8.82105,223318
8.82917,209866
8.83730,214393
8.84542,200964
8.85353,199466
8.86167,187750
8.86978,191499
8.87792,187321
8.88603,183559
8.89415,188257
8.90228,177513
8.91040,171311
8.91853,173149
8.92665,175328
8.93477,163556
8.94290,162451
8.95102,166445
8.95915,159435
8.96727,158406
8.97538,156493
8.98352,148882
8.99163,146345
8.99975,142009
9.00788,143500
9.01600,140071
9.02413,136219
9.03225,140226
9.04037,129803
9.04850,131871
9.05662,129150
9.06475,137664
9.07287,129746
9.08098,129338
9.08912,131778
9.09723,137131
9.10537,126872
9.11348,125948
9.12160,121208
9.12973,123968
9.13785,123287
9.14597,119304
9.15410,121627
9.16222,122244
9.17035,119867
9.17847,120149
9.18658,122655
9.19472,120851
9.20283,118099
9.21097,118962
9.21908,112383
9.22720,115142
9.23533,117744
9.24345,117479
9.25157,109659
9.25970,113499
9.26782,111443
9.27595,111529
9.28407,114471
9.29218,110995
9.30032,113838
9.30843,106134
9.31657,106743
9.32468,101880
9.33280,102420
9.34093,105118
9.34905,104227
9.35718,100703
9.36530,102242
9.37342,104415
9.38155,89685
9.38967,96602
9.39778,95271
9.40592,92977
9.41403,100446
9.42217,100161
9.43028,102304
9.43840,93238
9.44653,93890
9.45465,91978
9.46278,96410
9.47090,87896
9.47902,89025
9.48715,85682
9.49527,87707
9.50340,82528
9.51152,73232
9.51963,61545
9.52777,50016
9.53588,48792
9.54400,40875
9.55213,42643
9.56025,43469
9.56838,42590
9.57650,39388
9.58462,44758
9.59275,44439
9.60087,45178
9.60900,45432
9.61712,41126
9.62523,41546
9.63337,41468
9.64148,40402
9.64960,40071
9.65773,41161
9.66585,43163
9.67398,48307
9.68210,40242
9.69022,38815
9.69835,40014
9.70647,43872
9.71460,43592
9.72272,41138
9.73083,40503
9.73897,43877
9.74708,43986
9.75522,38301
9.76333,38695
9.77145,36916
9.77958,41888
9.78770,40736
9.79582,37851
9.80395,42142
9.81207,41616
9.82020,42569
9.82832,43953
9.83643,44186
9.84457,42529
9.85268,40773
9.86082,39240
9.86893,43018
9.87705,40823
9.88518,40694
9.89330,40914
9.90142,39014
9.90955,37635
9.91767,37112
9.92580,40336
9.93392,40736
9.94203,44043
9.95017,40795
9.95828,39539
9.96642,39960
9.97453,40737
9.98265,44445
9.99078,43717
9.99890,45345
10.00703,50715
10.01515,47864
10.02327,45688
10.03140,44589
10.03952,46457
10.04763,46699
10.05577,44104
10.06388,44241
10.07202,51598
10.08013,43024
10.08825,45069
10.09638,42114
10.10450,44399
10.11263,43629
10.12075,43592
10.12887,44573
10.13700,42350
10.14512,39894
10.15325,41983
10.16137,43661
10.16948,46322
10.17762,40823
10.18573,44705
10.19385,44115
10.20198,43288
10.21010,41214
10.21823,41732
10.22635,43485
10.23447,40360
10.24260,41617
10.25072,41736
10.25885,39164
10.26697,41641
10.27508,40652
10.28322,42382
10.29133,43912
10.29945,40353
10.30758,41675
10.31570,41057
10.32383,39012
10.33195,41299
10.34007,42052
10.34820,42286
10.35632,41569
10.36445,40984
10.37257,41383
10.38068,37775
10.38882,39521
10.39693,41180
10.40507,37267
10.41318,42506
10.42130,39691
10.42943,42389
10.43755,38018
10.44567,42950
10.45380,42240
10.46192,39403
10.47005,40770
10.47817,38541
10.48628,38937
10.49442,38487
10.50253,39827
10.51067,39656
10.51878,47148
10.52690,37253
10.53503,37715
10.54315,39935
10.55128,40759
10.55940,39666
10.56752,39078
10.57565,35756
10.58377,38659
10.59188,37831
10.60002,38740
10.60813,38995
10.61627,36095
10.62438,37789
10.63250,37046
10.64063,41352
10.64875,39234
10.65688,36319
10.66500,37915
10.67312,36196
10.68125,37028
10.68937,37650
10.69748,35449
10.70562,38608
10.71373,38011
10.72187,39204
10.72998,35337
10.73810,40126
10.74623,38714
10.75435,37895
10.76248,34684
10.77060,35488
10.77872,36768
10.78685,38145
10.79497,37304
10.80310,38191
10.81122,41460
10.81933,38376
10.82747,43510
10.83558,39904
10.84370,39366
10.85183,36446
10.85995,37079
10.86808,42737
10.87620,38613
10.88432,34564
10.89245,36393
10.90057,39936
10.90870,38494
10.91682,37965
10.92493,38929
10.93307,37070
10.94118,43600
10.94932,37227
10.95743,37294
10.96555,38962
10.97368,37092
10.98180,35262
10.98992,37386
10.99805,34727
11.00617,39700
11.01430,38096
11.02242,37451
11.03053,34895
11.03867,38566
11.04678,33840
11.05492,30486
11.06303,34303
11.07115,35174
11.07928,35158
11.08740,33390
11.09552,33616
11.10365,32996
11.11177,32693
11.11990,32350
11.12802,31771
11.13613,32594
11.14427,34688
11.15238,32955
11.16052,37741
11.16863,37087
11.17675,33969
11.18488,34382
11.19300,32790
11.20113,36317
11.20925,35295
11.21737,34069
11.22550,32580
11.23362,34342
11.24173,34744
11.24987,35268
11.25798,36211
11.26612,32403
11.27423,32755
11.28235,33786
11.29048,32324
11.29860,34672
11.30673,34708
11.31485,32561
11.32297,32910
11.33110,33656
11.33922,35251
11.34733,31993
11.35547,31242
11.36358,32461
11.37172,31891
11.37983,30933
11.38795,35083
11.39608,33113
11.40420,30775
11.41233,34576
11.42045,32181
11.42857,31375
11.43670,33499
11.44482,33020
11.45295,33932
11.46107,33949
11.46918,34427
11.47732,33235
11.48543,31102
11.49355,37940
11.50168,31869
11.50980,35582
11.51793,33974
11.52605,32956
11.53417,32589
11.54230,31622
11.55042,33143
11.55855,32672
11.56667,31448
11.57478,30299
11.58292,33116
11.59103,30749
11.59917,31614
11.60728,30462
11.61540,38572
11.62353,31383
11.63165,29913
11.63977,33623
11.64790,31825
11.65602,31140
11.66415,30873
11.67227,30104
11.68038,36478
11.68852,31894
11.69663,33326
11.70477,33861
11.71288,36228
11.72100,36956
11.72913,35734
11.73725,37404
11.74537,37276
11.75350,38214
11.76162,35590
11.76975,37648
11.77787,36694
11.78598,34351
11.79412,38171
11.80223,37120
11.81037,33313
11.81848,37307
11.82660,32414
11.83473,36442
11.84285,33356
11.85098,36190
11.85910,36687
11.86722,36003
11.87535,34348
11.88347,35864
11.89158,32327
11.89972,32717
11.90783,36710
11.91597,36226
11.92408,35846
11.93220,36319
11.94033,34406
11.94845,34021
11.95658,33746
11.96470,34968
11.97282,33986
11.98095,33391
11.98907,37806
11.99720,34866
12.00532,33167
12.01343,33998
12.02157,32788
12.02968,34923
12.03780,34028
12.04593,38423
12.05405,34184
12.06218,31236
12.07030,36422
12.07842,36276
12.08655,34626
12.09467,34099
12.10280,34548
12.11092,31499
12.11903,31186
12.12717,34461
12.13528,32897
12.14340,33913
12.15153,31316
12.15965,32709
12.16778,35787
12.17590,37223
12.18402,34706
12.19215,30981
12.20027,33541
12.20840,32210
12.21652,33494
12.22463,34341
12.23277,41590
12.24088,35106
12.24902,33769
12.25713,35421
12.26525,36877
12.27338,34726
12.28150,33577
12.28962,33959
12.29775,31461
12.30587,33880
12.31400,30682
12.32212,33525
12.33023,33103
12.33837,30626
12.34648,34373
12.35462,32276
12.36273,36034
12.37085,33522
12.37898,34589
12.38710,35539
12.39522,32208
12.40335,34605
12.41147,33161
12.41960,33338
12.42772,33754
12.43583,28955
12.44397,32294
12.45208,28851
12.46022,38755
12.46833,32307
12.47645,33127
12.48458,35377
12.49270,31080
12.50083,34951
12.50895,31558
12.51707,38765
12.52520,33442
12.53332,36072
12.54143,32827
12.54957,32465
12.55768,28595
12.56582,31056
12.57393,30122
12.58205,33245
12.59018,32630
12.59830,32597
12.60643,32545
12.61455,33005
12.62267,31052
12.63080,35865
12.63892,31414
12.64705,30455
12.65517,27213
12.66328,28754
12.67142,30837
12.67953,31814
12.68765,30824
12.69578,33541
12.70390,31195
12.71203,29398
12.72015,31322
12.72827,32090
12.73640,28749
12.74452,33775
12.75265,31409
12.76077,30225
12.76888,30648
12.77702,31794
12.78513,32260
12.79325,32776
12.80138,32321
12.80950,30354
12.81763,31151
12.82575,31147
12.83387,28991
12.84200,33001
12.85012,29674
12.85825,29822
12.86637,32212
12.87448,27965
12.88262,31489
12.89073,28326
12.89887,32275
12.90698,29600
12.91510,36811
12.92323,29598
12.93135,30558
12.93947,30183
12.94760,29640
12.95572,29880
12.96385,29205
12.97197,30502
12.98008,29813
12.98822,30534
12.99633,29169
13.00447,28199
13.01258,31232
13.02070,35209
13.02883,31568
13.03695,30963
13.04508,29966
13.05320,31253
13.06132,30565
13.06945,30092
13.07757,35785
13.08568,32828
13.09382,30803
13.10193,31197
13.11007,32699
13.11818,36317
13.12630,31733
13.13443,35241
13.14255,32727
13.15068,34629
13.15880,34135
13.16692,36362
13.17505,37613
13.18317,33736
13.19128,35081
13.19942,31476
13.20753,33229
13.21567,33633
13.22378,32883
13.23190,32511
13.24003,36204
13.24815,34889
13.25628,35274
13.26440,32273
13.27252,32193
13.28065,32341
13.28877,30356
13.29690,34194
13.30502,33172
13.31313,33968
13.32127,31645
13.32938,32507
13.33750,32795
13.34563,31083
13.35375,30136
13.36188,29948
13.37000,34564
13.37812,31041
13.38625,33781
13.39437,32063
13.40250,32679
13.41062,33426
13.41873,34389
13.42687,30996
13.43498,33168
13.44310,33848
13.45123,29512
13.45935,32465
13.46748,35437
13.47560,31630
13.48372,27823
13.49185,30374
13.49997,36975
13.50810,34604
13.51622,30418
13.52433,28419
13.53247,30724
13.54058,30381
13.54872,32183
13.55683,30823
13.56495,33836
13.57308,31030
13.58120,31499
13.58932,33269
13.59745,31488
13.60557,32946
13.61370,30823
13.62182,29494
13.62993,32984
13.63807,31737
13.64618,30650
13.65432,28369
13.66243,33033
13.67055,29281
13.67868,29202
13.68680,29227
13.69493,31904
13.70305,26513
13.71117,28110
13.71930,28161
13.72742,29366
13.73553,28617
13.74367,32290
13.75178,28228
13.75992,28469
13.76803,29090
13.77615,34729
13.78428,31687
13.79240,29590
13.80053,31801
13.80865,28613
13.81677,29304
13.82490,29483
13.83302,31047
13.84115,30155
13.84927,33037
13.85738,30586
13.86552,32731
13.87363,31831
13.88175,28981
13.88988,31975
13.89800,33488
13.90613,34743
13.91425,31278
13.92237,31580
13.93050,34781
13.93862,30105
13.94675,37574
13.95487,29558
13.96298,32228
13.97112,29914
13.97923,35948
13.98735,35530
13.99548,32826
14.00360,31130
14.01173,32501
14.01985,33271
14.02797,30821
14.03610,31737
14.04422,29939
14.05235,34778
14.06047,29967
14.06858,31138
14.07672,29945
14.08483,32515
14.09297,37584
14.10108,38647
14.10920,51779
14.11733,79056
14.12545,130057
14.13357,190507
14.14170,238748
14.14982,262488
14.15795,256430
14.16607,242570
14.17418,206908
14.18232,197741
14.19043,181856
14.19857,164772
14.20668,157753
14.21480,140528
14.22293,140123
14.23105,138934
14.23917,130588
14.24730,127683
14.25542,122487
14.26355,117742
14.27167,109304
14.27978,99011
14.28792,82135
14.29603,76095
14.30417,63518
14.31228,48615
14.32040,45616
14.32853,44123
14.33665,43861
14.34478,42515
14.35290,41039
14.36102,39898
14.36915,39888
14.37727,39805
14.38538,37294
14.39352,37924
14.40163,38450
14.40977,36878
14.41788,37052
14.42600,39619
14.43413,35244
14.44225,38130
14.45038,36231
14.45850,37862
14.46662,35038
14.47475,38579
14.48287,39461
14.49100,37234
14.49912,42157
14.50723,34425
14.51537,34442
14.52348,36144
14.53160,32498
14.53973,35159
14.54785,34192
14.55598,33233
14.56410,37435
14.57222,34383
14.58035,34668
14.58847,33872
14.59660,31314
14.60472,35516
14.61283,34898
14.62097,37703
14.62908,32607
14.63720,32998
14.64533,36296
14.65345,32358
14.66158,34062
14.66970,32514
14.67782,33295
14.68595,33926
14.69407,31664
14.70220,35278
14.71032,31272
14.71843,36044
14.72657,30388
14.73468,30584
14.74282,32712
14.75093,30112
14.75905,34645
14.76718,30730
14.77530,30683
14.78342,27096
14.79155,31909
14.79967,31736
14.80780,31591
14.81592,31401
14.82403,32781
14.83217,33698
14.84028,31501
14.84842,30133
14.85653,32226
14.86465,32517
14.87278,33046
14.88090,31289
14.88903,35378
14.89715,32788
14.90527,33888
14.91340,32891
14.92152,32598
14.92963,31454
14.93777,33364
14.94588,33869
14.95402,32189
14.96213,32530
14.97025,35126
14.97838,33421
14.98650,36548
14.99463,31426
15.00275,33062
15.01087,32773
15.01900,30696
15.02712,31750
15.03523,31430
15.04337,31186
15.05148,31049
15.05962,31533
15.06773,30549
15.07585,34233
15.08398,30365
15.09210,32005
15.10023,31677
15.10835,37245
15.11647,34468
15.12460,28759
15.13272,32404
15.14085,37618
15.14897,32663
15.15708,30750
15.16522,32250
15.17333,30170
15.18145,29957
15.18958,29220
15.19770,32155
15.20583,29613
15.21395,30467
15.22207,27504
15.23020,31262
15.23832,33069
15.24645,28548
15.25457,27289
15.26268,28956
15.27082,30480
15.27893,25484
15.28705,28430
15.29518,30849
15.30330,28443
15.31143,30198
15.31955,35416
15.32767,28936
15.33580,30691
15.34392,30449
15.35205,29672
15.36017,30765
15.36828,29446
15.37642,30332
15.38453,27514
15.39267,28165
15.40078,28900
15.40890,30694
15.41703,27174
15.42515,28319
15.43327,27068
15.44140,28684
15.44952,32251
15.45765,29947
15.46577,29913
15.47388,28723
15.48202,28180
15.49013,27977
15.49827,28210
15.50638,29235
15.51450,30877
15.52263,30872
15.53075,31479
15.53888,30084
15.54700,28401
15.55512,30444
15.56325,31002
15.57137,27154
15.57948,28594
15.58762,31683
15.59573,31006
15.60387,28058
15.61198,28417
15.62010,24807
15.62823,31545
15.63635,26942
15.64448,26644
15.65260,30632
15.66072,27143
15.66885,26907
15.67697,29535
15.68508,29175
15.69322,29721
15.70133,29328
15.70947,30117
15.71758,26989
15.72570,27106
15.73383,28472
15.74195,28960
15.75008,29373
15.75820,33016
15.76632,28975
15.77445,33084
15.78257,27310
15.79070,29382
15.79882,30018
15.80693,28411
15.81507,26916
15.82318,28344
15.83130,30822
15.83943,30615
15.84755,33896
15.85568,30104
15.86380,30098
15.87192,28323
15.88005,27939
15.88817,26350
15.89630,29436
15.90442,27040
15.91253,28452
15.92067,28399
15.92878,29419
15.93692,29589
15.94503,26739
15.95315,29091
15.96128,30653
15.96940,28368
15.97752,27704
15.98565,30499
15.99377,30582
16.00190,29321
16.01002,25859
16.01813,32616
16.02627,34293
16.03438,32406
16.04252,31284
16.05063,34909
16.05875,32554
16.06688,32833
16.07500,33501
16.08312,29912
16.09125,32148
16.09937,32664
16.10750,29566
16.11562,29395
16.12373,33630
16.13187,31267
16.13998,31757
16.14812,29829
16.15623,29778
16.16435,31447
16.17248,30741
16.18060,28549
16.18873,31968
16.19685,32238
16.20497,31841
16.21310,32537
16.22122,31436
16.22933,32466
16.23747,32279
16.24558,35957
16.25372,31010
16.26183,33458
16.26995,31793
16.27808,33462
16.28620,31733
16.29433,31558
16.30245,35361
16.31057,34059
16.31870,35039
16.32682,36954
16.33495,40307
16.34307,40440
16.35118,35799
16.35932,36529
16.36743,37749
16.37555,39805
16.38368,35205
16.39180,35456
16.39993,32432
16.40805,33342
16.41617,35608
16.42430,34591
16.43242,33350
16.44055,36381
16.44867,32064
16.45678,35056
16.46492,36297
16.47303,36104
16.48115,29155
16.48928,32242
16.49740,32331
16.50553,35914
16.51365,33194
16.52177,30501
16.52990,33848
16.53802,33178
16.54615,34502
16.55427,30372
16.56238,32992
16.57052,29177
16.57863,31310
16.58677,28831
16.59488,30872
16.60300,29815
16.61113,28032
16.61925,30019
16.62737,31355
16.63550,28830
16.64362,28748
16.65175,29910
16.65987,28409
16.66798,33105
16.67612,30115
16.68423,31366
16.69237,29471
16.70048,29817
16.70860,31553
16.71673,34676
16.72485,30461
16.73297,33763
16.74110,27340
16.74922,27460
16.75735,30584
16.76547,34367
16.77358,32575
16.78172,28890
16.78983,31915
16.79797,29907
16.80608,31338
16.81420,31405
16.82233,33719
16.83045,28484
16.83858,29905
16.84670,28071
16.85482,26891
16.86295,29538
16.87107,28679
16.87918,34316
16.88732,33009
16.89543,30857
16.90357,31781
16.91168,33455
16.91980,31460
16.92793,30094
16.93605,31558
16.94418,29256
16.95230,30166
16.96042,32181
16.96855,29628
16.97667,31567
16.98480,30105
16.99292,29614
17.00103,36576
17.00917,30481
17.01728,32084
17.02540,31946
17.03353,35482
17.04165,30115
17.04978,33413
17.05790,31502
17.06602,29120
17.07415,30045
17.08227,31585
17.09040,31218
17.09852,31489
17.10663,32167
17.11477,30132
17.12288,30350
17.13100,33318
17.13913,31097
17.14725,30590
17.15538,29822
17.16350,28824
17.17162,31795
17.17975,35478
17.18787,33347
17.19600,31939
17.20412,33016
17.21223,33629
17.22037,32202
17.22848,30558
17.23662,38986
17.24473,30109
17.25285,32259
17.26098,31754
17.26910,29875
17.27722,31862
17.28535,33442
17.29347,35126
17.30160,38876
17.30972,31399
17.31783,34218
17.32597,32660
17.33408,36462
17.34222,38476
17.35033,32253
17.35845,36504
17.36658,36743
17.37470,36681
17.38283,36644
17.39095,37528
17.39907,41977
17.40720,38342
17.41532,37116
17.42343,38217
17.43157,37633
17.43968,38771
17.44782,38185
17.45593,35354
17.46405,35990
17.47218,36300
17.48030,33754
17.48843,34470
17.49655,36395
17.50467,38169
17.51280,33028
17.52092,32751
17.52903,37228
17.53717,34681
17.54528,36144
17.55342,34943
17.56153,35601
17.56965,36360
17.57778,36253
17.58590,36471
17.59403,33845
17.60215,34852
17.61027,36230
17.61840,36394
17.62652,33995
17.63465,32992
17.64277,33028
17.65088,35060
17.65902,35686
17.66713,35612
17.67525,35909
17.68338,36916
17.69150,36534
17.69963,36010
17.70775,38146
17.71587,39352
17.72400,36053
17.73212,36692
17.74025,34320
17.74837,35001
17.75648,37251
17.76462,33037
17.77273,34513
17.78085,37455
17.78898,37262
17.79710,32279
17.80523,33081
17.81335,36843
17.82147,35538
17.82960,38032
17.83772,32336
17.84585,37819
17.85397,32180
17.86208,34066
17.87022,36459
17.87833,34372
17.88647,33746
17.89458,34655
17.90270,30781
17.91083,31551
17.91895,32985
17.92707,30009
17.93520,31993
17.94332,30577
17.95145,33714
17.95957,33269
17.96768,29830
17.97582,32426
17.98393,30384
17.99207,32658
18.00018,33396
18.00830,35224
18.01643,34740
18.02455,34704
18.03268,33414
18.04080,35467
18.04892,33464
18.05705,37088
18.06517,36537
18.07328,30489
18.08142,32788
18.08953,34050
18.09767,33050
18.10578,30588
18.11390,34629
18.12203,32020
18.13015,32812
18.13828,35103
18.14640,34025
18.15452,30526
18.16265,31804
18.17077,29755
18.17888,37184
18.18702,33695
18.19513,31613
18.20327,31373
18.21138,33713
18.21950,32752
18.22763,32104
18.23575,37095
18.24388,33676
18.25200,30796
18.26012,33884
18.26825,35124
18.27637,33644
18.28450,35785
18.29262,35470
18.30073,29149
18.30887,32735
18.31698,30498
18.32510,32197
18.33323,28956
18.34135,32296
18.34948,35482
18.35760,35810
18.36572,30124
18.37385,28990
18.38197,30749
18.39010,32281
18.39822,29031
18.40633,31647
18.41447,29807
18.42258,31325
18.43072,34082
18.43883,31503
18.44695,32394
18.45508,28696
18.46320,30011
18.47132,31980
18.47945,30511
18.48757,26820
18.49570,33227
18.50382,29817
18.51193,30147
18.52007,29608
18.52818,28056
18.53632,28686
18.54443,30354
18.55255,29456
18.56068,31816
18.56880,34131
18.57692,33035
18.58505,33248
18.59317,36666
18.60130,35351
18.60942,32924
18.61753,32704
18.62567,31817
18.63378,37532
18.64192,33774
18.65003,30343
18.65815,32762
18.66628,31249
18.67440,31780
18.68253,30512
18.69065,31822
18.69877,32008
18.70690,31504
18.71502,31628
18.72313,30841
18.73127,30547
18.73938,30570
18.74752,30002
18.75563,32322
18.76375,30092
18.77188,33967
18.78000,33221
18.78813,33374
18.79625,30250
18.80437,33143
18.81250,30343
18.82062,33875
18.82873,31526
18.83687,29380
18.84498,29496
18.85312,31356
18.86123,34137
18.86935,35040
18.87748,34442
18.88560,27892
18.89373,29886
18.90185,29877
18.90997,32037
18.91810,27795
18.92622,29107
18.93435,30750
18.94247,30925
18.95058,33653
18.95872,29746
18.96683,33310
18.97495,30974
18.98308,31757
18.99120,29714
18.99933,37096
19.00745,30719
19.01557,32209
19.02370,30613
19.03182,32679
19.03995,29859
19.04807,28713
19.05618,32601
19.06432,32247
19.07243,34142
19.08057,34308
19.08868,33333
19.09680,37403
19.10493,40298
19.11305,38751
19.12117,37325
19.12930,37691
19.13742,41350
19.14555,35026
19.15367,37979
19.16178,40725
19.16992,38976
19.17803,38928
19.18617,36336
19.19428,37836
19.20240,33261
19.21053,35246
19.21865,34679
19.22678,34607
19.23490,37528
19.24302,38069
19.25115,37450
19.25927,35169
19.26738,37811
19.27552,41315
19.28363,39968
19.29177,40712
19.29988,40061
19.30800,41363
19.31613,43200
19.32425,42285
19.33238,38538
19.34050,42138
19.34862,41479
19.35675,39179
19.36487,40450
19.37298,36082
19.38112,38115
19.38923,39381
19.39737,47034
19.40548,61028
19.41360,96808
19.42173,148392
19.42985,204760
19.43798,226183
19.44610,228018
19.45422,188826
19.46235,134001
19.47047,101931
19.47860,74836
19.48672,56398
19.49483,51231
19.50297,42973
19.51108,42832
19.51920,43524
19.52733,44484
19.53545,40574
19.54358,40621
19.55170,40512
19.55982,38518
19.56795,34123
19.57607,35276
19.58420,34218
19.59232,35221
19.60043,40599
19.60857,40760
19.61668,55152
19.62480,68979
19.63293,103727
19.64105,131574
19.64918,147968
19.65730,165491
19.66542,163493
19.67355,155889
19.68167,133833
19.68980,120194
19.69792,105315
19.70603,90812
19.71417,79889
19.72228,72512
19.73042,58093
19.73853,50915
19.74665,54125
19.75478,46915
19.76290,43685
19.77102,42955
19.77915,39275
19.78727,40383
19.79540,39363
19.80352,38384
19.81163,37276
19.81977,39889
19.82788,35424
19.83602,44136
19.84413,46541
19.85225,42718
19.86038,49212
19.86850,62262
19.87663,83888
19.88475,100028
19.89287,112848
19.90100,111152
19.90912,105336
19.91723,90197
19.92537,81875
19.93348,72253
19.94162,62161
19.94973,59897
19.95785,58637
19.96598,55669
19.97410,55365
19.98223,53563
19.99035,51557
19.99847,54765
20.00660,50580
20.01472,47328
20.02283,48426
20.03097,46732
20.03908,41659
20.04722,39149
20.05533,36684
20.06345,39914
20.07158,39161
20.07970,40630
20.08783,40139
20.09595,36015
20.10407,36501
20.11220,36124
20.12032,41304
20.12845,35702
20.13657,36526
20.14468,38056
20.15282,40409
20.16093,35001
20.16905,39233
20.17718,36937
20.18530,36212
20.19343,37242
20.20155,38666
20.20967,44243
20.21780,61140
20.22592,89141
20.23405,123100
20.24217,144893
20.25028,169975
20.25842,181622
20.26653,173938
20.27467,168414
20.28278,138616
20.29090,107842
20.29903,87843
20.30715,75981
20.31527,62178
20.32340,54203
20.33152,50981
20.33965,46503
20.34777,45951
20.35588,45703
20.36402,45282
20.37213,46750
20.38027,52460
20.38838,59896
20.39650,75122
20.40463,85888
20.41275,95555
20.42087,89752
20.42900,85005
20.43712,76731
20.44525,65822
20.45337,58970
20.46148,51941
20.46962,47074
20.47773,42948
20.48587,40128
20.49398,37233
20.50210,37042
20.51023,39910
20.51835,38484
20.52648,40693
20.53460,35155
20.54272,36253
20.55085,34873
20.55897,34495
20.56708,38435
20.57522,34398
20.58333,37365
20.59147,37019
20.59958,33915
20.60770,36417
20.61583,32519
20.62395,34743
20.63208,34691
20.64020,36780
20.64832,34289
20.65645,36106
20.66457,38354
20.67268,35912
20.68082,32398
20.68893,29814
20.69707,35074
20.70518,33637
20.71330,31179
20.72143,33856
20.72955,33067
20.73768,36426
20.74580,33674
20.75392,34754
20.76205,32006
20.77017,39736
20.77830,35274
20.78642,32397
20.79453,31399
20.80267,33444
20.81078,35733
20.81890,37913
20.82703,29081
20.83515,33856
20.84328,32916
20.85140,36122
20.85952,29397
20.86765,34885
20.87577,33531
20.88390,30195
20.89202,32515
20.90013,29847
20.90827,31067
20.91638,33879
20.92452,33782
20.93263,32796
20.94075,32731
20.94888,35972
20.95700,31896
20.96512,31360
20.97325,32900
20.98137,30059
20.98950,29917
20.99762,31150
21.00573,32735
21.01387,31945
21.02198,33612
21.03012,32627
21.03823,30534
21.04635,30894
21.05448,33071
21.06260,35746
21.07072,38692
21.07885,36651
21.08697,32362
21.09510,31947
21.10322,31866
21.11133,30799
21.11947,28406
21.12758,29117
21.13572,30472
21.14383,32577
21.15195,30402
21.16008,34826
21.16820,34754
21.17633,32104
21.18445,31832
21.19257,34010
21.20070,35593
21.20882,30442
21.21693,31868
21.22507,33520
21.23318,34190
21.24132,33539
21.24943,36060
21.25755,34313
21.26568,31269
21.27380,32220
21.28193,37296
21.29005,37048
21.29817,35032
21.30630,36406
21.31442,33801
21.32255,34617
21.33067,34762
21.33878,33127
21.34692,35311
21.35503,37779
21.36315,30752
21.37128,34202
21.37940,33996
21.38753,28683
21.39565,30515
21.40377,26261
21.41190,31577
21.42002,29336
21.42815,31959
21.43627,33914
21.44438,32300
21.45252,31018
21.46063,29983
21.46875,33591
21.47688,34042
21.48500,35278
21.49313,33824
21.50125,31762
21.50937,30052
21.51750,32146
21.52562,35489
21.53375,36424
21.54187,40004
21.54998,37303
21.55812,44569
21.56623,58485
21.57437,68471
21.58248,78622
21.59060,82558
21.59873,81366
21.60685,74881
21.61497,60751
21.62310,55003
21.63122,58369
21.63935,44743
21.64747,40302
21.65558,38392
21.66372,35797
21.67183,36896
21.67997,35613
21.68808,37316
21.69620,38225
21.70433,36639
21.71245,34396
21.72057,33457
21.72870,39116
21.73682,38977
21.74495,38956
21.75307,47906
21.76118,61057
21.76932,69313
21.77743,78942
21.78557,84039
21.79368,78760
21.80180,80238
21.80993,64050
21.81805,52682
21.82618,52185
21.83430,45014
21.84242,42428
21.85055,41322
21.85867,37044
21.86678,39688
21.87492,36632
21.88303,33802
21.89117,34502
21.89928,32888
21.90740,32575
21.91553,34067
21.92365,32572
21.93178,38021
21.93990,31874
21.94802,31238
21.95615,33899
21.96427,32201
21.97240,32187
21.98052,33130
21.98863,35542
21.99677,31170
22.00488,32224
22.01300,33113
22.02113,36881
22.02925,31121
22.03738,32566
22.04550,34513
22.05362,33780
22.06175,35696
22.06987,37830
22.07800,37370
22.08612,40809
22.09423,35967
22.10237,34264
22.11048,36128
22.11860,30423
22.12673,29937
22.13485,37121
22.14298,39827
22.15110,43631
22.15922,45584
22.16735,51239
22.17547,50835
22.18360,51689
22.19172,46669
22.19983,41102
22.20797,42430
22.21608,37795
22.22422,35543
22.23233,37180
22.24045,35323
22.24858,34619
22.25670,32787
22.26482,28546
22.27295,32073
22.28107,33683
22.28920,38751
22.29732,33127
22.30543,35451
22.31357,32714
22.32168,33458
22.32982,34170
22.33793,35354
22.34605,33900
22.35418,33084
22.36230,31585
22.37043,33153
22.37855,34243
22.38667,36513
22.39480,30976
22.40292,39108
22.41103,36791
22.41917,31581
22.42728,34891
22.43542,37543
22.44353,35567
22.45165,35350
22.45978,34148
22.46790,32316
22.47603,37892
22.48415,31322
22.49227,33395
22.50040,31578
22.50852,31899
22.51663,29481
22.52477,29989
22.53288,31930
22.54102,33898
22.54913,30900
22.55725,33210
22.56538,31528
22.57350,32895
22.58163,30356
22.58975,31304
22.59787,29366
22.60600,31346
22.61412,30871
22.62225,29435
22.63037,29258
22.63848,31876
22.64662,28792
22.65473,30632
22.66285,28599
22.67098,32659
22.67910,35496
22.68723,32843
22.69535,38635
22.70347,35342
22.71160,34790
22.71972,42195
22.72785,29857
22.73597,35641
22.74408,33513
22.75222,33023
22.76033,33444
22.76847,33128
22.77658,32272
22.78470,34125
22.79283,30372
22.80095,34180
22.80907,33078
22.81720,33481
22.82532,32658
22.83345,36493
22.84157,32017
22.84968,33225
22.85782,42775
22.86593,42968
22.87407,38532
22.88218,41443
22.89030,49303
22.89843,60109
22.90655,61106
22.91467,77150
22.92280,82340
22.93092,83371
22.93905,83990
22.94717,79498
22.95528,75633
22.96342,70538
22.97153,63683
22.97967,59875
22.98778,54519
22.99590,53339
23.00403,48172
23.01215,44084
23.02028,45352
23.02840,37195
23.03652,37676
23.04465,34164
23.05277,37512
23.06088,34469
23.06902,36642
23.07713,35887
23.08527,40062
23.09338,37523
23.10150,34644
23.10963,33514
23.11775,34989
23.12588,33260
23.13400,33457
23.14212,32308
23.15025,31115
23.15837,32724
23.16648,31949
23.17462,30808
23.18273,31822
23.19087,32701
23.19898,33391
23.20710,29302
23.21523,28636
23.22335,33219
23.23148,29071
23.23960,30879
23.24772,32293
23.25585,33447
23.26397,30952
23.27210,34081
23.28022,34745
23.28833,29613
23.29647,29561
23.30458,28743
23.31270,31274
23.32083,29362
23.32895,28638
23.33708,39399
23.34520,35985
23.35332,33946
23.36145,36286
23.36957,39551
23.37770,44247
23.38582,47596
23.39393,47320
23.40207,43634
23.41018,45842
23.41832,47021
23.42643,44812
23.43455,49008
23.44268,44140
23.45080,42952
23.45892,44858
23.46705,44019
23.47517,39916
23.48330,41892
23.49142,39351
23.49953,43048
23.50767,38110
23.51578,38631
23.52392,37753
23.53203,35063
23.54015,41111
23.54828,39496
23.55640,37198
23.56452,38217
23.57265,39675
23.58077,41362
23.58890,34425
23.59702,39133
23.60513,36374
23.61327,39863
23.62138,34394
23.62952,34954
23.63763,40105
23.64575,39961
23.65388,40334
23.66200,40491
23.67013,41979
23.67825,43709
23.68637,41119
23.69450,41899
23.70262,38749
23.71073,36449
23.71887,42556
23.72698,59244
23.73512,95926
23.74323,176214
23.75135,301276
23.75948,480284
23.76760,634639
23.77573,706732
23.78385,696310
23.79197,591049
23.80010,503047
23.80822,427462
23.81635,331455
23.82447,261623
23.83258,216698
23.84072,186238
23.84883,165364
23.85695,136096
23.86508,126614
23.87320,111519
23.88133,101162
23.88945,94454
23.89757,91391
23.90570,81481
23.91382,78279
23.92195,77007
23.93007,70763
23.93818,69813
23.94632,68846
23.95443,63750
23.96255,65567
23.97068,64329
23.97880,61107
23.98693,65761
23.99505,57003
24.00317,59049
24.01130,56634
24.01942,59127
24.02755,61342
24.03567,61274
24.04378,63477
24.05192,64843
24.06003,67763
24.06817,74133
24.07628,65292
24.08440,64560
24.09253,53598
24.10065,58838
24.10877,57837
24.11690,54166
24.12502,59332
24.13315,64378
24.14127,67362
24.14938,66491
24.15752,62811
24.16563,59569
24.17377,52461
24.18188,54804
24.19000,49126
24.19813,49770
24.20625,49526
24.21437,47404
24.22250,46359
24.23062,46265
24.23875,45556
24.24687,43280
24.25498,43880
24.26312,42784
24.27123,44670
24.27937,52670
24.28748,62744
24.29560,83287
24.30373,120060
24.31185,146050
24.31998,166543
24.32810,165034
24.33622,132355
24.34435,96622
24.35247,67678
24.36058,52863
24.36872,46507
24.37683,42987
24.38497,46153
24.39308,48743
24.40120,46157
24.40933,52561
24.41745,60042
24.42558,72050
24.43370,72157
24.44182,71252
24.44995,63004
24.45807,60978
24.46620,52317
24.47432,50313
24.48243,44132
24.49057,47757
24.49868,43050
24.50680,40673
24.51493,40606
24.52305,41304
24.53118,37582
24.53930,38998
24.54742,37932
24.55555,38685
24.56367,38812
24.57180,40248
24.57992,38666
24.58803,38312
24.59617,39296
24.60428,41391
24.61242,39278
24.62053,43668
24.62865,41083
24.63678,38726
24.64490,43957
24.65302,44049
24.66115,45792
24.66927,44177
24.67740,38093
24.68552,36671
24.69363,38856
24.70177,34757
24.70988,33743
24.71802,38539
24.72613,37324
24.73425,35826
24.74238,37312
24.75050,36773
24.75862,39795
24.76675,35974
24.77487,33117
24.78300,31780
24.79112,34997
24.79923,32954
24.80737,35717
24.81548,37145
24.82362,32684
24.83173,33280
24.83985,33571
24.84798,35541
24.85610,35591
24.86423,35896
24.87235,34444
24.88047,34854
24.88860,39499
24.89672,32867
24.90483,35215
24.91297,36261
24.92108,36814
24.92922,32281
24.93733,32325
24.94545,37290
24.95358,34079
24.96170,35065
24.96983,35147
24.97795,34061
24.98607,31509
24.99420,31357
25.00232,34928
25.01043,37134
25.01857,36838
25.02668,34134
25.03482,32682
25.04293,30446
25.05105,39776
25.05918,37609
25.06730,36940
25.07543,33541
25.08355,32457
25.09167,33129
25.09980,34104
25.10792,34569
25.11605,36554
25.12417,40578
25.13228,39344
25.14042,40994
25.14853,43686
25.15665,41679
25.16478,40352
25.17290,39645
25.18103,41735
25.18915,33382
25.19727,35147
25.20540,36180
25.21352,37179
25.22165,35498
25.22977,31987
25.23788,36183
25.24602,35425
25.25413,34511
25.26227,33755
25.27038,35198
25.27850,42192
25.28663,43773
25.29475,46015
25.30287,49149
25.31100,50070
25.31912,48112
25.32725,51360
25.33537,45562
25.34348,43242
25.35162,41678
25.35973,40151
25.36787,39495
25.37598,40962
25.38410,44589
25.39223,53558
25.40035,44598
25.40847,42459
25.41660,44627
25.42472,41531
25.43285,38046
25.44097,40593
25.44908,36285
25.45722,35362
25.46533,31964
25.47347,32686
25.48158,31931
25.48970,32978
25.49783,32731
25.50595,30866
25.51408,32107
25.52220,33164
25.53032,30734
25.53845,29466
25.54657,31411
25.55468,27881
25.56282,32105
25.57093,30929
25.57907,33656
25.58718,29154
25.59530,29091
25.60343,33822
25.61155,32544
25.61968,33056
25.62780,31658
25.63592,31295
25.64405,33012
25.65217,31069
25.66030,29791
25.66842,28688
25.67653,27670
25.68467,32490
25.69278,34288
25.70090,30264
25.70903,31533
25.71715,30542
25.72528,32277
25.73340,32015
25.74152,34543
25.74965,33895
25.75777,33102
25.76590,32441
25.77402,32157
25.78213,31371
25.79027,32551
25.79838,27326
25.80650,28673
25.81463,34587
25.82275,35496
25.83088,29925
25.83900,31599
25.84712,29164
25.85525,29705
25.86337,29326
25.87150,34870
25.87962,28031
25.88773,32554
25.89587,31001
25.90398,29094
25.91212,31917
25.92023,31240
25.92835,33305
25.93648,36692
25.94460,38261
25.95272,39367
25.96085,36829
25.96897,38249
25.97710,36133
25.98522,30284
25.99333,32696
26.00147,29582
26.00958,28740
26.01772,28429
26.02583,31018
26.03395,27941
26.04208,27874
26.05020,32927
26.05832,34276
26.06645,31697
26.07457,29297
26.08270,32841
26.09082,33813
26.09893,34971
26.10707,36582
26.11518,40860
26.12332,44562
26.13143,44141
26.13955,48231
26.14768,50433
26.15580,47996
26.16393,46719
26.17205,44321
26.18017,42380
26.18830,37612
26.19642,34486
26.20453,35229
26.21267,32762
26.22078,34087
26.22892,35269
26.23703,32702
26.24515,36143
26.25328,31663
26.26140,31983
26.26953,32041
26.27765,30707
26.28577,30582
26.29390,31036
26.30202,27248
26.31015,28996
26.31827,31130
26.32638,32012
26.33452,30233
26.34263,29455
26.35075,29644
26.35888,30663
26.36700,28570
26.37513,36306
26.38325,30500
26.39137,30592
26.39950,31574
26.40762,30416
26.41575,30016
26.42387,29818
26.43198,28738
26.44012,33092
26.44823,30903
26.45635,31849
26.46448,30058
26.47260,32161
26.48073,27705
26.48885,28391
26.49697,32664
26.50510,33456
26.51322,31639
26.52135,29460
26.52947,31016
26.53758,31433
26.54572,32909
26.55383,30601
26.56197,32285
26.57008,31756
26.57820,32360
26.58633,33952
26.59445,34464
26.60257,28870
26.61070,31225
26.61882,33009
26.62695,33252
26.63507,28183
26.64318,32494
26.65132,31777
26.65943,30667
26.66757,30254
26.67568,30438
26.68380,31021
26.69193,30468
26.70005,36550
26.70818,31939
26.71630,30019
26.72442,28509
26.73255,30857
26.74067,30597
26.74878,32071
26.75692,33296
26.76503,36331
26.77317,36345
26.78128,35996
26.78940,32956
26.79753,34050
26.80565,34106
26.81378,34554
26.82190,31438
26.83002,28972
26.83815,30097
26.84627,30720
26.85438,31252
26.86252,33115
26.87063,31257
26.87877,28837
26.88688,30832
26.89500,28918
26.90313,32397
26.91125,28300
26.91938,29549
26.92750,31256
26.93562,39337
26.94375,50942
26.95187,71691
26.96000,112670
26.96812,168735
26.97623,245568
26.98437,312255
26.99248,360370
27.00060,385354
27.00873,361256
27.01685,329678
27.02498,302941
27.03310,249720
27.04122,199173
27.04935,179008
27.05747,160845
27.06560,125361
27.07372,123563
27.08183,109114
27.08997,100675
27.09808,88220
27.10620,84338
27.11433,83305
27.12245,71873
27.13058,73955
27.13870,77202
27.14682,69744
27.15495,64150
27.16307,69159
27.17120,62557
27.17932,62879
27.18743,61446
27.19557,55934
27.20368,54131
27.21182,55763
27.21993,52732
27.22805,50774
27.23618,48462
27.24430,52029
27.25242,46489
27.26055,49259
27.26867,43200
27.27680,43870
27.28492,42186
27.29303,42368
27.30117,42071
27.30928,43276
27.31742,44421
27.32553,42646
27.33365,45497
27.34178,43710
27.34990,43983
27.35803,44685
27.36615,41571
27.37427,38511
27.38240,45956
27.39052,40796
27.39863,42800
27.40677,43345
27.41488,40469
27.42302,47421
27.43113,44812
27.43925,46887
27.44738,48752
27.45550,48474
27.46363,54806
27.47175,50379
27.47987,54084
27.48800,51187
27.49612,53903
27.50423,45443
27.51237,45355
27.52048,42384
27.52862,43263
27.53673,39070
27.54485,39884
27.55298,39951
27.56110,38986
27.56923,36897
27.57735,35067
27.58547,40193
27.59360,34873
27.60172,38423
27.60985,35327
27.61797,35620
27.62608,35659
27.63422,34829
27.64233,36244
27.65045,33112
27.65858,35203
27.66670,34911
27.67483,38601
27.68295,36713
27.69107,35457
27.69920,36212
27.70732,35365
27.71545,33404
27.72357,37048
27.73168,41037
27.73982,34525
27.74793,36280
27.75607,34456
27.76418,34477
27.77230,34929
27.78043,34866
27.78855,35235
27.79667,36906
27.80480,36287
27.81292,39059
27.82105,38691
27.82917,35922
27.83728,36075
27.84542,37714
27.85353,36108
27.86167,38088
27.86978,37676
27.87790,36042
27.88603,35110
27.89415,36674
27.90227,35721
27.91040,36115
27.91852,32505
27.92665,35430
27.93477,34309
27.94288,32091
27.95102,33127
27.95913,34604
27.96727,34387
27.97538,32438
27.98350,32679
27.99163,32915
27.99975,33263
28.00788,33954
28.01600,32412
28.02412,34706
28.03225,34982
28.04037,36511
28.04848,35000
28.05662,34947
28.06473,34191
28.07287,35648
28.08098,37526
28.08910,41241
28.09723,49214
28.10535,50337
28.11348,54304
28.12160,51311
28.12972,49376
28.13785,42401
28.14597,37590
28.15410,37985
28.16222,36235
28.17033,35473
28.17847,34805
28.18658,34478
28.19470,37640
28.20283,33088
28.21095,35463
28.21908,36629
28.22720,36730
28.23532,44874
28.24345,45268
28.25157,53688
28.25970,69585
28.26782,89205
28.27593,105904
28.28407,130479
28.29218,150747
28.30030,158405
28.30843,174192
28.31655,176929
28.32468,179191
28.33280,181486
28.34092,168198
28.34905,166698
28.35717,149460
28.36530,143220
28.37342,133668
28.38153,122369
28.38967,115492
28.39778,104084
28.40592,96679
28.41403,90568
28.42215,88514
28.43028,83267
28.43840,78577
28.44652,70860
28.45465,69312
28.46277,67430
28.47090,65200
28.47902,62591
28.48713,60978
28.49527,63233
28.50338,62250
28.51152,56843
28.51963,59157
28.52775,55865
28.53588,54346
28.54400,54753
28.55212,48830
28.56025,52582
28.56837,50128
28.57650,57638
28.58462,47804
28.59273,47162
28.60087,54354
28.60898,51679
28.61712,53117
28.62523,58305
28.63335,64948
28.64148,73400
28.64960,78492
28.65773,91104
28.66585,105967
28.67397,120396
28.68210,120263
28.69022,117645
28.69833,113154
28.70647,87715
28.71458,70069
28.72272,58356
28.73083,54763
28.73895,48953
28.74708,43422
28.75520,49277
28.76333,48205
28.77145,47059
28.77957,46563
28.78770,46259
28.79582,43436
28.80395,45602
28.81207,43468
28.82018,47125
28.82832,42998
28.83643,41865
28.84455,44012
28.85268,39160
28.86080,44043
28.86893,38440
28.87705,44124
28.88517,39974
28.89330,47055
28.90142,41839
28.90955,46302
28.91767,42257
28.92578,43752
28.93392,43841
28.94203,43606
28.95015,51088
28.95828,45337
28.96640,53972
28.97453,39272
28.98265,41481
28.99077,43653
28.99890,41804
29.00702,40923
29.01515,40379
29.02327,44032
29.03138,38682
29.03952,41080
29.04763,41979
29.05577,40137
29.06388,41452
29.07200,45477
29.08013,39018
29.08825,43642
29.09637,38125
29.10450,39659
29.11262,35935
29.12075,37030
29.12887,37557
29.13698,42535
29.14512,42225
29.15323,43832
29.16137,40033
29.16948,42246
29.17760,42832
29.18573,38585
29.19385,39377
29.20198,39916
29.21010,41183
29.21822,43019
29.22635,37918
29.23447,42067
29.24258,40782
29.25072,43484
29.25883,39484
29.26697,41314
29.27508,42192
29.28320,39307
29.29133,43837
29.29945,43974
29.30758,39532
29.31570,41905
29.32382,41677
29.33195,40345
29.34007,40608
29.34818,39938
29.35632,39890
29.36443,48505
29.37257,45509
29.38068,43444
29.38880,44829
29.39693,47602
29.40505,49844
29.41318,45700
29.42130,42342
29.42942,42645
29.43755,41164
29.44567,36701
29.45380,39240
29.46192,40816
29.47003,46323
29.47817,48726
29.48628,50336
29.49440,52175
29.50253,52447
29.51065,53175
29.51878,45471
29.52690,47135
29.53502,44366
29.54315,42747
29.55127,41162
29.55940,41559
29.56752,40882
29.57563,37727
29.58377,41509
29.59188,44247
29.60000,39988
29.60813,40470
29.61625,42375
29.62438,42060
29.63250,40581
29.64062,46053
29.64875,38407
29.65687,39672
29.66500,37199
29.67312,37230
29.68123,38111
29.68937,36955
29.69748,39486
29.70562,36636
29.71373,39395
29.72185,36246
29.72998,38422
29.73810,34567
29.74622,35747
29.75435,36243
29.76247,33187
29.77060,37713
29.77872,37963
29.78683,36203
29.79497,35300
29.80308,36617
29.81122,39094
29.81933,35837
29.82745,41186
29.83558,43113
29.84370,40781
29.85183,43962
29.85995,49527
29.86807,56871
29.87620,70469
29.88432,81515
29.89243,97566
29.90057,112001
29.90868,122207
29.91682,143497
29.92493,147055
29.93305,159191
29.94118,161835
29.94930,161492
29.95743,159998
29.96555,152884
29.97367,156991
29.98180,154128
29.98992,150430
29.99803,136037
30.00617,135893
30.01428,128563
30.02242,129149
30.03053,115298
30.03865,112034
30.04678,104244
30.05490,100670
30.06303,90725
30.07115,88911
30.07927,88873
30.08740,89993
30.09552,76163
30.10365,77913
30.11177,74857
30.11988,69575
30.12802,68262
30.13613,62668
30.14425,61734
30.15238,65028
30.16050,60503
30.16863,60407
30.17675,56562
30.18487,59427
30.19300,56011
30.20112,61828
30.20925,60316
30.21737,56789
30.22548,53176
30.23362,51314
30.24173,51123
30.24987,48885
30.25798,51234
30.26610,52048
30.27423,55221
30.28235,54802
30.29047,50262
30.29860,48233
30.30672,50978
30.31485,50194
30.32297,48304
30.33108,49211
30.33922,48635
30.34733,51061
30.35547,51656
30.36358,49170
30.37170,46262
30.37983,48179
30.38795,50466
30.39607,43609
30.40420,45932
30.41232,46072
30.42045,47108
30.42857,45652
30.43668,46157
30.44482,46718
30.45293,45389
30.46107,44837
30.46918,48103
30.47730,46314
30.48543,44387
30.49355,43875
30.50168,41642
30.50980,41026
30.51792,43588
30.52605,40875
30.53417,41968
30.54228,43341
30.55042,43765
30.55853,46246
30.56667,42260
30.57478,43821
30.58290,43578
30.59103,43659
30.59915,46313
30.60728,41249
30.61540,41886
30.62352,39530
30.63165,39884
30.63977,41127
30.64788,41280
30.65602,45993
30.66413,41939
30.67227,44508
30.68038,44073
30.68850,40362
30.69663,41938
30.70475,42857
30.71288,42480
30.72100,47443
30.72912,68627
30.73725,156662
30.74537,460100
30.75350,1378209
30.76162,3455366
30.76973,7535537
30.77787,1.271732E+07
30.78598,1.745786E+07
30.79410,2.08876E+07
30.80223,2.131551E+07
30.81035,1.831127E+07
30.81848,1.298908E+07
30.82660,8017447
30.83472,4048503
30.84285,1845270
30.85097,853495
30.85910,461028
30.86722,300781
30.87533,227087
30.88347,196119
30.89158,165821
30.89972,144323
30.90783,133631
30.91595,127057
30.92408,119129
30.93220,107260
30.94032,104445
30.94845,97927
30.95657,94958
30.96470,87183
30.97282,86988
30.98093,88102
30.98907,83468
30.99718,79162
31.00532,79084
31.01343,78823
31.02155,78750
31.02968,71567
31.03780,69529
31.04593,71475
31.05405,70715
31.06217,75594
31.07030,78240
31.07842,81881
31.08653,86308
31.09467,81787
31.10278,78615
31.11092,75752
31.11903,72301
31.12715,66870
31.13528,66715
31.14340,62772
31.15153,74433
31.15965,77977
31.16777,95312
31.17590,124617
31.18402,171476
31.19213,220493
31.20027,250715
31.20838,251512
31.21652,236800
31.22463,195787
31.23275,155138
31.24088,115093
31.24900,90184
31.25713,73820
31.26525,68946
31.27337,63788
31.28150,62804
31.28962,68000
31.29775,63909
31.30587,60028
31.31398,59794
31.32212,60437
31.33023,57449
31.33835,56187
31.34648,51597
31.35460,55311
31.36273,57883
31.37085,49626
31.37897,51395
31.38710,51091
31.39522,52310
31.40335,50194
31.41147,56623
31.41958,54320
31.42772,48645
31.43583,47129
31.44395,47125
31.45208,52404
31.46020,48165
31.46833,50846
31.47645,51467
31.48457,52021
31.49270,48192
31.50082,50675
31.50895,47720
31.51707,52053
31.52518,49452
31.53332,50341
31.54143,46820
31.54957,48617
31.55768,50661
31.56580,44813
31.57393,45766
31.58205,44970
31.59017,47022
31.59830,48850
31.60642,50559
31.61455,48479
31.62267,50637
31.63078,48404
31.63892,47589
31.64703,50702
31.65517,50818
31.66328,47278
31.67140,46224
31.67953,48641
31.68765,46582
31.69578,48639
31.70390,51172
31.71202,47951
31.72015,46231
31.72827,46455
31.73638,49768
31.74452,49049
31.75263,44770
31.76077,48682
31.76888,52166
31.77700,57023
31.78513,63146
31.79325,64720
31.80138,67705
31.80950,75105
31.81762,80028
31.82575,92897
31.83387,109089
31.84198,126291
31.85012,140390
31.85823,150959
31.86637,161064
31.87448,165894
31.88260,171446
31.89073,164486
31.89885,157632
31.90698,147127
31.91510,143284
31.92322,132321
31.93135,133737
31.93947,126501
31.94760,125663
31.95572,122663
31.96383,122393
31.97197,118952
31.98008,112809
31.98820,109585
31.99633,103400
32.00445,93397
32.01258,87972
32.02070,87650
32.02882,87945
32.03695,83963
32.04507,80015
32.05320,73117
32.06132,70520
32.06943,71164
32.07757,68090
32.08568,71539
32.09382,69351
32.10193,63741
32.11005,66357
32.11818,62142
32.12630,62155
32.13442,64536
32.14255,56854
32.15067,58322
32.15880,59932
32.16692,55065
32.17503,56513
32.18317,57059
32.19128,60253
32.19942,57198
32.20753,63016
32.21565,59943
32.22378,59351
32.23190,60717
32.24002,60450
32.24815,52569
32.25627,52649
32.26440,56746
32.27252,58463
32.28063,57096
32.28877,56930
32.29688,53951
32.30502,52784
32.31313,52221
32.32125,54357
32.32938,54847
32.33750,57616
32.34563,63105
32.35375,56496
32.36187,55172
32.37000,51736
32.37812,54251
32.38623,55559
32.39437,55153
32.40248,50302
32.41062,50953
32.41873,49776
32.42685,50435
32.43498,50915
32.44310,53576
32.45123,50476
32.45935,50103
32.46747,52290
32.47560,52629
32.48372,51673
32.49183,50835
32.49997,52963
32.50808,54742
32.51622,49270
32.52433,52087
32.53245,52682
32.54058,58651
32.54870,69584
32.55683,81953
32.56495,106128
32.57307,110842
32.58120,102891
32.58932,98699
32.59745,80867
32.60557,65575
32.61368,60455
32.62182,55712
32.62993,53083
32.63805,53953
32.64618,50623
32.65430,55604
32.66243,53909
32.67055,51972
32.67867,56334
32.68680,55666
32.69492,56971
32.70305,60556
32.71117,65266
32.71928,64206
32.72742,59660
32.73553,60291
32.74367,59616
32.75178,54450
32.75990,54336
32.76803,49479
32.77615,50031
32.78427,52131
32.79240,50153
32.80052,48805
32.80865,47007
32.81677,53902
32.82488,50993
32.83302,52187
32.84113,51571
32.84927,56137
32.85738,50983
32.86550,49289
32.87363,51894
32.88175,50873
32.88987,53959
32.89800,51891
32.90612,48294
32.91425,54638
32.92237,50293
32.93048,53422
32.93862,50875
32.94673,53012
32.95487,47966
32.96298,51180
32.97110,50324
32.97923,51607
32.98735,52041
32.99548,47760
33.00360,49346
33.01172,51093
33.01985,49171
33.02797,48786
33.03608,47600
33.04422,49555
33.05233,54105
33.06047,53654
33.06858,53845
33.07670,60987
33.08483,66601
33.09295,70784
33.10108,66924
33.10920,71955
33.11732,65759
33.12545,65598
33.13357,59075
33.14170,60927
33.14982,55214
33.15793,54197
33.16607,54311
33.17418,47977
33.18230,51476
33.19043,54081
33.19855,51832
33.20668,54897
33.21480,46635
33.22292,45515
33.23105,51202
33.23917,53160
33.24730,53546
33.25542,53468
33.26353,50480
33.27167,53774
33.27978,52148
33.28790,52687
33.29603,52159
33.30415,48318
33.31228,54157
33.32040,52278
33.32852,49661
33.33665,48205
33.34477,48833
33.35290,44154
33.36102,51934
33.36913,49071
33.37727,50228
33.38538,52812
33.39352,51659
33.40163,48557
33.40975,47759
33.41788,46300
33.42600,51669
33.43412,49721
33.44225,52824
33.45037,48917
33.45850,49748
33.46662,50328
33.47473,51955
33.48287,50043
33.49098,50746
33.49912,52673
33.50723,53050
33.51535,51932
33.52348,54087
33.53160,58009
33.53973,47027
33.54785,52896
33.55597,53137
33.56410,50689
33.57222,48573
33.58033,51113
33.58847,51722
33.59658,54778
33.60472,53744
33.61283,50432
33.62095,48650
33.62908,51789
33.63720,47936
33.64533,49206
33.65345,53891
33.66157,50818
33.66970,54480
33.67782,53097
33.68593,51454
33.69407,49680
33.70218,51542
33.71032,51354
33.71843,54023
33.72655,53545
33.73468,52447
33.74280,62029
33.75093,53850
33.75905,62242
33.76717,53546
33.77530,55114
33.78342,50472
33.79155,51186
33.79967,53771
33.80778,54635
33.81592,55413
33.82403,55906
33.83215,56093
33.84028,56345
33.84840,58411
33.85653,58377
33.86465,56453
33.87277,58268
33.88090,54288
33.88902,55524
33.89715,57396
33.90527,57615
33.91338,55645
33.92152,60309
33.92963,52205
33.93775,53397
33.94588,56402
33.95400,52786
33.96213,52931
33.97025,53747
33.97837,52840
33.98650,52482
33.99462,56080
34.00275,53207
34.01087,52529
34.01898,54629
34.02712,54565
34.03523,53958
34.04337,54377
34.05148,53874
34.05960,56143
34.06773,54000
34.07585,53507
34.08397,57828
34.09210,51549
34.10022,58247
34.10835,56244
34.11647,58683
34.12458,63363
34.13272,55267
34.14083,59938
34.14897,59802
34.15708,57185
34.16520,56663
34.17333,56709
34.18145,62653
34.18958,58665
34.19770,57376
34.20582,58510
34.21395,58609
34.22207,60383
34.23018,58254
34.23832,61204
34.24643,60559
34.25457,62878
34.26268,62675
34.27080,60002
34.27893,62556
34.28705,65826
34.29518,66192
34.30330,67211
34.31142,66411
34.31955,68346
34.32767,64550
34.33578,65333
34.34392,71012
34.35203,66958
34.36017,67897
34.36828,71256
34.37640,70352
34.38453,72430
34.39265,72716
34.40078,76534
34.40890,79473
34.41702,83174
34.42515,99958
34.43327,121360
34.44140,147025
34.44952,168401
34.45763,187073
34.46577,209955
34.47388,209614
34.48200,213868
34.49013,197386
34.49825,200244
34.50638,188633
34.51450,183503
34.52262,170844
34.53075,168191
34.53887,161412
34.54700,161731
34.55512,157196
34.56323,154381
34.57137,159922
34.57948,152633
34.58762,161994
34.59573,159914
34.60385,171894
34.61198,173425
34.62010,178392
34.62822,177961
34.63635,189897
34.64447,190389
34.65260,194191
34.66072,205928
34.66883,207588
34.67697,218618
34.68508,226985
34.69322,237928
34.70133,245071
34.70945,255954
34.71758,265264
34.72570,278147
34.73382,281302
34.74195,305262
34.75007,306269
34.75820,319176
34.76632,334928
34.77443,332075
34.78257,355388
34.79068,379966
34.79882,383004
34.80693,402115
34.81505,415673
34.82318,425484
34.83130,451460
34.83943,468017
34.84755,493592
34.85567,491173
34.86380,513585
34.87192,535887
34.88003,547480
34.88817,563815
34.89628,593606
34.90442,616414
34.91253,646625
34.92065,685037
34.92878,698945
34.93690,725737
34.94503,750981
34.95315,784906
34.96127,822530
34.96940,862660
34.97752,904936
34.98563,951283
34.99377,990784
35.00188,1037358
35.01002,1107030
35.01813,1153961
35.02625,1237666
35.03438,1267137
35.04250,1299893
35.05063,1387819
35.05875,1409208
35.06687,1464564
35.07500,1517021
35.08312,1545288
35.09125,1574946
35.09937,1620115
35.10748,1640880
35.11562,1675349
35.12373,1694166
35.13185,1732052
35.13998,1754181
35.14810,1804173
35.15623,1844744
35.16435,1874543
35.17247,1896792
35.18060,1910365
35.18872,1935653
35.19685,1964861
35.20497,1991193
35.21308,2048281
35.22122,2040242
35.22933,2070665
35.23747,2101445
35.24558,2122062
35.25370,2108186
35.26183,2124393
35.26995,2105589
35.27807,2104686
35.28620,2063541
35.29432,2074980
35.30245,2075055
35.31057,2080999
35.31868,2077648
35.32682,2087643
35.33493,2112467
35.34307,2158606
35.35118,2174021
35.35930,2227827
35.36743,2299403
35.37555,2348154
35.38368,2378677
35.39180,2450043
35.39992,2506312
35.40805,2574702
35.41617,2676174
35.42428,2757607
35.43242,2842565
35.44053,2923904
35.44867,3068959
35.45678,3122788
35.46490,3219320
35.47303,3265962
35.48115,3401436
35.48928,3459441
35.49740,3581738
35.50552,3667098
35.51365,3749681
35.52177,3857085
35.52988,3929500
35.53802,3996046
35.54613,4076442
35.55427,4136226
35.56238,4239906
35.57050,4300146
35.57863,4376293
35.58675,4473498
35.59488,4539731
35.60300,4638982
35.61112,4642178
35.61925,4733375
35.62737,4855400
35.63550,4939036
35.64362,5037566
35.65173,5130075
35.65987,5124173
35.66798,5160743
35.67610,5158076
35.68423,5132614
35.69235,5055620
35.70048,4999111
35.70860,4936143
35.71672,4930206
35.72485,4904400
35.73297,4960128
35.74110,4932313
35.74922,4937628
35.75733,4904641
35.76547,4868507
35.77358,4800186
35.78170,4776754
35.78983,4778948
35.79795,4835450
35.80608,4890672
35.81420,4915012
35.82232,4961305
35.83045,5026204
35.83857,5173979
35.84670,5222001
35.85482,5315605
35.86293,5316507
35.87107,5421384
35.87918,5557498
35.88732,5622585
35.89543,5684749
35.90355,5732055
35.91168,5742051
35.91980,5844384
35.92792,5804770
35.93605,5755481
35.94417,5769896
35.95230,5771632
35.96042,5865733
35.96853,5898850
35.97667,5875035
35.98478,5937154
35.99292,5972050
36.00103,6046409
36.00915,6152511
36.01728,6248037
36.02540,6442295
36.03353,6524670
36.04165,6574136
36.04977,6733599
36.05790,6901552
36.06602,7030688
36.07413,7137694
36.08227,7344238
36.09038,7481256
36.09852,7602320
36.10663,7564520
36.11475,7637068
36.12288,7672637
36.13100,7815123
36.13913,7943285
36.14725,8009318
36.15537,7981207
36.16350,7938691
36.17162,7986797
36.17973,8064188
36.18787,8170610
36.19598,8451905
36.20412,8523318
36.21223,8717746
36.22035,8880142
36.22848,8999834
36.23660,9163870
36.24473,9430642
36.25285,9584152
36.26097,9835851
36.26910,1.008339E+07
36.27722,1.04744E+07
36.28535,1.063838E+07
36.29347,1.099301E+07
36.30158,1.114469E+07
36.30972,1.118125E+07
36.31783,1.123497E+07
36.32595,1.138626E+07
36.33408,1.16344E+07
36.34220,1.195052E+07
36.35033,1.210178E+07
36.35845,1.224035E+07
36.36657,1.236869E+07
36.37470,1.242776E+07
36.38282,1.248214E+07
36.39095,1.237319E+07
36.39907,1.23271E+07
36.40718,1.23534E+07
36.41532,1.247489E+07
36.42343,1.275336E+07
36.43157,1.308567E+07
36.43968,1.324237E+07
36.44780,1.33634E+07
36.45593,1.351532E+07
36.46405,1.356057E+07
36.47217,1.362575E+07
36.48030,1.359127E+07
36.48842,1.371209E+07
36.49655,1.357669E+07
36.50467,1.372499E+07
36.51278,1.37587E+07
36.52092,1.376226E+07
36.52903,1.372129E+07
36.53717,1.376204E+07
36.54528,1.355306E+07
36.55340,1.31861E+07
36.56153,1.288152E+07
36.56965,1.250299E+07
36.57777,1.238961E+07
36.58590,1.212381E+07
36.59402,1.197586E+07
36.60215,1.178609E+07
36.61027,1.13943E+07
36.61838,1.101915E+07
36.62652,1.055379E+07
36.63463,1.008322E+07
36.64277,9701830
36.65088,9235449
36.65900,8706785
36.66713,8120629
36.67525,7423789
36.68338,6754891
36.69150,6103541
36.69962,5532584
36.70775,4980500
36.71587,4473436
36.72398,3993888
36.73212,3561479
36.74023,3217972
36.74837,2868647
36.75648,2585975
36.76460,2361950
36.77273,2131134
36.78085,1983151
36.78898,1842979
36.79710,1689740
36.80522,1600627
36.81335,1496001
36.82147,1414110
36.82958,1321425
36.83772,1272159
36.84583,1213266
36.85397,1167072
36.86208,1132822
36.87020,1112742
36.87833,1093525
36.88645,1041291
36.89458,1026907
36.90270,998063
36.91082,993017
36.91895,977987
36.92707,972088
36.93520,959693
36.94332,969997
36.95143,970142
36.95957,952674
36.96768,960665
36.97580,945116
36.98393,945482
36.99205,907748
37.00018,904013
37.00830,909651
37.01642,905578
37.02455,898938
37.03267,905364
37.04080,921737
37.04892,900897
37.05703,901971
37.06517,890232
37.07328,864636
37.08142,874487
37.08953,888149
37.09765,881294
37.10578,889020
37.11390,897386
37.12202,922015
37.13015,925752
37.13827,945364
37.14640,954187
37.15452,962865
37.16263,981209
37.17077,1006098
37.17888,1020507
37.18702,1022388
37.19513,1019578
37.20325,1041225
37.21138,1062022
37.21950,1101066
37.22762,1113818
37.23575,1160078
37.24387,1227457
37.25200,1251890
37.26012,1274577
37.26823,1291845
37.27637,1292969
37.28448,1300969
37.29262,1313889
37.30073,1288214
37.30885,1290204
37.31698,1280309
37.32510,1272646
37.33323,1300125
37.34135,1283865
37.34947,1271471
37.35760,1263119
37.36572,1280490
37.37383,1267579
37.38197,1300830
37.39008,1313205
37.39822,1330455
37.40633,1340214
37.41445,1348147
37.42258,1342130
37.43070,1343757
37.43883,1345155
37.44695,1340487
37.45507,1329669
37.46320,1349477
37.47132,1323136
37.47945,1298893
37.48757,1283362
