C:\MassHunter\GCMS\1\data\20191125_ALKANES\JTB-E18-40-13.D Tue Nov 26 08:53:28 2019
Start of data points
2.09532,6077697
2.10345,5264935
2.11157,4401002
2.11970,3701490
2.12782,3090880
2.13593,2583811
2.14407,2186310
2.15218,1823529
2.16032,1560946
2.16843,1330706
2.17655,1172507
2.18468,1020920
2.19280,891785
2.20092,780468
2.20905,705788
2.21717,635355
2.22530,593331
2.23342,721429
2.24153,852091
2.24967,644645
2.25778,463769
2.26592,625651
2.27403,4230680
2.28215,5.179869E+07
2.29028,8.243731E+07
2.29840,8.025131E+07
2.30652,8.735113E+07
2.31465,8.321494E+07
2.32277,7.464705E+07
2.33090,6.065342E+07
2.33902,4.80761E+07
2.34713,4.89562E+07
2.35527,7.427852E+07
2.36338,1.190414E+08
2.37152,7.994906E+07
2.37963,6.638863E+07
2.38775,6.304573E+07
2.39588,6.324788E+07
2.40400,6.406091E+07
2.41213,6.619559E+07
2.42025,6.867778E+07
2.42837,7.144753E+07
2.43650,7.467539E+07
2.44462,8.406537E+07
2.45273,1.173465E+08
2.46087,1.241427E+08
2.46898,1.09815E+08
2.47712,1.080865E+08
2.48523,1.068365E+08
2.49335,1.057463E+08
2.50148,1.049298E+08
2.50960,1.039411E+08
2.51773,1.051528E+08
2.52585,1.129868E+08
2.53397,1.196389E+08
2.54210,1.210653E+08
2.55022,1.213699E+08
2.55835,1.217828E+08
2.56647,1.2261E+08
2.57458,1.236722E+08
2.58272,1.256697E+08
2.59083,1.217622E+08
2.59895,1.096793E+08
2.60708,1.063927E+08
2.61520,1.064939E+08
2.62333,1.063417E+08
2.63145,1.102237E+08
2.63957,1.230445E+08
2.64770,1.194842E+08
2.65582,1.017338E+08
2.66395,9.922739E+07
2.67207,9.887279E+07
2.68018,9.861537E+07
2.68832,9.864902E+07
2.69643,9.807258E+07
2.70455,9.797205E+07
2.71268,9.779726E+07
2.72080,9.769262E+07
2.72893,9.74863E+07
2.73705,9.718499E+07
2.74517,9.68625E+07
2.75330,9.673225E+07
2.76142,9.647506E+07
2.76955,9.621162E+07
2.77767,9.602721E+07
2.78578,9.559617E+07
2.79392,9.551198E+07
2.80203,9.522019E+07
2.81017,9.514142E+07
2.81828,9.47733E+07
2.82640,9.467628E+07
2.83453,9.451771E+07
2.84265,9.424244E+07
2.85077,9.392355E+07
2.85890,9.340925E+07
2.86702,9.337284E+07
2.87515,9.270762E+07
2.88327,9.259709E+07
2.89138,9.250235E+07
2.89952,9.217108E+07
2.90763,9.218382E+07
2.91577,9.17285E+07
2.92388,9.128258E+07
2.93200,9.076882E+07
2.94013,9.038294E+07
2.94825,8.979751E+07
2.95637,9.010052E+07
2.96450,8.90399E+07
2.97262,8.883557E+07
2.98075,8.91179E+07
2.98887,9.055194E+07
2.99698,9.224143E+07
3.00512,9.285039E+07
3.01323,9.372445E+07
3.02137,9.650384E+07
3.02948,1.080455E+08
3.03760,1.228579E+08
3.04573,1.304206E+08
3.05385,1.267535E+08
3.06198,9.773074E+07
3.07010,8.674546E+07
3.07822,8.481958E+07
3.08635,8.457201E+07
3.09447,8.387498E+07
3.10258,8.407902E+07
3.11072,8.331598E+07
3.11883,8.293318E+07
3.12697,8.274933E+07
3.13508,8.224029E+07
3.14320,8.181006E+07
3.15133,8.189217E+07
3.15945,8.155278E+07
3.16758,8.109789E+07
3.17570,8.070836E+07
3.18382,8.090015E+07
3.19195,8.0837E+07
3.20007,8.015507E+07
3.20820,7.953602E+07
3.21632,7.888102E+07
3.22443,7.87765E+07
3.23257,7.818713E+07
3.24068,7.797965E+07
3.24880,7.745961E+07
3.25693,7.728194E+07
3.26505,7.729032E+07
3.27318,7.720631E+07
3.28130,7.68705E+07
3.28942,7.667394E+07
3.29755,7.599048E+07
3.30567,7.515024E+07
3.31380,7.546089E+07
3.32192,7.480293E+07
3.33003,7.404846E+07
3.33817,7.403685E+07
3.34628,7.366987E+07
3.35440,7.350206E+07
3.36253,7.310052E+07
3.37065,7.310425E+07
3.37878,7.249341E+07
3.38690,7.232353E+07
3.39502,7.209655E+07
3.40315,7.144823E+07
3.41127,7.15915E+07
3.41940,7.096128E+07
3.42752,7.097581E+07
3.43563,7.052293E+07
3.44377,7.029056E+07
3.45188,6.981771E+07
3.46002,6.94005E+07
3.46813,6.902342E+07
3.47625,6.840563E+07
3.48438,6.84844E+07
3.49250,6.788863E+07
3.50062,6.758393E+07
3.50875,6.797078E+07
3.51687,6.727094E+07
3.52500,6.69915E+07
3.53312,6.664976E+07
3.54123,6.651819E+07
3.54937,6.603685E+07
3.55748,6.57145E+07
3.56562,6.562677E+07
3.57373,6.523472E+07
3.58185,6.547598E+07
3.58998,6.486735E+07
3.59810,6.439329E+07
3.60623,6.418139E+07
3.61435,6.415046E+07
3.62247,6.308114E+07
3.63060,6.288392E+07
3.63872,6.28925E+07
3.64683,6.236814E+07
3.65497,6.178875E+07
3.66308,6.186387E+07
3.67122,6.147394E+07
3.67933,6.176069E+07
3.68745,6.122655E+07
3.69558,6.114E+07
3.70370,6.035326E+07
3.71183,6.042591E+07
3.71995,5.998751E+07
3.72807,5.986112E+07
3.73620,5.95274E+07
3.74432,5.920776E+07
3.75243,5.867467E+07
3.76057,5.905664E+07
3.76868,5.942367E+07
3.77682,6.044955E+07
3.78493,6.218666E+07
3.79305,6.34306E+07
3.80118,6.691836E+07
3.80930,7.715581E+07
3.81743,9.20466E+07
3.82555,1.076108E+08
3.83367,1.200104E+08
3.84180,1.270981E+08
3.84992,1.300362E+08
3.85805,1.177906E+08
3.86617,6.759201E+07
3.87428,5.827033E+07
3.88242,5.664367E+07
3.89053,5.598868E+07
3.89865,5.569821E+07
3.90678,5.549255E+07
3.91490,5.516825E+07
3.92303,5.466569E+07
3.93115,5.44206E+07
3.93927,5.41496E+07
3.94740,5.377172E+07
3.95552,5.353671E+07
3.96365,5.359539E+07
3.97177,5.31521E+07
3.97988,5.254094E+07
3.98802,5.231058E+07
3.99613,5.182342E+07
4.00425,5.157977E+07
4.01238,5.147272E+07
4.02050,5.156389E+07
4.02863,5.135601E+07
4.03675,5.123086E+07
4.04487,5.10196E+07
4.05300,5.06699E+07
4.06112,5.023586E+07
4.06925,4.954566E+07
4.07737,4.9587E+07
4.08548,4.953078E+07
4.09362,4.918816E+07
4.10173,4.871957E+07
4.10987,4.870871E+07
4.11798,4.859619E+07
4.12610,4.858952E+07
4.13423,4.847258E+07
4.14235,4.816853E+07
4.15047,4.776232E+07
4.15860,4.739411E+07
4.16672,4.750392E+07
4.17485,4.6555E+07
4.18297,4.666859E+07
4.19108,4.624536E+07
4.19922,4.625015E+07
4.20733,4.607803E+07
4.21547,4.605464E+07
4.22358,4.511664E+07
4.23170,4.49877E+07
4.23983,4.470626E+07
4.24795,4.404284E+07
4.25608,4.415366E+07
4.26420,4.396745E+07
4.27232,4.357669E+07
4.28045,4.373846E+07
4.28857,4.374998E+07
4.29668,4.352036E+07
4.30482,4.344887E+07
4.31293,4.331198E+07
4.32107,4.289369E+07
4.32918,4.250559E+07
4.33730,4.204625E+07
4.34543,4.172545E+07
4.35355,4.165414E+07
4.36168,4.11573E+07
4.36980,4.12597E+07
4.37792,4.11233E+07
4.38605,4.116003E+07
4.39417,4.033222E+07
4.40228,4.029011E+07
4.41042,4.04365E+07
4.41853,3.972998E+07
4.42667,4.008461E+07
4.43478,3.933595E+07
4.44290,3.941788E+07
4.45103,3.903918E+07
4.45915,3.92054E+07
4.46728,3.851691E+07
4.47540,3.860412E+07
4.48352,3.806689E+07
4.49165,3.804596E+07
4.49977,3.81663E+07
4.50790,3.771694E+07
4.51602,3.756086E+07
4.52413,3.76974E+07
4.53227,3.738108E+07
4.54038,3.71108E+07
4.54850,3.698024E+07
4.55663,3.658195E+07
4.56475,3.629318E+07
4.57288,3.639278E+07
4.58100,3.608819E+07
4.58912,3.592286E+07
4.59725,3.562366E+07
4.60537,3.563665E+07
4.61350,3.54661E+07
4.62162,3.557192E+07
4.62973,3.540729E+07
4.63787,3.526771E+07
4.64598,3.499524E+07
4.65412,3.473547E+07
4.66223,3.46073E+07
4.67035,3.437026E+07
4.67848,3.437787E+07
4.68660,3.408974E+07
4.69472,3.443773E+07
4.70285,3.372254E+07
4.71097,3.402878E+07
4.71910,3.308345E+07
4.72722,3.34946E+07
4.73533,3.281221E+07
4.74347,3.261487E+07
4.75158,3.279078E+07
4.75972,3.231757E+07
4.76783,3.199664E+07
4.77595,3.165266E+07
4.78408,3.192831E+07
4.79220,3.16708E+07
4.80032,3.105406E+07
4.80845,3.127089E+07
4.81657,3.128603E+07
4.82470,3.107382E+07
4.83282,3.066422E+07
4.84093,3.093797E+07
4.84907,3.072816E+07
4.85718,3.026785E+07
4.86532,3.069634E+07
4.87343,3.051631E+07
4.88155,3.064235E+07
4.88968,3.046778E+07
4.89780,3.006952E+07
4.90593,3.009156E+07
4.91405,3.030286E+07
4.92217,2.950833E+07
4.93030,2.927934E+07
4.93842,2.899033E+07
4.94653,2.898194E+07
4.95467,2.905072E+07
4.96278,2.846549E+07
4.97092,2.857622E+07
4.97903,2.825132E+07
4.98715,2.868006E+07
4.99528,2.84879E+07
5.00340,2.820033E+07
5.01153,2.76919E+07
5.01965,2.785601E+07
5.02777,2.703623E+07
5.03590,2.73398E+07
5.04402,2.719961E+07
5.05215,2.737921E+07
5.06027,2.697442E+07
5.06838,2.702307E+07
5.07652,2.726136E+07
5.08463,2.672806E+07
5.09275,2.692391E+07
5.10088,2.670016E+07
5.10900,2.654957E+07
5.11713,2.671242E+07
5.12525,2.616383E+07
5.13337,2.611721E+07
5.14150,2.589177E+07
5.14962,2.629254E+07
5.15775,2.682696E+07
5.16587,2.789252E+07
5.17398,3.052418E+07
5.18212,3.412834E+07
5.19023,3.916456E+07
5.19835,4.671567E+07
5.20648,5.62637E+07
5.21460,6.680612E+07
5.22273,7.733418E+07
5.23085,8.744057E+07
5.23897,9.543191E+07
5.24710,1.028768E+08
5.25522,1.09501E+08
5.26335,1.158158E+08
5.27147,1.209019E+08
5.27958,1.206884E+08
5.28772,7.787593E+07
5.29583,3.026769E+07
5.30397,2.604317E+07
5.31208,2.591558E+07
5.32020,2.571835E+07
5.32833,2.536208E+07
5.33645,2.528582E+07
5.34457,2.483427E+07
5.35270,2.46485E+07
5.36082,2.429845E+07
5.36895,2.265298E+07
5.37707,7625680
5.38518,2696049
5.39332,2599945
5.40143,2491299
5.40957,2328281
5.41768,2230056
5.42580,2112556
5.43393,2011922
5.44205,1952948
5.45017,1921199
5.45830,1873364
5.46642,1852228
5.47455,1787001
5.48267,1705114
5.49078,1673780
5.49892,1631409
5.50703,1564534
5.51517,1505742
5.52328,1474095
5.53140,1448652
5.53953,1446944
5.54765,1412314
5.55578,1352844
5.56390,1315216
5.57202,1286050
5.58015,1252640
5.58827,1227607
5.59638,1247718
5.60452,1248450
5.61263,1253296
5.62077,1266221
5.62888,1272469
5.63700,1224780
5.64513,1157519
5.65325,1112205
5.66138,1093712
5.66950,1083648
5.67762,1059571
5.68575,1036848
5.69387,1027029
5.70200,1035068
5.71012,1001009
5.71823,990153
5.72637,988113
5.73448,978287
5.74260,971984
5.75073,958318
5.75885,976963
5.76698,924400
5.77510,868582
5.78322,842169
5.79135,834794
5.79947,832717
5.80760,844587
5.81572,823704
5.82383,803507
5.83197,783602
5.84008,780130
5.84820,762222
5.85633,776875
5.86445,767598
5.87258,735089
5.88070,731355
5.88882,701306
5.89695,704448
5.90507,700767
5.91320,706674
5.92132,705698
5.92943,706665
5.93757,709832
5.94568,739612
5.95382,743254
5.96193,780934
5.97005,878893
5.97818,997760
5.98630,1107926
5.99442,1140961
6.00255,1026741
6.01067,848930
6.01880,703715
6.02692,638253
6.03503,623459
6.04317,604411
6.05128,602373
6.05942,596754
6.06753,603713
6.07565,609976
6.08378,608958
6.09190,624450
6.10003,606019
6.10815,592316
6.11627,567287
6.12440,549495
6.13252,539001
6.14063,544506
6.14877,537997
6.15688,540534
6.16502,545271
6.17313,565694
6.18125,577151
6.18938,571840
6.19750,566407
6.20563,551012
6.21375,571814
6.22187,538336
6.23000,523436
6.23812,502559
6.24623,490584
6.25437,483442
6.26248,477213
6.27062,471318
6.27873,449552
6.28685,425012
6.29498,417881
6.30310,417516
6.31123,428540
6.31935,440125
6.32747,445157
6.33560,450203
6.34372,466221
6.35185,483418
6.35997,462051
6.36808,444822
6.37622,410341
6.38433,403442
6.39245,388010
6.40058,367963
6.40870,358947
6.41683,363575
6.42495,360980
6.43307,349452
6.44120,351592
6.44932,347168
6.45745,343566
6.46557,346295
6.47368,341130
6.48182,343114
6.48993,338267
6.49805,342857
6.50618,340802
6.51430,325804
6.52243,325572
6.53055,322343
6.53867,322604
6.54680,328047
6.55492,343072
6.56305,361047
6.57117,381470
6.57928,376570
6.58742,366197
6.59553,352377
6.60367,337582
6.61178,306726
6.61990,317696
6.62803,301080
6.63615,287092
6.64427,297640
6.65240,293691
6.66052,291832
6.66865,297635
6.67677,285821
6.68488,283435
6.69302,291389
6.70113,287108
6.70927,275872
6.71738,277247
6.72550,270052
6.73363,273831
6.74175,268788
6.74988,283495
6.75800,276832
6.76612,272663
6.77425,278490
6.78237,276860
6.79048,276651
6.79862,280796
6.80673,269921
6.81487,255794
6.82298,262441
6.83110,261844
6.83923,273739
6.84735,294785
6.85548,335664
6.86360,397643
6.87172,451854
6.87985,479556
6.88797,477392
6.89610,443097
6.90422,379861
6.91233,337841
6.92047,299177
6.92858,288680
6.93670,278386
6.94483,281453
6.95295,274464
6.96108,267565
6.96920,258299
6.97732,244214
6.98545,244875
6.99357,237253
7.00170,235834
7.00982,242710
7.01793,238730
7.02607,232920
7.03418,238352
7.04230,230055
7.05043,219267
7.05855,229696
7.06668,225551
7.07480,230705
7.08292,220752
7.09105,225107
7.09917,231073
7.10730,227069
7.11542,241814
7.12353,228733
7.13167,233785
7.13978,236803
7.14792,231482
7.15603,235082
7.16415,228230
7.17228,219088
7.18040,232413
7.18852,229227
7.19665,233038
7.20477,228840
7.21290,209431
7.22102,184909
7.22913,150121
7.23727,132515
7.24538,125253
7.25352,169813
7.26163,332100
7.26975,746055
7.27788,1715078
7.28600,3492915
7.29412,6270807
7.30225,1.000419E+07
7.31037,1.489809E+07
7.31850,2.111719E+07
7.32662,2.835751E+07
7.33473,3.603233E+07
7.34287,4.423783E+07
7.35098,5.196237E+07
7.35912,5.848751E+07
7.36723,6.562354E+07
7.37535,7.161636E+07
7.38348,7.808831E+07
7.39160,8.343294E+07
7.39973,8.90887E+07
7.40785,9.352086E+07
7.41597,9.770349E+07
7.42410,1.016762E+08
7.43222,1.04968E+08
7.44033,1.066668E+08
7.44847,8.591138E+07
7.45658,1.589521E+07
7.46472,3058770
7.47283,2473258
7.48095,2319949
7.48908,2200321
7.49720,2063043
7.50533,1954666
7.51345,1873676
7.52157,1791601
7.52970,1702084
7.53782,1667242
7.54595,1609426
7.55407,1514135
7.56218,1479918
7.57032,1421720
7.57843,1382191
7.58655,1321429
7.59468,1296111
7.60280,1244432
7.61093,1214160
7.61905,1175283
7.62717,1140976
7.63530,1108960
7.64342,1097166
7.65155,1073229
7.65967,1044258
7.66778,1031983
7.67592,1009601
7.68403,983990
7.69215,964223
7.70028,939208
7.70840,926066
7.71653,887720
7.72465,842981
7.73277,841606
7.74090,809606
7.74902,822213
7.75715,772499
7.76527,804609
7.77338,793746
7.78152,777160
7.78963,790023
7.79777,758381
7.80588,728210
7.81400,717485
7.82213,697894
7.83025,682556
7.83837,662857
7.84650,656230
7.85462,648522
7.86275,629288
7.87087,628637
7.87898,645900
7.88712,636676
7.89523,632397
7.90337,628575
7.91148,600119
7.91960,583732
7.92773,575597
7.93585,552996
7.94398,543656
7.95210,545689
7.96022,527969
7.96835,508736
7.97647,499500
7.98458,496472
7.99272,496963
8.00083,496192
8.00897,491030
8.01708,482869
8.02520,491925
8.03333,481243
8.04145,486000
8.04958,479645
8.05770,477316
8.06582,456101
8.07395,441355
8.08207,438165
8.09018,431632
8.09832,438330
8.10643,439048
8.11457,436436
8.12268,431978
8.13080,425244
8.13893,417036
8.14705,413768
8.15518,421506
8.16330,415974
8.17142,415804
8.17955,403411
8.18767,407089
8.19580,396804
8.20392,394690
8.21203,391679
8.22017,376147
8.22828,373548
8.23640,373053
8.24453,380557
8.25265,378252
8.26078,376471
8.26890,380747
8.27702,380426
8.28515,386332
8.29327,387409
8.30140,386395
8.30952,375485
8.31763,349249
8.32577,344151
8.33388,331667
8.34200,332930
8.35013,312091
8.35825,322859
8.36638,329089
8.37450,323765
8.38262,325717
8.39075,325694
8.39887,311657
8.40700,310977
8.41512,310690
8.42323,300763
8.43137,303626
8.43948,305496
8.44762,301357
8.45573,293552
8.46385,303925
8.47198,292562
8.48010,293388
8.48822,287778
8.49635,289106
8.50447,281789
8.51260,276922
8.52072,272977
8.52883,270052
8.53697,277531
8.54508,288461
8.55322,288028
8.56133,302154
8.56945,296981
8.57758,292511
8.58570,287082
8.59383,281759
8.60195,280403
8.61007,274768
8.61820,267910
8.62632,274348
8.63443,280940
8.64257,271978
8.65068,266928
8.65882,267000
8.66693,261023
8.67505,252307
8.68318,252449
8.69130,250654
8.69943,260098
8.70755,279118
8.71567,301193
8.72380,313833
8.73192,319478
8.74003,287231
8.74817,272716
8.75628,248568
8.76442,215149
8.77253,182007
8.78065,160873
8.78878,141424
8.79690,153027
8.80503,173149
8.81315,198986
8.82127,249624
8.82940,271674
8.83752,285214
8.84565,267450
8.85377,234203
8.86188,190897
8.87002,167061
8.87813,147442
8.88625,131456
8.89438,126740
8.90250,119223
8.91063,115702
8.91875,106037
8.92687,108815
8.93500,105260
8.94312,108708
8.95125,102483
8.95937,104441
8.96748,99069
8.97562,102644
8.98373,104305
8.99187,107565
8.99998,111035
9.00810,109845
9.01623,105254
9.02435,100128
9.03247,98376
9.04060,97508
9.04872,95497
9.05685,95973
9.06497,94019
9.07308,92071
9.08122,94198
9.08933,103457
9.09747,105883
9.10558,111472
9.11370,124531
9.12183,124322
9.12995,133381
9.13807,135711
9.14620,124011
9.15432,117461
9.16245,112576
9.17057,110581
9.17868,102335
9.18682,98636
9.19493,102319
9.20307,101354
9.21118,100440
9.21930,102130
9.22743,106846
9.23555,100877
9.24368,96119
9.25180,92425
9.25992,98881
9.26805,91008
9.27617,98683
9.28428,96132
9.29242,96848
9.30053,97342
9.30867,90062
9.31678,90260
9.32490,85424
9.33303,90345
9.34115,89510
9.34928,89488
9.35740,90443
9.36552,89707
9.37365,88518
9.38177,86494
9.38988,92347
9.39802,92659
9.40613,86422
9.41427,88280
9.42238,83197
9.43050,85408
9.43863,88577
9.44675,87257
9.45488,86675
9.46300,80616
9.47112,89687
9.47925,86737
9.48737,90551
9.49550,95718
9.50362,96095
9.51173,96480
9.51987,105641
9.52798,104306
9.53610,123289
9.54423,142911
9.55235,167281
9.56048,182257
9.56860,205608
9.57672,191273
9.58485,168165
9.59297,151985
9.60110,119952
9.60922,112180
9.61733,98845
9.62547,89653
9.63358,89123
9.64172,88081
9.64983,89209
9.65795,86541
9.66608,82445
9.67420,93980
9.68232,92770
9.69045,92397
9.69857,94020
9.70670,90779
9.71482,85118
9.72293,90047
9.73107,85053
9.73918,82994
9.74732,86103
9.75543,90160
9.76355,87937
9.77168,90691
9.77980,91140
9.78792,91369
9.79605,95522
9.80417,93025
9.81230,82470
9.82042,85756
9.82853,90209
9.83667,87503
9.84478,88615
9.85292,80657
9.86103,81738
9.86915,90650
9.87728,86460
9.88540,82661
9.89353,89903
9.90165,86439
9.90977,89799
9.91790,82991
9.92602,88476
9.93413,83360
9.94227,85219
9.95038,85923
9.95852,101857
9.96663,129649
9.97475,228497
9.98288,468706
9.99100,983474
9.99913,1877870
10.00725,3256824
10.01537,5247205
10.02350,7911069
10.03162,1.125509E+07
10.03975,1.527646E+07
10.04787,1.994026E+07
10.05598,2.507151E+07
10.06412,3.068088E+07
10.07223,3.638222E+07
10.08035,4.243456E+07
10.08848,4.728584E+07
10.09660,5.205556E+07
10.10473,5.650762E+07
10.11285,6.1796E+07
10.12097,6.623649E+07
10.12910,7.042311E+07
10.13722,7.47943E+07
10.14535,7.937378E+07
10.15347,8.354388E+07
10.16158,8.710746E+07
10.16972,9.028522E+07
10.17783,9.329833E+07
10.18595,9.579158E+07
10.19408,9.956421E+07
10.20220,1.012627E+08
10.21033,8.224232E+07
10.21845,1.846578E+07
10.22657,2708048
10.23470,1828829
10.24282,1692089
10.25095,1581367
10.25907,1490590
10.26718,1440528
10.27532,1356483
10.28343,1305495
10.29157,1258933
10.29968,1191790
10.30780,1156966
10.31593,1105700
10.32405,1072470
10.33217,1005959
10.34030,992669
10.34842,958332
10.35655,929259
10.36467,893921
10.37278,866108
10.38092,831674
10.38903,828364
10.39717,798338
10.40528,791930
10.41340,765524
10.42153,740796
10.42965,740606
10.43778,725843
10.44590,695085
10.45402,673296
10.46215,656871
10.47027,643774
10.47838,641968
10.48652,618990
10.49463,616391
10.50277,597593
10.51088,599064
10.51900,595684
10.52713,575521
10.53525,564696
10.54338,534030
10.55150,528315
10.55962,530808
10.56775,519456
10.57587,509209
10.58398,497895
10.59212,495126
10.60023,480920
10.60837,479018
10.61648,476448
10.62460,451784
10.63273,454407
10.64085,433186
10.64898,437275
10.65710,428493
10.66522,427564
10.67335,405502
10.68147,406705
10.68960,415474
10.69772,404762
10.70583,398386
10.71397,391914
10.72208,411138
10.73020,390313
10.73833,390480
10.74645,393495
10.75458,390825
10.76270,390383
10.77082,392872
10.77895,400574
10.78707,429193
10.79520,447342
10.80332,455113
10.81143,444635
10.81957,415252
10.82768,384941
10.83580,368255
10.84393,338277
10.85205,313054
10.86018,308237
10.86830,309033
10.87642,307466
10.88455,309019
10.89267,296252
10.90080,291883
10.90892,286658
10.91703,282273
10.92517,270449
10.93328,251501
10.94142,224597
10.94953,197689
10.95765,158164
10.96578,130676
10.97390,118928
10.98202,114946
10.99015,113327
10.99827,107047
11.00640,102600
11.01452,96785
11.02263,93435
11.03077,85926
11.03888,86982
11.04702,85983
11.05513,85636
11.06325,86057
11.07138,90944
11.07950,86755
11.08763,86673
11.09575,81033
11.10387,82207
11.11200,77796
11.12012,80317
11.12823,78393
11.13637,83085
11.14448,79117
11.15262,83974
11.16073,86720
11.16885,88725
11.17698,95634
11.18510,99030
11.19323,93648
11.20135,93156
11.20947,85971
11.21760,82534
11.22572,85756
11.23383,80656
11.24197,81659
11.25008,76592
11.25822,85075
11.26633,87468
11.27445,88418
11.28258,89745
11.29070,91068
11.29883,97770
11.30695,95370
11.31507,99682
11.32320,106918
11.33132,116966
11.33945,121237
11.34757,120445
11.35568,116134
11.36382,107771
11.37193,99501
11.38005,98383
11.38818,87253
11.39630,88242
11.40443,86462
11.41255,88544
11.42067,91192
11.42880,94170
11.43692,90485
11.44505,85681
11.45317,86877
11.46128,84673
11.46942,81501
11.47753,79687
11.48567,79894
11.49378,87302
11.50190,84357
11.51003,88105
11.51815,95570
11.52627,99585
11.53440,95818
11.54252,93678
11.55065,92202
11.55877,87549
11.56688,90979
11.57502,96624
11.58313,105140
11.59127,105835
11.59938,109107
11.60750,111286
11.61563,111664
11.62375,105450
11.63187,98148
11.64000,91768
11.64812,84964
11.65625,86844
11.66437,79300
11.67248,81937
11.68062,83906
11.68873,91067
11.69687,100678
11.70498,109968
11.71310,117080
11.72123,114401
11.72935,106529
11.73748,103907
11.74560,91447
11.75372,101907
11.76185,100679
11.76997,103352
11.77808,116290
11.78622,117155
11.79433,119401
11.80247,122442
11.81058,117267
11.81870,114064
11.82683,102721
11.83495,93570
11.84308,95091
11.85120,99601
11.85932,109855
11.86745,112733
11.87557,114146
11.88368,117241
11.89182,109528
11.89993,101149
11.90807,94459
11.91618,93768
11.92430,98096
11.93243,94091
11.94055,90897
11.94868,84139
11.95680,84384
11.96492,85052
11.97305,78815
11.98117,77958
11.98930,78895
11.99742,81846
12.00553,85841
12.01367,87206
12.02178,90392
12.02990,94699
12.03803,96628
12.04615,98676
12.05428,99528
12.06240,96332
12.07052,102820
12.07865,106810
12.08677,107832
12.09490,114323
12.10302,114297
12.11113,119232
12.11927,112786
12.12738,101420
12.13552,96908
12.14363,102312
12.15175,98609
12.15988,97025
12.16800,94998
12.17612,97933
12.18425,88913
12.19237,84547
12.20050,77839
12.20862,76296
12.21673,74874
12.22487,73964
12.23298,73664
12.24112,75809
12.24923,79398
12.25735,81589
12.26548,84148
12.27360,82141
12.28172,83044
12.28985,87363
12.29797,84088
12.30610,83470
12.31422,78781
12.32233,77441
12.33047,79705
12.33858,70971
12.34672,76086
12.35483,77407
12.36295,69087
12.37108,74538
12.37920,69560
12.38733,69378
12.39545,66653
12.40357,71482
12.41170,68998
12.41982,73091
12.42793,78195
12.43607,87439
12.44418,109868
12.45232,155874
12.46043,205433
12.46855,228987
12.47668,238248
12.48480,202183
12.49293,164940
12.50105,119507
12.50917,95396
12.51730,79553
12.52542,76421
12.53355,76390
12.54167,71971
12.54978,71283
12.55792,70185
12.56603,71957
12.57415,71037
12.58228,71571
12.59040,73510
12.59853,70504
12.60665,70413
12.61477,72352
12.62290,77817
12.63102,75420
12.63915,77743
12.64727,79589
12.65538,82165
12.66352,84286
12.67163,89098
12.67975,98955
12.68788,114906
12.69600,130218
12.70413,131885
12.71225,130454
12.72037,124426
12.72850,120776
12.73662,106744
12.74475,101272
12.75287,87948
12.76098,82795
12.76912,76318
12.77723,76920
12.78537,73333
12.79348,84126
12.80160,76487
12.80973,74538
12.81785,73065
12.82597,77345
12.83410,74682
12.84222,74963
12.85035,75969
12.85847,78426
12.86658,81774
12.87472,77814
12.88283,80609
12.89097,72589
12.89908,73899
12.90720,66830
12.91533,75025
12.92345,75285
12.93157,76132
12.93970,78104
12.94782,83661
12.95595,85564
12.96407,89272
12.97218,86601
12.98032,87506
12.98843,82455
12.99657,86863
13.00468,97692
13.01280,132550
13.02093,238950
13.02905,461910
13.03718,881456
13.04530,1585196
13.05342,2591272
13.06155,3861234
13.06967,5520615
13.07778,7551681
13.08592,9911786
13.09403,1.299078E+07
13.10217,1.667542E+07
13.11028,2.069177E+07
13.11840,2.509879E+07
13.12653,3.021607E+07
13.13465,3.47602E+07
13.14278,3.99993E+07
13.15090,4.427515E+07
13.15902,4.811892E+07
13.16715,5.220074E+07
13.17527,5.635962E+07
13.18340,6.055315E+07
13.19152,6.466686E+07
13.19963,6.810402E+07
13.20777,7.134307E+07
13.21588,7.579537E+07
13.22400,7.948465E+07
13.23213,8.316918E+07
13.24025,8.590161E+07
13.24838,8.885204E+07
13.25650,9.152652E+07
13.26462,9.45285E+07
13.27275,9.686222E+07
13.28087,9.726913E+07
13.28900,8.191304E+07
13.29712,2.31298E+07
13.30523,2686051
13.31337,1292584
13.32148,1185662
13.32962,1135004
13.33773,1049710
13.34585,994095
13.35398,942899
13.36210,912089
13.37022,859364
13.37835,826897
13.38647,791040
13.39460,754557
13.40272,726205
13.41083,698223
13.41897,669208
13.42708,645302
13.43522,628809
13.44333,615427
13.45145,600388
13.45958,572560
13.46770,581587
13.47582,535294
13.48395,539166
13.49207,510465
13.50020,509090
13.50832,497961
13.51643,488480
13.52457,460501
13.53268,438355
13.54082,443041
13.54893,429745
13.55705,430252
13.56518,416731
13.57330,406823
13.58143,387360
13.58955,392309
13.59767,348140
13.60580,314171
13.61392,281712
13.62203,224461
13.63017,183336
13.63828,144875
13.64642,108659
13.65453,94152
13.66265,88128
13.67078,90841
13.67890,87053
13.68703,82396
13.69515,78205
13.70327,80407
13.71140,79064
13.71952,79792
13.72763,77612
13.73577,77445
13.74388,80929
13.75202,79142
13.76013,89716
13.76825,93178
13.77638,90222
13.78450,92102
13.79263,90742
13.80075,87145
13.80887,82190
13.81700,79400
13.82512,75593
13.83325,81452
13.84137,82704
13.84948,83418
13.85762,96593
13.86573,100974
13.87385,105339
13.88198,107806
13.89010,99560
13.89823,99356
13.90635,85213
13.91447,75735
13.92260,72992
13.93072,73726
13.93885,74525
13.94697,79314
13.95508,79483
13.96322,77497
13.97133,76999
13.97947,79101
13.98758,84771
13.99570,80518
14.00383,74586
14.01195,82835
14.02007,82207
14.02820,82028
14.03632,91506
14.04445,86118
14.05257,84049
14.06068,80783
14.06882,77845
14.07693,75383
14.08507,80119
14.09318,82449
14.10130,89866
14.10943,91887
14.11755,92692
14.12567,89522
14.13380,89205
14.14192,95650
14.15005,106882
14.15817,134896
14.16628,182104
14.17442,222526
14.18253,259581
14.19067,259916
14.19878,231863
14.20690,182953
14.21503,139175
14.22315,102394
14.23128,88295
14.23940,83283
14.24752,75932
14.25565,75881
14.26377,73924
14.27188,81243
14.28002,73684
14.28813,70012
14.29627,76561
14.30438,75136
14.31250,74756
14.32063,75349
14.32875,70371
14.33688,74528
14.34500,79773
14.35312,77378
14.36125,78883
14.36937,83053
14.37750,77054
14.38562,82476
14.39373,74927
14.40187,72560
14.40998,72140
14.41810,67053
14.42623,66596
14.43435,66511
14.44248,68722
14.45060,64685
14.45872,70121
14.46685,72816
14.47497,61451
14.48310,67301
14.49122,66390
14.49933,67076
14.50747,71070
14.51558,71097
14.52370,72546
14.53183,71020
14.53995,73331
14.54808,72392
14.55620,71331
14.56432,71867
14.57245,69586
14.58057,65304
14.58870,59906
14.59682,66779
14.60493,58853
14.61307,65820
14.62118,69167
14.62932,61836
14.63743,59691
14.64555,64719
14.65368,57840
14.66180,58281
14.66992,59113
14.67805,60260
14.68617,63384
14.69430,61195
14.70242,67556
14.71053,70826
14.71867,73013
14.72678,77450
14.73492,80068
14.74303,79146
14.75115,73103
14.75928,72868
14.76740,66842
14.77552,67364
14.78365,63926
14.79177,70546
14.79990,76179
14.80802,81029
14.81613,87115
14.82427,80595
14.83238,81793
14.84052,78690
14.84863,84972
14.85675,88114
14.86488,90920
14.87300,113360
14.88113,126996
14.88925,171268
14.89737,216862
14.90550,263677
14.91362,329623
14.92173,372170
14.92987,408646
14.93798,404072
14.94612,373950
14.95423,320271
14.96235,262913
14.97048,194711
14.97860,158742
14.98673,133120
14.99485,107095
15.00297,94368
15.01110,91078
15.01922,80415
15.02735,76157
15.03547,72607
15.04358,70034
15.05172,67663
15.05983,66237
15.06795,62363
15.07608,59652
15.08420,67633
15.09233,65119
15.10045,66197
15.10857,66531
15.11670,64329
15.12482,72901
15.13295,66237
15.14107,67984
15.14918,66685
15.15732,66255
15.16543,73317
15.17355,82367
15.18168,83036
15.18980,98979
15.19793,97997
15.20605,94493
15.21417,100833
15.22230,95058
15.23042,102125
15.23855,105326
15.24667,117956
15.25478,127387
15.26292,130576
15.27103,118382
15.27917,106835
15.28728,97735
15.29540,85802
15.30353,78289
15.31165,70014
15.31977,67341
15.32790,64282
15.33602,61476
15.34415,58182
15.35227,59627
15.36038,59544
15.36852,55343
15.37663,55798
15.38477,60059
15.39288,62012
15.40100,61212
15.40913,56585
15.41725,60092
15.42538,53411
15.43350,57731
15.44162,56831
15.44975,55755
15.45787,56421
15.46598,59871
15.47412,58781
15.48223,62021
15.49037,64118
15.49848,65776
15.50660,63841
15.51473,64445
15.52285,64723
15.53098,63746
15.53910,62456
15.54722,58707
15.55535,66353
15.56347,57385
15.57158,60921
15.57972,56789
15.58783,56435
15.59597,57570
15.60408,52655
15.61220,53351
15.62033,54080
15.62845,52158
15.63658,52645
15.64470,54700
15.65282,56046
15.66095,62948
15.66907,60078
15.67720,59592
15.68532,59658
15.69343,60732
15.70157,59265
15.70968,59655
15.71780,60152
15.72593,57008
15.73405,68406
15.74218,64009
15.75030,67799
15.75842,62940
15.76655,61934
15.77467,57603
15.78280,58235
15.79092,57321
15.79903,53878
15.80717,53291
15.81528,51542
15.82342,53357
15.83153,56013
15.83965,55658
15.84778,53575
15.85590,55930
15.86402,54971
15.87215,55359
15.88027,51667
15.88840,54107
15.89652,58698
15.90463,57265
15.91277,53055
15.92088,52638
15.92902,56708
15.93713,51591
15.94525,55128
15.95338,57987
15.96150,60059
15.96962,59806
15.97775,62243
15.98587,60758
15.99400,57058
16.00212,60331
16.01023,63671
16.01837,64988
16.02648,67107
16.03462,60963
16.04273,66295
16.05085,59798
16.05898,59994
16.06710,62445
16.07523,66930
16.08335,66241
16.09147,74824
16.09960,69942
16.10772,71243
16.11583,70439
16.12397,64049
16.13208,73854
16.14022,88590
16.14833,122173
16.15645,200093
16.16458,379727
16.17270,700136
16.18083,1226665
16.18895,2053141
16.19707,2969802
16.20520,4133051
16.21332,5439185
16.22143,6973232
16.22957,8819342
16.23768,1.120878E+07
16.24582,1.416054E+07
16.25393,1.755045E+07
16.26205,2.172089E+07
16.27018,2.628572E+07
16.27830,3.052659E+07
16.28643,3.45952E+07
16.29455,3.91987E+07
16.30267,4.398296E+07
16.31080,4.816502E+07
16.31892,5.232212E+07
16.32705,5.621087E+07
16.33517,5.968169E+07
16.34328,6.29731E+07
16.35142,6.625707E+07
16.35953,7.026991E+07
16.36765,7.464321E+07
16.37578,7.832816E+07
16.38390,8.162823E+07
16.39203,8.441969E+07
16.40015,8.751186E+07
16.40827,8.936642E+07
16.41640,9.329416E+07
16.42452,9.578524E+07
16.43265,9.773834E+07
16.44077,9.382113E+07
16.44888,5.688955E+07
16.45702,8541840
16.46513,1399086
16.47327,880451
16.48138,805549
16.48950,751960
16.49763,702758
16.50575,650059
16.51387,590748
16.52200,531723
16.53012,457629
16.53825,364733
16.54637,291085
16.55448,218562
16.56262,174531
16.57073,129453
16.57887,112313
16.58698,102399
16.59510,93844
16.60323,88467
16.61135,90179
16.61947,81625
16.62760,80077
16.63572,79805
16.64385,80237
16.65197,79202
16.66008,78637
16.66822,78317
16.67633,81854
16.68447,76816
16.69258,75563
16.70070,78007
16.70883,71746
16.71695,75038
16.72508,68340
16.73320,73862
16.74132,72804
16.74945,68286
16.75757,67142
16.76568,69978
16.77382,65808
16.78193,74906
16.79007,70188
16.79818,66488
16.80630,71830
16.81443,69216
16.82255,69342
16.83068,69974
16.83880,66899
16.84692,67099
16.85505,68095
16.86317,67484
16.87130,62887
16.87942,65188
16.88753,76597
16.89567,68763
16.90378,80212
16.91190,79571
16.92003,82861
16.92815,87289
16.93628,85170
16.94440,92807
16.95252,81436
16.96065,75219
16.96877,76329
16.97690,74526
16.98502,70791
16.99313,66527
17.00127,72977
17.00938,67025
17.01750,66585
17.02563,72965
17.03375,73685
17.04188,73985
17.05000,74270
17.05812,73145
17.06625,66602
17.07437,66658
17.08250,67310
17.09062,67831
17.09873,66199
17.10687,65615
17.11498,64254
17.12312,67596
17.13123,70174
17.13935,65435
17.14748,67032
17.15560,66732
17.16372,70509
17.17185,64743
17.17997,64517
17.18810,62955
17.19622,59552
17.20433,60501
17.21247,59442
17.22058,63235
17.22872,64579
17.23683,63020
17.24495,69147
17.25308,67234
17.26120,75611
17.26932,73289
17.27745,83747
17.28557,85976
17.29370,87562
17.30182,89048
17.30993,84113
17.31807,81918
17.32618,74172
17.33432,74406
17.34243,73003
17.35055,68193
17.35868,73347
17.36680,72536
17.37493,72673
17.38305,72313
17.39117,72734
17.39930,75245
17.40742,75401
17.41553,71047
17.42367,73543
17.43178,70293
17.43992,72760
17.44803,79920
17.45615,80636
17.46428,97994
17.47240,114570
17.48053,129912
17.48865,157286
17.49677,178441
17.50490,195134
17.51302,210616
17.52115,221471
17.52927,202437
17.53738,196435
17.54552,172968
17.55363,154322
17.56175,141786
17.56988,127403
17.57800,122685
17.58613,116237
17.59425,114084
17.60237,108321
17.61050,104667
17.61862,91459
17.62675,97686
17.63487,94033
17.64298,83563
17.65112,91421
17.65923,90826
17.66737,98384
17.67548,105029
17.68360,107658
17.69173,116240
17.69985,119913
17.70797,123283
17.71610,112900
17.72422,116833
17.73235,111011
17.74047,97119
17.74858,96888
17.75672,93473
17.76483,90713
17.77297,79572
17.78108,77244
17.78920,78551
17.79733,72387
17.80545,77033
17.81357,77779
17.82170,75356
17.82982,71956
17.83795,70868
17.84607,65725
17.85418,74077
17.86232,73989
17.87043,70221
17.87857,81201
17.88668,80177
17.89480,80618
17.90293,95492
17.91105,95154
17.91918,108534
17.92730,115860
17.93542,126810
17.94355,132492
17.95167,126859
17.95978,125180
17.96792,112443
17.97603,104062
17.98417,102006
17.99228,109878
18.00040,115207
18.00853,128971
18.01665,151983
18.02478,180633
18.03290,214692
18.04102,234191
18.04915,256729
18.05727,250051
18.06538,238398
18.07352,220247
18.08163,195090
18.08977,166689
18.09788,152265
18.10600,137610
18.11413,128226
18.12225,125452
18.13038,122531
18.13850,120146
18.14662,114429
18.15475,105741
18.16287,96145
18.17100,91054
18.17912,83593
18.18723,85682
18.19537,81173
18.20348,82696
18.21160,91843
18.21973,97992
18.22785,106933
18.23598,113042
18.24410,107455
18.25222,106943
18.26035,105787
18.26847,102142
18.27660,101980
18.28472,92313
18.29283,87310
18.30097,80715
18.30908,77032
18.31722,88117
18.32533,85061
18.33345,95325
18.34158,107969
18.34970,119427
18.35782,134964
18.36595,157516
18.37407,164646
18.38220,174581
18.39032,175534
18.39843,172865
18.40657,154750
18.41468,142169
18.42282,129144
18.43093,112543
18.43905,103862
18.44718,98405
18.45530,87315
18.46342,87855
18.47155,82816
18.47967,81068
18.48780,81778
18.49592,87134
18.50403,91732
18.51217,92690
18.52028,96790
18.52842,93282
18.53653,90340
18.54465,102379
18.55278,97450
18.56090,93733
18.56903,87988
18.57715,85622
18.58527,77441
18.59340,73934
18.60152,73338
18.60963,74436
18.61777,69458
18.62588,70654
18.63402,70970
18.64213,66520
18.65025,71031
18.65838,69162
18.66650,70295
18.67463,68708
18.68275,76374
18.69087,72485
18.69900,75807
18.70712,77475
18.71525,83064
18.72337,87855
18.73148,90398
18.73962,94866
18.74773,95234
18.75585,85390
18.76398,88163
18.77210,83838
18.78023,80600
18.78835,82724
18.79647,81813
18.80460,79049
18.81272,80532
18.82085,85043
18.82897,83221
18.83708,85653
18.84522,82976
18.85333,84322
18.86145,92332
18.86958,96505
18.87770,105046
18.88583,115118
18.89395,115639
18.90207,112253
18.91020,105467
18.91832,91231
18.92645,87198
18.93457,80572
18.94268,83624
18.95082,84404
18.95893,82837
18.96707,83649
18.97518,80797
18.98330,79293
18.99143,80254
18.99955,81109
19.00767,74303
19.01580,71847
19.02392,74341
19.03205,72094
19.04017,69070
19.04828,69417
19.05642,71812
19.06453,75357
19.07267,76638
19.08078,75708
19.08890,71896
19.09703,77066
19.10515,74464
19.11327,81935
19.12140,78453
19.12952,78463
19.13765,81585
19.14577,82505
19.15388,88469
19.16202,85298
19.17013,94726
19.17827,101171
19.18638,99005
19.19450,112361
19.20263,119023
19.21075,138979
19.21888,146911
19.22700,180569
19.23512,220714
19.24325,313208
19.25137,472470
19.25948,733660
19.26762,1154227
19.27573,1717702
19.28387,2461383
19.29198,3296513
19.30010,4247006
19.30823,5080297
19.31635,6262257
19.32448,7775114
19.33260,9909559
19.34072,1.253911E+07
19.34885,1.554952E+07
19.35697,1.941124E+07
19.36510,2.394481E+07
19.37322,2.792452E+07
19.38133,3.195586E+07
19.38947,3.615474E+07
19.39758,4.062971E+07
19.40570,4.505754E+07
19.41383,4.92835E+07
19.42195,5.315985E+07
19.43008,5.645779E+07
19.43820,6.097542E+07
19.44632,6.591942E+07
19.45445,6.828269E+07
19.46257,7.117018E+07
19.47070,7.490537E+07
19.47882,7.892577E+07
19.48693,8.152982E+07
19.49507,8.501082E+07
19.50318,8.789226E+07
19.51130,9.060895E+07
19.51943,9.363549E+07
19.52755,9.501902E+07
19.53568,9.665182E+07
19.54380,9.110477E+07
19.55192,5.093597E+07
19.56005,7647043
19.56817,877675
19.57630,318772
19.58442,235564
19.59253,209179
19.60067,192542
19.60878,171292
19.61692,162441
19.62503,160478
19.63315,146807
19.64128,140689
19.64940,134465
19.65752,132121
19.66565,120196
19.67377,118952
19.68190,117081
19.69002,111573
19.69813,104814
19.70627,104824
19.71438,104201
19.72252,109414
19.73063,96677
19.73875,103860
19.74688,105531
19.75500,112979
19.76313,115008
19.77125,111297
19.77937,102888
19.78750,106477
19.79562,102211
19.80373,103117
19.81187,100777
19.81998,101698
19.82812,100825
19.83623,99834
19.84435,97385
19.85248,101653
19.86060,101649
19.86873,99263
19.87685,99322
19.88497,101459
19.89310,97089
19.90122,90718
19.90933,93059
19.91747,94023
19.92558,90475
19.93372,94003
19.94183,91784
19.94995,95785
19.95808,108772
19.96620,108037
19.97433,119065
19.98245,122265
19.99057,129610
19.99870,135863
20.00682,128548
20.01495,122879
20.02307,117159
20.03118,123233
20.03932,124492
20.04743,138116
20.05555,159578
20.06368,158399
20.07180,161563
20.07993,162919
20.08805,170501
20.09617,154944
20.10430,149880
20.11242,147675
20.12055,144019
20.12867,129333
20.13678,115119
20.14492,108247
20.15303,110010
20.16115,103502
20.16928,105196
20.17740,101427
20.18553,106479
20.19365,97489
20.20177,106534
20.20990,102354
20.21802,105698
20.22615,105403
20.23427,113111
20.24238,112888
20.25052,119853
20.25863,112869
20.26677,115664
20.27488,112349
20.28300,107583
20.29113,110388
20.29925,104897
20.30737,103589
20.31550,99922
20.32362,94155
20.33175,98554
20.33987,91102
20.34798,79591
20.35612,90742
20.36423,83285
20.37237,80798
20.38048,82081
20.38860,81010
20.39673,83186
20.40485,85158
20.41298,87605
20.42110,88586
20.42922,90912
20.43735,92584
20.44547,99812
20.45358,96588
20.46172,94338
20.46983,96487
20.47797,98224
20.48608,88519
20.49420,87378
20.50233,86610
20.51045,88287
20.51858,90450
20.52670,90512
20.53482,89690
20.54295,98080
20.55107,99985
20.55918,104937
20.56732,109104
20.57543,111137
20.58357,109287
20.59168,114556
20.59980,114051
20.60793,105582
20.61605,109156
20.62418,98226
20.63230,100121
20.64042,94718
20.64855,90539
20.65667,92074
20.66480,84555
20.67292,84656
20.68103,81462
20.68917,77603
20.69728,83025
20.70540,84007
20.71353,75844
20.72165,84212
20.72978,88706
20.73790,89429
20.74602,92640
20.75415,91707
20.76227,101178
20.77040,107449
20.77852,99630
20.78663,105418
20.79477,103967
20.80288,102744
20.81102,97560
20.81913,89947
20.82725,87257
20.83538,81053
20.84350,82218
20.85162,82915
20.85975,76811
20.86787,82932
20.87600,83786
20.88412,79398
20.89223,88909
20.90037,82212
20.90848,86283
20.91662,82942
20.92473,83028
20.93285,88562
20.94098,90210
20.94910,89473
20.95722,93488
20.96535,85626
20.97347,87685
20.98160,88853
20.98972,87100
20.99783,85442
21.00597,90364
21.01408,90224
21.02222,100961
21.03033,109700
21.03845,127755
21.04658,161799
21.05470,186089
21.06283,225861
21.07095,251078
21.07907,273526
21.08720,277815
21.09532,271331
21.10343,246311
21.11157,217398
21.11968,189722
21.12782,168954
21.13593,149680
21.14405,137400
21.15218,126640
21.16030,114837
21.16843,106927
21.17655,104256
21.18467,99898
21.19280,96127
21.20092,91861
21.20905,89242
21.21717,83636
21.22528,87701
21.23342,77034
21.24153,80190
21.24965,81522
21.25778,82469
21.26590,79946
21.27403,83649
21.28215,81924
21.29027,88196
21.29840,81699
21.30652,80964
21.31465,80017
21.32277,80907
21.33088,75837
21.33902,79030
21.34713,79016
21.35525,83649
21.36338,87916
21.37150,87081
21.37963,94727
21.38775,101565
21.39587,112095
21.40400,118468
21.41212,128488
21.42025,131018
21.42837,134701
21.43648,133443
21.44462,125493
21.45273,125440
21.46087,106436
21.46898,107525
21.47710,88782
21.48523,86547
21.49335,80200
21.50147,80722
21.50960,74363
21.51772,77140
21.52585,78725
21.53397,81039
21.54208,86044
21.55022,93952
21.55833,97330
21.56647,101104
21.57458,98834
21.58270,101694
21.59083,93403
21.59895,91343
21.60707,87574
21.61520,84496
21.62332,80559
21.63145,76813
21.63957,79965
21.64768,73480
21.65582,72431
21.66393,67650
21.67207,72849
21.68018,77290
21.68830,74178
21.69643,78113
21.70455,77452
21.71268,71951
21.72080,73982
21.72892,72574
21.73705,71571
21.74517,76001
21.75328,74510
21.76142,71717
21.76953,71159
21.77767,71145
21.78578,70105
21.79390,69947
21.80203,67237
21.81015,68216
21.81828,68075
21.82640,66870
21.83452,68005
21.84265,65586
21.85077,65920
21.85890,69507
21.86702,63403
21.87513,65491
21.88327,65269
21.89138,71110
21.89950,69378
21.90763,74243
21.91575,75017
21.92388,82321
21.93200,82413
21.94012,88473
21.94825,85867
21.95637,86617
21.96450,85966
21.97262,84190
21.98073,79070
21.98887,74346
21.99698,74370
22.00510,76206
22.01323,73333
22.02135,77147
22.02948,79236
22.03760,74548
22.04572,75346
22.05385,71874
22.06197,71292
22.07010,66619
22.07822,73319
22.08633,67388
22.09447,74009
22.10258,66343
22.11072,72977
22.11883,74141
22.12695,73449
22.13508,83107
22.14320,80896
22.15132,80832
22.15945,88592
22.16757,94154
22.17570,96527
22.18382,110636
22.19193,119046
22.20007,135954
22.20818,166611
22.21632,207692
22.22443,278392
22.23255,380707
22.24068,552038
22.24880,822201
22.25693,1167506
22.26505,1625449
22.27317,2165751
22.28130,2778790
22.28942,3547766
22.29753,4313109
22.30567,5290934
22.31378,6367651
22.32192,8126961
22.33003,1.004265E+07
22.33815,1.268049E+07
22.34628,1.601929E+07
22.35440,1.993393E+07
22.36253,2.409993E+07
22.37065,2.836517E+07
22.37877,3.258177E+07
22.38690,3.685914E+07
22.39502,3.996965E+07
22.40313,4.463126E+07
22.41127,4.898214E+07
22.41938,5.309973E+07
22.42752,5.753165E+07
22.43563,6.136881E+07
22.44375,6.510298E+07
22.45188,6.896615E+07
22.46000,7.242792E+07
22.46813,7.582086E+07
22.47625,7.882426E+07
22.48437,8.177618E+07
22.49250,8.44721E+07
22.50062,8.757668E+07
22.50875,9.069939E+07
22.51687,9.333906E+07
22.52498,9.589658E+07
22.53312,9.692602E+07
22.54123,8.631244E+07
22.54935,4.029561E+07
22.55748,6193363
22.56560,972565
22.57373,392722
22.58185,289124
22.58997,238147
22.59810,210353
22.60622,182578
22.61435,179235
22.62247,159069
22.63058,150178
22.63872,137816
22.64683,137428
22.65495,127190
22.66308,127666
22.67120,121434
22.67933,113046
22.68745,111085
22.69557,108610
22.70370,104499
22.71182,101496
22.71995,103224
22.72807,102239
22.73618,96885
22.74432,95351
22.75243,91545
22.76057,95174
22.76868,89320
22.77680,93758
22.78493,91387
22.79305,92082
22.80117,89938
22.80930,91287
22.81742,92847
22.82555,97809
22.83367,95046
22.84178,109515
22.84992,115005
22.85803,132651
22.86617,136811
22.87428,151300
22.88240,150772
22.89053,147382
22.89865,142611
22.90678,131076
22.91490,115196
22.92302,110763
22.93115,108078
22.93927,104781
22.94738,101515
22.95552,98068
22.96363,98482
22.97177,96342
22.97988,94488
22.98800,91144
22.99613,88602
23.00425,89503
23.01238,88262
23.02050,87191
23.02862,90701
23.03675,92638
23.04487,93097
23.05300,97760
23.06112,89319
23.06923,96457
23.07737,86150
23.08548,81757
23.09360,80123
23.10173,77283
23.10985,80728
23.11798,82724
23.12610,91683
23.13422,99061
23.14235,115408
23.15047,127664
23.15860,152020
23.16672,166381
23.17483,197273
23.18297,201139
23.19108,218549
23.19920,225280
23.20733,226311
23.21545,222251
23.22358,206364
23.23170,178486
23.23982,146327
23.24795,121383
23.25607,98539
23.26420,95687
23.27232,84825
23.28043,84534
23.28857,89901
23.29668,100782
23.30482,109721
23.31293,117781
23.32105,122986
23.32918,107731
23.33730,104152
23.34542,90703
23.35355,84420
23.36167,76910
23.36980,73504
23.37792,74578
23.38603,75961
23.39417,82081
23.40228,97947
23.41042,103843
23.41853,121990
23.42665,127756
23.43478,128784
23.44290,120222
23.45102,116036
23.45915,105272
23.46727,103189
23.47540,99518
23.48352,102201
23.49163,105409
23.49977,99778
23.50788,105512
23.51602,104561
23.52413,96535
23.53225,102476
23.54038,90393
23.54850,87694
23.55663,79355
23.56475,74848
23.57287,78276
23.58100,69556
23.58912,69951
23.59723,69962
23.60537,66295
23.61348,72344
23.62162,68031
23.62973,71196
23.63785,77405
23.64598,74809
23.65410,76725
23.66223,81523
23.67035,88968
23.67847,90190
23.68660,92870
23.69472,82634
23.70285,80826
23.71097,82007
23.71908,79205
23.72722,76115
23.73533,72792
23.74345,82146
23.75158,76180
23.75970,78940
23.76783,77280
23.77595,76509
23.78407,74916
23.79220,75650
23.80032,70484
23.80845,72004
23.81657,75090
23.82468,69082
23.83282,69380
23.84093,65150
23.84905,65327
23.85718,65653
23.86530,65930
23.87343,64649
23.88155,68353
23.88967,70933
23.89780,72187
23.90592,71118
23.91405,72213
23.92217,77985
23.93028,74020
23.93842,78518
23.94653,81447
23.95467,84547
23.96278,89809
23.97090,89976
23.97903,89297
23.98715,88480
23.99527,94014
24.00340,95047
24.01152,96884
24.01965,85856
24.02777,78935
24.03588,84068
24.04402,74555
24.05213,72295
24.06027,68271
24.06838,71569
24.07650,64158
24.08463,63751
24.09275,62857
24.10088,62432
24.10900,64767
24.11712,66439
24.12525,70248
24.13337,71714
24.14148,84272
24.14962,90169
24.15773,96648
24.16587,112930
24.17398,136383
24.18210,174549
24.19023,209338
24.19835,255351
24.20648,285674
24.21460,300292
24.22272,303458
24.23085,290189
24.23897,249399
24.24708,216323
24.25522,184146
24.26333,158559
24.27147,137581
24.27958,126750
24.28770,110879
24.29583,119647
24.30395,125222
24.31208,135184
24.32020,144621
24.32832,157639
24.33645,165996
24.34457,182883
24.35270,184688
24.36082,183516
24.36893,184054
24.37707,173731
24.38518,141822
24.39330,120785
24.40143,99136
24.40955,83704
24.41768,79196
24.42580,75043
24.43392,66495
24.44205,64544
24.45017,64073
24.45830,62891
24.46642,68223
24.47453,67524
24.48267,63362
24.49078,58204
24.49890,62367
24.50703,68938
24.51515,61671
24.52328,62273
24.53140,60632
24.53952,60134
24.54765,64592
24.55577,58224
24.56390,65285
24.57202,57777
24.58013,61568
24.58827,62696
24.59638,58373
24.60452,58380
24.61263,52922
24.62075,61047
24.62888,63041
24.63700,65247
24.64512,65039
24.65325,70142
24.66137,66044
24.66950,70310
24.67762,66540
24.68573,68391
24.69387,67555
24.70198,63980
24.71012,67307
24.71823,71119
24.72635,69071
24.73448,74055
24.74260,75768
24.75073,75479
24.75885,80265
24.76697,68875
24.77510,67814
24.78322,66508
24.79133,67228
24.79947,67963
24.80758,66996
24.81572,70383
24.82383,68403
24.83195,69531
24.84008,71227
24.84820,70677
24.85633,77832
24.86445,77580
24.87257,84328
24.88070,89717
24.88882,91846
24.89693,95683
24.90507,89524
24.91318,79863
24.92132,72021
24.92943,77269
24.93755,76383
24.94568,71399
24.95380,71442
24.96193,71378
24.97005,80582
24.97817,79409
24.98630,96612
24.99442,96644
25.00255,103912
25.01067,117588
25.01878,129883
25.02692,154810
25.03503,161421
25.04315,181754
25.05128,199347
25.05940,204029
25.06753,231408
25.07565,272852
25.08377,334675
25.09190,423962
25.10002,556518
25.10815,729028
25.11627,970331
25.12438,1286177
25.13252,1665909
25.14063,2226037
25.14877,2621570
25.15688,3234653
25.16500,3853943
25.17313,4590678
25.18125,5517696
25.18937,6863398
25.19750,8804169
25.20562,1.123131E+07
25.21375,1.401823E+07
25.22187,1.723299E+07
25.22998,2.022927E+07
25.23812,2.423337E+07
25.24623,2.857785E+07
25.25437,3.327688E+07
25.26248,3.720489E+07
25.27060,4.135212E+07
25.27873,4.563894E+07
25.28685,4.960988E+07
25.29497,5.398524E+07
25.30310,5.703728E+07
25.31122,6.175678E+07
25.31935,6.705424E+07
25.32747,7.003238E+07
25.33558,7.343655E+07
25.34372,7.749821E+07
25.35183,8.015575E+07
25.35997,8.411859E+07
25.36808,8.658109E+07
25.37620,9.040234E+07
25.38433,9.316288E+07
25.39245,9.51451E+07
25.40058,9.570654E+07
25.40870,9.269645E+07
25.41682,6.028661E+07
25.42495,1.475657E+07
25.43307,2328113
25.44118,737438
25.44932,450327
25.45743,359815
25.46557,301949
25.47368,271307
25.48180,233024
25.48993,210349
25.49805,197064
25.50618,181334
25.51430,174765
25.52242,166463
25.53055,153845
25.53867,151561
25.54680,143981
25.55492,135020
25.56303,134029
25.57117,121863
25.57928,123710
25.58740,114358
25.59553,114687
25.60365,114238
25.61178,111151
25.61990,106549
25.62802,99871
25.63615,102712
25.64427,95832
25.65240,95606
25.66052,94666
25.66863,98426
25.67677,94001
25.68488,88575
25.69300,93366
25.70113,86194
25.70925,85585
25.71738,84683
25.72550,79985
25.73362,82015
25.74175,85853
25.74987,89609
25.75800,83280
25.76612,80014
25.77423,87348
25.78237,86368
25.79048,79973
25.79862,79399
25.80673,76746
25.81485,79776
25.82298,80198
25.83110,86002
25.83922,82923
25.84735,87562
25.85547,87933
25.86360,86501
25.87172,86791
25.87983,92630
25.88797,84363
25.89608,81244
25.90422,84260
25.91233,81168
25.92045,79879
25.92858,83183
25.93670,73536
25.94482,76962
25.95295,81147
25.96107,81237
25.96920,91760
25.97732,91105
25.98543,84237
25.99357,82724
26.00168,79619
26.00982,79552
26.01793,80163
26.02605,79096
26.03418,73837
26.04230,76375
26.05043,81535
26.05855,79558
26.06667,75849
26.07480,80363
26.08292,78108
26.09103,83968
26.09917,86904
26.10728,81418
26.11542,94432
26.12353,99558
26.13165,105339
26.13978,124622
26.14790,144257
26.15603,158812
26.16415,151394
26.17227,150859
26.18040,140478
26.18852,146716
26.19665,147904
26.20477,164565
26.21288,191710
26.22102,209955
26.22913,232596
26.23725,246063
26.24538,235604
26.25350,234421
26.26163,207752
26.26975,196370
26.27787,175546
26.28600,155547
26.29412,145939
26.30225,128682
26.31037,112787
26.31848,90877
26.32662,90893
26.33473,85392
26.34285,78404
26.35098,75949
26.35910,78101
26.36723,73039
26.37535,69536
26.38347,73350
26.39160,74960
26.39972,69028
26.40785,69025
26.41597,68291
26.42408,72756
26.43222,70756
26.44033,83786
26.44847,95350
26.45658,92657
26.46470,109379
26.47283,123450
26.48095,126622
26.48907,124472
26.49720,120782
26.50532,114954
26.51345,101697
26.52157,91888
26.52968,79346
26.53782,71923
26.54593,75212
26.55407,72758
26.56218,71946
26.57030,75314
26.57843,73173
26.58655,76170
26.59468,77608
26.60280,81310
26.61092,79567
26.61905,78088
26.62717,88262
26.63528,93357
26.64342,113691
26.65153,130863
26.65967,172539
26.66778,215780
26.67590,276916
26.68403,316440
26.69215,357656
26.70028,392038
26.70840,386119
26.71652,347180
26.72465,312205
26.73277,274170
26.74088,223767
26.74902,215065
26.75713,214303
26.76527,233623
26.77338,258461
26.78150,277591
26.78963,305407
26.79775,309242
26.80588,299545
26.81400,279013
26.82212,225316
26.83025,188128
26.83837,152441
26.84650,123791
26.85462,98479
26.86273,89296
26.87087,77676
26.87898,73410
26.88710,67748
26.89523,68770
26.90335,63009
26.91148,68799
26.91960,65883
26.92772,69184
26.93585,69035
26.94397,63574
26.95210,67663
26.96022,69885
26.96833,75424
26.97647,77306
26.98458,74977
26.99270,82998
27.00083,82464
27.00895,81674
27.01708,84778
27.02520,77313
27.03332,78719
27.04145,81356
27.04957,75731
27.05770,79461
27.06582,82149
27.07393,89802
27.08207,91786
27.09018,99933
27.09832,122094
27.10643,137492
27.11455,160249
27.12268,180815
27.13080,202468
27.13892,197765
27.14705,193646
27.15517,181550
27.16330,163803
27.17142,147047
27.17953,127075
27.18767,104670
27.19578,92502
27.20392,85144
27.21203,71469
27.22015,66269
27.22828,64450
27.23640,59313
27.24453,62311
27.25265,60334
27.26077,61177
27.26890,59084
27.27702,57780
27.28513,62689
27.29327,60840
27.30138,61809
27.30952,64100
27.31763,65029
27.32575,63413
27.33388,67867
27.34200,65287
27.35013,67353
27.35825,67235
27.36637,66697
27.37450,66737
27.38262,67380
27.39075,75149
27.39887,70548
27.40698,64862
27.41512,64671
27.42323,64201
27.43135,63200
27.43948,63758
27.44760,61718
27.45573,59635
27.46385,66331
27.47197,57140
27.48010,63393
27.48822,58692
27.49635,54708
27.50447,51260
27.51258,55009
27.52072,55282
27.52883,54627
27.53695,58510
27.54508,60055
27.55320,63390
27.56133,58192
27.56945,60696
27.57757,69652
27.58570,68476
27.59382,68455
27.60195,71927
27.61007,75277
27.61818,71908
27.62632,76583
27.63443,78845
27.64257,77143
27.65068,82475
27.65880,93986
27.66693,93216
27.67505,99117
27.68317,98828
27.69130,104886
27.69942,109527
27.70755,115763
27.71567,118843
27.72378,124094
27.73192,129794
27.74003,147061
27.74817,154618
27.75628,163749
27.76440,177225
27.77253,192420
27.78065,218623
27.78877,236166
27.79690,273276
27.80502,304290
27.81315,365362
27.82127,437014
27.82938,547322
27.83752,672003
27.84563,840063
27.85377,1037490
27.86188,1288617
27.87000,1553675
27.87813,1849062
27.88625,2197727
27.89438,2571468
27.90250,2872897
27.91062,3367294
27.91875,3909034
27.92687,4581667
27.93498,5783842
27.94312,7522939
27.95123,9789970
27.95937,1.221625E+07
27.96748,1.514446E+07
27.97560,1.827943E+07
27.98373,2.239362E+07
27.99185,2.582174E+07
27.99998,3.027837E+07
28.00810,3.468308E+07
28.01622,3.883143E+07
28.02435,4.339597E+07
28.03247,4.934492E+07
28.04060,5.3541E+07
28.04872,5.716176E+07
28.05683,6.035596E+07
28.06497,6.422696E+07
28.07308,6.948741E+07
28.08120,7.302132E+07
28.08933,7.670338E+07
28.09745,8.133706E+07
28.10558,8.402153E+07
28.11370,8.70472E+07
28.12182,8.95832E+07
28.12995,9.27441E+07
28.13807,9.497122E+07
28.14620,9.64976E+07
28.15432,8.84432E+07
28.16243,4.931838E+07
28.17057,1.072247E+07
28.17868,2122835
28.18680,866134
28.19493,629045
28.20305,540041
28.21118,499079
28.21930,472652
28.22742,461352
28.23555,451799
28.24367,454439
28.25180,463258
28.25992,463881
28.26803,440832
28.27617,426969
28.28428,406426
28.29242,366071
28.30053,321196
28.30865,290417
28.31678,266006
28.32490,230129
28.33302,200325
28.34115,188153
28.34927,177325
28.35740,165349
28.36552,153814
28.37363,151115
28.38177,145808
28.38988,133082
28.39802,136365
28.40613,135155
28.41425,126998
28.42238,127930
28.43050,129669
28.43863,121539
28.44675,119351
28.45487,130456
28.46300,127704
28.47112,123636
28.47923,120116
28.48737,126025
28.49548,128022
28.50362,127877
28.51173,128669
28.51985,133675
28.52798,139348
28.53610,143441
28.54423,157428
28.55235,167431
28.56047,185394
28.56860,192290
28.57672,205346
28.58483,211119
28.59297,216851
28.60108,232139
28.60922,250927
28.61733,261343
28.62545,274464
28.63358,294787
28.64170,312949
28.64983,334170
28.65795,347379
28.66607,373783
28.67420,419627
28.68232,441883
28.69045,517006
28.69857,598516
28.70668,667276
28.71482,756996
28.72293,816515
28.73105,856015
28.73918,841311
28.74730,812527
28.75543,763299
28.76355,731345
28.77167,737344
28.77980,762514
28.78792,812019
28.79605,886022
28.80417,981959
28.81228,1101539
28.82042,1212116
28.82853,1327580
28.83665,1410978
28.84478,1482859
28.85290,1540310
28.86103,1580014
28.86915,1652008
28.87727,1700613
28.88540,1773583
28.89352,1843490
28.90165,1953459
28.90977,2038865
28.91788,2202846
28.92602,2267250
28.93413,2322336
28.94227,2396329
28.95038,2482236
28.95850,2541346
28.96663,2636781
28.97475,2704222
28.98287,2807833
28.99100,2891317
28.99912,2923480
29.00725,3026349
29.01537,3139046
29.02348,3156433
29.03162,3235675
29.03973,3360778
29.04787,3446674
29.05598,3488873
29.06410,3628316
29.07223,3725843
29.08035,3867586
29.08848,4091314
29.09660,4274066
29.10472,4560402
29.11285,4786520
29.12097,4910508
29.12908,5025643
29.13722,5315021
29.14533,5515205
29.15347,5816877
29.16158,6003303
29.16970,6350941
29.17783,6563278
29.18595,6765131
29.19408,6847070
29.20220,7029897
29.21032,7215466
29.21845,7337394
29.22657,7451841
29.23468,7590606
29.24282,7677293
29.25093,7906784
29.25907,7862953
29.26718,8063231
29.27530,8327807
29.28343,8578852
29.29155,8673596
29.29968,8766559
29.30780,8961155
29.31592,8827054
29.32405,8795657
29.33217,8631446
29.34030,8661364
29.34842,8884853
29.35653,9049490
29.36467,9242156
29.37278,9565301
29.38090,9793033
29.38903,1.001261E+07
29.39715,1.019718E+07
29.40528,1.057641E+07
29.41340,1.076752E+07
29.42152,1.107474E+07
29.42965,1.116058E+07
29.43777,1.133315E+07
29.44590,1.177848E+07
29.45402,1.24544E+07
29.46213,1.305863E+07
29.47027,1.320158E+07
29.47838,1.345066E+07
29.48652,1.384072E+07
29.49463,1.444165E+07
29.50275,1.482635E+07
29.51088,1.495557E+07
29.51900,1.50406E+07
29.52712,1.524188E+07
29.53525,1.527228E+07
29.54337,1.539862E+07
29.55150,1.518876E+07
29.55962,1.515359E+07
29.56773,1.55031E+07
29.57587,1.523379E+07
29.58398,1.556667E+07
29.59212,1.558713E+07
29.60023,1.524559E+07
29.60835,1.526354E+07
29.61648,1.561137E+07
29.62460,1.586937E+07
29.63272,1.602674E+07
29.64085,1.567266E+07
29.64897,1.58027E+07
29.65710,1.586903E+07
29.66522,1.621143E+07
29.67333,1.644688E+07
29.68147,1.656847E+07
29.68958,1.688637E+07
29.69772,1.730202E+07
29.70583,1.763574E+07
29.71395,1.820903E+07
29.72208,1.842658E+07
29.73020,1.906177E+07
29.73833,1.976E+07
29.74645,2.010824E+07
29.75457,2.079104E+07
29.76270,2.171781E+07
29.77082,2.214074E+07
29.77893,2.228823E+07
29.78707,2.283364E+07
29.79518,2.333905E+07
29.80332,2.370393E+07
29.81143,2.378132E+07
29.81955,2.411141E+07
29.82768,2.481086E+07
29.83580,2.501897E+07
29.84393,2.498893E+07
29.85205,2.54597E+07
29.86017,2.559659E+07
29.86830,2.48859E+07
29.87642,2.526729E+07
29.88453,2.540056E+07
29.89267,2.542017E+07
29.90078,2.490463E+07
29.90892,2.522285E+07
29.91703,2.503149E+07
29.92515,2.468398E+07
29.93328,2.483255E+07
29.94140,2.470685E+07
29.94953,2.516324E+07
29.95765,2.519039E+07
29.96577,2.510291E+07
29.97390,2.526974E+07
29.98202,2.593499E+07
29.99015,2.642274E+07
29.99827,2.636551E+07
30.00638,2.702559E+07
30.01452,2.74617E+07
30.02263,2.768294E+07
30.03075,2.829799E+07
30.03888,2.9696E+07
30.04700,3.061565E+07
30.05513,3.169031E+07
30.06325,3.188061E+07
30.07137,3.238386E+07
30.07950,3.366218E+07
30.08762,3.38283E+07
30.09575,3.456121E+07
30.10387,3.509654E+07
30.11198,3.593315E+07
30.12012,3.587847E+07
30.12823,3.715612E+07
30.13637,3.818711E+07
30.14448,3.846027E+07
30.15260,3.893178E+07
30.16073,3.821509E+07
30.16885,3.835193E+07
30.17697,3.781387E+07
30.18510,3.714054E+07
30.19322,3.747508E+07
30.20135,3.743387E+07
30.20947,3.678765E+07
30.21758,3.561762E+07
30.22572,3.624483E+07
30.23383,3.621535E+07
30.24197,3.56517E+07
30.25008,3.639191E+07
30.25820,3.586795E+07
30.26633,3.508384E+07
30.27445,3.483333E+07
30.28257,3.562862E+07
30.29070,3.67812E+07
30.29882,3.656822E+07
30.30695,3.707519E+07
30.31507,3.809719E+07
30.32318,3.945069E+07
30.33132,3.947176E+07
30.33943,4.072134E+07
30.34757,4.162265E+07
30.35568,4.21843E+07
30.36380,4.302546E+07
30.37193,4.457661E+07
30.38005,4.632842E+07
30.38818,4.65444E+07
30.39630,4.701219E+07
30.40442,4.791266E+07
30.41255,4.820791E+07
30.42067,4.942926E+07
30.42878,4.937688E+07
30.43692,4.967449E+07
30.44503,4.958346E+07
30.45317,5.002253E+07
30.46128,4.855706E+07
30.46940,4.510016E+07
30.47753,3.820089E+07
30.48565,2.816744E+07
30.49378,1.8947E+07
30.50190,1.200382E+07
30.51002,7921000
30.51815,5748375
30.52627,4710026
30.53440,4279817
30.54252,4324348
30.55063,4690963
30.55877,5423106
30.56688,6684135
30.57500,8530347
30.58313,1.060251E+07
30.59125,1.36341E+07
30.59938,1.655802E+07
30.60750,2.061538E+07
30.61562,2.459747E+07
30.62375,2.877125E+07
30.63187,3.257196E+07
30.64000,3.82161E+07
30.64812,4.25446E+07
30.65623,4.715968E+07
30.66437,5.188113E+07
30.67248,5.733613E+07
30.68060,6.125242E+07
30.68873,6.554912E+07
30.69685,6.998233E+07
30.70498,7.404841E+07
30.71310,7.995392E+07
30.72122,8.384111E+07
30.72935,8.604071E+07
30.73747,8.88957E+07
30.74560,9.423362E+07
30.75372,9.75086E+07
30.76183,9.895793E+07
30.76997,9.943912E+07
30.77808,8.550542E+07
30.78622,4.024906E+07
30.79433,8864974
30.80245,2047791
30.81058,923310
30.81870,681722
30.82682,608483
30.83495,541926
30.84307,517497
30.85120,499014
30.85932,477492
30.86743,459513
30.87557,446437
30.88368,439265
30.89182,389918
30.89993,379722
30.90805,362296
30.91618,321706
30.92430,322828
30.93243,294198
30.94055,287596
30.94867,272416
30.95680,267470
30.96492,273081
30.97303,262059
30.98117,262318
30.98928,262332
30.99742,256999
31.00553,245867
31.01365,250579
31.02178,239475
31.02990,236714
31.03803,238272
31.04615,243348
31.05427,235858
31.06240,231597
31.07052,227587
31.07863,217684
31.08677,209950
31.09488,203981
31.10302,191080
31.11113,189596
31.11925,194640
31.12738,204464
31.13550,212391
31.14363,219679
31.15175,231891
31.15987,238295
31.16800,242477
31.17612,254873
31.18425,240842
31.19237,231850
31.20048,228656
31.20862,222986
31.21673,222887
31.22485,224318
31.23298,220125
31.24110,208576
31.24923,206114
31.25735,197329
31.26547,190932
31.27360,192173
31.28172,177656
31.28985,167369
31.29797,168621
31.30608,164957
31.31422,163808
31.32233,163824
31.33045,166506
31.33858,172172
31.34670,174097
31.35483,173768
31.36295,181385
31.37107,183011
31.37920,203813
31.38732,211102
31.39545,238987
31.40357,254556
31.41168,290590
31.41982,310850
31.42793,304620
31.43607,300255
31.44418,271948
31.45230,256964
31.46043,231494
31.46855,203208
31.47667,180448
31.48480,164202
31.49292,152784
31.50105,143597
31.50917,151220
31.51728,139767
31.52542,145985
31.53353,136742
31.54167,151438
31.54978,141228
31.55790,153607
31.56603,166694
31.57415,174531
31.58228,174539
31.59040,181513
31.59852,174654
31.60665,162544
31.61477,161894
31.62288,155629
31.63102,156755
31.63913,154622
31.64727,167583
31.65538,189590
31.66350,185560
31.67163,199823
31.67975,185153
31.68788,178245
31.69600,167167
31.70412,155130
31.71225,141306
31.72037,145090
31.72848,127171
31.73662,137951
31.74473,132909
31.75287,127320
31.76098,122445
31.76910,122774
31.77723,121868
31.78535,124496
31.79348,118970
31.80160,121430
31.80972,123409
31.81785,109802
31.82597,117301
31.83410,121167
31.84222,121621
31.85033,125372
31.85847,135252
31.86658,140647
31.87470,146981
31.88283,158119
31.89095,164599
31.89908,165301
31.90720,166220
31.91532,162368
31.92345,158586
31.93157,143101
31.93970,137486
31.94782,138196
31.95593,125952
31.96407,122251
31.97218,128388
31.98032,128631
31.98843,125069
31.99655,128700
32.00468,121396
32.01280,121516
32.02092,125132
32.02905,125517
32.03717,132359
32.04530,137392
32.05342,141886
32.06153,140474
32.06967,146546
32.07778,144214
32.08592,142427
32.09403,148187
32.10215,151357
32.11028,143006
32.11840,139489
32.12652,143901
32.13465,145513
32.14277,138546
32.15090,143553
32.15902,134717
32.16713,134276
32.17527,137081
32.18338,131525
32.19152,140599
32.19963,138965
32.20775,138336
32.21588,145234
32.22400,145054
32.23213,141953
32.24025,133714
32.24837,131107
32.25650,124954
32.26462,121473
32.27273,121845
32.28087,121458
32.28898,117516
32.29712,113996
32.30523,115848
32.31335,127023
32.32148,141732
32.32960,151440
32.33773,159551
32.34585,169267
32.35397,168129
32.36210,167645
32.37022,153037
32.37833,145404
32.38647,148303
32.39458,150069
32.40272,143508
32.41083,153525
32.41895,141744
32.42708,140622
32.43520,125380
32.44333,127329
32.45145,123701
32.45957,118896
32.46770,114089
32.47582,121836
32.48395,122219
32.49207,121957
32.50018,115799
32.50832,128410
32.51643,133285
32.52455,130680
32.53268,131326
32.54080,132154
32.54893,133113
32.55705,138001
32.56517,135157
32.57330,140069
32.58142,136023
32.58955,133757
32.59767,141030
32.60578,136873
32.61392,138008
32.62203,147896
32.63017,145411
32.63828,155197
32.64640,162474
32.65453,166312
32.66265,170578
32.67077,173990
32.67890,176958
32.68702,178498
32.69515,186476
32.70327,186289
32.71138,197073
32.71952,197284
32.72763,201592
32.73577,206393
32.74388,215847
32.75200,228102
32.76013,231439
32.76825,242410
32.77638,241541
32.78450,263650
32.79262,262383
32.80075,277757
32.80887,290664
32.81698,298943
32.82512,319934
32.83323,314524
32.84137,331016
32.84948,355205
32.85760,351974
32.86573,363916
32.87385,390489
32.88198,401165
32.89010,421919
32.89822,452152
32.90635,476901
32.91447,489421
32.92258,517529
32.93072,548245
32.93883,595889
32.94697,642113
32.95508,664875
32.96320,718598
32.97133,779821
32.97945,853264
32.98758,927515
32.99570,990963
33.00382,1029235
33.01195,1085458
33.02007,1174789
33.02820,1233486
33.03632,1333816
33.04443,1538416
33.05257,1859785
33.06068,2359074
33.06880,3203972
33.07693,4417396
33.08505,6053758
33.09318,8135576
33.10130,1.074681E+07
33.10942,1.374222E+07
33.11755,1.702474E+07
33.12567,2.154338E+07
33.13380,2.590501E+07
33.14192,3.038755E+07
33.15003,3.461293E+07
33.15817,4.042955E+07
33.16628,4.602142E+07
33.17440,5.054737E+07
33.18253,5.551593E+07
33.19065,6.02065E+07
33.19878,6.508853E+07
33.20690,6.877514E+07
33.21502,7.376296E+07
33.22315,7.823208E+07
33.23127,8.277404E+07
33.23940,8.658235E+07
33.24752,9.106549E+07
33.25563,9.311698E+07
33.26377,9.512876E+07
33.27188,9.890762E+07
33.28002,9.831606E+07
33.28813,8.258581E+07
33.29625,3.897494E+07
33.30438,9647501
33.31250,2565356
33.32062,1217216
33.32875,875075
33.33687,732823
33.34500,636316
33.35312,559706
33.36123,483780
33.36937,453182
33.37748,415577
33.38562,387015
33.39373,362236
33.40185,342633
33.40998,318296
33.41810,308665
33.42623,291782
33.43435,281298
33.44247,268899
33.45060,266744
33.45872,258108
33.46683,259005
33.47497,242728
33.48308,239476
33.49122,218254
33.49933,207888
33.50745,208144
33.51558,196808
33.52370,193115
33.53183,196768
33.53995,184072
33.54807,171565
33.55620,174911
33.56432,172809
33.57243,163401
33.58057,167121
33.58868,160823
33.59682,163290
33.60493,160938
33.61305,160235
33.62118,162173
33.62930,152749
33.63743,158736
33.64555,155313
33.65367,159445
33.66180,153668
33.66992,150113
33.67805,149459
33.68617,142126
33.69428,151717
33.70242,141355
33.71053,139992
33.71865,139857
33.72678,134370
33.73490,137536
33.74303,132182
33.75115,134852
33.75927,127579
33.76740,132408
33.77552,131564
33.78365,123329
33.79177,128540
33.79988,131967
33.80802,126435
33.81613,131612
33.82427,119900
33.83238,125374
33.84050,124428
33.84863,123852
33.85675,119521
33.86487,119693
33.87300,118945
33.88112,120732
33.88925,120202
33.89737,113597
33.90548,119761
33.91362,121476
33.92173,114613
33.92987,120640
33.93798,124738
33.94610,122072
33.95423,122413
33.96235,127226
33.97047,123074
33.97860,123357
33.98672,124428
33.99485,123695
34.00297,118599
34.01108,124328
34.01922,120028
34.02733,113222
34.03547,118120
34.04358,116651
34.05170,119276
34.05983,117559
34.06795,115527
34.07608,116210
34.08420,113489
34.09232,117933
34.10045,117539
34.10857,120056
34.11668,121906
34.12482,130040
34.13293,134144
34.14107,136128
34.14918,140417
34.15730,139236
34.16543,136996
34.17355,139515
34.18168,131590
34.18980,127596
34.19792,133278
34.20605,131568
34.21417,123093
34.22228,120117
34.23042,119651
34.23853,124497
34.24667,123509
34.25478,123120
34.26290,114714
34.27103,116849
34.27915,108238
34.28728,110336
34.29540,109550
34.30352,108158
34.31165,114339
34.31977,114798
34.32790,107738
34.33602,121963
34.34413,119266
34.35227,122291
34.36038,134153
34.36850,126999
34.37663,129703
34.38475,122556
34.39288,127640
34.40100,119152
34.40912,114221
34.41725,117207
34.42537,120851
34.43350,117812
34.44162,118598
34.44973,119195
34.45787,120146
34.46598,123914
34.47412,117687
34.48223,115582
34.49035,118587
34.49848,121325
34.50660,116993
34.51472,111691
34.52285,112622
34.53097,113410
34.53910,110674
34.54722,110605
34.55533,109146
34.56347,110265
34.57158,108485
34.57972,116881
34.58783,116544
34.59595,112112
34.60408,110626
34.61220,124120
34.62032,111383
34.62845,116038
34.63657,111455
34.64470,117172
34.65282,118231
34.66093,115949
34.66907,126768
34.67718,121734
34.68532,120895
34.69343,126459
34.70155,124754
34.70968,119497
34.71780,124185
34.72593,128046
34.73405,127778
34.74217,136005
34.75030,137892
34.75842,142444
34.76653,145337
34.77467,139204
34.78278,141835
34.79092,141591
34.79903,138965
34.80715,140752
34.81528,139617
34.82340,147673
34.83153,149676
34.83965,147861
34.84777,150444
34.85590,147615
34.86402,147597
34.87215,148650
34.88027,146685
34.88838,144194
34.89652,153413
34.90463,155940
34.91275,151995
34.92088,157500
34.92900,158445
34.93713,165615
34.94525,168481
34.95337,166562
34.96150,173183
34.96962,174247
34.97775,188334
34.98587,184201
34.99398,179308
35.00212,183169
35.01023,184090
35.01835,183999
35.02648,203158
35.03460,192644
35.04273,198846
35.05085,195296
35.05897,198675
35.06710,209537
35.07522,216047
35.08335,221005
35.09147,219655
35.09958,236808
35.10772,234458
35.11583,238889
35.12397,247157
35.13208,246293
35.14020,242084
35.14833,244836
35.15645,254599
35.16457,262370
35.17270,260674
35.18082,271019
35.18895,283352
35.19707,283691
35.20518,284763
35.21332,279891
35.22143,289392
35.22957,294998
35.23768,297769
35.24580,312428
35.25393,323172
35.26205,332985
35.27018,341477
35.27830,351779
35.28642,371075
35.29455,378962
35.30267,411730
35.31078,415839
35.31892,417987
35.32703,412120
35.33517,412882
35.34328,422986
35.35140,441650
35.35953,459493
35.36765,458716
35.37578,495166
35.38390,505666
35.39202,544703
35.40015,560522
35.40827,584488
35.41638,613300
35.42452,641527
35.43263,677316
35.44077,771327
35.44888,893143
35.45700,1120994
35.46513,1553955
35.47325,2162821
35.48138,3205019
35.48950,4455547
35.49762,6320736
35.50575,8934231
35.51387,1.187783E+07
35.52200,1.541108E+07
35.53012,1.894565E+07
35.53823,2.35327E+07
35.54637,2.802967E+07
35.55448,3.303481E+07
35.56260,3.886066E+07
35.57073,4.354932E+07
35.57885,4.904051E+07
35.58698,5.481399E+07
35.59510,5.989883E+07
35.60322,6.417151E+07
35.61135,6.836448E+07
35.61947,7.297203E+07
35.62760,7.63062E+07
35.63572,8.168171E+07
35.64383,8.613724E+07
35.65197,8.968244E+07
35.66008,9.407518E+07
35.66820,9.751045E+07
35.67633,1.00589E+08
35.68445,9.663617E+07
35.69258,7.458881E+07
35.70070,2.982116E+07
35.70882,7649189
35.71695,2473819
35.72507,1355834
35.73320,1031728
35.74132,850424
35.74943,731845
35.75757,655918
35.76568,603833
35.77382,536436
35.78193,496555
35.79005,470214
35.79818,440535
35.80630,410255
35.81442,392547
35.82255,370373
35.83067,348640
35.83880,337439
35.84692,320300
35.85503,314393
35.86317,301473
35.87128,283650
35.87942,283571
35.88753,265016
35.89565,265194
35.90378,262428
35.91190,247817
35.92003,243376
35.92815,242484
35.93627,235642
35.94440,226541
35.95252,224553
35.96063,216840
35.96877,215551
35.97688,213817
35.98502,215722
35.99313,206859
36.00125,205628
36.00938,207884
36.01750,206314
36.02563,204736
36.03375,199431
36.04187,195741
36.05000,201104
36.05812,209430
36.06623,201350
36.07437,191723
36.08248,201610
36.09062,206342
36.09873,211561
36.10685,201085
36.11498,202422
36.12310,202197
36.13123,206492
36.13935,206564
36.14747,199348
36.15560,203859
36.16372,194956
36.17185,203100
36.17997,187130
36.18808,194507
36.19622,176461
36.20433,181919
36.21245,185512
36.22058,185051
36.22870,173646
36.23683,184440
36.24495,182461
36.25307,173491
36.26120,169125
36.26932,170640
36.27745,178461
36.28557,177048
36.29368,179131
36.30182,186333
36.30993,182815
36.31807,180158
36.32618,181363
36.33430,177367
36.34243,180762
36.35055,171757
36.35867,174216
36.36680,178075
36.37492,171207
36.38305,173408
36.39117,171545
36.39928,178861
36.40742,174494
36.41553,172383
36.42367,176543
36.43178,174198
36.43990,189796
36.44803,190837
36.45615,196670
36.46427,209140
36.47240,224806
36.48052,241304
36.48865,249620
36.49677,272594
36.50488,292659
36.51302,319667
36.52113,359175
36.52927,420455
36.53738,482947
36.54550,563243
36.55363,664634
36.56175,814707
36.56988,959237
36.57800,1159980
36.58612,1371675
36.59425,1649194
36.60237,1974996
36.61048,2341000
36.61862,2669480
36.62673,3038789
36.63487,3524853
36.64298,3965386
36.65110,4315256
36.65923,4913513
36.66735,5580171
36.67548,6312192
36.68360,6811017
36.69172,7417644
36.69985,7985108
36.70797,8841947
36.71608,9419851
36.72422,1.030442E+07
36.73233,1.136861E+07
36.74047,1.230728E+07
36.74858,1.318402E+07
36.75670,1.412385E+07
36.76483,1.50262E+07
36.77295,1.61536E+07
36.78108,1.671974E+07
36.78920,1.796567E+07
36.79732,1.899874E+07
36.80545,1.998119E+07
36.81357,2.108491E+07
36.82170,2.184945E+07
36.82982,2.256815E+07
36.83793,2.411961E+07
36.84607,2.544735E+07
36.85418,2.682357E+07
36.86230,2.696618E+07
36.87043,2.786786E+07
36.87855,2.881796E+07
36.88668,2.895645E+07
36.89480,2.926367E+07
36.90292,3.002385E+07
36.91105,3.059725E+07
36.91917,3.164407E+07
36.92730,3.197203E+07
36.93542,3.246496E+07
36.94353,3.412707E+07
36.95167,3.550563E+07
36.95978,3.663544E+07
36.96792,3.830694E+07
36.97603,4.026923E+07
36.98415,4.020748E+07
36.99228,4.182885E+07
37.00040,4.36204E+07
37.00852,4.529885E+07
37.01665,4.703854E+07
37.02477,4.766681E+07
37.03290,4.832021E+07
37.04102,4.917271E+07
37.04913,5.095876E+07
37.05727,5.193804E+07
37.06538,5.334225E+07
37.07352,5.555324E+07
37.08163,5.543617E+07
37.08975,5.532275E+07
37.09788,5.604887E+07
37.10600,5.673022E+07
37.11412,5.641224E+07
37.12225,5.810124E+07
37.13037,6.090426E+07
37.13850,6.22572E+07
37.14662,6.137687E+07
37.15473,6.252525E+07
37.16287,6.395432E+07
37.17098,6.532174E+07
37.17912,6.535345E+07
37.18723,6.69989E+07
37.19535,6.913431E+07
37.20348,7.179857E+07
37.21160,7.392266E+07
37.21973,7.548878E+07
37.22785,7.806338E+07
37.23597,7.736699E+07
37.24410,7.661263E+07
37.25222,7.606342E+07
37.26033,7.933008E+07
37.26847,8.012654E+07
37.27658,8.007519E+07
37.28472,8.300978E+07
37.29283,8.24952E+07
37.30095,8.342206E+07
37.30908,8.405759E+07
37.31720,8.486746E+07
37.32533,8.507442E+07
37.33345,8.411097E+07
37.34157,8.176993E+07
37.34970,6.923702E+07
37.35782,4.758784E+07
37.36595,2.289301E+07
37.37407,9946934
37.38218,4872721
37.39032,2965532
37.39843,2163964
37.40655,1777576
37.41468,1539681
37.42280,1386047
37.43093,1302833
37.43905,1220333
37.44717,1168719
37.45530,1100085
37.46342,1059552
37.47155,1008468
37.47967,973506
37.48778,921574
