C:\MassHunter\GCMS\1\data\JTB-E02\BACandBLUE\JTB-E18-013-12.D Thu Jun 20 12:29:39 2019
Start of data points
2.09537	47272
2.10348	48538
2.11160	49852
2.11973	51275
2.12785	50840
2.13598	48256
2.14410	46379
2.15222	47703
2.16035	48688
2.16847	50084
2.17658	50868
2.18472	49746
2.19283	45350
2.20097	48915
2.20908	40868
2.21720	45689
2.22533	43250
2.23345	46221
2.24158	40558
2.24970	42783
2.25782	43614
2.26595	46387
2.27407	230375
2.28220	1303177
2.29032	1363171
2.29843	511437
2.30657	293663
2.31468	232861
2.32280	203756
2.33093	170053
2.33905	158314
2.34718	151501
2.35530	134662
2.36342	120409
2.37155	116155
2.37967	111068
2.38780	104225
2.39592	100495
2.40403	102605
2.41217	101000
2.42028	96638
2.42840	104484
2.43653	106869
2.44465	98417
2.45278	92964
2.46090	89123
2.46902	87363
2.47715	81316
2.48527	82235
2.49340	106468
2.50152	139761
2.50963	110762
2.51777	94920
2.52588	94795
2.53402	85150
2.54213	85560
2.55025	85642
2.55838	122019
2.56650	223896
2.57462	218738
2.58275	140742
2.59087	121110
2.59900	114726
2.60712	230833
2.61523	995754
2.62337	1298636
2.63148	691019
2.63962	377835
2.64773	277079
2.65585	218312
2.66398	186708
2.67210	156654
2.68023	137715
2.68835	133078
2.69647	115454
2.70460	111572
2.71272	106636
2.72083	105339
2.72897	101977
2.73708	97945
2.74522	95757
2.75333	94272
2.76145	93167
2.76958	86243
2.77770	89655
2.78583	162353
2.79395	288468
2.80207	244507
2.81020	160749
2.81832	140754
2.82643	151992
2.83457	137032
2.84268	126257
2.85082	111751
2.85893	104497
2.86705	97568
2.87518	99083
2.88330	94220
2.89143	90307
2.89955	82035
2.90767	82715
2.91580	83632
2.92392	84839
2.93205	78203
2.94017	74560
2.94828	75142
2.95642	77758
2.96453	81889
2.97265	95458
2.98078	89015
2.98890	81177
2.99703	83504
3.00515	82735
3.01327	83192
3.02140	81345
3.02952	77762
3.03765	72195
3.04577	65657
3.05388	71656
3.06202	71667
3.07013	73926
3.07825	99598
3.08638	452299
3.09450	2114698
3.10263	4215252
3.11075	5771853
3.11887	6537406
3.12700	4613839
3.13512	2833515
3.14325	2038033
3.15137	1627521
3.15948	1281873
3.16762	1053618
3.17573	918109
3.18387	830588
3.19198	915028
3.20010	1222257
3.20823	1168455
3.21635	878689
3.22447	700010
3.23260	609653
3.24072	535631
3.24885	480391
3.25697	428575
3.26508	393707
3.27322	363414
3.28133	336324
3.28947	395802
3.29758	863508
3.30570	2489049
3.31383	4685098
3.32195	5304848
3.33008	4168123
3.33820	2824825
3.34632	2067323
3.35445	1638061
3.36257	1386565
3.37068	1171894
3.37882	1032582
3.38693	925171
3.39507	836987
3.40318	781102
3.41130	720651
3.41943	660431
3.42755	631774
3.43568	597581
3.44380	582707
3.45192	557219
3.46005	542769
3.46817	540170
3.47628	551111
3.48442	538366
3.49253	512164
3.50067	479438
3.50878	467787
3.51690	445248
3.52503	436203
3.53315	423378
3.54128	420627
3.54940	419895
3.55752	405931
3.56565	398776
3.57377	408072
3.58190	431079
3.59002	427560
3.59813	393739
3.60627	383136
3.61438	371826
3.62250	376035
3.63063	384580
3.63875	382000
3.64688	386918
3.65500	368001
3.66312	432746
3.67125	1196132
3.67937	3888694
3.68750	6557820
3.69562	5799284
3.70373	3528706
3.71187	2293399
3.71998	1783526
3.72812	1529364
3.73623	1347483
3.74435	1189876
3.75248	1075343
3.76060	966208
3.76872	931113
3.77685	876620
3.78497	814932
3.79310	782510
3.80122	767730
3.80933	1011721
3.81747	1696603
3.82558	2181920
3.83372	1824521
3.84183	1341675
3.84995	1078666
3.85808	939426
3.86620	846723
3.87432	777589
3.88245	722997
3.89057	686040
3.89870	653620
3.90682	634151
3.91493	610315
3.92307	632880
3.93118	689897
3.93932	711281
3.94743	809824
3.95555	1675439
3.96368	4398101
3.97180	7554153
3.97993	7802363
3.98805	5276127
3.99617	3640642
4.00430	6003604
4.01242	1.478883E+07
4.02053	2.451195E+07
4.02867	2.479134E+07
4.03678	1.631386E+07
4.04492	8836834
4.05303	5263931
4.06115	3776856
4.06928	2877099
4.07740	2350127
4.08553	1963413
4.09365	1669442
4.10177	1485286
4.10990	1341457
4.11802	1202903
4.12613	1114911
4.13427	1049386
4.14238	1017696
4.15052	1028471
4.15863	1029433
4.16675	925246
4.17488	866149
4.18300	825410
4.19113	788909
4.19925	748489
4.20737	787637
4.21550	1511020
4.22362	4527242
4.23175	1.02113E+07
4.23987	1.446813E+07
4.24798	1.372036E+07
4.25612	9237088
4.26423	5671305
4.27235	4061660
4.28048	3028650
4.28860	2377360
4.29673	1964773
4.30485	1640575
4.31297	1444581
4.32110	1289855
4.32922	1184020
4.33735	1068813
4.34547	990956
4.35358	938088
4.36172	895638
4.36983	859507
4.37797	845337
4.38608	798026
4.39420	748570
4.40233	718872
4.41045	687949
4.41857	660034
4.42670	641446
4.43482	612924
4.44295	586290
4.45107	591975
4.45918	566983
4.46732	552924
4.47543	531809
4.48357	520388
4.49168	530195
4.49980	502856
4.50793	488639
4.51605	475883
4.52417	465442
4.53230	451539
4.54042	447638
4.54855	435788
4.55667	439809
4.56478	432488
4.57292	424006
4.58103	399930
4.58917	399258
4.59728	391618
4.60540	391991
4.61353	377666
4.62165	389035
4.62978	416472
4.63790	474168
4.64602	548466
4.65415	561125
4.66227	496333
4.67038	448573
4.67852	410803
4.68663	396967
4.69477	393515
4.70288	365851
4.71100	359838
4.71913	364526
4.72725	337787
4.73538	350863
4.74350	329620
4.75162	324036
4.75975	329331
4.76787	313181
4.77600	317685
4.78412	314362
4.79223	398846
4.80037	664659
4.80848	1076810
4.81660	1273768
4.82473	1124055
4.83285	835858
4.84098	705023
4.84910	637306
4.85722	596391
4.86535	547020
4.87347	495188
4.88160	464385
4.88972	424290
4.89783	405641
4.90597	391309
4.91408	371473
4.92220	368581
4.93033	387769
4.93845	528605
4.94658	959823
4.95470	1944263
4.96282	3205503
4.97095	3936256
4.97907	3659485
4.98720	2771057
4.99532	2000880
5.00343	1472815
5.01157	1152346
5.01968	982420
5.02782	881735
5.03593	848061
5.04405	850825
5.05218	848842
5.06030	780141
5.06842	706071
5.07655	653849
5.08467	615470
5.09280	584507
5.10092	557793
5.10903	529809
5.11717	515392
5.12528	495157
5.13342	492632
5.14153	470619
5.14965	476045
5.15778	468078
5.16590	497190
5.17403	506938
5.18215	501390
5.19027	486967
5.19840	465951
5.20652	473583
5.21463	475866
5.22277	457688
5.23088	449361
5.23902	455166
5.24713	454461
5.25525	446511
5.26338	424264
5.27150	394200
5.27963	367528
5.28775	362712
5.29587	366453
5.30400	357762
5.31212	352500
5.32023	349502
5.32837	357511
5.33648	375504
5.34462	383433
5.35273	400898
5.36085	377196
5.36898	358742
5.37710	342003
5.38523	339408
5.39335	331431
5.40147	342274
5.40960	336979
5.41772	338194
5.42585	326060
5.43397	321593
5.44208	324239
5.45022	325363
5.45833	318888
5.46645	326862
5.47458	311730
5.48270	298288
5.49083	309942
5.49895	294950
5.50707	300090
5.51520	302127
5.52332	305059
5.53145	310651
5.53957	304923
5.54768	302694
5.55582	289404
5.56393	317566
5.57205	325071
5.58018	338474
5.58830	340056
5.59643	316687
5.60455	300231
5.61267	292996
5.62080	292028
5.62892	304006
5.63705	297858
5.64517	312985
5.65328	313522
5.66142	300255
5.66953	292466
5.67767	294587
5.68578	325660
5.69390	338888
5.70203	356462
5.71015	345215
5.71827	309307
5.72640	292833
5.73452	274532
5.74265	283887
5.75077	269178
5.75888	263079
5.76702	253175
5.77513	264500
5.78327	256034
5.79138	245998
5.79950	244074
5.80763	246922
5.81575	248412
5.82388	243103
5.83200	238316
5.84012	248221
5.84825	246490
5.85637	242778
5.86448	236675
5.87262	237621
5.88073	233368
5.88887	243274
5.89698	229779
5.90510	220547
5.91323	197118
5.92135	181122
5.92948	171847
5.93760	172989
5.94572	170246
5.95385	184655
5.96197	217016
5.97008	230990
5.97822	261901
5.98633	305991
5.99447	328168
6.00258	326250
6.01070	287887
6.01883	247920
6.02695	229867
6.03508	204572
6.04320	193491
6.05132	185227
6.05945	176221
6.06757	184230
6.07570	170931
6.08382	163445
6.09193	162304
6.10007	178337
6.10818	171416
6.11630	174209
6.12443	183210
6.13255	220418
6.14068	282902
6.14880	352923
6.15692	376126
6.16505	348122
6.17317	285115
6.18130	254576
6.18942	227282
6.19753	204746
6.20567	210056
6.21378	205582
6.22192	190294
6.23003	197786
6.23815	196903
6.24628	196194
6.25440	195603
6.26252	195128
6.27065	196585
6.27877	201304
6.28690	202603
6.29502	194905
6.30313	201787
6.31127	197710
6.31938	206913
6.32752	228164
6.33563	255823
6.34375	290085
6.35188	305025
6.36000	281389
6.36812	241527
6.37625	222230
6.38437	223278
6.39250	216425
6.40062	207777
6.40873	210389
6.41687	208082
6.42498	203623
6.43312	204359
6.44123	207692
6.44935	206030
6.45748	207261
6.46560	211925
6.47373	204291
6.48185	207318
6.48997	211478
6.49810	206978
6.50622	210963
6.51433	212246
6.52247	218535
6.53058	209523
6.53872	212231
6.54683	215367
6.55495	217551
6.56308	217744
6.57120	224746
6.57933	242281
6.58745	236977
6.59557	246072
6.60370	224714
6.61182	226810
6.61993	223250
6.62807	227987
6.63618	218477
6.64432	225740
6.65243	231525
6.66055	284331
6.66868	375110
6.67680	444347
6.68493	431052
6.69305	367806
6.70117	303975
6.70930	271457
6.71742	256815
6.72555	250630
6.73367	249593
6.74178	239761
6.74992	243008
6.75803	242874
6.76615	236455
6.77428	241449
6.78240	243229
6.79053	239254
6.79865	244245
6.80677	222782
6.81490	207373
6.82302	187602
6.83115	175970
6.83927	176148
6.84738	185573
6.85552	202843
6.86363	201875
6.87177	191146
6.87988	162850
6.88800	138785
6.89613	123985
6.90425	109203
6.91237	110003
6.92050	102866
6.92862	107645
6.93675	102976
6.94487	99018
6.95298	98404
6.96112	99114
6.96923	106067
6.97737	116320
6.98548	123370
6.99360	126666
7.00173	119792
7.00985	104227
7.01798	104126
7.02610	96060
7.03422	93363
7.04235	92138
7.05047	94793
7.05858	91567
7.06672	89408
7.07483	89149
7.08297	86603
7.09108	87457
7.09920	83049
7.10733	83349
7.11545	86073
7.12358	84447
7.13170	88023
7.13982	97308
7.14795	128785
7.15607	207039
7.16418	278720
7.17232	322116
7.18043	288270
7.18857	228356
7.19668	178576
7.20480	143801
7.21293	129042
7.22105	123457
7.22918	178224
7.23730	388249
7.24542	854018
7.25355	1489035
7.26167	1813411
7.26980	1642926
7.27792	1134060
7.28603	675145
7.29417	430226
7.30228	332707
7.31040	296843
7.31853	258439
7.32665	196357
7.33478	153439
7.34290	116756
7.35102	109729
7.35915	109192
7.36727	110697
7.37540	116426
7.38352	120253
7.39163	118829
7.39977	108584
7.40788	103931
7.41600	100823
7.42413	98662
7.43225	91957
7.44038	91360
7.44850	95398
7.45662	91002
7.46475	93869
7.47287	95796
7.48100	84821
7.48912	88510
7.49723	85914
7.50537	88961
7.51348	105746
7.52162	129389
7.52973	172368
7.53785	221118
7.54598	272547
7.55410	280070
7.56222	265055
7.57035	225661
7.57847	176938
7.58660	137764
7.59472	117921
7.60283	107745
7.61097	99728
7.61908	97037
7.62722	99166
7.63533	86903
7.64345	81893
7.65158	84134
7.65970	83662
7.66783	83272
7.67595	85794
7.68407	74683
7.69220	80342
7.70032	81029
7.70843	81756
7.71657	74723
7.72468	76210
7.73282	77284
7.74093	75834
7.74905	76612
7.75718	77756
7.76530	76605
7.77343	80240
7.78155	76483
7.78967	83270
7.79780	81727
7.80592	91431
7.81403	94270
7.82217	87187
7.83028	85473
7.83842	81427
7.84653	76523
7.85465	75545
7.86278	72506
7.87090	76086
7.87903	78790
7.88715	80045
7.89527	78519
7.90340	73491
7.91152	72126
7.91965	76605
7.92777	87209
7.93588	94768
7.94402	111440
7.95213	115861
7.96025	120919
7.96838	103237
7.97650	99059
7.98463	91443
7.99275	87059
8.00087	73464
8.00900	69992
8.01712	70918
8.02525	65497
8.03337	67596
8.04148	66597
8.04962	72374
8.05773	69733
8.06587	68011
8.07398	66941
8.08210	64131
8.09023	62567
8.09835	63993
8.10647	60229
8.11460	67720
8.12272	74071
8.13085	72987
8.13897	78457
8.14708	91768
8.15522	107913
8.16333	96870
8.17147	89250
8.17958	79086
8.18770	69921
8.19583	69406
8.20395	66656
8.21207	64129
8.22020	65929
8.22832	63778
8.23645	64409
8.24457	67963
8.25268	61695
8.26082	58992
8.26893	59325
8.27707	64493
8.28518	58927
8.29330	64758
8.30143	71778
8.30955	80783
8.31768	83449
8.32580	80954
8.33392	75150
8.34205	69609
8.35017	66557
8.35828	64584
8.36642	60089
8.37453	62945
8.38267	64877
8.39078	67956
8.39890	65900
8.40703	64851
8.41515	59020
8.42328	57870
8.43140	60940
8.43952	56152
8.44765	63055
8.45577	54814
8.46388	58060
8.47202	56830
8.48013	58229
8.48827	51868
8.49638	54740
8.50450	55361
8.51263	59817
8.52075	55018
8.52888	63198
8.53700	88911
8.54512	164503
8.55325	265017
8.56137	410113
8.56950	453533
8.57762	408567
8.58573	302919
8.59387	218040
8.60198	179179
8.61010	153083
8.61823	127283
8.62635	110582
8.63448	102730
8.64260	90370
8.65072	79540
8.65885	69672
8.66697	69316
8.67510	74438
8.68322	68924
8.69133	73361
8.69947	67611
8.70758	64624
8.71572	69870
8.72383	68645
8.73195	66784
8.74008	84406
8.74820	145392
8.75632	322941
8.76445	732136
8.77257	1405169
8.78070	2043669
8.78882	2346878
8.79693	2053809
8.80507	1458603
8.81318	927563
8.82132	571597
8.82943	381915
8.83755	286642
8.84568	254043
8.85380	249969
8.86192	253960
8.87005	251188
8.87817	247504
8.88630	229178
8.89442	222922
8.90253	201924
8.91067	192739
8.91878	179668
8.92692	178682
8.93503	175364
8.94315	179098
8.95128	194213
8.95940	201141
8.96753	205729
8.97565	195400
8.98377	174159
8.99190	157837
9.00002	162603
9.00813	149641
9.01627	148981
9.02438	138789
9.03252	137873
9.04063	126875
9.04875	129040
9.05688	130753
9.06500	126905
9.07313	117352
9.08125	123166
9.08937	124414
9.09750	125284
9.10562	132405
9.11375	136469
9.12187	141397
9.12998	135930
9.13812	127340
9.14623	119311
9.15435	112432
9.16248	125202
9.17060	113225
9.17873	116094
9.18685	107122
9.19497	109446
9.20310	102351
9.21122	104947
9.21935	105330
9.22747	106091
9.23558	107397
9.24372	104521
9.25183	102142
9.25995	107060
9.26808	98545
9.27620	106446
9.28433	97374
9.29245	94243
9.30057	96240
9.30870	90706
9.31682	93064
9.32495	90993
9.33307	87410
9.34118	94932
9.34932	90833
9.35743	89915
9.36557	90927
9.37368	96384
9.38180	91518
9.38993	92837
9.39805	95523
9.40617	95126
9.41430	95887
9.42242	104670
9.43055	113891
9.43867	109930
9.44678	108106
9.45492	104754
9.46303	101125
9.47117	92711
9.47928	85143
9.48740	83383
9.49553	91112
9.50365	109306
9.51177	139260
9.51990	152845
9.52802	162996
9.53615	150437
9.54427	129525
9.55238	108550
9.56052	95637
9.56863	86643
9.57677	80235
9.58488	79961
9.59300	82338
9.60113	74782
9.60925	68272
9.61738	59895
9.62550	57902
9.63362	58249
9.64175	52283
9.64987	55246
9.65798	54280
9.66612	54835
9.67423	57360
9.68237	51091
9.69048	54510
9.69860	49422
9.70673	50819
9.71485	48976
9.72298	49015
9.73110	49049
9.73922	52611
9.74735	49060
9.75547	47792
9.76360	48197
9.77172	48453
9.77983	45604
9.78797	43245
9.79608	49117
9.80420	45012
9.81233	47927
9.82045	47046
9.82858	46228
9.83670	44175
9.84482	47039
9.85295	45051
9.86107	47691
9.86920	50170
9.87732	52712
9.88543	52868
9.89357	56360
9.90168	57795
9.90980	55793
9.91793	56761
9.92605	66195
9.93418	90232
9.94230	132246
9.95042	185367
9.95855	241766
9.96667	269216
9.97480	253452
9.98292	196098
9.99103	156380
9.99917	121032
10.00728	108495
10.01542	103800
10.02353	93775
10.03165	81536
10.03978	75200
10.04790	72373
10.05602	66130
10.06415	69120
10.07227	63772
10.08040	66069
10.08852	67853
10.09663	63899
10.10477	60138
10.11288	62497
10.12102	64827
10.12913	56653
10.13725	61013
10.14538	61368
10.15350	55063
10.16163	58510
10.16975	52272
10.17787	52438
10.18600	54443
10.19412	57966
10.20223	59885
10.21037	59458
10.21848	59102
10.22662	61693
10.23473	60159
10.24285	69030
10.25098	67335
10.25910	74228
10.26723	115009
10.27535	238972
10.28347	525771
10.29160	1080609
10.29972	1851976
10.30783	2733475
10.31597	4036125
10.32408	6241782
10.33222	9402559
10.34033	1.278E+07
10.34845	1.4192E+07
10.35658	1.273754E+07
10.36470	9336579
10.37283	5750068
10.38095	3484421
10.38907	2310436
10.39720	1630036
10.40532	1181488
10.41345	865876
10.42157	676649
10.42968	563834
10.43782	495948
10.44593	439765
10.45405	411449
10.46218	388044
10.47030	363015
10.47843	347681
10.48655	316302
10.49467	294728
10.50280	281089
10.51092	267468
10.51905	263348
10.52717	254733
10.53528	257212
10.54342	251828
10.55153	245673
10.55967	237697
10.56778	211580
10.57590	200968
10.58403	201219
10.59215	190667
10.60027	185325
10.60840	174723
10.61652	166531
10.62465	156004
10.63277	160927
10.64088	155255
10.64902	143929
10.65713	142747
10.66527	151862
10.67338	138214
10.68150	133660
10.68963	141344
10.69775	136481
10.70587	130318
10.71400	133496
10.72212	127149
10.73025	121923
10.73837	116311
10.74648	123168
10.75462	119373
10.76273	115455
10.77087	114810
10.77898	112835
10.78710	105474
10.79523	108994
10.80335	104904
10.81148	103602
10.81960	103599
10.82772	98807
10.83585	96433
10.84397	96215
10.85208	92321
10.86022	90150
10.86833	93815
10.87647	86425
10.88458	86097
10.89270	86550
10.90083	87218
10.90895	86372
10.91708	88143
10.92520	83473
10.93332	84584
10.94145	80255
10.94957	81605
10.95768	87176
10.96582	85864
10.97393	81794
10.98207	87264
10.99018	85599
10.99830	84695
11.00643	82647
11.01455	72815
11.02268	69962
11.03080	74945
11.03892	73823
11.04705	70833
11.05517	70119
11.06330	72101
11.07142	74467
11.07953	75041
11.08767	70673
11.09578	76636
11.10390	74521
11.11203	65862
11.12015	63980
11.12828	62233
11.13640	60440
11.14452	57676
11.15265	56281
11.16077	58743
11.16890	63447
11.17702	65294
11.18513	62745
11.19327	58812
11.20138	65521
11.20952	65166
11.21763	66430
11.22575	56992
11.23388	56274
11.24200	54427
11.25012	49284
11.25825	49073
11.26637	46122
11.27450	46313
11.28262	50022
11.29073	51030
11.29887	62302
11.30698	71558
11.31512	93406
11.32323	134143
11.33135	176625
11.33948	204340
11.34760	206695
11.35572	187170
11.36385	152244
11.37197	114524
11.38010	88789
11.38822	74480
11.39633	65810
11.40447	65022
11.41258	61771
11.42072	65667
11.42883	65203
11.43695	60981
11.44508	63688
11.45320	58566
11.46133	57540
11.46945	60088
11.47757	66698
11.48570	83079
11.49382	99848
11.50193	118368
11.51007	117396
11.51818	105213
11.52632	90285
11.53443	83750
11.54255	78715
11.55068	72564
11.55880	74278
11.56693	66040
11.57505	65066
11.58317	62685
11.59130	62315
11.59942	70797
11.60755	91218
11.61567	119667
11.62378	134252
11.63192	143801
11.64003	134238
11.64815	119039
11.65628	93030
11.66440	81139
11.67253	69877
11.68065	64499
11.68877	67570
11.69690	65714
11.70502	64699
11.71315	65394
11.72127	64505
11.72938	57364
11.73752	58742
11.74563	56245
11.75375	54547
11.76188	56074
11.77000	54333
11.77813	54766
11.78625	56276
11.79437	53241
11.80250	53406
11.81062	53468
11.81875	51945
11.82687	52296
11.83498	51451
11.84312	50615
11.85123	52167
11.85937	54875
11.86748	47522
11.87560	49195
11.88373	46852
11.89185	46563
11.89997	48174
11.90810	46640
11.91622	51671
11.92435	56524
11.93247	58291
11.94058	61877
11.94872	60683
11.95683	57092
11.96497	56387
11.97308	60616
11.98120	92384
11.98933	186438
11.99745	387723
12.00557	608745
12.01370	854615
12.02182	917616
12.02995	828268
12.03807	633307
12.04618	413019
12.05432	275349
12.06243	196868
12.07057	160187
12.07868	142701
12.08680	130620
12.09493	119234
12.10305	117484
12.11118	116057
12.11930	111936
12.12742	112020
12.13555	112272
12.14367	104920
12.15178	99759
12.15992	94613
12.16803	85429
12.17617	86317
12.18428	80876
12.19240	78985
12.20053	78143
12.20865	82269
12.21678	74496
12.22490	75681
12.23302	71890
12.24115	78049
12.24927	76313
12.25740	72805
12.26552	73781
12.27363	70853
12.28177	74796
12.28988	65338
12.29800	63733
12.30613	62266
12.31425	63414
12.32238	61750
12.33050	60815
12.33862	62140
12.34675	61927
12.35487	61050
12.36300	58903
12.37112	56618
12.37923	58603
12.38737	63650
12.39548	62235
12.40362	66180
12.41173	76345
12.41985	84488
12.42798	94793
12.43610	99573
12.44422	96176
12.45235	91113
12.46047	82387
12.46860	75291
12.47672	70385
12.48483	68885
12.49297	63921
12.50108	65707
12.50922	62758
12.51733	62700
12.52545	73036
12.53358	105629
12.54170	224882
12.54982	530496
12.55795	1144453
12.56607	1918191
12.57420	2432946
12.58232	2466891
12.59043	1970310
12.59857	1298239
12.60668	726420
12.61482	409727
12.62293	269001
12.63105	205904
12.63918	169931
12.64730	153771
12.65543	140138
12.66355	126461
12.67167	121554
12.67980	113993
12.68792	109079
12.69603	97327
12.70417	92194
12.71228	89482
12.72042	89890
12.72853	90915
12.73665	92452
12.74478	92374
12.75290	87063
12.76103	81515
12.76915	75947
12.77727	74058
12.78540	66566
12.79352	66524
12.80163	64195
12.80977	62706
12.81788	60142
12.82602	58730
12.83413	57272
12.84225	54908
12.85038	57024
12.85850	54917
12.86663	55560
12.87475	53613
12.88287	52585
12.89100	54923
12.89912	51261
12.90725	51315
12.91537	51228
12.92348	46513
12.93162	53993
12.93973	52155
12.94785	52442
12.95598	71356
12.96410	106930
12.97223	194978
12.98035	306663
12.98847	414895
12.99660	449441
13.00472	404604
13.01285	286506
13.02097	193171
13.02908	143170
13.03722	102280
13.04533	86082
13.05347	73733
13.06158	71898
13.06970	63193
13.07783	66479
13.08595	61923
13.09407	62729
13.10220	57580
13.11032	59466
13.11845	57319
13.12657	58948
13.13468	56294
13.14282	54517
13.15093	54170
13.15907	54133
13.16718	54485
13.17530	49321
13.18343	55313
13.19155	52521
13.19967	55740
13.20780	55698
13.21592	58939
13.22405	55387
13.23217	56526
13.24028	57747
13.24842	51817
13.25653	51823
13.26467	51937
13.27278	50565
13.28090	49671
13.28903	47589
13.29715	46390
13.30528	45278
13.31340	44730
13.32152	47244
13.32965	39860
13.33777	44816
13.34588	43218
13.35402	41674
13.36213	42238
13.37027	41129
13.37838	44979
13.38650	39030
13.39463	41015
13.40275	39091
13.41088	42615
13.41900	39208
13.42712	39301
13.43525	41811
13.44337	38485
13.45150	42421
13.45962	38804
13.46773	40129
13.47587	42311
13.48398	41226
13.49210	41032
13.50023	43110
13.50835	41003
13.51648	37908
13.52460	42449
13.53272	49292
13.54085	40818
13.54897	42409
13.55710	39148
13.56522	41709
13.57333	40261
13.58147	41746
13.58958	45827
13.59770	41348
13.60583	41938
13.61395	50177
13.62208	50412
13.63020	55280
13.63832	50104
13.64645	47290
13.65457	46748
13.66270	39952
13.67082	40679
13.67893	38929
13.68707	39588
13.69518	38224
13.70332	35736
13.71143	34231
13.71955	40753
13.72768	46021
13.73580	73017
13.74392	164229
13.75205	391598
13.76017	851139
13.76830	1633720
13.77642	2505735
13.78453	2939864
13.79267	2812955
13.80078	2337446
13.80892	1616759
13.81703	1042397
13.82515	693013
13.83328	531334
13.84140	453900
13.84952	397704
13.85765	362153
13.86577	302501
13.87390	272081
13.88202	242578
13.89013	233909
13.89827	216067
13.90638	202693
13.91452	190867
13.92263	185241
13.93075	174068
13.93888	166707
13.94700	166032
13.95513	178949
13.96325	196709
13.97137	231625
13.97950	283443
13.98762	310181
13.99573	300585
14.00387	272054
14.01198	231318
14.02012	205095
14.02823	171414
14.03635	148638
14.04448	143863
14.05260	139229
14.06073	142305
14.06885	127986
14.07697	127101
14.08510	130367
14.09322	126371
14.10135	123714
14.10947	124846
14.11758	122493
14.12572	122655
14.13383	137218
14.14195	157171
14.15008	173702
14.15820	195015
14.16633	215561
14.17445	198037
14.18257	205426
14.19070	237435
14.19882	273346
14.20695	310138
14.21507	330628
14.22318	326323
14.23132	308717
14.23943	271098
14.24755	247168
14.25568	229815
14.26380	202460
14.27193	185115
14.28005	162896
14.28817	152169
14.29630	139103
14.30442	127980
14.31255	120529
14.32067	117226
14.32878	115445
14.33692	111471
14.34503	114913
14.35317	117492
14.36128	103032
14.36940	99748
14.37753	85089
14.38565	77205
14.39377	73060
14.40190	75197
14.41002	76685
14.41815	79147
14.42627	83628
14.43438	85293
14.44252	78776
14.45063	75626
14.45877	70025
14.46688	65809
14.47500	66130
14.48313	61958
14.49125	61930
14.49938	65076
14.50750	74740
14.51562	74392
14.52375	78399
14.53187	84853
14.53998	77687
14.54812	75953
14.55623	69183
14.56437	64592
14.57248	60199
14.58060	58965
14.58873	54021
14.59685	52696
14.60498	55998
14.61310	51991
14.62122	55022
14.62935	49841
14.63747	47905
14.64558	50120
14.65372	48541
14.66183	49884
14.66997	50044
14.67808	49583
14.68620	48531
14.69433	48370
14.70245	47185
14.71058	53982
14.71870	49515
14.72682	53272
14.73495	44653
14.74307	51007
14.75120	57777
14.75932	53995
14.76743	55786
14.77557	57261
14.78368	61330
14.79180	96282
14.79993	218156
14.80805	513178
14.81618	1183382
14.82430	2157273
14.83242	3073243
14.84055	3609916
14.84867	3308397
14.85680	2542422
14.86492	1652256
14.87303	1018139
14.88117	645854
14.88928	446375
14.89740	348064
14.90553	292272
14.91365	254499
14.92178	226026
14.92990	207374
14.93802	194370
14.94615	187485
14.95427	183450
14.96240	189431
14.97052	193030
14.97863	198334
14.98677	203442
14.99488	191700
15.00302	165816
15.01113	150371
15.01925	138576
15.02738	124678
15.03550	118226
15.04362	109067
15.05175	107985
15.05987	102866
15.06800	98895
15.07612	96289
15.08423	95275
15.09237	96707
15.10048	91741
15.10862	91781
15.11673	92157
15.12485	89240
15.13298	97312
15.14110	97795
15.14923	102991
15.15735	96880
15.16547	88609
15.17360	84455
15.18172	75426
15.18983	67531
15.19797	59132
15.20608	57341
15.21422	59014
15.22233	57213
15.23045	58060
15.23858	52475
15.24670	52998
15.25483	47651
15.26295	46549
15.27107	48440
15.27920	47701
15.28732	46480
15.29543	46085
15.30357	48251
15.31168	42652
15.31982	47762
15.32793	49189
15.33605	43918
15.34418	49834
15.35230	48980
15.36043	46717
15.36855	44526
15.37667	43694
15.38480	43481
15.39292	51604
15.40105	54778
15.40917	59045
15.41728	65312
15.42542	70024
15.43353	67531
15.44165	57638
15.44978	57726
15.45790	49948
15.46603	48433
15.47415	49923
15.48227	55308
15.49040	69817
15.49852	75207
15.50665	76603
15.51477	80776
15.52288	73775
15.53102	79564
15.53913	85120
15.54727	90823
15.55538	87861
15.56350	81618
15.57163	65955
15.57975	55107
15.58787	53971
15.59600	53029
15.60412	46282
15.61225	45623
15.62037	46385
15.62848	45889
15.63662	42267
15.64473	43032
15.65287	45907
15.66098	48128
15.66910	40841
15.67723	40478
15.68535	42491
15.69347	40673
15.70160	44385
15.70972	42242
15.71785	40171
15.72597	41928
15.73408	41788
15.74222	45318
15.75033	49579
15.75847	61962
15.76658	93407
15.77470	141302
15.78283	208347
15.79095	270485
15.79908	292713
15.80720	259172
15.81532	206338
15.82345	150938
15.83157	111714
15.83968	89329
15.84782	73970
15.85593	73020
15.86407	65968
15.87218	67526
15.88030	60794
15.88843	66598
15.89655	67145
15.90468	57469
15.91280	58330
15.92092	56749
15.92905	56947
15.93717	59672
15.94530	63381
15.95342	76689
15.96153	97733
15.96967	128526
15.97778	152488
15.98590	170696
15.99403	159879
16.00215	142895
16.01028	125852
16.01840	101509
16.02652	90035
16.03465	86103
16.04277	77882
16.05090	71348
16.05902	70540
16.06713	63655
16.07527	59135
16.08338	61451
16.09150	53241
16.09963	51406
16.10775	50728
16.11588	53575
16.12400	56487
16.13212	53716
16.14025	53380
16.14837	56649
16.15650	56794
16.16462	54969
16.17273	54103
16.18087	52142
16.18898	52225
16.19712	50896
16.20523	48114
16.21335	48392
16.22148	49907
16.22960	51069
16.23772	46834
16.24585	46510
16.25397	46756
16.26210	47705
16.27022	47464
16.27833	47190
16.28647	46185
16.29458	50057
16.30272	50303
16.31083	47221
16.31895	49907
16.32708	53781
16.33520	52217
16.34332	59146
16.35145	75499
16.35957	109975
16.36770	148007
16.37582	198082
16.38393	233754
16.39207	227072
16.40018	202468
16.40832	152193
16.41643	115514
16.42455	96708
16.43268	83182
16.44080	83235
16.44893	110342
16.45705	161224
16.46517	293033
16.47330	506607
16.48142	722234
16.48953	843483
16.49767	799008
16.50578	610335
16.51392	430971
16.52203	267578
16.53015	187498
16.53828	138955
16.54640	121451
16.55453	108325
16.56265	103463
16.57077	95715
16.57890	89436
16.58702	90238
16.59515	94419
16.60327	97852
16.61138	102195
16.61952	99167
16.62763	99482
16.63575	97168
16.64388	87408
16.65200	76656
16.66013	75071
16.66825	66438
16.67637	64525
16.68450	64155
16.69262	65254
16.70075	62650
16.70887	61996
16.71698	56562
16.72512	57352
16.73323	53853
16.74135	59414
16.74948	60002
16.75760	60324
16.76573	63583
16.77385	63701
16.78197	60921
16.79010	60350
16.79822	54970
16.80635	53733
16.81447	49487
16.82258	46420
16.83072	46740
16.83883	43719
16.84697	49783
16.85508	43564
16.86320	44726
16.87133	45169
16.87945	41261
16.88757	45335
16.89570	40409
16.90382	46775
16.91195	42017
16.92007	43261
16.92818	41627
16.93632	41112
16.94443	38860
16.95257	43991
16.96068	42469
16.96880	41980
16.97693	41457
16.98505	42239
16.99318	41536
17.00130	42144
17.00942	42740
17.01755	43960
17.02567	44263
17.03378	44546
17.04192	45836
17.05003	49612
17.05817	56403
17.06628	52374
17.07440	54468
17.08253	54612
17.09065	51802
17.09878	57718
17.10690	60988
17.11502	63946
17.12315	64226
17.13127	62073
17.13938	58977
17.14752	52656
17.15563	54314
17.16377	53913
17.17188	51515
17.18000	50364
17.18813	46183
17.19625	44732
17.20438	41141
17.21250	41349
17.22062	42627
17.22875	41580
17.23687	45282
17.24500	45240
17.25312	41473
17.26123	47090
17.26937	43022
17.27748	44903
17.28560	53192
17.29373	41667
17.30185	40860
17.30998	46166
17.31810	48647
17.32622	58080
17.33435	63535
17.34247	70076
17.35060	81727
17.35872	83481
17.36683	83772
17.37497	85328
17.38308	78716
17.39120	74094
17.39933	67544
17.40745	61515
17.41558	59234
17.42370	57660
17.43182	60733
17.43995	53611
17.44807	50046
17.45620	54765
17.46432	52536
17.47243	47465
17.48057	51190
17.48868	49185
17.49682	47495
17.50493	45338
17.51305	44005
17.52118	42450
17.52930	44780
17.53742	44666
17.54555	46540
17.55367	48554
17.56180	56793
17.56992	72982
17.57803	116949
17.58617	175344
17.59428	251052
17.60242	340636
17.61053	419372
17.61865	439443
17.62678	398288
17.63490	336049
17.64303	287282
17.65115	266222
17.65927	254662
17.66740	266559
17.67552	248979
17.68363	231560
17.69177	194550
17.69988	172041
17.70802	134917
17.71613	118180
17.72425	98852
17.73238	89173
17.74050	91044
17.74863	78343
17.75675	73217
17.76487	81276
17.77300	68873
17.78112	76004
17.78925	87876
17.79737	115233
17.80548	185132
17.81362	308802
17.82173	455098
17.82985	586592
17.83798	611570
17.84610	554881
17.85423	436291
17.86235	320480
17.87047	228310
17.87860	178336
17.88672	144033
17.89485	126262
17.90297	108233
17.91108	100671
17.91922	94742
17.92733	87493
17.93545	81334
17.94358	79502
17.95170	76022
17.95983	73857
17.96795	72629
17.97607	65011
17.98420	68063
17.99232	67967
18.00045	62808
18.00857	67117
18.01668	72013
18.02482	80139
18.03293	83964
18.04107	98943
18.04918	104975
18.05730	141967
18.06543	229924
18.07355	443929
18.08167	782346
18.08980	1133253
18.09792	1415338
18.10605	1487128
18.11417	1249755
18.12228	974737
18.13042	693102
18.13853	531436
18.14667	434372
18.15478	372226
18.16290	313850
18.17103	285472
18.17915	253585
18.18727	234865
18.19540	218555
18.20352	210174
18.21165	194683
18.21977	182537
18.22788	167636
18.23602	157277
18.24413	145710
18.25227	145002
18.26038	134006
18.26850	128863
18.27663	119319
18.28475	140617
18.29288	179826
18.30100	233814
18.30912	295324
18.31725	327212
18.32537	353563
18.33348	348437
18.34162	357281
18.34973	369181
18.35787	377521
18.36598	386771
18.37410	386201
18.38223	395457
18.39035	415180
18.39848	488271
18.40660	608387
18.41472	747919
18.42285	892877
18.43097	945399
18.43910	896415
18.44722	788166
18.45533	673139
18.46347	591411
18.47158	583228
18.47970	579467
18.48783	562425
18.49595	533933
18.50408	502921
18.51220	446907
18.52032	426122
18.52845	383784
18.53657	368954
18.54470	359658
18.55282	333328
18.56093	334260
18.56907	323338
18.57718	314273
18.58530	314105
18.59343	306873
18.60155	303902
18.60968	305705
18.61780	298853
18.62592	296793
18.63405	284125
18.64217	280883
18.65030	284698
18.65842	274847
18.66653	281684
18.67467	271566
18.68278	267357
18.69092	264320
18.69903	264059
18.70715	273138
18.71528	259010
18.72340	255841
18.73152	254111
18.73965	249905
18.74777	240607
18.75590	240496
18.76402	227577
18.77213	229230
18.78027	235687
18.78838	225445
18.79652	219103
18.80463	216180
18.81275	214455
18.82088	219033
18.82900	210187
18.83713	211412
18.84525	210233
18.85337	203802
18.86150	206701
18.86962	202770
18.87773	202757
18.88587	193698
18.89398	200705
18.90212	197360
18.91023	195881
18.91835	193245
18.92648	195745
18.93460	202976
18.94273	197114
18.95085	203522
18.95897	193300
18.96710	201823
18.97522	195358
18.98333	193464
18.99147	194538
18.99958	187655
19.00772	179377
19.01583	174552
19.02395	165725
19.03208	172692
19.04020	165028
19.04833	167135
19.05645	167515
19.06457	171670
19.07270	177154
19.08082	195769
19.08895	248347
19.09707	285087
19.10518	338117
19.11332	338813
19.12143	335886
19.12955	290780
19.13768	256611
19.14580	231223
19.15393	206628
19.16205	189923
19.17017	174565
19.17830	173781
19.18642	165668
19.19455	163980
19.20267	156152
19.21078	155029
19.21892	149604
19.22703	147697
19.23515	146352
19.24328	139539
19.25140	139232
19.25953	148299
19.26765	141826
19.27577	137268
19.28390	143939
19.29202	139217
19.30015	144474
19.30827	149767
19.31638	147662
19.32452	137634
19.33263	146118
19.34077	141032
19.34888	142784
19.35700	154687
19.36513	184410
19.37325	197587
19.38137	213541
19.38950	205132
19.39762	189996
19.40575	167713
19.41387	152280
19.42198	141366
19.43012	135038
19.43823	128103
19.44637	121475
19.45448	123722
19.46260	124178
19.47073	126770
19.47885	130189
19.48698	142484
19.49510	172147
19.50322	207280
19.51135	242904
19.51947	264749
19.52758	249329
19.53572	209269
19.54383	174079
19.55197	143693
19.56008	133139
19.56820	116656
19.57633	120176
19.58445	116447
19.59258	111124
19.60070	105086
19.60882	105280
19.61695	104156
19.62507	106114
19.63318	112836
19.64132	127114
19.64943	161398
19.65757	212156
19.66568	265811
19.67380	313982
19.68193	344880
19.69005	350186
19.69818	304721
19.70630	287914
19.71442	252432
19.72255	221667
19.73067	199878
19.73880	177814
19.74692	161604
19.75503	150715
19.76317	138303
19.77128	124222
19.77940	125645
19.78753	124535
19.79565	121800
19.80378	124554
19.81190	116460
19.82002	115068
19.82815	115883
19.83627	109925
19.84440	116182
19.85252	131726
19.86063	239022
19.86877	468673
19.87688	944505
19.88502	1713502
19.89313	2665744
19.90125	3490691
19.90938	3746171
19.91750	3335208
19.92562	2664467
19.93375	1925218
19.94187	1340717
19.95000	985707
19.95812	778108
19.96623	650154
19.97437	599264
19.98248	543682
19.99062	520427
19.99873	467716
20.00685	452209
20.01498	411899
20.02310	388903
20.03122	367420
20.03935	347483
20.04747	328172
20.05560	265155
20.06372	229689
20.07183	205747
20.07997	175173
20.08808	155056
20.09622	150461
20.10433	141463
20.11245	139495
20.12058	130433
20.12870	129009
20.13683	118586
20.14495	122410
20.15307	123495
20.16120	125664
20.16932	135066
20.17743	144882
20.18557	139546
20.19368	148617
20.20182	150917
20.20993	157454
20.21805	136573
20.22618	131105
20.23430	122028
20.24243	132310
20.25055	147730
20.25867	176786
20.26680	223468
20.27492	278873
20.28305	324686
20.29117	333108
20.29928	334288
20.30742	298044
20.31553	258660
20.32365	222964
20.33178	187514
20.33990	160356
20.34803	133824
20.35615	121646
20.36427	114920
20.37240	104556
20.38052	96813
20.38865	96467
20.39677	89229
20.40488	88442
20.41302	87173
20.42113	89951
20.42925	99702
20.43738	108424
20.44550	118679
20.45363	124827
20.46175	130948
20.46987	131827
20.47800	129859
20.48612	124906
20.49425	118859
20.50237	104598
20.51048	98133
20.51862	93263
20.52673	82043
20.53487	85423
20.54298	83038
20.55110	85049
20.55923	79120
20.56735	74935
20.57547	79011
20.58360	74010
20.59172	75523
20.59985	71562
20.60797	70114
20.61608	72784
20.62422	68576
20.63233	67981
20.64047	66426
20.64858	70446
20.65670	67474
20.66483	68537
20.67295	68975
20.68107	64581
20.68920	64872
20.69732	66496
20.70545	63225
20.71357	70934
20.72168	64782
20.72982	69880
20.73793	66849
20.74607	64058
20.75418	62862
20.76230	67854
20.77043	68761
20.77855	70086
20.78668	81080
20.79480	90760
20.80292	120257
20.81105	148393
20.81917	161428
20.82728	169647
20.83542	162794
20.84353	136039
20.85167	108149
20.85978	93887
20.86790	79749
20.87603	80407
20.88415	69427
20.89228	69580
20.90040	64355
20.90852	65802
20.91665	63647
20.92477	65981
20.93290	67446
20.94102	64106
20.94913	62465
20.95727	66000
20.96538	64913
20.97350	60264
20.98163	61229
20.98975	57827
20.99788	61214
21.00600	59911
21.01412	57404
21.02225	61199
21.03037	61388
21.03850	61191
21.04662	58460
21.05473	63446
21.06287	62872
21.07098	61654
21.07910	66515
21.08723	64402
21.09535	60504
21.10348	64467
21.11160	63340
21.11972	60840
21.12785	62014
21.13597	64461
21.14410	65657
21.15222	76550
21.16033	82415
21.16847	85032
21.17658	91464
21.18472	82174
21.19283	74219
21.20095	66618
21.20908	66253
21.21720	70063
21.22532	61567
21.23345	62396
21.24157	62402
21.24970	59075
21.25782	63935
21.26593	60929
21.27407	60887
21.28218	60053
21.29032	59143
21.29843	57222
21.30655	57521
21.31468	56843
21.32280	54465
21.33093	54817
21.33905	54967
21.34717	54211
21.35530	57959
21.36342	52779
21.37153	57087
21.37967	67482
21.38778	63452
21.39592	68882
21.40403	78050
21.41215	84266
21.42028	92670
21.42840	82926
21.43653	77851
21.44465	71038
21.45277	67123
21.46090	63759
21.46902	59858
21.47713	63883
21.48527	60412
21.49338	59980
21.50152	56537
21.50963	54035
21.51775	56330
21.52588	55142
21.53400	55515
21.54213	55792
21.55025	55166
21.55837	56592
21.56650	58266
21.57462	54766
21.58275	59168
21.59087	64670
21.59898	61471
21.60712	73377
21.61523	71350
21.62335	77747
21.63148	86253
21.63960	84663
21.64773	96794
21.65585	96800
21.66397	96683
21.67210	92634
21.68022	84450
21.68835	82901
21.69647	75208
21.70458	72973
21.71272	71201
21.72083	62593
21.72895	63751
21.73708	58226
21.74520	59448
21.75333	59686
21.76145	56306
21.76957	57788
21.77770	58810
21.78582	64651
21.79395	60495
21.80207	67418
21.81018	63857
21.81832	69687
21.82643	74646
21.83457	82708
21.84268	88324
21.85080	86731
21.85893	85409
21.86705	80651
21.87517	74090
21.88330	70584
21.89142	68443
21.89955	66554
21.90767	61001
21.91578	56503
21.92392	55497
21.93203	55587
21.94017	52717
21.94828	51248
21.95640	52341
21.96453	47862
21.97265	48583
21.98078	46434
21.98890	51401
21.99702	47951
22.00515	46552
22.01327	49782
22.02138	50584
22.02952	52521
22.03763	49429
22.04577	51822
22.05388	46577
22.06200	50766
22.07013	47766
22.07825	49438
22.08638	49161
22.09450	50370
22.10262	46679
22.11075	48474
22.11887	51792
22.12700	48782
22.13512	55570
22.14323	52558
22.15137	48720
22.15948	46506
22.16760	48153
22.17573	47821
22.18385	45957
22.19198	52593
22.20010	48632
22.20822	51240
22.21635	49140
22.22447	52612
22.23260	55988
22.24072	55594
22.24883	55843
22.25697	50062
22.26508	52260
22.27320	51527
22.28133	54431
22.28945	49740
22.29758	52593
22.30570	57700
22.31382	54855
22.32195	56404
22.33007	54141
22.33820	57065
22.34632	59062
22.35443	56544
22.36257	55237
22.37068	53670
22.37882	58176
22.38693	61725
22.39505	71346
22.40318	72479
22.41130	84405
22.41942	102289
22.42755	104002
22.43567	102164
22.44380	92978
22.45192	89064
22.46003	78068
22.46817	78005
22.47628	71184
22.48442	77155
22.49253	75495
22.50065	79065
22.50878	84235
22.51690	77549
22.52502	74699
22.53315	70713
22.54127	71706
22.54940	69738
22.55752	68717
22.56563	65029
22.57377	60578
22.58188	61503
22.59002	60456
22.59813	52595
22.60625	53849
22.61438	52382
22.62250	47415
22.63063	51494
22.63875	48884
22.64687	49998
22.65500	49254
22.66312	50537
22.67123	50323
22.67937	52760
22.68748	53451
22.69562	55921
22.70373	56414
22.71185	54656
22.71998	62519
22.72810	60019
22.73623	59058
22.74435	55027
22.75247	55643
22.76060	52331
22.76872	51099
22.77685	52690
22.78497	53190
22.79308	65082
22.80122	70309
22.80933	77055
22.81745	76508
22.82558	82759
22.83370	71180
22.84183	68524
22.84995	62790
22.85807	58792
22.86620	60319
22.87432	63913
22.88245	71992
22.89057	79478
22.89868	87129
22.90682	115013
22.91493	122772
22.92305	143186
22.93118	154158
22.93930	150283
22.94743	149401
22.95555	142660
22.96367	129135
22.97180	120081
22.97992	111177
22.98805	105940
22.99617	98841
23.00428	96078
23.01242	96702
23.02053	91268
23.02867	88356
23.03678	88772
23.04490	92316
23.05303	86779
23.06115	86190
23.06927	82322
23.07740	84376
23.08552	84226
23.09365	81157
23.10177	83435
23.10988	80672
23.11802	74328
23.12613	74254
23.13427	74732
23.14238	77086
23.15050	79485
23.15863	77259
23.16675	78719
23.17488	74293
23.18300	79007
23.19112	80879
23.19925	83613
23.20737	74477
23.21548	77673
23.22362	71661
23.23173	70505
23.23987	73296
23.24798	75804
23.25610	75815
23.26423	74312
23.27235	76351
23.28048	77501
23.28860	72680
23.29672	74146
23.30485	74446
23.31297	71399
23.32108	76085
23.32922	75327
23.33733	85165
23.34547	99698
23.35358	130701
23.36170	183931
23.36983	254125
23.37795	361843
23.38608	461900
23.39420	581029
23.40232	654578
23.41045	729697
23.41857	776501
23.42670	798717
23.43482	804118
23.44293	759923
23.45107	726699
23.45918	688202
23.46730	647809
23.47543	606642
23.48355	554977
23.49168	510887
23.49980	462913
23.50792	435071
23.51605	393803
23.52417	360938
23.53230	334859
23.54042	311435
23.54853	294811
23.55667	272073
23.56478	272092
23.57290	255813
23.58103	262026
23.58915	269136
23.59728	282198
23.60540	288036
23.61352	280591
23.62165	268158
23.62977	248428
23.63790	225389
23.64602	226228
23.65413	222579
23.66227	225263
23.67038	222263
23.67852	216549
23.68663	193537
23.69475	181409
23.70288	159324
23.71100	151110
23.71912	139687
23.72725	138171
23.73537	130730
23.74350	143507
23.75162	185411
23.75973	298349
23.76787	576968
23.77598	1075754
23.78412	1741664
23.79223	2401426
23.80035	2725346
23.80848	2681303
23.81660	2365710
23.82473	1866855
23.83285	1443491
23.84097	1084559
23.84910	861368
23.85722	696627
23.86533	578559
23.87347	501505
23.88158	434342
23.88972	374999
23.89783	346496
23.90595	318127
23.91408	304062
23.92220	292962
23.93033	272246
23.93845	253771
23.94657	234412
23.95470	223374
23.96282	205462
23.97093	199162
23.97907	188905
23.98718	184214
23.99532	187590
24.00343	248200
24.01155	340205
24.01968	542003
24.02780	787543
24.03593	998168
24.04405	1091142
24.05217	969944
24.06030	743811
24.06842	500976
24.07655	328981
24.08467	228214
24.09278	181421
24.10092	157418
24.10903	147595
24.11715	139135
24.12528	133945
24.13340	142497
24.14153	133471
24.14965	132893
24.15777	132750
24.16590	127608
24.17402	131591
24.18215	127058
24.19027	122324
24.19838	117812
24.20652	120499
24.21463	122786
24.22277	116015
24.23088	111718
24.23900	113461
24.24713	111105
24.25525	102954
24.26337	99230
24.27150	94542
24.27962	94820
24.28775	96535
24.29587	87665
24.30398	88865
24.31212	87033
24.32023	91861
24.32837	92525
24.33648	85546
24.34460	89398
24.35273	88448
24.36085	90178
24.36897	94089
24.37710	108068
24.38522	143285
24.39335	175753
24.40147	196976
24.40958	218042
24.41772	209632
24.42583	197611
24.43397	190789
24.44208	175093
24.45020	174317
24.45833	185253
24.46645	192516
24.47458	191264
24.48270	203077
24.49082	206306
24.49895	213431
24.50707	216859
24.51518	223547
24.52332	211532
24.53143	220176
24.53957	213068
24.54768	212219
24.55580	208472
24.56393	203752
24.57205	203274
24.58018	202061
24.58830	198036
24.59642	196992
24.60455	196790
24.61267	206374
24.62078	201712
24.62892	201183
24.63703	215389
24.64517	214971
24.65328	217704
24.66140	215116
24.66953	211342
24.67765	206502
24.68578	212947
24.69390	207834
24.70202	206318
24.71015	205535
24.71827	202055
24.72640	199403
24.73452	192414
24.74263	192737
24.75077	193958
24.75888	201353
24.76700	199160
24.77513	194950
24.78325	194729
24.79138	190014
24.79950	189244
24.80762	186660
24.81575	184968
24.82387	177679
24.83200	193109
24.84012	197553
24.84823	211532
24.85637	250770
24.86448	295080
24.87262	361473
24.88073	427449
24.88885	504876
24.89698	530482
24.90510	519950
24.91322	457835
24.92135	369000
24.92947	290436
24.93760	226857
24.94572	188650
24.95383	153430
24.96197	131002
24.97008	112987
24.97822	99463
24.98633	103436
24.99445	98854
25.00258	88066
25.01070	85167
25.01882	85986
25.02695	82698
25.03507	76844
25.04320	82607
25.05132	78948
25.05943	79355
25.06757	81775
25.07568	78338
25.08382	85040
25.09193	87932
25.10005	108538
25.10818	178045
25.11630	341536
25.12443	631520
25.13255	1031903
25.14067	1497372
25.14880	1794001
25.15692	1792839
25.16503	1544883
25.17317	1168895
25.18128	770118
25.18942	471234
25.19753	294726
25.20565	200437
25.21378	144184
25.22190	119582
25.23003	111802
25.23815	112198
25.24627	120683
25.25440	129051
25.26252	144385
25.27065	161541
25.27877	157645
25.28688	151185
25.29502	142042
25.30313	121557
25.31125	106718
25.31938	101546
25.32750	89228
25.33563	87601
25.34375	82645
25.35187	74836
25.36000	79305
25.36812	87859
25.37625	108122
25.38437	139217
25.39248	185011
25.40062	218530
25.40873	253755
25.41685	268120
25.42498	276303
25.43310	273751
25.44123	284786
25.44935	291556
25.45747	287856
25.46560	303169
25.47372	293214
25.48185	300037
25.48997	302832
25.49808	304562
25.50622	295604
25.51433	293493
25.52247	287137
25.53058	294074
25.53870	291415
25.54683	288235
25.55495	272211
25.56307	281849
25.57120	279509
25.57932	277947
25.58745	274854
25.59557	276091
25.60368	272778
25.61182	284360
25.61993	311055
25.62807	346472
25.63618	391346
25.64430	435802
25.65243	453289
25.66055	431592
25.66868	374294
25.67680	332354
25.68492	286082
25.69305	271172
25.70117	250820
25.70928	241360
25.71742	237160
25.72553	235369
25.73367	227734
25.74178	229311
25.74990	228140
25.75803	218604
25.76615	218433
25.77428	218033
25.78240	222534
25.79052	214890
25.79865	216900
25.80677	211544
25.81488	211495
25.82302	214263
25.83113	216994
25.83927	223412
25.84738	222730
25.85550	225088
25.86363	222610
25.87175	209719
25.87988	210905
25.88800	191352
25.89612	185055
25.90425	175619
25.91237	165398
25.92050	166617
25.92862	161374
25.93673	162655
25.94487	168693
25.95298	164447
25.96110	147705
25.96923	157022
25.97735	158394
25.98548	147970
25.99360	152662
26.00172	148055
26.00985	138785
26.01797	141667
26.02610	140715
26.03422	138506
26.04233	136435
26.05047	145881
26.05858	133608
26.06670	135939
26.07483	131628
26.08295	132592
26.09108	129709
26.09920	130537
26.10732	129445
26.11545	130694
26.12357	125499
26.13170	127784
26.13982	125715
26.14793	128369
26.15607	126473
26.16418	122774
26.17232	130137
26.18043	124272
26.18855	129930
26.19668	118859
26.20480	112984
26.21292	118479
26.22105	108060
26.22917	108675
26.23730	105318
26.24542	109173
26.25353	107847
26.26167	106944
26.26978	107259
26.27792	98382
26.28603	99425
26.29415	94756
26.30228	97651
26.31040	92929
26.31853	96820
26.32665	92515
26.33477	91005
26.34290	91501
26.35102	90963
26.35913	91566
26.36727	88394
26.37538	96099
26.38352	100389
26.39163	97854
26.39975	101618
26.40788	102586
26.41600	101538
26.42413	96246
26.43225	94602
26.44037	84852
26.44850	81888
26.45662	82707
26.46473	91479
26.47287	85541
26.48098	89759
26.48912	91658
26.49723	86913
26.50535	77432
26.51348	78953
26.52160	77648
26.52973	74576
26.53785	71615
26.54597	72124
26.55410	73956
26.56222	66865
26.57035	73285
26.57847	74358
26.58658	70864
26.59472	70516
26.60283	70490
26.61095	70148
26.61908	68020
26.62720	70289
26.63533	64482
26.64345	65565
26.65157	72740
26.65970	73628
26.66782	77647
26.67595	81864
26.68407	77493
26.69218	77034
26.70032	76303
26.70843	67797
26.71657	67232
26.72468	66488
26.73280	68414
26.74093	71359
26.74905	63539
26.75717	61741
26.76530	65459
26.77342	61313
26.78155	65088
26.78967	62381
26.79778	67703
26.80592	62767
26.81403	67226
26.82217	66800
26.83028	65645
26.83840	62263
26.84653	63750
26.85465	62492
26.86277	63143
26.87090	61793
26.87902	62118
26.88715	62550
26.89527	62326
26.90338	63577
26.91152	59568
26.91963	59212
26.92777	55502
26.93588	59105
26.94400	57044
26.95213	61052
26.96025	60827
26.96838	72681
26.97650	81600
26.98462	110312
26.99275	154359
27.00087	229496
27.00898	335607
27.01712	435290
27.02523	524788
27.03337	573036
27.04148	574660
27.04960	545208
27.05773	461846
27.06585	398583
27.07398	342114
27.08210	271035
27.09022	240037
27.09835	211180
27.10647	192949
27.11458	175156
27.12272	164327
27.13083	151068
27.13897	145887
27.14708	136274
27.15520	123614
27.16333	126710
27.17145	117696
27.17958	126145
27.18770	127408
27.19582	115916
27.20395	111201
27.21207	114603
27.22020	114508
27.22832	107367
27.23643	97406
27.24457	91044
27.25268	96146
27.26080	95434
27.26893	90201
27.27705	84696
27.28518	84810
27.29330	86396
27.30142	77260
27.30955	77813
27.31767	75315
27.32580	76684
27.33392	77660
27.34203	76364
27.35017	73003
27.35828	69186
27.36642	75057
27.37453	72802
27.38265	73015
27.39078	72451
27.39890	67472
27.40702	71312
27.41515	69769
27.42327	62368
27.43140	62591
27.43952	60693
27.44763	67229
27.45577	65137
27.46388	64543
27.47202	60404
27.48013	61141
27.48825	57427
27.49638	64481
27.50450	58772
27.51263	59801
27.52075	61085
27.52887	58528
27.53700	63994
27.54512	60213
27.55323	61004
27.56137	61748
27.56948	60337
27.57762	65534
27.58573	67424
27.59385	72056
27.60198	75709
27.61010	76206
27.61823	75374
27.62635	70578
27.63447	66619
27.64260	65914
27.65072	58540
27.65883	59509
27.66697	56923
27.67508	54171
27.68322	54959
27.69133	57317
27.69945	53365
27.70758	59564
27.71570	55614
27.72383	52261
27.73195	52936
27.74007	49222
27.74820	51893
27.75632	53569
27.76445	51678
27.77257	54053
27.78068	49854
27.78882	52384
27.79693	55929
27.80505	56523
27.81318	54957
27.82130	55114
27.82943	53424
27.83755	53614
27.84567	51456
27.85380	51978
27.86192	52247
27.87005	53273
27.87817	53744
27.88628	48894
27.89442	52208
27.90253	47706
27.91065	51197
27.91878	51275
27.92690	46237
27.93503	48695
27.94315	50807
27.95127	48140
27.95940	45225
27.96752	47305
27.97565	43968
27.98377	49519
27.99188	47212
28.00002	49076
28.00813	53274
28.01627	50438
28.02438	46928
28.03250	51325
28.04063	53375
28.04875	52495
28.05687	54590
28.06500	56973
28.07312	55744
28.08125	56029
28.08937	60421
28.09748	51133
28.10562	51418
28.11373	54030
28.12187	54305
28.12998	50946
28.13810	47229
28.14623	44274
28.15435	46515
28.16248	50677
28.17060	50557
28.17872	50800
28.18685	52979
28.19497	62209
28.20308	72591
28.21122	76546
28.21933	74962
28.22747	79181
28.23558	76595
28.24370	73692
28.25183	64173
28.25995	62325
28.26808	56673
28.27620	52952
28.28432	52999
28.29245	53036
28.30057	57690
28.30868	57489
28.31682	63308
28.32493	71401
28.33307	83708
28.34118	101887
28.34930	115650
28.35743	130532
28.36555	151260
28.37368	158742
28.38180	169568
28.38992	177791
28.39805	185041
28.40617	186928
28.41430	188778
28.42242	179529
28.43053	165552
28.43867	145549
28.44678	139337
28.45490	129595
28.46303	122704
28.47115	114448
28.47928	108479
28.48740	107306
28.49552	102361
28.50365	94355
28.51177	95885
28.51990	92258
28.52802	88577
28.53613	82413
28.54427	77365
28.55238	82593
28.56052	76463
28.56863	77212
28.57675	81065
28.58488	70000
28.59300	72270
28.60112	68753
28.60925	68529
28.61737	74798
28.62550	66651
28.63362	67875
28.64173	72938
28.64987	76480
28.65798	71543
28.66612	70111
28.67423	69911
28.68235	73964
28.69048	70288
28.69860	67274
28.70672	66236
28.71485	58784
28.72297	60915
28.73110	62539
28.73922	61781
28.74733	65950
28.75547	71361
28.76358	78207
28.77172	80186
28.77983	85113
28.78795	79544
28.79608	78572
28.80420	77768
28.81233	70847
28.82045	69277
28.82857	63769
28.83670	57318
28.84482	63372
28.85293	57214
28.86107	56786
28.86918	57640
28.87732	59976
28.88543	67169
28.89355	63079
28.90168	67460
28.90980	68614
28.91793	64627
28.92605	62418
28.93417	61487
28.94230	59596
28.95042	63104
28.95853	61677
28.96667	59458
28.97478	60601
28.98292	55774
28.99103	53746
28.99915	54831
29.00728	53942
29.01540	49813
29.02353	45481
29.03165	55124
29.03977	49013
29.04790	48456
29.05602	55267
29.06415	52310
29.07227	53242
29.08038	50747
29.08852	51003
29.09663	53234
29.10475	56077
29.11288	54905
29.12100	52239
29.12913	48026
29.13725	46138
29.14537	46995
29.15350	50567
29.16162	49615
29.16975	51596
29.17787	54370
29.18598	57928
29.19412	66078
29.20223	75925
29.21037	86485
29.21848	97277
29.22660	89086
29.23473	87051
29.24285	92678
29.25097	90057
29.25910	95211
29.26722	100787
29.27535	100583
29.28347	96721
29.29158	82965
29.29972	74074
29.30783	61319
29.31597	54635
29.32408	54415
29.33220	46686
29.34033	47242
29.34845	44347
29.35657	48746
29.36470	49837
29.37282	50502
29.38095	50767
29.38907	62402
29.39718	85291
29.40532	134707
29.41343	202014
29.42157	289157
29.42968	361693
29.43780	370476
29.44593	334766
29.45405	253113
29.46218	186661
29.47030	134932
29.47842	100985
29.48655	85688
29.49467	86776
29.50278	73142
29.51092	75714
29.51903	76901
29.52717	70584
29.53528	67113
29.54340	62864
29.55153	69543
29.55965	58107
29.56778	57385
29.57590	62214
29.58402	54035
29.59215	57356
29.60027	57228
29.60840	52210
29.61652	58139
29.62463	52031
29.63277	53654
29.64088	52199
29.64900	53522
29.65713	50853
29.66525	46168
29.67338	51944
29.68150	54496
29.68962	56218
29.69775	57916
29.70587	58133
29.71400	50954
29.72212	59682
29.73023	52629
29.73837	51565
29.74648	48317
29.75460	52114
29.76273	46140
29.77085	47244
29.77898	46333
29.78710	47678
29.79522	45902
29.80335	46382
29.81147	46856
29.81960	46449
29.82772	45126
29.83583	42844
29.84397	49704
29.85208	45527
29.86022	49605
29.86833	53658
29.87645	55709
29.88458	68760
29.89270	83714
29.90082	94693
29.90895	94016
29.91707	95337
29.92520	82221
29.93332	68729
29.94143	64178
29.94957	61873
29.95768	60114
29.96582	63000
29.97393	65749
29.98205	67637
29.99018	75601
29.99830	82629
30.00642	90980
30.01455	98520
30.02267	102958
30.03080	103538
30.03892	106665
30.04703	108061
30.05517	107528
30.06328	109487
30.07142	115783
30.07953	108961
30.08765	104721
30.09578	104039
30.10390	106145
30.11203	102254
30.12015	98873
30.12827	92845
30.13640	92549
30.14452	90136
30.15263	88254
30.16077	87154
30.16888	82520
30.17702	78879
30.18513	79339
30.19325	76587
30.20138	75248
30.20950	74721
30.21763	69554
30.22575	72299
30.23387	62436
30.24200	65097
30.25012	64408
30.25825	65188
30.26637	62365
30.27448	57776
30.28262	61590
30.29073	61714
30.29885	56554
30.30698	56421
30.31510	53327
30.32323	57601
30.33135	55519
30.33947	56813
30.34760	54711
30.35572	54797
30.36385	54092
30.37197	56439
30.38008	51960
30.38822	50632
30.39633	48531
30.40445	52117
30.41258	50443
30.42070	50948
30.42883	50372
30.43695	50355
30.44507	44241
30.45320	49488
30.46132	45156
30.46945	49997
30.47757	47475
30.48568	50224
30.49382	52346
30.50193	47922
30.51007	49948
30.51818	53571
30.52630	50077
30.53443	48475
30.54255	45852
30.55067	44315
30.55880	48840
30.56692	50042
30.57505	46943
30.58317	50718
30.59128	47792
30.59942	41753
30.60753	50026
30.61567	47917
30.62378	44884
30.63190	47109
30.64003	52337
30.64815	62159
30.65628	70601
30.66440	70322
30.67252	80264
30.68065	72770
30.68877	78187
30.69688	79424
30.70502	84596
30.71313	88274
30.72127	92986
30.72938	88889
30.73750	90885
30.74563	93546
30.75375	91823
30.76188	94134
30.77000	104994
30.77812	128811
30.78625	183363
30.79437	243505
30.80248	325396
30.81062	378064
30.81873	390402
30.82687	370456
30.83498	277019
30.84310	213964
30.85123	166949
30.85935	126664
30.86748	117008
30.87560	110010
30.88372	105220
30.89185	109203
30.89997	97978
30.90810	102787
30.91622	104075
30.92433	105741
30.93247	97359
30.94058	96739
30.94870	96005
30.95683	95108
30.96495	93032
30.97308	92262
30.98120	93023
30.98932	94848
30.99745	93550
31.00557	86462
31.01370	91424
31.02182	88432
31.02993	91652
31.03807	88578
31.04618	92148
31.05432	92304
31.06243	94765
31.07055	87443
31.07868	97779
31.08680	102394
31.09492	104243
31.10305	111897
31.11117	111793
31.11930	112679
31.12742	105347
31.13553	95912
31.14367	94361
31.15178	88579
31.15992	95623
31.16803	96550
31.17615	96753
31.18428	104084
31.19240	123268
31.20052	145881
31.20865	178911
31.21677	205406
31.22490	235736
31.23302	244383
31.24113	209035
31.24927	178729
31.25738	154614
31.26552	120895
31.27363	98765
31.28175	89212
31.28988	85074
31.29800	71603
31.30613	80141
31.31425	78493
31.32237	74241
31.33050	75661
31.33862	77640
31.34673	76499
31.35487	70538
31.36298	73076
31.37112	76074
31.37923	71310
31.38735	78819
31.39548	77226
31.40360	75427
31.41173	69336
31.41985	69575
31.42797	69602
31.43610	70103
31.44422	66099
31.45233	62200
31.46047	63607
31.46858	64252
31.47672	61386
31.48483	65158
31.49295	58291
31.50108	61572
31.50920	65419
31.51733	63876
31.52545	64256
31.53357	63175
31.54170	59269
31.54982	61045
31.55795	59318
31.56607	65409
31.57418	62406
31.58232	61122
31.59043	59969
31.59855	59459
31.60668	54423
31.61480	57669
31.62293	57221
31.63105	63139
31.63917	55886
31.64730	64330
31.65542	60921
31.66355	62041
31.67167	63862
31.67978	60340
31.68792	60951
31.69603	60532
31.70417	58337
31.71228	59463
31.72040	57902
31.72853	52397
31.73665	54848
31.74477	51681
31.75290	56852
31.76102	52813
31.76915	56993
31.77727	53066
31.78538	53565
31.79352	56896
31.80163	51419
31.80977	54877
31.81788	57802
31.82600	57137
31.83413	60347
31.84225	57042
31.85037	60932
31.85850	63088
31.86662	62978
31.87475	61707
31.88287	61696
31.89098	62803
31.89912	68678
31.90723	66747
31.91537	73542
31.92348	77464
31.93160	82895
31.93973	87222
31.94785	89633
31.95598	94762
31.96410	93908
31.97222	100721
31.98035	95745
31.98847	99710
31.99658	104748
32.00472	101111
32.01283	101723
32.02097	100329
32.02908	97827
32.03720	89404
32.04533	93112
32.05345	86702
32.06158	93353
32.06970	88298
32.07782	81267
32.08595	86954
32.09407	83875
32.10220	80492
32.11032	72722
32.11843	72350
32.12657	70562
32.13468	66754
32.14280	67877
32.15093	68282
32.15905	62314
32.16718	61223
32.17530	63931
32.18342	61644
32.19155	58701
32.19967	61134
32.20780	57571
32.21592	56498
32.22403	57007
32.23217	54312
32.24028	56462
32.24840	59182
32.25653	60133
32.26465	61994
32.27278	61954
32.28090	61406
32.28902	56365
32.29715	58633
32.30527	59243
32.31340	57899
32.32152	53186
32.32963	53591
32.33777	51438
32.34588	59463
32.35402	54305
32.36213	59397
32.37025	54604
32.37838	50356
32.38650	51723
32.39462	50377
32.40275	47315
32.41087	53437
32.41900	50314
32.42712	52551
32.43523	50229
32.44337	48603
32.45148	53532
32.45962	51514
32.46773	48649
32.47585	49530
32.48398	48528
32.49210	50969
32.50022	47985
32.50835	46059
32.51647	47772
32.52460	48907
32.53272	49432
32.54083	54072
32.54897	48997
32.55708	49101
32.56522	49965
32.57333	47834
32.58145	48943
32.58958	47645
32.59770	45769
32.60583	47272
32.61395	48190
32.62207	47571
32.63020	48382
32.63832	50185
32.64643	49896
32.65457	53859
32.66268	60274
32.67082	60675
32.67893	65854
32.68705	60933
32.69518	57120
32.70330	57036
32.71143	56368
32.71955	55502
32.72767	52649
32.73580	51726
32.74392	48426
32.75205	45887
32.76017	49207
32.76828	50045
32.77642	48257
32.78453	50248
32.79265	47273
32.80078	47391
32.80890	48516
32.81703	50866
32.82515	47858
32.83327	49923
32.84140	47626
32.84952	44952
32.85765	47913
32.86577	46468
32.87388	45701
32.88202	48950
32.89013	49214
32.89827	47619
32.90638	48253
32.91450	47434
32.92263	47152
32.93075	47628
32.93887	48912
32.94700	46070
32.95512	47941
32.96325	46675
32.97137	48829
32.97948	48957
32.98762	55782
32.99573	61425
33.00387	66051
33.01198	70635
33.02010	69386
33.02823	65068
33.03635	56596
33.04447	57192
33.05260	50220
33.06072	55968
33.06885	59751
33.07697	56916
33.08508	58633
33.09322	63931
33.10133	66019
33.10947	67912
33.11758	78878
33.12570	74918
33.13383	72631
33.14195	70483
33.15008	61422
33.15820	61979
33.16632	51486
33.17445	51324
33.18257	54314
33.19068	51732
33.19882	50356
33.20693	48973
33.21507	48030
33.22318	51950
33.23130	46679
33.23943	49548
33.24755	47776
33.25568	49407
33.26380	45518
33.27192	46112
33.28005	48215
33.28817	52214
33.29628	47560
33.30442	47975
33.31253	49097
33.32067	47452
33.32878	48425
33.33690	47282
33.34503	48229
33.35315	50870
33.36128	50708
33.36940	51880
33.37752	52252
33.38565	50710
33.39377	47244
33.40190	46747
33.41002	42964
33.41813	48633
33.42627	48183
33.43438	43855
33.44250	43332
33.45063	47157
33.45875	47093
33.46688	46326
33.47500	45683
33.48312	46744
33.49125	49185
33.49937	45367
33.50750	46566
33.51562	47209
33.52373	53050
33.53187	51143
33.53998	51165
33.54812	56563
33.55623	58107
33.56435	56908
33.57248	53914
33.58060	54234
33.58872	50567
33.59685	54680
33.60497	48740
33.61310	45799
33.62122	53006
33.62933	46569
33.63747	49117
33.64558	49129
33.65372	50377
33.66183	50513
33.66995	48944
33.67808	47318
33.68620	48848
33.69432	50197
33.70245	46183
33.71057	47068
33.71870	47742
33.72682	46153
33.73493	46137
33.74307	45492
33.75118	47104
33.75932	48300
33.76743	44183
33.77555	45041
33.78368	48751
33.79180	42876
33.79993	43339
33.80805	43575
33.81617	45482
33.82430	47099
33.83242	44381
33.84053	45803
33.84867	46506
33.85678	47523
33.86492	46088
33.87303	52048
33.88115	46737
33.88928	52713
33.89740	46258
33.90553	47121
33.91365	47131
33.92177	47557
33.92990	49750
33.93802	49207
33.94615	49018
33.95427	46455
33.96238	48580
33.97052	49002
33.97863	47610
33.98675	45375
33.99488	44590
34.00300	48392
34.01113	45152
34.01925	48410
34.02737	46867
34.03550	43868
34.04362	46891
34.05175	48935
34.05987	47454
34.06798	44685
34.07612	53248
34.08423	48782
34.09235	52788
34.10048	43417
34.10860	43235
34.11673	49279
34.12485	46975
34.13297	48326
34.14110	45995
34.14922	47652
34.15735	46998
34.16547	43636
34.17358	45774
34.18172	47514
34.18983	45650
34.19797	47499
34.20608	47693
34.21420	46491
34.22233	50702
34.23045	47734
34.23857	45521
34.24670	45663
34.25482	47214
34.26295	45910
34.27107	46593
34.27918	47641
34.28732	46625
34.29543	46602
34.30357	46424
34.31168	46355
34.31980	45778
34.32793	48140
34.33605	47249
34.34417	45218
34.35230	49283
34.36042	47107
34.36855	45045
34.37667	49654
34.38478	51019
34.39292	49118
34.40103	42460
34.40917	46059
34.41728	46481
34.42540	47390
34.43353	46371
34.44165	48290
34.44978	47707
34.45790	47262
34.46602	46352
34.47415	45223
34.48227	45778
34.49038	50020
34.49852	48978
34.50663	50914
34.51477	62819
34.52288	69158
34.53100	80263
34.53913	81065
34.54725	93098
34.55538	94805
34.56350	89404
34.57162	90740
34.57975	91940
34.58787	90692
34.59600	87032
34.60412	77457
34.61223	73939
34.62037	67668
34.62848	66387
34.63660	68152
34.64473	63333
34.65285	66079
34.66098	65034
34.66910	55549
34.67722	61954
34.68535	62319
34.69347	56729
34.70160	59446
34.70972	58096
34.71783	59230
34.72597	51151
34.73408	57410
34.74220	53393
34.75033	55516
34.75845	52674
34.76658	55891
34.77470	54580
34.78282	54909
34.79095	56452
34.79907	53728
34.80720	52354
34.81532	56022
34.82343	55696
34.83157	53359
34.83968	53934
34.84782	53236
34.85593	51188
34.86405	52819
34.87218	52454
34.88030	52271
34.88842	53468
34.89655	50256
34.90467	50044
34.91280	53956
34.92092	51679
34.92903	56677
34.93717	58542
34.94528	54170
34.95342	57804
34.96153	59315
34.96965	62213
34.97778	63646
34.98590	64672
34.99403	59501
35.00215	58769
35.01027	57812
35.01840	58647
35.02652	53514
35.03463	53495
35.04277	53335
35.05088	52571
35.05902	51816
35.06713	52635
35.07525	51214
35.08338	50221
35.09150	52388
35.09963	50945
35.10775	48602
35.11587	53362
35.12400	49380
35.13212	48473
35.14023	52750
35.14837	54871
35.15648	53693
35.16462	58658
35.17273	53156
35.18085	55517
35.18898	53602
35.19710	47849
35.20523	52255
35.21335	49299
35.22147	48359
35.22960	51520
35.23772	49283
35.24585	49411
35.25397	50984
35.26208	49069
35.27022	50844
35.27833	51813
35.28645	55351
35.29458	52974
35.30270	53222
35.31083	52572
35.31895	51908
35.32707	44107
35.33520	49177
35.34332	46703
35.35145	47554
35.35957	48445
35.36768	48802
35.37582	45135
35.38393	47569
35.39205	45998
35.40018	47353
35.40830	47885
35.41643	50292
35.42455	55228
35.43267	48503
35.44080	49112
35.44892	49730
35.45705	50767
35.46517	52942
35.47328	52729
35.48142	57544
35.48953	52400
35.49767	53914
35.50578	54821
35.51390	51730
35.52203	46724
35.53015	50205
35.53827	49612
35.54640	47572
35.55452	47652
35.56265	47396
35.57077	50816
35.57888	52440
35.58702	51480
35.59513	51072
35.60327	51512
35.61138	50079
35.61950	49679
35.62763	48758
35.63575	50979
35.64388	48902
35.65200	53688
35.66012	53458
35.66825	55000
35.67637	52708
35.68448	54789
35.69262	52059
35.70073	55884
35.70887	51039
35.71698	51676
35.72510	54109
35.73323	56102
35.74135	59690
35.74948	54722
35.75760	56706
35.76572	55699
35.77385	56929
35.78197	53293
35.79008	55717
35.79822	56391
35.80633	58216
35.81447	55439
35.82258	48532
35.83070	53814
35.83883	50326
35.84695	50865
35.85508	52102
35.86320	51775
35.87132	52425
35.87945	52793
35.88757	50590
35.89570	49662
35.90382	51568
35.91193	52828
35.92007	47555
35.92818	53557
35.93630	51346
35.94443	50949
35.95255	49174
35.96068	53595
35.96880	51047
35.97692	47646
35.98505	52805
35.99317	49686
36.00130	49606
36.00942	51176
36.01753	51805
36.02567	51431
36.03378	57240
36.04192	54032
36.05003	53741
36.05815	51861
36.06628	55022
36.07440	50641
36.08252	53172
36.09065	48422
36.09877	55152
36.10690	56171
36.11502	57522
36.12313	50988
36.13127	57996
36.13938	52471
36.14752	57309
36.15563	53666
36.16375	59761
36.17188	52421
36.18000	50551
36.18812	51959
36.19625	51631
36.20437	50922
36.21250	56424
36.22062	60082
36.22873	60384
36.23687	65648
36.24498	64384
36.25312	66301
36.26123	72473
36.26935	68592
36.27748	73162
36.28560	77462
36.29373	76639
36.30185	80719
36.30997	89873
36.31810	86544
36.32622	85708
36.33433	82803
36.34247	78527
36.35058	78363
36.35872	78769
36.36683	74989
36.37495	77934
36.38308	72809
36.39120	77452
36.39933	76909
36.40745	79641
36.41557	73667
36.42370	74977
36.43182	78228
36.43995	79682
36.44807	78366
36.45618	73049
36.46432	71787
36.47243	70878
36.48055	69897
36.48868	72587
36.49680	69736
36.50493	72092
36.51305	73109
36.52117	66259
36.52930	68848
36.53742	72482
36.54555	68637
36.55367	69933
36.56178	70807
36.56992	69295
36.57803	64879
36.58615	69867
36.59428	69836
36.60240	66105
36.61053	70324
36.61865	74341
36.62677	66481
36.63490	66932
36.64302	70091
36.65115	66169
36.65927	69675
36.66738	65584
36.67552	67551
36.68363	63402
36.69177	70119
36.69988	69292
36.70800	62941
36.71613	64685
36.72425	68587
36.73237	65029
36.74050	64288
36.74862	64863
36.75675	62740
36.76487	66480
36.77298	64460
36.78112	62661
36.78923	65754
36.79737	63727
36.80548	65920
36.81360	62560
36.82173	62331
36.82985	66560
36.83797	61977
36.84610	62870
36.85422	60407
36.86235	64934
36.87047	65323
36.87858	63121
36.88672	64425
36.89483	63583
36.90297	63221
36.91108	63133
36.91920	62061
36.92733	62877
36.93545	64231
36.94358	66732
36.95170	71092
36.95982	75752
36.96795	78257
36.97607	72633
36.98418	74810
36.99232	68748
37.00043	69700
37.00857	68786
37.01668	63358
37.02480	60232
37.03293	61210
37.04105	67012
37.04918	61579
37.05730	63249
37.06542	65552
37.07355	66241
37.08167	62963
37.08980	65191
37.09792	60860
37.10603	62142
37.11417	64418
37.12228	64771
37.13040	61993
37.13853	60498
37.14665	63054
37.15478	66992
37.16290	64790
37.17102	60577
37.17915	64953
37.18727	62220
37.19540	65526
37.20352	58950
37.21163	61941
37.21977	67451
37.22788	65395
37.23600	65547
37.24413	62316
37.25225	62496
37.26038	63065
37.26850	60341
37.27662	62445
37.28475	62348
37.29287	64433
37.30100	63895
37.30912	66386
37.31723	65988
37.32537	72343
37.33348	79802
37.34162	88776
37.34973	91747
37.35785	99638
37.36598	91001
37.37410	95267
37.38222	90557
37.39035	88073
37.39847	81922
37.40660	87989
37.41472	81446
37.42283	79170
37.43097	76189
37.43908	79675
37.44722	77655
37.45533	74808
37.46345	76679
37.47158	75918
37.47970	74351
37.48783	76142
