C:\MassHunter\GCMS\1\data\JTB-E02\BACandBLUE\JTB-E18-010-10.D Fri May 17 12:29:21 2019
Start of data points
2.09522,75593
2.10335,73938
2.11147,73771
2.11960,70358
2.12772,74436
2.13583,74560
2.14397,71506
2.15208,80774
2.16020,75445
2.16833,71595
2.17645,74384
2.18458,75674
2.19270,72323
2.20082,69973
2.20895,71753
2.21707,69118
2.22520,72132
2.23332,69684
2.24143,71837
2.24957,69599
2.25768,67508
2.26580,98728
2.27393,544203
2.28205,1338502
2.29018,910348
2.29830,417823
2.30642,296779
2.31455,255305
2.32267,221381
2.33080,195482
2.33892,195228
2.34703,182532
2.35517,171700
2.36328,157384
2.37142,150462
2.37953,149260
2.38765,141572
2.39578,134126
2.40390,132680
2.41202,129132
2.42015,126663
2.42827,132341
2.43640,124083
2.44452,128078
2.45263,130743
2.46077,125960
2.46888,116814
2.47702,114275
2.48513,121005
2.49325,145098
2.50138,154441
2.50950,133151
2.51762,128740
2.52575,120396
2.53387,119651
2.54200,112125
2.55012,119259
2.55823,130107
2.56637,152320
2.57448,142451
2.58262,129303
2.59073,118925
2.59885,126061
2.60698,336266
2.61510,877875
2.62323,845230
2.63135,470850
2.63947,298943
2.64760,229269
2.65572,202180
2.66383,173698
2.67197,154563
2.68008,143495
2.68822,137704
2.69633,130231
2.70445,128168
2.71258,122074
2.72070,125978
2.72883,117839
2.73695,113249
2.74507,120059
2.75320,109969
2.76132,110791
2.76945,111742
2.77757,146683
2.78568,351063
2.79382,511649
2.80193,374583
2.81005,240529
2.81818,206286
2.82630,201802
2.83443,176201
2.84255,159439
2.85067,155029
2.85880,138181
2.86692,132619
2.87505,125969
2.88317,126446
2.89128,118603
2.89942,119467
2.90753,112835
2.91565,109382
2.92378,114433
2.93190,115337
2.94003,120518
2.94815,110214
2.95627,108586
2.96440,115524
2.97252,111200
2.98065,111253
2.98877,108385
2.99688,103803
3.00502,105133
3.01313,108729
3.02127,109518
3.02938,106560
3.03750,102706
3.04563,106514
3.05375,102071
3.06187,108167
3.07000,111872
3.07812,127360
3.08625,339970
3.09437,988335
3.10248,1941017
3.11062,3351943
3.11873,3679950
3.12687,2418456
3.13498,1520418
3.14310,1118226
3.15123,897565
3.15935,708210
3.16748,616158
3.17560,556573
3.18372,606504
3.19185,1015117
3.19997,1515332
3.20808,1318397
3.21622,898613
3.22433,698361
3.23247,589086
3.24058,508240
3.24870,441475
3.25683,400249
3.26495,360944
3.27308,331638
3.28120,323265
3.28932,457754
3.29745,1272642
3.30557,3236894
3.31368,5187269
3.32182,5001858
3.32993,3501328
3.33807,2145076
3.34618,1462681
3.35430,1118061
3.36243,922257
3.37055,788197
3.37868,675553
3.38680,613906
3.39492,530048
3.40305,516589
3.41117,475685
3.41930,452215
3.42742,431542
3.43553,423609
3.44367,414369
3.45178,394279
3.45990,379589
3.46803,392730
3.47615,384246
3.48428,384717
3.49240,370464
3.50052,356726
3.50865,336304
3.51677,327650
3.52490,333473
3.53302,336291
3.54113,350626
3.54927,343972
3.55738,322421
3.56552,310962
3.57363,308233
3.58175,305418
3.58988,304232
3.59800,301458
3.60612,295970
3.61425,294765
3.62237,303760
3.63050,296666
3.63862,310574
3.64673,306210
3.65487,306873
3.66298,584641
3.67112,2443734
3.67923,7077125
3.68735,9956217
3.69548,7898592
3.70360,4604126
3.71172,3047110
3.71985,2415481
3.72797,2015981
3.73610,1740446
3.74422,1560590
3.75233,1366291
3.76047,1258342
3.76858,1170113
3.77672,1085894
3.78483,1011186
3.79295,934404
3.80108,951762
3.80920,1258122
3.81733,1846233
3.82545,2081943
3.83357,1683754
3.84170,1260462
3.84982,1046849
3.85793,931751
3.86607,858443
3.87418,810572
3.88232,755369
3.89043,709240
3.89855,676903
3.90668,646006
3.91480,637901
3.92293,711718
3.93105,831697
3.93917,830808
3.94730,783046
3.95542,878213
3.96353,1301376
3.97167,1697327
3.97978,1541802
3.98792,1090813
3.99603,780672
4.00415,807537
4.01228,1056025
4.02040,1278154
4.02853,1127688
4.03665,829808
4.04477,632280
4.05290,530803
4.06102,485741
4.06915,454866
4.07727,454115
4.08538,419409
4.09352,422620
4.10163,393626
4.10975,383392
4.11788,376475
4.12600,363570
4.13413,370575
4.14225,374111
4.15037,396572
4.15850,412297
4.16662,398497
4.17475,386554
4.18287,381908
4.19098,377751
4.19912,363478
4.20723,501612
4.21537,1590895
4.22348,5407545
4.23160,1.170788E+07
4.23973,1.619144E+07
4.24785,1.559684E+07
4.25597,1.069156E+07
4.26410,6259082
4.27222,4150305
4.28035,2945059
4.28847,2259159
4.29658,1763178
4.30472,1447289
4.31283,1264551
4.32097,1081665
4.32908,968698
4.33720,871354
4.34533,796271
4.35345,757492
4.36157,730524
4.36970,741385
4.37782,703155
4.38595,664726
4.39407,615551
4.40218,566922
4.41032,535433
4.41843,521340
4.42657,491624
4.43468,477983
4.44280,455975
4.45093,456829
4.45905,433548
4.46718,419865
4.47530,409196
4.48342,407625
4.49155,406556
4.49967,393690
4.50778,378654
4.51592,384886
4.52403,363133
4.53217,366565
4.54028,350139
4.54840,361202
4.55653,349183
4.56465,350844
4.57278,335441
4.58090,328021
4.58902,326260
4.59715,318946
4.60527,312464
4.61340,313717
4.62152,319164
4.62963,385421
4.63777,499411
4.64588,623956
4.65400,634581
4.66213,524258
4.67025,436187
4.67838,388486
4.68650,355554
4.69462,333136
4.70275,312455
4.71087,309607
4.71900,292874
4.72712,290774
4.73523,292735
4.74337,286203
4.75148,276520
4.75960,275635
4.76773,265729
4.77585,267366
4.78398,283073
4.79210,423154
4.80022,794264
4.80835,1308209
4.81647,1493594
4.82460,1223804
4.83272,886042
4.84083,711628
4.84897,651773
4.85708,604497
4.86522,536350
4.87333,481405
4.88145,439463
4.88958,405430
4.89770,381608
4.90582,358360
4.91395,343493
4.92207,347652
4.93020,352960
4.93832,466863
4.94643,890314
4.95457,1813276
4.96268,2906930
4.97082,3479489
4.97893,3156373
4.98705,2339808
4.99518,1546132
5.00330,1069969
5.01142,816159
5.01955,684026
5.02767,638911
5.03580,672930
5.04392,756413
5.05203,752859
5.06017,665746
5.06828,584549
5.07642,533410
5.08453,493920
5.09265,479271
5.10078,447891
5.10890,434907
5.11703,421639
5.12515,406920
5.13327,399817
5.14140,404084
5.14952,385239
5.15763,427792
5.16577,466072
5.17388,506461
5.18202,486635
5.19013,457640
5.19825,425529
5.20638,436644
5.21450,453117
5.22263,441971
5.23075,423431
5.23887,416632
5.24700,399875
5.25512,368501
5.26325,349071
5.27137,331865
5.27948,305508
5.28762,296321
5.29573,301980
5.30385,293795
5.31198,292816
5.32010,287551
5.32823,286481
5.33635,289512
5.34447,303710
5.35260,309219
5.36072,290697
5.36885,285892
5.37697,281379
5.38508,273520
5.39322,286107
5.40133,280229
5.40947,285526
5.41758,280034
5.42570,266323
5.43383,269442
5.44195,266261
5.45007,264339
5.45820,261539
5.46632,267752
5.47445,256380
5.48257,246926
5.49068,246197
5.49882,241365
5.50693,240237
5.51507,242862
5.52318,248227
5.53130,244827
5.53943,247146
5.54755,239812
5.55567,254093
5.56380,280149
5.57192,335337
5.58005,366449
5.58817,369340
5.59628,316692
5.60442,288451
5.61253,265863
5.62067,244185
5.62878,242694
5.63690,245475
5.64503,247288
5.65315,248058
5.66128,238889
5.66940,247430
5.67752,242056
5.68565,258397
5.69377,287976
5.70188,311837
5.71002,285665
5.71813,266031
5.72627,240997
5.73438,227385
5.74250,230270
5.75063,222821
5.75875,217642
5.76688,209986
5.77500,211064
5.78312,210472
5.79125,204333
5.79937,208685
5.80748,207722
5.81562,208434
5.82373,204242
5.83187,210266
5.83998,203823
5.84810,210347
5.85623,201708
5.86435,208312
5.87248,202380
5.88060,201898
5.88872,201013
5.89685,187270
5.90497,186148
5.91310,164668
5.92122,154574
5.92933,152366
5.93747,155492
5.94558,153895
5.95370,169928
5.96183,197946
5.96995,223952
5.97808,259355
5.98620,309172
5.99432,333776
6.00245,334363
6.01057,290578
6.01870,232199
6.02682,195223
6.03493,175570
6.04307,157998
6.05118,156337
6.05932,140961
6.06743,147339
6.07555,138718
6.08368,146312
6.09180,142494
6.09992,138161
6.10805,137596
6.11617,142046
6.12430,161158
6.13242,210279
6.14053,311517
6.14867,420107
6.15678,461533
6.16492,395656
6.17303,307418
6.18115,249211
6.18928,216514
6.19740,204612
6.20552,192674
6.21365,193640
6.22177,187222
6.22990,179489
6.23802,177658
6.24613,168164
6.25427,171765
6.26238,174105
6.27052,176498
6.27863,173202
6.28675,177170
6.29488,166058
6.30300,173653
6.31113,173271
6.31925,172743
6.32737,177279
6.33550,196073
6.34362,222241
6.35173,220582
6.35987,214168
6.36798,192986
6.37612,190617
6.38423,179737
6.39235,182040
6.40048,177596
6.40860,174401
6.41673,165406
6.42485,176069
6.43297,174703
6.44110,179781
6.44922,182643
6.45735,178104
6.46547,180564
6.47358,182665
6.48172,177497
6.48983,175318
6.49795,180619
6.50608,175697
6.51420,182704
6.52233,186749
6.53045,183169
6.53857,179122
6.54670,175192
6.55482,176372
6.56295,183333
6.57107,205003
6.57918,224029
6.58732,246326
6.59543,247962
6.60355,232846
6.61168,208196
6.61980,197039
6.62793,194742
6.63605,192639
6.64417,195579
6.65230,205566
6.66042,240850
6.66855,301514
6.67667,350717
6.68478,351900
6.69292,289970
6.70103,250273
6.70917,220953
6.71728,211239
6.72540,203313
6.73353,215033
6.74165,208332
6.74977,190145
6.75790,167370
6.76602,167411
6.77415,164370
6.78227,161817
6.79038,154975
6.79852,159791
6.80663,150609
6.81477,137033
6.82288,142527
6.83100,137296
6.83913,131248
6.84725,137262
6.85537,137569
6.86350,137829
6.87162,120163
6.87975,104073
6.88787,96279
6.89598,94095
6.90412,94022
6.91223,87198
6.92037,85286
6.92848,85424
6.93660,83057
6.94473,80519
6.95285,85165
6.96098,88418
6.96910,92316
6.97722,108248
6.98535,120111
6.99347,124787
7.00158,126851
7.00972,119884
7.01783,112875
7.02597,111134
7.03408,101972
7.04220,103250
7.05033,104449
7.05845,99448
7.06658,104790
7.07470,98967
7.08282,92740
7.09095,89212
7.09907,81289
7.10720,83419
7.11532,78685
7.12343,76532
7.13157,80360
7.13968,77681
7.14780,92289
7.15593,117663
7.16405,137288
7.17218,151753
7.18030,143851
7.18842,124190
7.19655,110403
7.20467,112488
7.21280,204520
7.22092,537748
7.22903,1288210
7.23717,2206460
7.24528,2690463
7.25340,2389506
7.26153,1564719
7.26965,849849
7.27778,512751
7.28590,366162
7.29402,250506
7.30215,178014
7.31027,134978
7.31840,121416
7.32652,120481
7.33463,124976
7.34277,114803
7.35088,111432
7.35902,103665
7.36713,103052
7.37525,106414
7.38338,112831
7.39150,115551
7.39962,112276
7.40775,104963
7.41587,96940
7.42400,97866
7.43212,83861
7.44023,90117
7.44837,88599
7.45648,93277
7.46462,96574
7.47273,94074
7.48085,85097
7.48898,87386
7.49710,84062
7.50523,83305
7.51335,87350
7.52147,115497
7.52960,164436
7.53772,244347
7.54583,352254
7.55397,460052
7.56208,507353
7.57022,500003
7.57833,423614
7.58645,321733
7.59458,221923
7.60270,157608
7.61083,129922
7.61895,112122
7.62707,97400
7.63520,89578
7.64332,87935
7.65143,81045
7.65957,82007
7.66768,79269
7.67582,77933
7.68393,82134
7.69205,77611
7.70018,79237
7.70830,80474
7.71643,79879
7.72455,76768
7.73267,78005
7.74080,75385
7.74892,79708
7.75705,79052
7.76517,80603
7.77328,81474
7.78142,78458
7.78953,81671
7.79765,83047
7.80578,92418
7.81390,93839
7.82203,95415
7.83015,90873
7.83827,84201
7.84640,80603
7.85452,81657
7.86265,83527
7.87077,100552
7.87888,118029
7.88702,133642
7.89513,128481
7.90325,118412
7.91138,109576
7.91950,101150
7.92763,97818
7.93575,106083
7.94387,116141
7.95200,129094
7.96012,121429
7.96825,119683
7.97637,103959
7.98448,95889
7.99262,83992
8.00073,81484
8.00887,77559
8.01698,70511
8.02510,69063
8.03323,68210
8.04135,69687
8.04947,69932
8.05760,69347
8.06572,69595
8.07385,68437
8.08197,66012
8.09008,68775
8.09822,64901
8.10633,67182
8.11447,67718
8.12258,70013
8.13070,74739
8.13883,84803
8.14695,88579
8.15508,99318
8.16320,104302
8.17132,95412
8.17945,84249
8.18757,78701
8.19568,73689
8.20382,77378
8.21193,70216
8.22007,69323
8.22818,70172
8.23630,76228
8.24443,69081
8.25255,67317
8.26068,63845
8.26880,64093
8.27692,69047
8.28505,62029
8.29317,68165
8.30128,67019
8.30942,66449
8.31753,66859
8.32567,70809
8.33378,67513
8.34190,65703
8.35003,65136
8.35815,64829
8.36628,68412
8.37440,63782
8.38252,63106
8.39065,70792
8.39877,72379
8.40690,74680
8.41502,72785
8.42313,65687
8.43127,69822
8.43938,63509
8.44750,67752
8.45563,64252
8.46375,60675
8.47188,59489
8.48000,59176
8.48812,60457
8.49625,58456
8.50437,59518
8.51250,63041
8.52062,86233
8.52873,188853
8.53687,434025
8.54498,863463
8.55312,1265562
8.56123,1414697
8.56935,1164119
8.57748,758458
8.58560,433525
8.59372,233456
8.60185,151503
8.60997,128865
8.61810,124084
8.62622,113890
8.63433,108969
8.64247,101020
8.65058,91127
8.65872,91979
8.66683,85257
8.67495,87913
8.68308,88324
8.69120,84010
8.69932,85021
8.70745,84025
8.71557,84241
8.72370,76453
8.73182,77016
8.73993,73373
8.74807,79091
8.75618,112216
8.76432,214832
8.77243,427622
8.78055,770063
8.78868,1105047
8.79680,1228833
8.80493,1040348
8.81305,726473
8.82117,451197
8.82930,278489
8.83742,202306
8.84553,175658
8.85367,172618
8.86178,163604
8.86992,157026
8.87803,152247
8.88615,151292
8.89428,136687
8.90240,142429
8.91053,128900
8.91865,131749
8.92677,137455
8.93490,150388
8.94302,157216
8.95115,179018
8.95927,179529
8.96738,172124
8.97552,157650
8.98363,147220
8.99175,149912
8.99988,141843
9.00800,127405
9.01613,125299
9.02425,113420
9.03237,115802
9.04050,109039
9.04862,103112
9.05675,105685
9.06487,106717
9.07298,101189
9.08112,103552
9.08923,100544
9.09735,108937
9.10548,113354
9.11360,125493
9.12173,129927
9.12985,129560
9.13797,128460
9.14610,117068
9.15422,111835
9.16235,111074
9.17047,102440
9.17858,98028
9.18672,94332
9.19483,89885
9.20297,89048
9.21108,90095
9.21920,86531
9.22733,86786
9.23545,89213
9.24357,92518
9.25170,89153
9.25982,94081
9.26795,81794
9.27607,88549
9.28418,83965
9.29232,84360
9.30043,81746
9.30857,82234
9.31668,82244
9.32480,76398
9.33293,79080
9.34105,81536
9.34917,77552
9.35730,79119
9.36542,73342
9.37355,71737
9.38167,75661
9.38978,76322
9.39792,81295
9.40603,82335
9.41417,91723
9.42228,94484
9.43040,105186
9.43853,119657
9.44665,116109
9.45478,118126
9.46290,104282
9.47102,95128
9.47915,82626
9.48727,84556
9.49538,79597
9.50352,83553
9.51163,92293
9.51977,99447
9.52788,105552
9.53600,107778
9.54413,104694
9.55225,95391
9.56038,85059
9.56850,76874
9.57662,86288
9.58475,101886
9.59287,114300
9.60100,111263
9.60912,102008
9.61723,83630
9.62537,74315
9.63348,65409
9.64160,64981
9.64973,65180
9.65785,58825
9.66598,59073
9.67410,56122
9.68222,54231
9.69035,47532
9.69847,48680
9.70660,47899
9.71472,48881
9.72283,47771
9.73097,48607
9.73908,46290
9.74720,47971
9.75533,45597
9.76345,48531
9.77158,46153
9.77970,41922
9.78782,43943
9.79595,43167
9.80407,43917
9.81220,42650
9.82032,44632
9.82843,43830
9.83657,43492
9.84468,45393
9.85282,45687
9.86093,46681
9.86905,48924
9.87718,47019
9.88530,49246
9.89342,48488
9.90155,48418
9.90967,53259
9.91780,46374
9.92592,50852
9.93403,63485
9.94217,85015
9.95028,94705
9.95842,107849
9.96653,114059
9.97465,106228
9.98278,95864
9.99090,78317
9.99903,71408
10.00715,67901
10.01527,67283
10.02340,64711
10.03152,57947
10.03963,55425
10.04777,52524
10.05588,52717
10.06402,52458
10.07213,56425
10.08025,53525
10.08838,54003
10.09650,57671
10.10463,54362
10.11275,54318
10.12087,57486
10.12900,50115
10.13712,54867
10.14523,48793
10.15337,51626
10.16148,46346
10.16962,48378
10.17773,48578
10.18585,44356
10.19398,47281
10.20210,46530
10.21023,44825
10.21835,47513
10.22647,51507
10.23460,56605
10.24272,57019
10.25085,65318
10.25897,93323
10.26708,188797
10.27522,496693
10.28333,1242389
10.29145,2469748
10.29958,4070988
10.30770,5993449
10.31583,8637972
10.32395,1.280795E+07
10.33207,1.865366E+07
10.34020,2.632209E+07
10.34832,3.216277E+07
10.35645,3.274934E+07
10.36457,2.676774E+07
10.37268,1.560493E+07
10.38082,6732349
10.38893,2908231
10.39705,1611238
10.40518,1173986
10.41330,929574
10.42143,771144
10.42955,672920
10.43767,615131
10.44580,554214
10.45392,499423
10.46205,484547
10.47017,446578
10.47828,413035
10.48642,385660
10.49453,365999
10.50267,340547
10.51078,320910
10.51890,320427
10.52703,303198
10.53515,316005
10.54327,316330
10.55140,296716
10.55952,289854
10.56765,265285
10.57577,247830
10.58388,244684
10.59202,234127
10.60013,224264
10.60827,215947
10.61638,209001
10.62450,193218
10.63263,182717
10.64075,179048
10.64888,182459
10.65700,182195
10.66512,174989
10.67325,183674
10.68137,177559
10.68948,172000
10.69762,163393
10.70573,161947
10.71387,153386
10.72198,148766
10.73010,149722
10.73823,142910
10.74635,140202
10.75448,134488
10.76260,134284
10.77072,126884
10.77885,125998
10.78697,119350
10.79508,117424
10.80322,114428
10.81133,116166
10.81947,117888
10.82758,110145
10.83570,112355
10.84383,110256
10.85195,106105
10.86008,98162
10.86820,102899
10.87632,95810
10.88445,99583
10.89257,96373
10.90070,90066
10.90882,94917
10.91693,88483
10.92507,86550
10.93318,88932
10.94130,88154
10.94943,91937
10.95755,85498
10.96568,83357
10.97380,86247
10.98192,86636
10.99005,86258
10.99817,83237
11.00630,79691
11.01442,84524
11.02253,76408
11.03067,77364
11.03878,73710
11.04692,74323
11.05503,76026
11.06315,71438
11.07128,75905
11.07940,77720
11.08752,76122
11.09565,79453
11.10377,75711
11.11190,76156
11.12002,70766
11.12813,63062
11.13627,58821
11.14438,50845
11.15252,53380
11.16063,51376
11.16875,53963
11.17688,55932
11.18500,59441
11.19312,61516
11.20125,59996
11.20937,60917
11.21750,53774
11.22562,53407
11.23373,49115
11.24187,47826
11.24998,46943
11.25812,44414
11.26623,45470
11.27435,46590
11.28248,42342
11.29060,47367
11.29873,51660
11.30685,65901
11.31497,95521
11.32310,143352
11.33122,214308
11.33933,285074
11.34747,345822
11.35558,361954
11.36372,319420
11.37183,241735
11.37995,168542
11.38808,128855
11.39620,99961
11.40433,89285
11.41245,87582
11.42057,80250
11.42870,71015
11.43682,68798
11.44493,62635
11.45307,58033
11.46118,58128
11.46932,60492
11.47743,65691
11.48555,88269
11.49368,112510
11.50180,137155
11.50993,147271
11.51805,145078
11.52617,139241
11.53430,122558
11.54242,117985
11.55055,118530
11.55867,117989
11.56678,102676
11.57492,86515
11.58303,79982
11.59115,82320
11.59928,94961
11.60740,120562
11.61553,163018
11.62365,195144
11.63177,195547
11.63990,170652
11.64802,133924
11.65615,106198
11.66427,90955
11.67238,80088
11.68052,65658
11.68863,63318
11.69677,67219
11.70488,61135
11.71300,64160
11.72113,61730
11.72925,60346
11.73737,55656
11.74550,57556
11.75362,55162
11.76175,52838
11.76987,51734
11.77798,51046
11.78612,49279
11.79423,49567
11.80237,51485
11.81048,45962
11.81860,46298
11.82673,45269
11.83485,45216
11.84298,44469
11.85110,43961
11.85922,42698
11.86735,45725
11.87547,42265
11.88358,44048
11.89172,40135
11.89983,42681
11.90797,46422
11.91608,50878
11.92420,50809
11.93233,51185
11.94045,59041
11.94858,57449
11.95670,55311
11.96482,46279
11.97295,45302
11.98107,43926
11.98918,53750
11.99732,63749
12.00543,79540
12.01357,95717
12.02168,102336
12.02980,97436
12.03793,86066
12.04605,72248
12.05418,60399
12.06230,52937
12.07042,52472
12.07855,48229
12.08667,48282
12.09480,44829
12.10292,50440
12.11103,52903
12.11917,54291
12.12728,62983
12.13540,65931
12.14353,67891
12.15165,66329
12.15978,58640
12.16790,52552
12.17602,55382
12.18415,48086
12.19227,46951
12.20040,51792
12.20852,46724
12.21663,45731
12.22477,48147
12.23288,45378
12.24100,44627
12.24913,46224
12.25725,47699
12.26538,45937
12.27350,43224
12.28162,44796
12.28975,42750
12.29787,42082
12.30600,41705
12.31412,41707
12.32223,42354
12.33037,41093
12.33848,42452
12.34662,37752
12.35473,39516
12.36285,39415
12.37098,41472
12.37910,37552
12.38722,40694
12.39535,41198
12.40347,46608
12.41160,55508
12.41972,74826
12.42783,79232
12.43597,86724
12.44408,78662
12.45222,80695
12.46033,65942
12.46845,61048
12.47658,52474
12.48470,51539
12.49283,50656
12.50095,46099
12.50907,44938
12.51720,46325
12.52532,53089
12.53343,71738
12.54157,114974
12.54968,218743
12.55782,400351
12.56593,603502
12.57405,737526
12.58218,700007
12.59030,522510
12.59843,344264
12.60655,220642
12.61467,143126
12.62280,112679
12.63092,94881
12.63903,86773
12.64717,80010
12.65528,76864
12.66342,70498
12.67153,63836
12.67965,60346
12.68778,55622
12.69590,60085
12.70403,57696
12.71215,55828
12.72027,56094
12.72840,54744
12.73652,60299
12.74465,61678
12.75277,56226
12.76088,56638
12.76902,50201
12.77713,51467
12.78525,46516
12.79338,50733
12.80150,42883
12.80963,41865
12.81775,41591
12.82587,45738
12.83400,43627
12.84212,40115
12.85025,39518
12.85837,42012
12.86648,40065
12.87462,40707
12.88273,38601
12.89087,38916
12.89898,40464
12.90710,36553
12.91523,37333
12.92335,39438
12.93147,37550
12.93960,37308
12.94772,37762
12.95585,40357
12.96397,43406
12.97208,52676
12.98022,59558
12.98833,69013
12.99647,68424
13.00458,65378
13.01270,57859
13.02083,51636
13.02895,47432
13.03707,43251
13.04520,41368
13.05332,44056
13.06145,41875
13.06957,38301
13.07768,44149
13.08582,39703
13.09393,44271
13.10207,44855
13.11018,41139
13.11830,41254
13.12643,38518
13.13455,35850
13.14268,40168
13.15080,38115
13.15892,43561
13.16705,41062
13.17517,43674
13.18328,45779
13.19142,49024
13.19953,46006
13.20767,47054
13.21578,46285
13.22390,48847
13.23203,45988
13.24015,47053
13.24828,43544
13.25640,43146
13.26452,40640
13.27265,42373
13.28077,44012
13.28888,40211
13.29702,38998
13.30513,36551
13.31327,35221
13.32138,39755
13.32950,33990
13.33763,38798
13.34575,34696
13.35388,34287
13.36200,37292
13.37012,33755
13.37825,34862
13.38637,35438
13.39450,36875
13.40262,35254
13.41073,36007
13.41887,35633
13.42698,32998
13.43510,36752
13.44323,35409
13.45135,32712
13.45948,32586
13.46760,38210
13.47572,36678
13.48385,36680
13.49197,39528
13.50010,31473
13.50822,33229
13.51633,38858
13.52447,38361
13.53258,36959
13.54072,39418
13.54883,34054
13.55695,36624
13.56508,35429
13.57320,34582
13.58132,35449
13.58945,42549
13.59757,48326
13.60570,57627
13.61382,55166
13.62193,65405
13.63007,64351
13.63818,57795
13.64632,51450
13.65443,45111
13.66255,39850
13.67068,40730
13.67880,37255
13.68692,39437
13.69505,34522
13.70317,38526
13.71130,33498
13.71942,35096
13.72753,40826
13.73567,41446
13.74378,45810
13.75192,67362
13.76003,115602
13.76815,192882
13.77628,314459
13.78440,430445
13.79253,470603
13.80065,509081
13.80877,452043
13.81690,402068
13.82502,346790
13.83313,311989
13.84127,280122
13.84938,259446
13.85752,223967
13.86563,184309
13.87375,148411
13.88188,120535
13.89000,96916
13.89813,87734
13.90625,81457
13.91437,75642
13.92250,74921
13.93062,71976
13.93875,71295
13.94687,67870
13.95498,68146
13.96312,71901
13.97123,72911
13.97935,78670
13.98748,82769
13.99560,80246
14.00373,89103
14.01185,85188
14.01997,86445
14.02810,78205
14.03622,79001
14.04435,69141
14.05247,68702
14.06058,66719
14.06872,66834
14.07683,67552
14.08495,69168
14.09308,65963
14.10120,63579
14.10933,60921
14.11745,63382
14.12557,63245
14.13370,64456
14.14182,62727
14.14995,63540
14.15807,69839
14.16618,73234
14.17432,70236
14.18243,84161
14.19057,108559
14.19868,156679
14.20680,214384
14.21493,253364
14.22305,276735
14.23117,243530
14.23930,227053
14.24742,203272
14.25555,199325
14.26367,196003
14.27178,179973
14.27992,159515
14.28803,135691
14.29617,119990
14.30428,107788
14.31240,101071
14.32053,89600
14.32865,91970
14.33678,85072
14.34490,87493
14.35302,95801
14.36115,92115
14.36927,80439
14.37738,76630
14.38552,62696
14.39363,57005
14.40177,59647
14.40988,63645
14.41800,62284
14.42613,69308
14.43425,69453
14.44238,63942
14.45050,67877
14.45862,58896
14.46675,54524
14.47487,54654
14.48298,50908
14.49112,49957
14.49923,46698
14.50737,46074
14.51548,53634
14.52360,49706
14.53173,51470
14.53985,51344
14.54798,50285
14.55610,49112
14.56422,48361
14.57235,43290
14.58047,41189
14.58860,40469
14.59672,40908
14.60483,43316
14.61297,43532
14.62108,40055
14.62920,41142
14.63733,39745
14.64545,38348
14.65358,38774
14.66170,38871
14.66982,37872
14.67795,39359
14.68607,35908
14.69420,38680
14.70232,39697
14.71043,39746
14.71857,41868
14.72668,41431
14.73480,45508
14.74293,37407
14.75105,39113
14.75918,41493
14.76730,41033
14.77542,43831
14.78355,52436
14.79167,85708
14.79980,186271
14.80792,512526
14.81603,1246534
14.82417,2370120
14.83228,3616928
14.84042,4300439
14.84853,4389092
14.85665,3464595
14.86478,2374897
14.87290,1445599
14.88102,916797
14.88915,624128
14.89727,454918
14.90540,373516
14.91352,311225
14.92163,267602
14.92977,241937
14.93788,229149
14.94602,198396
14.95413,184726
14.96225,168703
14.97038,160673
14.97850,154477
14.98663,147694
14.99475,135662
15.00287,128254
15.01100,124968
15.01912,121830
15.02723,113461
15.03537,109894
15.04348,111176
15.05162,108174
15.05973,101394
15.06785,99042
15.07598,96590
15.08410,89813
15.09223,88434
15.10035,89355
15.10847,77976
15.11660,87010
15.12472,86914
15.13283,98044
15.14097,106910
15.14908,113018
15.15722,112345
15.16533,103999
15.17345,87665
15.18158,80580
15.18970,68922
15.19783,58935
15.20595,53656
15.21407,53123
15.22220,47597
15.23032,52044
15.23845,50268
15.24657,47427
15.25468,47923
15.26282,53308
15.27093,50846
15.27905,47762
15.28718,44914
15.29530,41744
15.30343,44638
15.31155,45376
15.31967,43262
15.32780,40015
15.33592,42227
15.34405,41080
15.35217,40391
15.36028,43243
15.36842,41427
15.37653,45088
15.38467,46178
15.39278,43340
15.40090,39352
15.40903,42227
15.41715,42181
15.42527,39122
15.43340,43580
15.44152,40084
15.44965,41705
15.45777,41279
15.46588,40516
15.47402,46270
15.48213,54525
15.49027,70030
15.49838,75989
15.50650,85123
15.51463,90147
15.52275,98441
15.53087,84534
15.53900,85553
15.54712,82409
15.55525,78083
15.56337,71157
15.57148,65467
15.57962,52446
15.58773,48099
15.59587,42797
15.60398,41753
15.61210,37473
15.62023,42082
15.62835,39126
15.63648,38936
15.64460,37104
15.65272,39285
15.66085,38454
15.66897,37443
15.67708,38480
15.68522,38010
15.69333,36565
15.70147,35946
15.70958,33057
15.71770,36516
15.72583,33980
15.73395,38233
15.74208,41567
15.75020,46080
15.75832,66129
15.76645,102018
15.77457,171785
15.78268,282303
15.79082,397870
15.79893,453527
15.80707,416501
15.81518,335526
15.82330,243812
15.83143,169582
15.83955,122563
15.84768,98325
15.85580,87915
15.86392,89206
15.87205,93104
15.88017,109081
15.88830,103250
15.89642,108104
15.90453,99489
15.91267,94709
15.92078,95588
15.92890,77767
15.93703,69370
15.94515,65793
15.95328,62083
15.96140,60584
15.96952,63621
15.97765,60528
15.98577,63605
15.99390,61833
16.00202,65472
16.01013,63176
16.01827,66339
16.02638,64995
16.03452,66265
16.04263,69516
16.05075,63465
16.05888,60578
16.06700,53985
16.07512,51641
16.08325,48787
16.09137,46063
16.09950,44302
16.10762,47973
16.11573,46401
16.12387,53338
16.13198,48190
16.14012,51758
16.14823,51096
16.15635,55982
16.16448,53242
16.17260,46837
16.18072,46381
16.18885,44651
16.19697,42885
16.20510,42184
16.21322,51097
16.22133,42329
16.22947,45325
16.23758,44995
16.24572,44731
16.25383,44312
16.26195,43476
16.27008,45805
16.27820,45023
16.28633,46793
16.29445,46407
16.30257,46327
16.31070,51025
16.31882,45838
16.32693,50216
16.33507,49191
16.34318,45117
16.35132,45750
16.35943,51698
16.36755,59802
16.37568,68479
16.38380,72869
16.39193,78582
16.40005,71755
16.40817,63094
16.41630,60721
16.42442,55485
16.43255,56868
16.44067,56457
16.44878,74214
16.45692,127900
16.46503,240807
16.47315,438614
16.48128,667429
16.48940,831139
16.49753,815570
16.50565,681963
16.51377,478180
16.52190,324567
16.53002,208182
16.53815,149853
16.54627,127440
16.55438,102956
16.56252,95947
16.57063,91083
16.57875,86784
16.58688,79368
16.59500,78860
16.60313,78115
16.61125,76827
16.61937,74380
16.62750,72582
16.63562,68000
16.64375,67278
16.65187,60410
16.65998,59670
16.66812,54601
16.67623,60955
16.68437,60622
16.69248,56688
16.70060,51845
16.70873,53144
16.71685,56097
16.72497,47351
16.73310,45548
16.74122,46766
16.74935,47164
16.75747,52961
16.76558,53149
16.77372,56871
16.78183,60943
16.78997,53825
16.79808,48792
16.80620,44667
16.81433,42719
16.82245,42494
16.83057,41359
16.83870,40928
16.84682,43425
16.85495,43432
16.86307,40486
16.87118,37323
16.87932,41591
16.88743,37662
16.89557,36854
16.90368,38097
16.91180,39332
16.91993,37737
16.92805,35012
16.93618,39277
16.94430,38486
16.95242,38231
16.96055,41315
16.96867,42289
16.97678,39191
16.98492,40643
16.99303,40351
17.00117,38687
17.00928,38414
17.01740,43074
17.02553,40123
17.03365,43140
17.04178,42421
17.04990,46107
17.05802,45967
17.06615,49260
17.07427,47462
17.08240,46485
17.09052,48502
17.09863,55468
17.10677,50381
17.11488,51922
17.12300,59285
17.13113,55515
17.13925,54923
17.14738,52049
17.15550,54220
17.16362,49378
17.17175,45279
17.17987,47689
17.18800,44691
17.19612,39885
17.20423,41029
17.21237,39857
17.22048,42120
17.22862,36354
17.23673,39410
17.24485,40851
17.25298,42608
17.26110,45111
17.26922,40765
17.27735,48004
17.28547,42778
17.29360,39931
17.30172,35851
17.30983,38990
17.31797,39898
17.32608,44830
17.33422,49198
17.34233,52892
17.35045,60638
17.35858,62560
17.36670,59195
17.37482,62497
17.38295,54139
17.39107,55752
17.39920,50661
17.40732,49120
17.41543,52812
17.42357,52440
17.43168,50661
17.43982,52901
17.44793,52139
17.45605,48295
17.46418,49202
17.47230,49140
17.48043,43718
17.48855,41247
17.49667,39141
17.50480,38765
17.51292,43768
17.52103,41830
17.52917,42767
17.53728,39565
17.54542,44283
17.55353,47510
17.56165,55310
17.56978,76291
17.57790,122750
17.58603,214035
17.59415,344205
17.60227,541520
17.61040,688423
17.61852,737158
17.62663,662445
17.63477,514440
17.64288,363205
17.65102,244517
17.65913,181201
17.66725,141423
17.67538,115339
17.68350,112022
17.69163,106482
17.69975,93064
17.70787,85996
17.71600,79692
17.72412,76528
17.73225,69761
17.74037,71111
17.74848,65918
17.75662,69027
17.76473,62587
17.77285,57982
17.78098,55890
17.78910,54763
17.79723,53722
17.80535,54256
17.81347,57724
17.82160,56020
17.82972,57117
17.83785,62833
17.84597,64128
17.85408,70626
17.86222,79631
17.87033,84721
17.87847,82732
17.88658,74968
17.89470,71775
17.90283,63891
17.91095,62549
17.91907,52361
17.92720,49398
17.93532,46788
17.94345,47041
17.95157,45111
17.95968,44974
17.96782,47393
17.97593,45292
17.98407,47820
17.99218,42678
18.00030,45838
18.00843,53988
18.01655,57876
18.02467,69268
18.03280,86680
18.04092,99828
18.04905,101389
18.05717,101964
18.06528,95773
18.07342,91474
18.08153,84465
18.08967,98142
18.09778,106837
18.10590,110335
18.11403,114909
18.12215,115916
18.13028,107257
18.13840,101623
18.14652,102243
18.15465,103487
18.16277,92735
18.17088,86078
18.17902,84327
18.18713,78632
18.19527,73560
18.20338,71544
18.21150,71162
18.21963,63074
18.22775,63552
18.23588,62844
18.24400,59254
18.25212,59969
18.26025,57500
18.26837,61536
18.27650,56744
18.28462,57714
18.29273,50289
18.30087,46720
18.30898,42934
18.31710,40612
18.32523,42691
18.33335,41345
18.34148,42454
18.34960,41978
18.35772,42015
18.36585,39947
18.37397,41479
18.38210,40640
18.39022,42519
18.39833,41810
18.40647,42432
18.41458,40142
18.42270,43132
18.43083,46768
18.43895,53748
18.44708,61257
18.45520,84411
18.46332,115456
18.47145,160132
18.47957,211229
18.48770,256934
18.49582,248582
18.50393,228630
18.51207,181090
18.52018,137311
18.52832,106922
18.53643,84672
18.54455,69375
18.55268,61237
18.56080,61933
18.56892,53125
18.57705,53973
18.58517,53935
18.59330,53298
18.60142,55060
18.60953,55606
18.61767,60412
18.62578,55549
18.63392,56358
18.64203,58359
18.65015,56363
18.65828,51961
18.66640,48036
18.67452,47549
18.68265,48124
18.69077,48007
18.69890,45610
18.70702,45418
18.71513,42484
18.72327,37411
18.73138,41457
18.73952,40217
18.74763,37071
18.75575,36245
18.76388,41624
18.77200,40781
18.78013,38413
18.78825,38338
18.79637,37529
18.80450,40544
18.81262,39893
18.82073,44274
18.82887,41582
18.83698,41245
18.84512,37748
18.85323,42123
18.86135,38116
18.86948,39976
18.87760,42907
18.88573,39213
18.89385,39312
18.90197,37734
18.91010,41825
18.91822,45248
18.92635,58256
18.93447,80169
18.94258,92818
18.95072,108000
18.95883,118461
18.96695,127357
18.97508,122322
18.98320,130087
18.99133,131501
18.99945,123338
19.00757,123718
19.01570,124623
19.02382,118551
19.03195,124354
19.04007,128580
19.04818,126653
19.05632,154700
19.06443,208335
19.07255,379471
19.08068,759959
19.08880,1568943
19.09693,2678766
19.10505,3799810
19.11317,4448400
19.12130,4327067
19.12942,3475630
19.13755,2497891
19.14567,1598163
19.15378,969636
19.16192,608720
19.17003,425914
19.17817,336252
19.18628,280324
19.19440,255070
19.20253,225451
19.21065,211507
19.21877,192267
19.22690,179536
19.23502,171322
19.24315,160558
19.25127,148931
19.25938,141884
19.26752,145896
19.27563,149291
19.28377,151862
19.29188,155419
19.30000,163959
19.30813,163319
19.31625,165594
19.32438,147465
19.33250,145257
19.34062,141631
19.34875,142812
19.35687,145459
19.36498,167090
19.37312,173794
19.38123,193092
19.38937,182235
19.39748,175291
19.40560,154511
19.41373,147673
19.42185,132235
19.42998,123135
19.43810,125073
19.44622,127345
19.45435,121167
19.46247,123517
19.47058,121132
19.47872,133281
19.48683,145476
19.49497,161958
19.50308,187381
19.51120,230286
19.51933,254610
19.52745,261116
19.53558,248933
19.54370,205403
19.55182,172143
19.55995,148798
19.56807,133668
19.57620,121492
19.58432,119278
19.59243,110144
19.60057,110686
19.60868,105383
19.61680,106811
19.62493,103278
19.63305,108359
19.64118,114673
19.64930,144148
19.65742,181258
19.66555,224232
19.67367,280238
19.68180,318118
19.68992,338068
19.69803,329996
19.70617,298567
19.71428,272510
19.72242,243465
19.73053,212361
19.73865,196701
19.74678,168522
19.75490,148654
19.76302,134896
19.77115,134787
19.77927,122954
19.78740,125656
19.79552,130642
19.80363,135139
19.81177,128307
19.81988,125519
19.82802,117683
19.83613,109846
19.84425,107383
19.85238,99182
19.86050,98554
19.86862,99827
19.87675,106143
19.88487,123837
19.89300,154529
19.90112,196557
19.90923,226320
19.91737,253555
19.92548,265962
19.93362,263092
19.94173,266280
19.94985,247628
19.95798,250545
19.96610,241981
19.97423,221813
19.98235,228079
19.99047,218648
19.99860,210506
20.00672,207054
20.01483,201989
20.02297,196236
20.03108,188563
20.03922,172783
20.04733,168591
20.05545,163565
20.06358,145366
20.07170,132595
20.07983,127796
20.08795,122296
20.09607,119388
20.10420,115134
20.11232,108377
20.12043,102521
20.12857,97290
20.13668,93197
20.14482,94830
20.15293,98659
20.16105,104240
20.16918,115514
20.17730,122149
20.18543,144398
20.19355,148085
20.20167,164260
20.20980,157794
20.21792,151564
20.22605,140618
20.23417,139246
20.24228,139912
20.25042,148979
20.25853,185996
20.26665,242898
20.27478,333312
20.28290,399169
20.29103,438155
20.29915,428378
20.30727,384782
20.31540,331194
20.32352,262345
20.33165,206628
20.33977,156992
20.34788,135639
20.35602,121119
20.36413,102991
20.37227,98125
20.38038,96141
20.38850,91015
20.39663,89583
20.40475,89542
20.41287,88172
20.42100,92740
20.42912,92481
20.43725,92379
20.44537,101170
20.45348,107866
20.46162,103174
20.46973,100703
20.47787,101628
20.48598,95866
20.49410,83945
20.50223,83077
20.51035,77223
20.51847,73618
20.52660,70987
20.53472,66283
20.54285,71119
20.55097,69432
20.55908,68662
20.56722,63054
20.57533,69388
20.58347,63150
20.59158,63253
20.59970,69417
20.60783,65613
20.61595,60605
20.62408,61719
20.63220,55635
20.64032,62848
20.64845,64052
20.65657,64238
20.66468,60104
20.67282,63599
20.68093,61799
20.68907,60744
20.69718,64885
20.70530,64370
20.71343,54398
20.72155,60239
20.72968,56519
20.73780,58464
20.74592,56868
20.75405,60628
20.76217,61297
20.77030,59599
20.77842,64561
20.78653,72159
20.79467,86421
20.80278,122419
20.81090,170377
20.81903,203244
20.82715,230088
20.83528,215767
20.84340,186129
20.85152,143319
20.85965,108738
20.86777,84163
20.87590,70827
20.88402,69484
20.89213,66335
20.90027,62262
20.90838,67176
20.91650,63655
20.92463,68702
20.93275,62977
20.94088,57073
20.94900,59477
20.95712,60759
20.96525,58172
20.97337,62013
20.98150,57053
20.98962,55825
20.99773,52576
21.00587,53808
21.01398,51804
21.02212,52321
21.03023,52772
21.03835,55667
21.04648,57806
21.05460,56397
21.06272,55862
21.07085,57402
21.07897,58481
21.08710,61757
21.09522,57308
21.10333,59777
21.11147,54499
21.11958,54122
21.12772,60674
21.13583,67628
21.14395,83518
21.15208,106791
21.16020,130165
21.16832,155446
21.17645,154016
21.18457,144187
21.19270,123189
21.20082,103722
21.20893,86071
21.21707,75632
21.22518,68343
21.23332,61398
21.24143,64174
21.24955,64897
21.25768,62139
21.26580,63349
21.27393,59042
21.28205,63139
21.29017,57489
21.29830,56442
21.30642,55267
21.31453,55667
21.32267,58283
21.33078,56043
21.33892,57187
21.34703,54473
21.35515,52888
21.36328,58575
21.37140,52298
21.37953,56219
21.38765,53140
21.39577,56565
21.40390,56834
21.41202,61161
21.42015,66559
21.42827,62922
21.43638,62392
21.44452,59748
21.45263,57554
21.46075,52820
21.46888,57824
21.47700,56968
21.48513,57758
21.49325,51355
21.50137,56309
21.50950,51114
21.51762,52341
21.52575,50872
21.53387,50315
21.54198,56836
21.55012,52134
21.55823,51530
21.56635,49397
21.57448,56333
21.58260,55811
21.59073,61477
21.59885,65535
21.60697,66061
21.61510,67859
21.62322,73427
21.63135,69985
21.63947,89950
21.64758,94358
21.65572,98956
21.66383,97586
21.67197,89111
21.68008,94335
21.68820,90535
21.69633,82506
21.70445,72426
21.71257,66760
21.72070,62999
21.72882,62996
21.73695,61221
21.74507,61307
21.75318,59428
21.76132,52374
21.76943,53285
21.77757,55516
21.78568,56375
21.79380,51124
21.80193,52060
21.81005,60088
21.81818,58955
21.82630,69330
21.83442,74220
21.84255,82279
21.85067,81356
21.85878,79470
21.86692,74103
21.87503,71001
21.88317,65957
21.89128,60507
21.89940,55645
21.90753,54738
21.91565,48985
21.92378,50097
21.93190,52539
21.94002,49697
21.94815,49510
21.95627,47569
21.96438,45728
21.97252,48519
21.98063,43458
21.98877,45186
21.99688,43614
22.00500,45603
22.01313,47138
22.02125,42961
22.02938,49063
22.03750,47331
22.04562,50117
22.05375,49349
22.06187,46043
22.07000,45586
22.07812,44691
22.08623,42437
22.09437,45073
22.10248,42926
22.11060,40092
22.11873,41903
22.12685,42525
22.13498,49544
22.14310,46837
22.15122,44155
22.15935,47660
22.16747,43556
22.17560,43580
22.18372,42745
22.19183,45727
22.19997,41779
22.20808,42321
22.21620,48324
22.22433,43074
22.23245,48471
22.24058,48470
22.24870,48448
22.25682,47590
22.26495,49583
22.27307,47716
22.28120,50155
22.28932,51170
22.29743,52779
22.30557,61190
22.31368,66976
22.32182,73298
22.32993,75737
22.33805,74910
22.34618,80256
22.35430,73076
22.36242,72156
22.37055,74131
22.37867,74586
22.38680,74391
22.39492,82530
22.40303,96134
22.41117,113162
22.41928,124873
22.42742,137666
22.43553,135302
22.44365,125160
22.45178,110930
22.45990,100026
22.46803,81746
22.47615,86467
22.48427,84262
22.49240,85510
22.50052,84621
22.50863,88149
22.51677,79856
22.52488,82635
22.53302,77949
22.54113,71209
22.54925,70755
22.55738,67764
22.56550,61764
22.57363,54218
22.58175,55550
22.58987,52387
22.59800,49042
22.60612,47523
22.61425,49125
22.62237,47584
22.63048,41716
22.63862,46520
22.64673,47116
22.65485,45747
22.66298,47705
22.67110,47988
22.67923,49989
22.68735,49885
22.69547,51775
22.70360,60794
22.71172,59296
22.71985,67183
22.72797,65297
22.73608,66615
22.74422,59835
22.75233,58151
22.76045,57168
22.76858,53657
22.77670,54203
22.78483,59047
22.79295,54377
22.80107,67917
22.80920,67468
22.81732,81304
22.82545,88627
22.83357,93340
22.84168,100019
22.84982,99289
22.85793,107502
22.86607,109420
22.87418,109757
22.88230,108600
22.89043,117455
22.89855,126338
22.90667,140275
22.91480,144453
22.92292,165520
22.93105,175623
22.93917,182221
22.94728,178735
22.95542,165164
22.96353,156726
22.97167,145303
22.97978,137687
22.98790,128277
22.99603,121838
23.00415,120492
23.01227,114407
23.02040,112973
23.02852,110665
23.03665,111623
23.04477,100511
23.05288,99329
23.06102,104804
23.06913,99570
23.07727,100769
23.08538,102273
23.09350,102859
23.10163,104458
23.10975,99078
23.11788,97630
23.12600,92852
23.13412,92349
23.14225,90873
23.15037,92552
23.15848,91615
23.16662,93305
23.17473,86353
23.18287,86820
23.19098,91924
23.19910,91733
23.20723,89081
23.21535,88044
23.22348,88577
23.23160,84612
23.23972,81601
23.24785,89708
23.25597,87651
23.26410,95801
23.27222,94154
23.28033,94033
23.28847,95078
23.29658,91067
23.30470,85121
23.31283,84959
23.32095,81164
23.32908,81678
23.33720,85972
23.34532,92060
23.35345,100341
23.36157,108602
23.36970,121319
23.37782,126573
23.38593,122290
23.39407,124633
23.40218,114988
23.41030,104039
23.41843,104795
23.42655,100876
23.43468,101950
23.44280,99415
23.45092,97287
23.45905,95586
23.46717,93745
23.47530,92173
23.48342,93755
23.49153,89785
23.49967,90018
23.50778,86141
23.51592,86662
23.52403,80408
23.53215,80650
23.54028,80236
23.54840,82029
23.55652,78996
23.56465,88746
23.57277,95560
23.58090,112187
23.58902,136280
23.59713,172347
23.60527,192134
23.61338,211689
23.62152,202084
23.62963,179133
23.63775,155506
23.64588,136269
23.65400,126333
23.66213,129029
23.67025,128779
23.67837,123119
23.68650,122988
23.69462,105021
23.70273,97706
23.71087,89777
23.71898,82373
23.72712,82280
23.73523,73364
23.74335,81532
23.75148,109299
23.75960,179038
23.76773,337777
23.77585,660548
23.78397,1181923
23.79210,1768780
23.80022,2151737
23.80833,2238080
23.81647,2009880
23.82458,1678775
23.83272,1335248
23.84083,1013251
23.84895,821136
23.85708,643625
23.86520,513189
23.87333,429075
23.88145,359830
23.88957,331749
23.89770,299233
23.90582,287827
23.91395,280456
23.92207,259861
23.93018,232848
23.93832,231799
23.94643,208914
23.95455,200941
23.96268,186545
23.97080,179368
23.97893,171021
23.98705,163142
23.99517,159325
24.00330,146443
24.01142,168408
24.01955,224159
24.02767,268079
24.03578,337955
24.04392,371203
24.05203,358087
24.06015,295083
24.06828,220857
24.07640,169141
24.08453,131614
24.09265,113031
24.10077,105803
24.10890,101585
24.11702,100803
24.12515,105596
24.13327,111370
24.14138,118061
24.14952,132081
24.15763,136694
24.16577,135397
24.17388,131652
24.18200,124474
24.19013,112030
24.19825,105824
24.20637,105083
24.21450,102557
24.22262,100025
24.23075,92250
24.23887,98752
24.24698,90747
24.25512,87804
24.26323,82515
24.27137,79635
24.27948,82886
24.28760,77334
24.29573,74754
24.30385,78569
24.31198,80106
24.32010,77770
24.32822,72921
24.33635,74928
24.34447,72709
24.35258,67072
24.36072,67743
24.36883,68028
24.37697,71651
24.38508,78159
24.39320,97129
24.40133,110025
24.40945,122974
24.41758,117903
24.42570,108313
24.43382,100221
24.44195,83342
24.45007,76228
24.45818,70467
24.46632,64506
24.47443,65893
24.48257,65292
24.49068,67690
24.49880,65869
24.50693,76165
24.51505,81797
24.52318,85116
24.53130,77970
24.53942,89327
24.54755,86813
24.55567,94310
24.56380,106409
24.57192,118144
24.58003,121154
24.58817,124152
24.59628,129289
24.60440,131647
24.61253,133880
24.62065,138278
24.62878,128768
24.63690,130539
24.64502,133976
24.65315,130863
24.66127,131247
24.66940,137109
24.67752,136023
24.68563,136088
24.69377,124843
24.70188,132449
24.71002,135248
24.71813,131285
24.72625,130143
24.73438,129064
24.74250,134394
24.75062,132747
24.75875,131426
24.76687,143428
24.77500,137256
24.78312,148191
24.79123,143043
24.79937,142550
24.80748,140240
24.81562,142670
24.82373,146198
24.83185,148058
24.83998,156583
24.84810,180588
24.85622,208383
24.86435,253945
24.87247,305638
24.88060,402503
24.88872,472148
24.89683,525017
24.90497,521635
24.91308,458626
24.92122,368275
24.92933,279839
24.93745,214946
24.94558,175387
24.95370,150355
24.96183,138806
24.96995,121903
24.97807,122996
24.98620,122787
24.99432,118312
25.00243,113292
25.01057,118848
25.01868,107702
25.02682,112257
25.03493,105892
25.04305,112869
25.05118,116184
25.05930,104768
25.06743,108130
25.07555,108598
25.08367,117990
25.09180,122974
25.09992,144063
25.10805,215433
25.11617,383646
25.12428,716224
25.13242,1283584
25.14053,1990848
25.14865,2466977
25.15678,2593048
25.16490,2340590
25.17303,1810716
25.18115,1226512
25.18927,775059
25.19740,477409
25.20552,322025
25.21365,233968
25.22177,200569
25.22988,175181
25.23802,194893
25.24613,251072
25.25425,344578
25.26238,496922
25.27050,656201
25.27863,757179
25.28675,777320
25.29487,673912
25.30300,541619
25.31112,398057
25.31925,284176
25.32737,207693
25.33548,167717
25.34362,144229
25.35173,132263
25.35987,124820
25.36798,115025
25.37610,111337
25.38423,102974
25.39235,94356
25.40047,93689
25.40860,89772
25.41672,83277
25.42485,79241
25.43297,74026
25.44108,74876
25.44922,80930
25.45733,68616
25.46547,72887
25.47358,74943
25.48170,72301
25.48983,71358
25.49795,67528
25.50607,70460
25.51420,71032
25.52232,63717
25.53045,65518
25.53857,60974
25.54668,62982
25.55482,62032
25.56293,57524
25.57107,60522
25.57918,61402
25.58730,61455
25.59543,57557
25.60355,57410
25.61168,62528
25.61980,62724
25.62792,71177
25.63605,76724
25.64417,91709
25.65228,98176
25.66042,94725
25.66853,82362
25.67667,79141
25.68478,67714
25.69290,59591
25.70103,60330
25.70915,59884
25.71728,60128
25.72540,53903
25.73352,54867
25.74165,57191
25.74977,58688
25.75790,56134
25.76602,53076
25.77413,52774
25.78227,57217
25.79038,63058
25.79850,66558
25.80663,77285
25.81475,88276
25.82288,103642
25.83100,111146
25.83912,118557
25.84725,123413
25.85537,128517
25.86350,129622
25.87162,136599
25.87973,129611
25.88787,135668
25.89598,130674
25.90410,133823
25.91223,128562
25.92035,133131
25.92848,131358
25.93660,138183
25.94472,138703
25.95285,134300
25.96097,136292
25.96910,131600
25.97722,133641
25.98533,131831
25.99347,125220
26.00158,130211
26.00972,127197
26.01783,125721
26.02595,124322
26.03408,127692
26.04220,124127
26.05032,123387
26.05845,121941
26.06657,124124
26.07470,119710
26.08282,122596
26.09093,123667
26.09907,122786
26.10718,122826
26.11532,120431
26.12343,119256
26.13155,122472
26.13968,124259
26.14780,123520
26.15593,126089
26.16405,122345
26.17217,121043
26.18030,122073
26.18842,120430
26.19653,110238
26.20467,115704
26.21278,112578
26.22092,106677
26.22903,102682
26.23715,105054
26.24528,102962
26.25340,102547
26.26153,98793
26.26965,103480
26.27777,106792
26.28590,99956
26.29402,104734
26.30213,100120
26.31027,101983
26.31838,90961
26.32652,93643
26.33463,91339
26.34275,92185
26.35088,93544
26.35900,91552
26.36713,98539
26.37525,105872
26.38337,107762
26.39150,122064
26.39962,118058
26.40775,133657
26.41587,119009
26.42398,122054
26.43212,110857
26.44023,99390
26.44835,90665
26.45648,91675
26.46460,84934
26.47273,83518
26.48085,86117
26.48897,82822
26.49710,87871
26.50522,78274
26.51335,80960
26.52147,78055
26.52958,74353
26.53772,74710
26.54583,71145
26.55395,69543
26.56208,67800
26.57020,68232
26.57833,72357
26.58645,70914
26.59457,69018
26.60270,61159
26.61082,66493
26.61895,65276
26.62707,63226
26.63518,65195
26.64332,62819
26.65143,68671
26.65957,68448
26.66768,73084
26.67580,71510
26.68393,71071
26.69205,68320
26.70017,68357
26.70830,64540
26.71642,59208
26.72455,65203
26.73267,58639
26.74078,57599
26.74892,56160
26.75703,58582
26.76517,59599
26.77328,58277
26.78140,58446
26.78953,59400
26.79765,60271
26.80578,59733
26.81390,63679
26.82202,62696
26.83015,61208
26.83827,62930
26.84638,60506
26.85452,57773
26.86263,60539
26.87077,61137
26.87888,57375
26.88700,54899
26.89513,54218
26.90325,54411
26.91138,54078
26.91950,53298
26.92762,54890
26.93575,49091
26.94387,57669
26.95200,51820
26.96012,57394
26.96823,61759
26.97637,71058
26.98448,83747
26.99260,107879
27.00073,168818
27.00885,218903
27.01698,296335
27.02510,351487
27.03322,387688
27.04135,409090
27.04947,383441
27.05760,339417
27.06572,287056
27.07383,245187
27.08197,213432
27.09008,186693
27.09820,162967
27.10633,146633
27.11445,134086
27.12258,130045
27.13070,120135
27.13882,114237
27.14695,108484
27.15507,103370
27.16320,105134
27.17132,105263
27.17943,111423
27.18757,110809
27.19568,112588
27.20382,112422
27.21193,108219
27.22005,104206
27.22818,90911
27.23630,91553
27.24442,81925
27.25255,82642
27.26067,75400
27.26880,77015
27.27692,71959
27.28503,68927
27.29317,67252
27.30128,66079
27.30942,63715
27.31753,66305
27.32565,71834
27.33378,64262
27.34190,61889
27.35002,65422
27.35815,70018
27.36627,68216
27.37440,66432
27.38252,67006
27.39063,66688
27.39877,64017
27.40688,63482
27.41502,61380
27.42313,57285
27.43125,58558
27.43938,57121
27.44750,54646
27.45563,54387
27.46375,53749
27.47187,49735
27.48000,61326
27.48812,54595
27.49623,54641
27.50437,55585
27.51248,51237
27.52062,53988
27.52873,53683
27.53685,56948
27.54498,51947
27.55310,60171
27.56123,53950
27.56935,57017
27.57747,58789
27.58560,62199
27.59372,68312
27.60185,73822
27.60997,72114
27.61808,75234
27.62622,68055
27.63433,59519
27.64245,59743
27.65058,57292
27.65870,57031
27.66683,56807
27.67495,50681
27.68307,50711
27.69120,56719
27.69932,52867
27.70745,51781
27.71557,50493
27.72368,50055
27.73182,46925
27.73993,42921
27.74805,50647
27.75618,55645
27.76430,59449
27.77243,72622
27.78055,89482
27.78867,99141
27.79680,104891
27.80492,104945
27.81305,91645
27.82117,90664
27.82928,68889
27.83742,62005
27.84553,57927
27.85367,49274
27.86178,51923
27.86990,49132
27.87803,51079
27.88615,49973
27.89427,49036
27.90240,44999
27.91052,49404
27.91865,47217
27.92677,54450
27.93488,48166
27.94302,46530
27.95113,50153
27.95927,47674
27.96738,45491
27.97550,45292
27.98363,48637
27.99175,49873
27.99988,54378
28.00800,53196
28.01612,52437
28.02425,52722
28.03237,54880
28.04048,57341
28.04862,57161
28.05673,55559
28.06487,51325
28.07298,51684
28.08110,55738
28.08923,50343
28.09735,50421
28.10548,44941
28.11360,46065
28.12172,49727
28.12985,46146
28.13797,44933
28.14608,45029
28.15422,46132
28.16233,41423
28.17047,46722
28.17858,44697
28.18670,44955
28.19483,56925
28.20295,65253
28.21108,68721
28.21920,74382
28.22732,80491
28.23545,79929
28.24357,72052
28.25170,68323
28.25982,62450
28.26793,54410
28.27607,50709
28.28418,50788
28.29230,46911
28.30043,47224
28.30855,49403
28.31668,52845
28.32480,56502
28.33292,66921
28.34105,73471
28.34917,84778
28.35730,99662
28.36542,111335
28.37353,123923
28.38167,135776
28.38978,146186
28.39790,149603
28.40603,146627
28.41415,145347
28.42228,147464
28.43040,136587
28.43852,127225
28.44665,123500
28.45477,116709
28.46290,109784
28.47102,102258
28.47913,97425
28.48727,92290
28.49538,84873
28.50352,92371
28.51163,81669
28.51975,79381
28.52788,81697
28.53600,73833
28.54412,74895
28.55225,68327
28.56037,68704
28.56850,62881
28.57662,67510
28.58473,61635
28.59287,62390
28.60098,64765
28.60912,63347
28.61723,59409
28.62535,59085
28.63348,67093
28.64160,67904
28.64973,68874
28.65785,73392
28.66597,73244
28.67410,69902
28.68222,68893
28.69033,65903
28.69847,64295
28.70658,62114
28.71472,57301
28.72283,63396
28.73095,60023
28.73908,62429
28.74720,60882
28.75533,62541
28.76345,71552
28.77157,72526
28.77970,72433
28.78782,71496
28.79593,73746
28.80407,75723
28.81218,71885
28.82032,66759
28.82843,62950
28.83655,61876
28.84468,59705
28.85280,55503
28.86093,56110
28.86905,58946
28.87717,59089
28.88530,61488
28.89342,65500
28.90155,65586
28.90967,62133
28.91778,67401
28.92592,63487
28.93403,62650
28.94215,61476
28.95028,60698
28.95840,59784
28.96653,64304
28.97465,62313
28.98277,61117
28.99090,61918
28.99902,54047
29.00715,53968
29.01527,47334
29.02338,47199
29.03152,51091
29.03963,50959
29.04777,50348
29.05588,52278
29.06400,57220
29.07213,60241
29.08025,61958
29.08837,66348
29.09650,65336
29.10462,64017
29.11275,56619
29.12087,55733
29.12898,49467
29.13712,54019
29.14523,49416
29.15337,54003
29.16148,49709
29.16960,50444
29.17773,48734
29.18585,55307
29.19397,62867
29.20210,69894
29.21022,79380
29.21835,87060
29.22647,82244
29.23458,84138
29.24272,90900
29.25083,83622
29.25897,83075
29.26708,82028
29.27520,85669
29.28333,81066
29.29145,68689
29.29958,63915
29.30770,61458
29.31582,55517
29.32395,52259
29.33207,50579
29.34018,48713
29.34832,49797
29.35643,44800
29.36457,44531
29.37268,42835
29.38080,49163
29.38893,51762
29.39705,51932
29.40518,66073
29.41330,79947
29.42142,95341
29.42955,107857
29.43767,118409
29.44578,113588
29.45392,99732
29.46203,80527
29.47017,68945
29.47828,63934
29.48640,61680
29.49453,57075
29.50265,56677
29.51078,57874
29.51890,59047
29.52702,57583
29.53515,57030
29.54327,55689
29.55140,55357
29.55952,50186
29.56763,50013
29.57577,50864
29.58388,49470
29.59200,46320
29.60013,51695
29.60825,49017
29.61638,50295
29.62450,49202
29.63262,48907
29.64075,50898
29.64887,47183
29.65700,46377
29.66512,45964
29.67323,42510
29.68137,45963
29.68948,48323
29.69762,47558
29.70573,49602
29.71385,51952
29.72198,52432
29.73010,47361
29.73822,47026
29.74635,46146
29.75447,47000
29.76260,43485
29.77072,44341
29.77883,41169
29.78697,45225
29.79508,42125
29.80322,42972
29.81133,42881
29.81945,37666
29.82758,40254
29.83570,48078
29.84382,44254
29.85195,47734
29.86007,44466
29.86820,56845
29.87632,69134
29.88443,89547
29.89257,126057
29.90068,165713
29.90882,177726
29.91693,170498
29.92505,141989
29.93318,113009
29.94130,87840
29.94943,73911
29.95755,63873
29.96567,59727
29.97380,59660
29.98192,66074
29.99003,66535
29.99817,75370
30.00628,72956
30.01442,83768
30.02253,85922
30.03065,92260
30.03878,91612
30.04690,93291
30.05503,96662
30.06315,98305
30.07127,102240
30.07940,104406
30.08752,99423
30.09565,96092
30.10377,97748
30.11188,88906
30.12002,93778
30.12813,88468
30.13625,81774
30.14438,77481
30.15250,77121
30.16063,74027
30.16875,74016
30.17687,74630
30.18500,73714
30.19312,69538
30.20125,64801
30.20937,66477
30.21748,67246
30.22562,66311
30.23373,62972
30.24185,62702
30.24998,57079
30.25810,56774
30.26623,57322
30.27435,54747
30.28247,54695
30.29060,51933
30.29872,54333
30.30685,51195
30.31497,50192
30.32308,47939
30.33122,51077
30.33933,52498
30.34747,51760
30.35558,46686
30.36370,50050
30.37183,48328
30.37995,46634
30.38807,44997
30.39620,45775
30.40432,47645
30.41245,47368
30.42057,49144
30.42868,47547
30.43682,48494
30.44493,48770
30.45307,42553
30.46118,43517
30.46930,44269
30.47743,47490
30.48555,45545
30.49368,48628
30.50180,51357
30.50992,45726
30.51805,45471
30.52617,44541
30.53428,47604
30.54242,42197
30.55053,46073
30.55867,45384
30.56678,44451
30.57490,47198
30.58303,43666
30.59115,42510
30.59928,44577
30.60740,44128
30.61552,45021
30.62365,43043
30.63177,50893
30.63988,41456
30.64802,43659
30.65613,43596
30.66427,41286
30.67238,48665
30.68050,39760
30.68863,40954
30.69675,38981
30.70488,42434
30.71300,44290
30.72112,39650
30.72925,37618
30.73737,47442
30.74550,43945
30.75362,44645
30.76173,47072
30.76987,53354
30.77798,73263
30.78610,109754
30.79423,174247
30.80235,253659
30.81048,338255
30.81860,368431
30.82672,355988
30.83485,282308
30.84297,201267
30.85110,137908
30.85922,98408
30.86733,78596
30.87547,69371
30.88358,67400
30.89170,61717
30.89983,57664
30.90795,54188
30.91608,55369
30.92420,49766
30.93232,51421
30.94045,51484
30.94857,49503
30.95670,41623
30.96482,44259
30.97293,47918
30.98107,49935
30.98918,44289
30.99732,46302
31.00543,47402
31.01355,41889
31.02168,44769
31.02980,46509
31.03792,48321
31.04605,48263
31.05417,47260
31.06230,50983
31.07042,48342
31.07853,53187
31.08667,62389
31.09478,58762
31.10292,65385
31.11103,70724
31.11915,71161
31.12728,75668
31.13540,67766
31.14353,62215
31.15165,61384
31.15977,63253
31.16790,63568
31.17602,65141
31.18413,68624
31.19227,67014
31.20038,78849
31.20852,92438
31.21663,105867
31.22475,114161
31.23288,120012
31.24100,119280
31.24913,100318
31.25725,84525
31.26537,73654
31.27350,68146
31.28162,65305
31.28973,61433
31.29787,62145
31.30598,62620
31.31412,64683
31.32223,61705
31.33035,62092
31.33848,58349
31.34660,58141
31.35473,61675
31.36285,60809
31.37097,56179
31.37910,59823
31.38722,59359
31.39535,59951
31.40347,58692
31.41158,58438
31.41972,59073
31.42783,58184
31.43595,56183
31.44408,55454
31.45220,61721
31.46033,61068
31.46845,65615
31.47657,76554
31.48470,85214
31.49282,89271
31.50095,88761
31.50907,83575
31.51718,83151
31.52532,72357
31.53343,67454
31.54157,70502
31.54968,72179
31.55780,74595
31.56593,79279
31.57405,83640
31.58217,83775
31.59030,81895
31.59842,78040
31.60655,65973
31.61467,63387
31.62278,59156
31.63092,56298
31.63903,57282
31.64717,54886
31.65528,53175
31.66340,54833
31.67153,59055
31.67965,58745
31.68777,56335
31.69590,52052
31.70402,54946
31.71215,51555
31.72027,49887
31.72838,48200
31.73652,50839
31.74463,50878
31.75277,48388
31.76088,45866
31.76900,49481
31.77713,50265
31.78525,48660
31.79338,50213
31.80150,50780
31.80962,55923
31.81775,48042
31.82587,52795
31.83398,50727
31.84212,48923
31.85023,49750
31.85837,50408
31.86648,51474
31.87460,49900
31.88273,49765
31.89085,49970
31.89898,52330
31.90710,56701
31.91522,58803
31.92335,60904
31.93147,66138
31.93958,70034
31.94772,75081
31.95583,80733
31.96397,78678
31.97208,88563
31.98020,90737
31.98833,97251
31.99645,92437
32.00458,95243
32.01270,94265
32.02082,97339
32.02895,94902
32.03707,90670
32.04520,86944
32.05332,82060
32.06143,82361
32.06957,79888
32.07768,81217
32.08580,81171
32.09393,78767
32.10205,72062
32.11018,65477
32.11830,64915
32.12642,63847
32.13455,63137
32.14267,59493
32.15080,62593
32.15892,61092
32.16703,54939
32.17517,59409
32.18328,56928
32.19142,54280
32.19953,54079
32.20765,54753
32.21578,51621
32.22390,55489
32.23202,52243
32.24015,52324
32.24827,58034
32.25640,54078
32.26452,60753
32.27263,58977
32.28077,61028
32.28888,57037
32.29702,58476
32.30513,52713
32.31325,51968
32.32138,56364
32.32950,50380
32.33763,53947
32.34575,51816
32.35387,53429
32.36200,50772
32.37012,53499
32.37823,55032
32.38637,49831
32.39448,49357
32.40262,46293
32.41073,50636
32.41885,43545
32.42698,43992
32.43510,47587
32.44323,44736
32.45135,46861
32.45947,40021
32.46760,46174
32.47572,45010
32.48383,42441
32.49197,44845
32.50008,46730
32.50822,44494
32.51633,44069
32.52445,44636
32.53258,43280
32.54070,44074
32.54883,48613
32.55695,48305
32.56507,48088
32.57320,48746
32.58132,51521
32.58945,47156
32.59757,45792
32.60568,45042
32.61382,44466
32.62193,42756
32.63005,45084
32.63818,44890
32.64630,44667
32.65443,48924
32.66255,52679
32.67067,53351
32.67880,60272
32.68692,60830
32.69505,55238
32.70317,56040
32.71128,53085
32.71942,54577
32.72753,52471
32.73565,47014
32.74378,47740
32.75190,46593
32.76003,43991
32.76815,47081
32.77627,46448
32.78440,40100
32.79252,42915
32.80065,42274
32.80877,43847
32.81688,44327
32.82502,43541
32.83313,41320
32.84127,38345
32.84938,42828
32.85750,40626
32.86563,40612
32.87375,40911
32.88187,40627
32.89000,40170
32.89812,47153
32.90625,44389
32.91437,45742
32.92248,44555
32.93062,46288
32.93873,45437
32.94687,42838
32.95498,42356
32.96310,49628
32.97123,57415
32.97935,66120
32.98748,88083
32.99560,118499
33.00372,137610
33.01185,150395
33.01997,137065
33.02808,130078
33.03622,105536
33.04433,86539
33.05247,73650
33.06058,62377
33.06870,63764
33.07683,52756
33.08495,66636
33.09308,68923
33.10120,71561
33.10932,76631
33.11745,85512
33.12557,88543
33.13368,97674
33.14182,84536
33.14993,77395
33.15807,64724
33.16618,66009
33.17430,56789
33.18243,58158
33.19055,55104
33.19868,53705
33.20680,51759
33.21492,53525
33.22305,51312
33.23117,52724
33.23930,50397
33.24742,53526
33.25553,48103
33.26367,50258
33.27178,46734
33.27990,49823
33.28803,49342
33.29615,48630
33.30428,48429
33.31240,49741
33.32052,49746
33.32865,43338
33.33677,52440
33.34490,49033
33.35302,45481
33.36113,51129
33.36927,52409
33.37738,51753
33.38552,47258
33.39363,48980
33.40175,46014
33.40988,44267
33.41800,48133
33.42612,44827
33.43425,44979
33.44237,40936
33.45050,41704
33.45862,44839
33.46673,44027
33.47487,44855
33.48298,41046
33.49112,46414
33.49923,50684
33.50735,52729
33.51548,52937
33.52360,51873
33.53172,52813
33.53985,49906
33.54797,50121
33.55610,49960
33.56422,49311
33.57233,49491
33.58047,47535
33.58858,48035
33.59672,48506
33.60483,48433
33.61295,46912
33.62108,43907
33.62920,45992
33.63733,39356
33.64545,45477
33.65357,47219
33.66170,46236
33.66982,45600
33.67793,48350
33.68607,47319
33.69418,52828
33.70232,49249
33.71043,46713
33.71855,45141
33.72668,44945
33.73480,42559
33.74293,43691
33.75105,44138
33.75917,43745
33.76730,43935
33.77542,43510
33.78353,45756
33.79167,44158
33.79978,45758
33.80792,43411
33.81603,43177
33.82415,43857
33.83228,43842
33.84040,43515
33.84853,47360
33.85665,49604
33.86477,48511
33.87290,47522
33.88102,51992
33.88915,45378
33.89727,47773
33.90538,47041
33.91352,46741
33.92163,47071
33.92975,47267
33.93788,45109
33.94600,43765
33.95413,44071
33.96225,47683
33.97037,46234
33.97850,47002
33.98662,42240
33.99475,43715
34.00287,47491
34.01098,43011
34.01912,43449
34.02723,44682
34.03537,50827
34.04348,47622
34.05160,45453
34.05973,42892
34.06785,49045
34.07597,43394
34.08410,44486
34.09222,43689
34.10035,48782
34.10847,47522
34.11658,47014
34.12472,44436
34.13283,46270
34.14097,45206
34.14908,47234
34.15720,45079
34.16533,43949
34.17345,45322
34.18157,44171
34.18970,44495
34.19782,44125
34.20595,46827
34.21407,46014
34.22218,42147
34.23032,42715
34.23843,45403
34.24657,44991
34.25468,47667
34.26280,48521
34.27093,50235
34.27905,46746
34.28718,48344
34.29530,46851
34.30342,46762
34.31155,43749
34.31967,44518
34.32778,46577
34.33592,45949
34.34403,45356
34.35217,44748
34.36028,45793
34.36840,45453
34.37653,46569
34.38465,48503
34.39278,46249
34.40090,45107
34.40902,50731
34.41715,45188
34.42527,46017
34.43340,42945
34.44152,48481
34.44963,46846
34.45777,48399
34.46588,44964
34.47400,44928
34.48213,41461
34.49025,41278
34.49838,46502
34.50650,50050
34.51462,49938
34.52275,50866
34.53087,61280
34.53900,70814
34.54712,81816
34.55523,81917
34.56337,87440
34.57148,88626
34.57960,79646
34.58773,85221
34.59585,77088
34.60398,82111
34.61210,74562
34.62022,68216
34.62835,67147
34.63647,64914
34.64460,66089
34.65272,65940
34.66083,60227
34.66897,59836
34.67708,57956
34.68522,55811
34.69333,51598
34.70145,53470
34.70958,56432
34.71770,54700
34.72582,58687
34.73395,55097
34.74207,54822
34.75020,56947
34.75832,52702
34.76643,50373
34.77457,52784
34.78268,53628
34.79082,53358
34.79893,51237
34.80705,54134
34.81518,49478
34.82330,51719
34.83142,51347
34.83955,49050
34.84767,47834
34.85580,51885
34.86392,50641
34.87203,48446
34.88017,49689
34.88828,51893
34.89642,48639
34.90453,54779
34.91265,51922
34.92078,50952
34.92890,50776
34.93703,56736
34.94515,57493
34.95327,58860
34.96140,56431
34.96952,54453
34.97763,58136
34.98577,61021
34.99388,65103
35.00202,56133
35.01013,54936
35.01825,53712
35.02638,50622
35.03450,54379
35.04263,49247
35.05075,51202
35.05887,54038
35.06700,50150
35.07512,51475
35.08325,51697
35.09137,52732
35.09948,49707
35.10762,48004
35.11573,49964
35.12385,51548
35.13198,47133
35.14010,50012
35.14823,52563
35.15635,48634
35.16447,53405
35.17260,51672
35.18072,51660
35.18885,55185
35.19697,48690
35.20508,47140
35.21322,48791
35.22133,53028
35.22945,49403
35.23758,45230
35.24570,49623
35.25383,52869
35.26195,55956
35.27007,52396
35.27820,52213
35.28632,54803
35.29445,50316
35.30257,50255
35.31068,53143
35.31882,52985
35.32693,49347
35.33507,47194
35.34318,51655
35.35130,48240
35.35943,45431
35.36755,50581
35.37567,49649
35.38380,48467
35.39192,50524
35.40005,48856
35.40817,49497
35.41628,47326
35.42442,48713
35.43253,51330
35.44067,48892
35.44878,51917
35.45690,55153
35.46503,54784
35.47315,56756
35.48128,60380
35.48940,58158
35.49752,58747
35.50565,52697
35.51377,53265
35.52188,55096
35.53002,51923
35.53813,49265
35.54627,48398
35.55438,51889
35.56250,50493
35.57063,51834
35.57875,47507
35.58688,50144
35.59500,51025
35.60312,48630
35.61125,48303
35.61937,50177
35.62748,47002
35.63562,49375
35.64373,50073
35.65187,54564
35.65998,48504
35.66810,51970
35.67623,49427
35.68435,57026
35.69248,53797
35.70060,53444
35.70872,55993
35.71685,56107
35.72497,59645
35.73310,51437
35.74122,57530
35.74933,53991
35.75747,59996
35.76558,58687
35.77370,57359
35.78183,62121
35.78995,57510
35.79808,56455
35.80620,51322
35.81432,53439
35.82245,53062
35.83057,50215
35.83870,50857
35.84682,55186
35.85493,52742
35.86307,48797
35.87118,53439
35.87932,51588
35.88743,49027
35.89555,56345
35.90368,52071
35.91180,54378
35.91992,52777
35.92805,48942
35.93617,50272
35.94430,52463
35.95242,52690
35.96053,50103
35.96867,50814
35.97678,49447
35.98492,50994
35.99303,56403
36.00115,57461
36.00928,55003
36.01740,57084
36.02552,57090
36.03365,54141
36.04177,58323
36.04990,56658
36.05802,55066
36.06613,52160
36.07427,56121
36.08238,54122
36.09052,50762
36.09863,52500
36.10675,53920
36.11488,53801
36.12300,55273
36.13113,53502
36.13925,58020
36.14737,52671
36.15550,51969
36.16362,56473
36.17173,57003
36.17987,55267
36.18798,57517
36.19612,55937
36.20423,51776
36.21235,57039
36.22048,54037
36.22860,53836
36.23673,52164
36.24485,53788
36.25297,52405
36.26110,51609
36.26922,49371
36.27733,51273
36.28547,51454
36.29358,53436
36.30172,58031
36.30983,61092
36.31795,63093
36.32608,65603
36.33420,61437
36.34233,58475
36.35045,61822
36.35857,56766
36.36670,53593
36.37482,56730
36.38295,56436
36.39107,54314
36.39918,57738
36.40732,57321
36.41543,56978
36.42355,52873
36.43168,58574
36.43980,56718
36.44793,56605
36.45605,53522
36.46417,53997
36.47230,53055
36.48042,50332
36.48855,52871
36.49667,55328
36.50478,55592
36.51292,55293
36.52103,52759
36.52917,52215
36.53728,53912
36.54540,58856
36.55353,53577
36.56165,57465
36.56977,55124
36.57790,51229
36.58602,52163
36.59415,54212
36.60227,58309
36.61038,55639
36.61852,59210
36.62663,58756
36.63477,52403
36.64288,56046
36.65100,58119
36.65913,57371
36.66725,57306
36.67537,61100
36.68350,59108
36.69162,58669
36.69975,58956
36.70787,55861
36.71598,53634
36.72412,57643
36.73223,56038
36.74037,60026
36.74848,57453
36.75660,52727
36.76473,54429
36.77285,58165
36.78098,59313
36.78910,56258
36.79722,60547
36.80535,57326
36.81347,58012
36.82158,61026
36.82972,61199
36.83783,55809
36.84597,59412
36.85408,56322
36.86220,55017
36.87033,53201
36.87845,54745
36.88658,55545
36.89470,56422
36.90282,55903
36.91095,55885
36.91907,62394
36.92720,56714
36.93532,65963
36.94343,69207
36.95157,75977
36.95968,91428
36.96780,100831
36.97593,101042
36.98405,99292
36.99218,94910
37.00030,85531
37.00842,73372
37.01655,70918
37.02467,64896
37.03280,65178
37.04092,60951
37.04903,62688
37.05717,59523
37.06528,62779
37.07340,63959
37.08153,64493
37.08965,67253
37.09778,65530
37.10590,67240
37.11402,62565
37.12215,61484
37.13027,58717
37.13840,61580
37.14652,62515
37.15463,59501
37.16277,63510
37.17088,60918
37.17902,60642
37.18713,62538
37.19525,62391
37.20338,63138
37.21150,65910
37.21962,64007
37.22775,63856
37.23587,63748
37.24400,61389
37.25212,61945
37.26023,60938
37.26837,63638
37.27648,59981
37.28462,62286
37.29273,56867
37.30085,59980
37.30898,59919
37.31710,63583
37.32522,63751
37.33335,65251
37.34147,70883
37.34960,74142
37.35772,83243
37.36583,88648
37.37397,86264
37.38208,88371
37.39022,85897
37.39833,84078
37.40645,80433
37.41458,80069
37.42270,78327
37.43083,78252
37.43895,75335
37.44707,71874
37.45520,71859
37.46332,73956
37.47143,68710
37.47957,71284
37.48768,74832
