Z:\data\JTB-E02\BACandBLUE\JTB-E02-203-16.D Fri Mar 08 17:04:36 2019
Start of data points
2.09528,70074
2.10342,65583
2.11153,68446
2.11965,71261
2.12778,61322
2.13590,58831
2.14403,63514
2.15215,64217
2.16027,60411
2.16840,57358
2.17652,61587
2.18463,59888
2.19277,59778
2.20088,52897
2.20902,54218
2.21713,51534
2.22525,49401
2.23338,53538
2.24150,51811
2.24963,51427
2.25775,78793
2.26587,393999
2.27400,1086849
2.28212,1108856
2.29025,618211
2.29837,398516
2.30648,325364
2.31462,283792
2.32273,250639
2.33085,233602
2.33898,219538
2.34710,200046
2.35523,189073
2.36335,175335
2.37147,164820
2.37960,161362
2.38772,154356
2.39585,145083
2.40397,141890
2.41208,145481
2.42022,155442
2.42833,144114
2.43647,145777
2.44458,136631
2.45270,130903
2.46083,120718
2.46895,116152
2.47707,119081
2.48520,125452
2.49332,126036
2.50145,121440
2.50957,113960
2.51768,113235
2.52582,110994
2.53393,120146
2.54207,125570
2.55018,264905
2.55830,576540
2.56643,622454
2.57455,439877
2.58267,336549
2.59080,287061
2.59892,299135
2.60705,400559
2.61517,470160
2.62328,395767
2.63142,310535
2.63953,251412
2.64767,230665
2.65578,210720
2.66390,190969
2.67203,183529
2.68015,181708
2.68828,169861
2.69640,158319
2.70452,156168
2.71265,149794
2.72077,149149
2.72888,145348
2.73702,144515
2.74513,139757
2.75327,137663
2.76138,141502
2.76950,311588
2.77763,1381407
2.78575,2906738
2.79388,2620525
2.80200,1537782
2.81012,1050203
2.81825,865047
2.82637,730959
2.83450,634919
2.84262,535249
2.85073,441806
2.85887,389279
2.86698,355359
2.87510,321841
2.88323,291867
2.89135,263086
2.89948,255034
2.90760,231825
2.91572,215719
2.92385,201942
2.93197,202282
2.94010,188198
2.94822,189551
2.95633,176802
2.96447,178482
2.97258,171278
2.98070,162979
2.98883,165445
2.99695,179136
3.00508,186538
3.01320,185688
3.02132,168545
3.02945,156055
3.03757,151495
3.04570,150500
3.05382,153303
3.06193,159715
3.07007,192854
3.07818,491359
3.08632,1577681
3.09443,3117448
3.10255,4496118
3.11068,5404502
3.11880,4376911
3.12692,2922720
3.13505,2095492
3.14317,1665990
3.15130,1340003
3.15942,1113318
3.16753,1008884
3.17567,994959
3.18378,1332037
3.19192,2083885
3.20003,2213952
3.20815,1699464
3.21628,1308927
3.22440,1070499
3.23252,925255
3.24065,781671
3.24877,694625
3.25690,604837
3.26502,541299
3.27313,507557
3.28127,562271
3.28938,1021231
3.29752,2618664
3.30563,5002635
3.31375,6076391
3.32188,5069115
3.33000,3458003
3.33813,2347112
3.34625,1769778
3.35437,1424254
3.36250,1170891
3.37062,1028292
3.37873,901602
3.38687,807445
3.39498,721584
3.40312,668838
3.41123,626012
3.41935,564771
3.42748,567269
3.43560,552859
3.44373,514077
3.45185,480409
3.45997,460424
3.46810,481587
3.47622,485326
3.48435,471683
3.49247,447802
3.50058,412139
3.50872,384381
3.51683,368450
3.52495,368534
3.53308,380580
3.54120,387495
3.54933,356686
3.55745,333752
3.56557,317757
3.57370,307490
3.58182,296544
3.58995,293253
3.59807,285277
3.60618,275298
3.61432,274839
3.62243,300796
3.63057,351753
3.63868,378592
3.64680,368269
3.65493,630654
3.66305,3132998
3.67117,1.123422E+07
3.67930,1.956639E+07
3.68742,1.965366E+07
3.69555,1.366477E+07
3.70367,8766570
3.71178,6501809
3.71992,5270504
3.72803,4485442
3.73617,3844517
3.74428,3379931
3.75240,2998133
3.76053,2708193
3.76865,2464180
3.77677,2278886
3.78490,2117101
3.79302,2019120
3.80115,2351730
3.80927,3436549
3.81738,4466442
3.82552,4217579
3.83363,3232932
3.84177,2545599
3.84988,2208223
3.85800,1945485
3.86613,1762390
3.87425,1651517
3.88238,1525782
3.89050,1440427
3.89862,1337473
3.90675,1280118
3.91487,1325869
3.92298,1446884
3.93112,1543589
3.93923,1518592
3.94737,1821878
3.95548,3044980
3.96360,4803080
3.97173,5269584
3.97985,4063246
3.98798,2851578
3.99610,3148561
4.00422,5904206
4.01235,9533235
4.02047,1.046262E+07
4.02858,7512858
4.03672,4589680
4.04483,2957194
4.05297,2199896
4.06108,1782309
4.06920,1496798
4.07733,1323405
4.08545,1176938
4.09358,1081279
4.10170,1008504
4.10982,922529
4.11795,861107
4.12607,825883
4.13420,803092
4.14232,781012
4.15043,775660
4.15857,771346
4.16668,752879
4.17480,746168
4.18293,745894
4.19105,685486
4.19918,669386
4.20730,1137533
4.21542,3416660
4.22355,8681168
4.23167,1.462196E+07
4.23980,1.723513E+07
4.24792,1.512567E+07
4.25603,1.041773E+07
4.26417,6783067
4.27228,4785118
4.28042,3547024
4.28853,2779590
4.29665,2202344
4.30478,1834392
4.31290,1560336
4.32102,1364071
4.32915,1213269
4.33727,1107172
4.34540,1027089
4.35352,1046459
4.36163,1117516
4.36977,1153656
4.37788,1063168
4.38602,899196
4.39413,763536
4.40225,685940
4.41038,635420
4.41850,595382
4.42662,577497
4.43475,544541
4.44287,525988
4.45100,489011
4.45912,491347
4.46723,470069
4.47537,453032
4.48348,449102
4.49162,443575
4.49973,423395
4.50785,412492
4.51598,419862
4.52410,415032
4.53223,407892
4.54035,412400
4.54847,432166
4.55660,434098
4.56472,403674
4.57283,381925
4.58097,363614
4.58908,361637
4.59722,331961
4.60533,340254
4.61345,348647
4.62158,443929
4.62970,689632
4.63783,1028264
4.64595,1181204
4.65407,1075992
4.66220,817339
4.67032,655137
4.67845,573607
4.68657,534378
4.69468,472780
4.70282,418808
4.71093,371991
4.71905,363124
4.72718,341459
4.73530,326693
4.74343,323819
4.75155,308798
4.75967,298432
4.76780,300057
4.77592,304679
4.78405,351217
4.79217,598867
4.80028,1091312
4.80842,1494330
4.81653,1483547
4.82465,1152199
4.83278,900688
4.84090,774801
4.84903,728660
4.85715,671908
4.86527,598040
4.87340,517504
4.88152,486400
4.88965,447220
4.89777,418369
4.90588,388255
4.91402,378389
4.92213,358844
4.93027,360584
4.93838,406031
4.94650,577740
4.95463,945161
4.96275,1379595
4.97087,1616747
4.97900,1547396
4.98712,1257290
4.99525,1025041
5.00337,840025
5.01148,722471
5.01962,677773
5.02773,705399
5.03587,795493
5.04398,844186
5.05210,827167
5.06023,728064
5.06835,655273
5.07647,590414
5.08460,554137
5.09272,536039
5.10085,499702
5.10897,480170
5.11708,454148
5.12522,430357
5.13333,427674
5.14147,410138
5.14958,457774
5.15770,557959
5.16583,678755
5.17395,697715
5.18208,665808
5.19020,591720
5.19832,608288
5.20645,662038
5.21457,691629
5.22268,666279
5.23082,575209
5.23893,526739
5.24707,471393
5.25518,416614
5.26330,381765
5.27143,347736
5.27955,317228
5.28768,304041
5.29580,303166
5.30392,290536
5.31205,282017
5.32017,297860
5.32830,335790
5.33642,375204
5.34453,405877
5.35267,410608
5.36078,370802
5.36890,325874
5.37703,311710
5.38515,323432
5.39328,374962
5.40140,401331
5.40952,407040
5.41765,364761
5.42577,319430
5.43390,309446
5.44202,312577
5.45013,334954
5.45827,369801
5.46638,370787
5.47450,338206
5.48263,301718
5.49075,254476
5.49888,245490
5.50700,245848
5.51512,250398
5.52325,263001
5.53137,251263
5.53950,240060
5.54762,286428
5.55573,405323
5.56387,673402
5.57198,991455
5.58012,1154284
5.58823,1084229
5.59635,825855
5.60448,598694
5.61260,431928
5.62072,362874
5.62885,316987
5.63697,290762
5.64510,270207
5.65322,255989
5.66133,246527
5.66947,252237
5.67758,264564
5.68572,309618
5.69383,353090
5.70195,370169
5.71008,357965
5.71820,325110
5.72633,307381
5.73445,262308
5.74257,239623
5.75070,236584
5.75882,223405
5.76693,218238
5.77507,208616
5.78318,204316
5.79132,198453
5.79943,198499
5.80755,206482
5.81568,197305
5.82380,192283
5.83193,197815
5.84005,196007
5.84817,200673
5.85630,203373
5.86442,193990
5.87253,192989
5.88067,181573
5.88878,186749
5.89692,185505
5.90503,208541
5.91315,212327
5.92128,222604
5.92940,224209
5.93753,209678
5.94565,200167
5.95377,206035
5.96190,266183
5.97002,423274
5.97815,651641
5.98627,835702
5.99438,871186
6.00252,747574
6.01063,558632
6.01875,412793
6.02688,328544
6.03500,294800
6.04313,252440
6.05125,238080
6.05937,218203
6.06750,209600
6.07562,204538
6.08375,197814
6.09187,200525
6.09998,189525
6.10812,208288
6.11623,217911
6.12435,270533
6.13248,378684
6.14060,567651
6.14873,728840
6.15685,719921
6.16497,579255
6.17310,440770
6.18122,347230
6.18935,293092
6.19747,276902
6.20558,255397
6.21372,254579
6.22183,239170
6.22997,237835
6.23808,226878
6.24620,249537
6.25433,288667
6.26245,329658
6.27057,331464
6.27870,300664
6.28682,263378
6.29495,245321
6.30307,217599
6.31118,236259
6.31932,232793
6.32743,242284
6.33557,255927
6.34368,264926
6.35180,261587
6.35993,240422
6.36805,234317
6.37618,220337
6.38430,225974
6.39242,217430
6.40055,218253
6.40867,212671
6.41678,207273
6.42492,203607
6.43303,207067
6.44117,205188
6.44928,220839
6.45740,223944
6.46553,216665
6.47365,217627
6.48178,213484
6.48990,219831
6.49802,215053
6.50615,222792
6.51427,221827
6.52238,227533
6.53052,220558
6.53863,218788
6.54677,222945
6.55488,253309
6.56300,339076
6.57113,555316
6.57925,854783
6.58738,1053135
6.59550,955982
6.60362,692025
6.61175,471439
6.61987,352011
6.62800,300308
6.63612,322274
6.64423,591050
6.65237,1746364
6.66048,4676045
6.66860,8663096
6.67673,1.299485E+07
6.68485,1.175347E+07
6.69298,8152627
6.70110,4932534
6.70922,3106012
6.71735,2137148
6.72547,1689511
6.73360,1395360
6.74172,1200306
6.74983,1065417
6.75797,937524
6.76608,846218
6.77422,753594
6.78233,704903
6.79045,637899
6.79858,596766
6.80670,553970
6.81482,506915
6.82295,486114
6.83107,449446
6.83920,420871
6.84732,417459
6.85543,408138
6.86357,387937
6.87168,370300
6.87982,340439
6.88793,310501
6.89605,279603
6.90418,266998
6.91230,242791
6.92042,227106
6.92855,203048
6.93667,183752
6.94480,163267
6.95292,153582
6.96103,194263
6.96917,281243
6.97728,368894
6.98542,427363
6.99353,430841
7.00165,395001
7.00978,346053
7.01790,308592
7.02603,287685
7.03415,278863
7.04227,278291
7.05040,285837
7.05852,312836
7.06663,365985
7.07477,412840
7.08288,460022
7.09102,441571
7.09913,386805
7.10725,332525
7.11538,279672
7.12350,248347
7.13163,239226
7.13975,242120
7.14787,270715
7.15600,314331
7.16412,362396
7.17225,379290
7.18037,363062
7.18848,398103
7.19662,654196
7.20473,1338928
7.21285,2314647
7.22098,2978964
7.22910,2814636
7.23723,2041695
7.24535,1256961
7.25347,690787
7.26160,409399
7.26972,257634
7.27785,205274
7.28597,192710
7.29408,189687
7.30222,185324
7.31033,181333
7.31845,181078
7.32658,175921
7.33470,192758
7.34283,196328
7.35095,200274
7.35907,197115
7.36720,188026
7.37532,174625
7.38345,165606
7.39157,158966
7.39968,155586
7.40782,146896
7.41593,148256
7.42407,137227
7.43218,154268
7.44030,148940
7.44843,149877
7.45655,141763
7.46467,148715
7.47280,147745
7.48092,148256
7.48905,136756
7.49717,136599
7.50528,124140
7.51342,139223
7.52153,165837
7.52967,288207
7.53778,589888
7.54590,1224599
7.55403,2348469
7.56215,3691685
7.57027,4864715
7.57840,5388222
7.58652,5033515
7.59465,4051956
7.60277,2730255
7.61088,1750969
7.61902,1071792
7.62713,710916
7.63527,508947
7.64338,392865
7.65150,321871
7.65963,281332
7.66775,228970
7.67588,189002
7.68400,171327
7.69212,156220
7.70025,140100
7.70837,138157
7.71648,146960
7.72462,168114
7.73273,193845
7.74087,211618
7.74898,245244
7.75710,253180
7.76523,246645
7.77335,245781
7.78148,229798
7.78960,214623
7.79772,218916
7.80585,230556
7.81397,241499
7.82210,245536
7.83022,224632
7.83833,193318
7.84647,174240
7.85458,167914
7.86270,169646
7.87083,177523
7.87895,207843
7.88708,229886
7.89520,249277
7.90332,256238
7.91145,241688
7.91957,230825
7.92770,265599
7.93582,354913
7.94393,473726
7.95207,543954
7.96018,524712
7.96830,428838
7.97643,311896
7.98455,217898
7.99268,175279
8.00080,138828
8.00892,134377
8.01705,125482
8.02517,116860
8.03330,115539
8.04142,113062
8.04953,117683
8.05767,109177
8.06578,111461
8.07392,105951
8.08203,105286
8.09015,101462
8.09828,95379
8.10640,102108
8.11452,95473
8.12265,90925
8.13077,103546
8.13890,117751
8.14702,150030
8.15513,180706
8.16327,180508
8.17138,169530
8.17952,147764
8.18763,128628
8.19575,117054
8.20388,109150
8.21200,99428
8.22013,100891
8.22825,104513
8.23637,113401
8.24450,104480
8.25262,104434
8.26073,93967
8.26887,96758
8.27698,84245
8.28512,83192
8.29323,84227
8.30135,85990
8.30948,99605
8.31760,99158
8.32573,116816
8.33385,121901
8.34197,126266
8.35010,116969
8.35822,100990
8.36633,101897
8.37447,92391
8.38258,99212
8.39072,96502
8.39883,99995
8.40695,88474
8.41508,81976
8.42320,75290
8.43133,74411
8.43945,82285
8.44757,72843
8.45570,74547
8.46382,81595
8.47195,88854
8.48007,91200
8.48818,90811
8.49632,85592
8.50443,91763
8.51255,111830
8.52068,202759
8.52880,380574
8.53693,643405
8.54505,806655
8.55317,771142
8.56130,544591
8.56942,340822
8.57755,219712
8.58567,153149
8.59378,139495
8.60192,127908
8.61003,135207
8.61815,131892
8.62628,130292
8.63440,116645
8.64253,109613
8.65065,109166
8.65877,92603
8.66690,95818
8.67502,91355
8.68315,83787
8.69127,84074
8.69938,94902
8.70752,96120
8.71563,92933
8.72377,92450
8.73188,88655
8.74000,85221
8.74813,88662
8.75625,81101
8.76437,90191
8.77250,115113
8.78062,182474
8.78875,258376
8.79687,366131
8.80498,397370
8.81312,364781
8.82123,309521
8.82937,238818
8.83748,205527
8.84560,187514
8.85373,179949
8.86185,168878
8.86998,160803
8.87810,151584
8.88622,141417
8.89435,140019
8.90247,135883
8.91058,132150
8.91872,132675
8.92683,150661
8.93497,162453
8.94308,173186
8.95120,179703
8.95933,167021
8.96745,161707
8.97558,147762
8.98370,168114
8.99182,182564
8.99995,185504
9.00807,182232
9.01620,153955
9.02432,134993
9.03243,124716
9.04057,110561
9.04868,105145
9.05680,99398
9.06493,102824
9.07305,105395
9.08118,102246
9.08930,106574
9.09742,125645
9.10555,164648
9.11367,222624
9.12180,259976
9.12992,275628
9.13803,248363
9.14617,206232
9.15428,164292
9.16240,133812
9.17053,123902
9.17865,111884
9.18678,109262
9.19490,103763
9.20302,105540
9.21115,102929
9.21927,101380
9.22740,109170
9.23552,109041
9.24363,104868
9.25177,108238
9.25988,118172
9.26802,113462
9.27613,107850
9.28425,109879
9.29238,108250
9.30050,101396
9.30862,100142
9.31675,97436
9.32487,91215
9.33300,84567
9.34112,91977
9.34923,89209
9.35737,90576
9.36548,92419
9.37362,88676
9.38173,90993
9.38985,97591
9.39798,111982
9.40610,136038
9.41422,156513
9.42235,202642
9.43047,263577
9.43860,337781
9.44672,367238
9.45483,374348
9.46297,328634
9.47108,264177
9.47922,203339
9.48733,152892
9.49545,125112
9.50358,118200
9.51170,130446
9.51983,158634
9.52795,187185
9.53607,215976
9.54420,210657
9.55232,183816
9.56043,156695
9.56857,133620
9.57668,110096
9.58482,99746
9.59293,97184
9.60105,92165
9.60918,86426
9.61730,81776
9.62543,78304
9.63355,82054
9.64167,78733
9.64980,72129
9.65792,73463
9.66605,71380
9.67417,72866
9.68228,71375
9.69042,71165
9.69853,68653
9.70665,70545
9.71478,64631
9.72290,63200
9.73103,60983
9.73915,66794
9.74727,62545
9.75540,58522
9.76352,58224
9.77165,60305
9.77977,57254
9.78788,61566
9.79602,58055
9.80413,62303
9.81225,54096
9.82038,60069
9.82850,61623
9.83663,60918
9.84475,65017
9.85287,61056
9.86100,64993
9.86912,64358
9.87725,63613
9.88537,59079
9.89348,55797
9.90162,61021
9.90973,54597
9.91787,56643
9.92598,69153
9.93410,72959
9.94223,110144
9.95035,163945
9.95847,235185
9.96660,291960
9.97472,305342
9.98285,279689
9.99097,231651
9.99908,156297
10.00722,114564
10.01533,89681
10.02347,90437
10.03158,79100
10.03970,81338
10.04783,87320
10.05595,86565
10.06408,86274
10.07220,84672
10.08032,87512
10.08845,83342
10.09657,88703
10.10468,86225
10.11282,87843
10.12093,82600
10.12907,79706
10.13718,80713
10.14530,72013
10.15343,65660
10.16155,73208
10.16968,64682
10.17780,59523
10.18592,69241
10.19405,66786
10.20217,58643
10.21028,60873
10.21842,60585
10.22653,69644
10.23467,82995
10.24278,86905
10.25090,105683
10.25903,175913
10.26715,360258
10.27528,840719
10.28340,1834057
10.29152,3395370
10.29965,5303111
10.30777,7585274
10.31590,1.120693E+07
10.32402,1.696687E+07
10.33213,2.341237E+07
10.34027,2.867338E+07
10.34838,2.978583E+07
10.35650,2.492721E+07
10.36463,1.663402E+07
10.37275,1.022133E+07
10.38088,7332381
10.38900,5727546
10.39712,4374006
10.40525,3003898
10.41337,1995096
10.42150,1350994
10.42962,1050964
10.43773,941616
10.44587,920163
10.45398,896503
10.46210,858350
10.47023,801199
10.47835,708753
10.48648,606607
10.49460,538065
10.50272,495860
10.51085,456313
10.51897,443481
10.52710,412893
10.53522,437196
10.54333,447453
10.55147,454770
10.55958,411561
10.56772,371087
10.57583,344535
10.58395,306996
10.59208,290195
10.60020,278341
10.60832,255717
10.61645,245868
10.62457,230427
10.63270,224573
10.64082,223215
10.64893,205476
10.65707,200566
10.66518,185533
10.67332,186616
10.68143,183389
10.68955,187420
10.69768,195230
10.70580,203194
10.71393,202817
10.72205,197107
10.73017,186641
10.73830,177869
10.74642,165666
10.75453,157711
10.76267,149039
10.77078,144970
10.77892,158036
10.78703,154853
10.79515,144826
10.80328,159393
10.81140,171160
10.81953,184216
10.82765,190966
10.83577,180780
10.84390,158421
10.85202,142571
10.86013,136095
10.86827,119634
10.87638,118554
10.88452,113249
10.89263,109385
10.90075,104996
10.90888,97671
10.91700,105216
10.92513,105693
10.93325,100838
10.94137,105050
10.94950,95932
10.95762,93124
10.96575,95738
10.97387,97125
10.98198,106295
10.99012,107505
10.99823,125830
11.00635,130868
11.01448,137012
11.02260,137672
11.03073,137490
11.03885,126588
11.04697,104302
11.05510,106398
11.06322,107501
11.07135,111835
11.07947,121436
11.08758,140074
11.09572,143644
11.10383,148134
11.11197,150440
11.12008,136635
11.12820,122307
11.13633,113946
11.14445,100863
11.15257,89185
11.16070,95124
11.16882,92184
11.17695,93022
11.18507,87756
11.19318,88903
11.20132,82181
11.20943,87277
11.21757,78316
11.22568,71844
11.23380,71185
11.24193,67848
11.25005,69260
11.25817,61739
11.26630,58946
11.27442,62760
11.28255,57781
11.29067,60684
11.29878,89258
11.30692,157301
11.31503,354263
11.32317,804330
11.33128,1649219
11.33940,2755689
11.34753,3776600
11.35565,4164828
11.36378,3817007
11.37190,2966770
11.38002,2082908
11.38815,1435811
11.39627,1017945
11.40438,827237
11.41252,700137
11.42063,587407
11.42877,513629
11.43688,445802
11.44500,385542
11.45313,337028
11.46125,295216
11.46938,270836
11.47750,259727
11.48562,271717
11.49375,299634
11.50187,325358
11.51000,332989
11.51812,314985
11.52623,301464
11.53437,268408
11.54248,236239
11.55060,226728
11.55873,213177
11.56685,203510
11.57498,203770
11.58310,201479
11.59122,185217
11.59935,193822
11.60747,209063
11.61560,236792
11.62372,271597
11.63183,260617
11.63997,228285
11.64808,188075
11.65620,157231
11.66433,132118
11.67245,132114
11.68058,132814
11.68870,131300
11.69682,142682
11.70495,153348
11.71307,150641
11.72120,144902
11.72932,139513
11.73743,118123
11.74557,111585
11.75368,106058
11.76182,100401
11.76993,93271
11.77805,90448
11.78618,89378
11.79430,83688
11.80242,83333
11.81055,88546
11.81867,84295
11.82680,75780
11.83492,76694
11.84303,75829
11.85117,74960
11.85928,74516
11.86742,77487
11.87553,77361
11.88365,84433
11.89178,77441
11.89990,68982
11.90802,70458
11.91615,71690
11.92427,79441
11.93240,79872
11.94052,81759
11.94863,74349
11.95677,70507
11.96488,68225
11.97302,64907
11.98113,63091
11.98925,75929
11.99738,79861
12.00550,91895
12.01363,102745
12.02175,105733
12.02987,99024
12.03800,85845
12.04612,82406
12.05423,73806
12.06237,70801
12.07048,77718
12.07862,78663
12.08673,92671
12.09485,103781
12.10298,153923
12.11110,277052
12.11923,491501
12.12735,857885
12.13547,1266051
12.14360,1557901
12.15172,1626616
12.15985,1400034
12.16797,1005239
12.17608,670047
12.18422,433975
12.19233,344967
12.20045,305674
12.20858,270682
12.21670,262649
12.22483,228273
12.23295,207207
12.24107,188846
12.24920,173091
12.25732,159166
12.26545,153589
12.27357,147895
12.28168,139900
12.28982,141900
12.29793,122883
12.30605,127758
12.31418,110803
12.32230,111469
12.33043,109984
12.33855,103922
12.34667,109317
12.35480,106123
12.36292,112134
12.37105,111136
12.37917,110697
12.38728,107784
12.39542,113960
12.40353,110250
12.41167,118149
12.41978,142373
12.42790,166800
12.43603,160537
12.44415,166460
12.45227,144300
12.46040,124688
12.46852,124466
12.47665,119781
12.48477,112959
12.49288,111309
12.50102,102846
12.50913,100534
12.51727,103520
12.52538,100494
12.53350,102728
12.54163,125727
12.54975,165214
12.55788,216130
12.56600,259102
12.57412,260347
12.58225,236500
12.59037,194473
12.59848,149916
12.60662,125270
12.61473,112833
12.62287,112908
12.63098,106960
12.63910,107950
12.64723,97249
12.65535,93805
12.66348,92483
12.67160,80548
12.67972,77506
12.68785,75504
12.69597,82103
12.70408,73947
12.71222,71650
12.72033,73834
12.72847,78201
12.73658,85148
12.74470,90777
12.75283,91634
12.76095,84779
12.76908,79906
12.77720,72997
12.78532,66946
12.79345,73245
12.80157,68469
12.80970,67315
12.81782,64062
12.82593,58160
12.83407,57785
12.84218,54166
12.85030,51433
12.85843,46876
12.86655,51950
12.87468,47605
12.88280,47589
12.89092,50584
12.89905,51895
12.90717,49609
12.91530,53301
12.92342,52156
12.93153,51652
12.93967,50710
12.94778,51341
12.95590,51015
12.96403,50616
12.97215,52333
12.98028,60669
12.98840,58226
12.99652,59499
13.00465,56069
13.01277,58656
13.02090,51516
13.02902,48002
13.03713,47546
13.04527,49111
13.05338,51943
13.06152,48787
13.06963,51550
13.07775,48306
13.08588,50973
13.09400,53285
13.10212,50756
13.11025,49491
13.11837,47711
13.12650,48630
13.13462,44917
13.14273,45055
13.15087,42791
13.15898,55535
13.16712,49275
13.17523,53722
13.18335,52898
13.19148,53617
13.19960,59990
13.20773,58804
13.21585,67389
13.22397,65682
13.23210,65611
13.24022,66885
13.24833,63245
13.25647,59741
13.26458,53331
13.27272,57451
13.28083,55040
13.28895,51330
13.29708,51815
13.30520,47931
13.31333,50008
13.32145,45073
13.32957,44536
13.33770,44424
13.34582,46529
13.35395,48179
13.36207,44852
13.37018,43234
13.37832,41175
13.38643,43953
13.39455,40173
13.40268,44242
13.41080,45389
13.41893,46633
13.42705,44982
13.43517,41510
13.44330,50313
13.45142,42968
13.45955,47119
13.46767,54339
13.47578,52269
13.48392,54960
13.49203,56190
13.50015,52968
13.50828,55255
13.51640,48199
13.52453,53119
13.53265,48207
13.54077,47471
13.54890,49069
13.55702,50423
13.56515,55959
13.57327,60943
13.58138,62002
13.58952,69486
13.59763,76509
13.60577,71809
13.61388,79424
13.62200,80570
13.63013,79048
13.63825,74784
13.64637,68745
13.65450,57613
13.66262,49983
13.67075,48566
13.67887,46121
13.68698,45372
13.69512,43452
13.70323,41807
13.71137,43940
13.71948,44592
13.72760,47900
13.73573,51406
13.74385,57023
13.75197,70876
13.76010,88430
13.76822,123279
13.77635,169833
13.78447,218953
13.79258,261240
13.80072,293472
13.80883,314019
13.81697,354078
13.82508,420824
13.83320,527853
13.84133,602141
13.84945,622941
13.85758,603926
13.86570,487826
13.87382,394857
13.88195,296345
13.89007,230066
13.89818,175284
13.90632,150864
13.91443,119627
13.92257,108241
13.93068,97079
13.93880,89807
13.94693,91293
13.95505,86315
13.96318,101887
13.97130,129887
13.97942,175669
13.98755,201390
13.99567,207303
14.00380,206449
14.01192,156743
14.02003,132278
14.02817,112627
14.03628,98943
14.04440,92345
14.05253,85199
14.06065,88631
14.06878,76220
14.07690,80028
14.08502,74791
14.09315,77336
14.10127,65677
14.10940,61463
14.11752,60601
14.12563,66995
14.13377,64213
14.14188,65813
14.15000,84360
14.15813,90989
14.16625,93141
14.17438,93810
14.18250,100219
14.19062,98596
14.19875,112744
14.20687,123275
14.21500,150912
14.22312,160182
14.23123,183895
14.23937,193999
14.24748,202222
14.25562,203999
14.26373,203014
14.27185,199035
14.27998,171307
14.28810,149154
14.29622,134551
14.30435,120364
14.31247,97076
14.32060,96846
14.32872,89279
14.33683,85391
14.34497,84918
14.35308,79769
14.36122,79469
14.36933,82532
14.37745,67146
14.38558,69170
14.39370,61114
14.40183,65092
14.40995,70014
14.41807,87826
14.42620,87956
14.43432,91432
14.44243,83245
14.45057,78670
14.45868,75431
14.46682,72154
14.47493,68791
14.48305,71178
14.49118,70832
14.49930,68508
14.50743,70784
14.51555,62500
14.52367,66846
14.53180,69803
14.53992,66377
14.54803,65902
14.55617,63747
14.56428,59208
14.57242,55859
14.58053,56219
14.58865,51382
14.59678,49920
14.60490,48981
14.61303,48652
14.62115,45075
14.62927,43150
14.63740,49151
14.64552,47689
14.65365,46046
14.66177,44074
14.66988,42404
14.67802,38732
14.68613,49470
14.69425,44501
14.70238,43605
14.71050,44235
14.71863,46917
14.72675,51320
14.73487,47505
14.74300,51954
14.75112,51478
14.75925,56724
14.76737,55449
14.77548,59371
14.78362,65544
14.79173,93603
14.79985,200003
14.80798,537717
14.81610,1316616
14.82423,2776426
14.83235,4442577
14.84047,5722665
14.84860,5865411
14.85672,4953217
14.86485,3430371
14.87297,2099419
14.88108,1260404
14.88922,811970
14.89733,584804
14.90547,470967
14.91358,416820
14.92170,366728
14.92983,321779
14.93795,298830
14.94607,288902
14.95420,270690
14.96232,250075
14.97045,232440
14.97857,221798
14.98668,206893
14.99482,187802
15.00293,183044
15.01107,172825
15.01918,172922
15.02730,169875
15.03543,165666
15.04355,155483
15.05168,152898
15.05980,145536
15.06792,146402
15.07605,137110
15.08417,136207
15.09228,127780
15.10042,116013
15.10853,115637
15.11667,119454
15.12478,113630
15.13290,116273
15.14103,127647
15.14915,135339
15.15728,140614
15.16540,127839
15.17352,107008
15.18165,93345
15.18977,81118
15.19788,75819
15.20602,72160
15.21413,66710
15.22227,67056
15.23038,65176
15.23850,66255
15.24663,63108
15.25475,58192
15.26288,58368
15.27100,54203
15.27912,60662
15.28725,52957
15.29537,56962
15.30350,52311
15.31162,54621
15.31973,51026
15.32787,53823
15.33598,52182
15.34410,54661
15.35223,50018
15.36035,48422
15.36848,48621
15.37660,50770
15.38472,50482
15.39285,51186
15.40097,45694
15.40910,47031
15.41722,52555
15.42533,52472
15.43347,47518
15.44158,52115
15.44972,52541
15.45783,55309
15.46595,67296
15.47408,100481
15.48220,159541
15.49032,268154
15.49845,395569
15.50657,518857
15.51470,595005
15.52282,609825
15.53093,564395
15.53907,537633
15.54718,489102
15.55532,456679
15.56343,398649
15.57155,332527
15.57968,267904
15.58780,191323
15.59592,141735
15.60405,125746
15.61217,103387
15.62030,96379
15.62842,87513
15.63653,85186
15.64467,81014
15.65278,79951
15.66092,74703
15.66903,73922
15.67715,70133
15.68528,71757
15.69340,69270
15.70153,60941
15.70965,61879
15.71777,61038
15.72590,58426
15.73402,56251
15.74213,55717
15.75027,62759
15.75838,75399
15.76652,106138
15.77463,171581
15.78275,254174
15.79088,348375
15.79900,424019
15.80713,406643
15.81525,331945
15.82337,250293
15.83150,179424
15.83962,132203
15.84773,105908
15.85587,101628
15.86398,96805
15.87212,89736
15.88023,82167
15.88835,86943
15.89648,95999
15.90460,89899
15.91273,91897
15.92085,86965
15.92897,84531
15.93710,80948
15.94522,78095
15.95335,77262
15.96147,80511
15.96958,92718
15.97772,90337
15.98583,99069
15.99395,104588
16.00208,104079
16.01020,101928
16.01833,98261
16.02645,99610
16.03457,100382
16.04270,97084
16.05082,90290
16.05895,87643
16.06707,75555
16.07518,79134
16.08332,62707
16.09143,64217
16.09957,57089
16.10768,58535
16.11580,60571
16.12393,61343
16.13205,67974
16.14017,71925
16.14830,76558
16.15642,80124
16.16455,84284
16.17267,81661
16.18078,78068
16.18892,70783
16.19703,62502
16.20517,64363
16.21328,59297
16.22140,61019
16.22953,71522
16.23765,61173
16.24577,58966
16.25390,54542
16.26202,56042
16.27015,62407
16.27827,58864
16.28638,69628
16.29452,72062
16.30263,78688
16.31077,83937
16.31888,87254
16.32700,80825
16.33513,75671
16.34325,76355
16.35138,75160
16.35950,77894
16.36762,83130
16.37575,102494
16.38387,117131
16.39198,111270
16.40012,110362
16.40823,105330
16.41637,78506
16.42448,74451
16.43260,65423
16.44073,67395
16.44885,86644
16.45698,137520
16.46510,241219
16.47322,457879
16.48135,743448
16.48947,1018201
16.49760,1076134
16.50572,951625
16.51383,688557
16.52197,446757
16.53008,280973
16.53820,201887
16.54633,152968
16.55445,132133
16.56258,112662
16.57070,108101
16.57882,98645
16.58695,97143
16.59507,104341
16.60320,104243
16.61132,107457
16.61943,112605
16.62757,109564
16.63568,103749
16.64380,102476
16.65193,92871
16.66005,87307
16.66818,82449
16.67630,76195
16.68442,68709
16.69255,66240
16.70067,65318
16.70880,63833
16.71692,63039
16.72503,63694
16.73317,58451
16.74128,63377
16.74942,58767
16.75753,62502
16.76565,65848
16.77378,81653
16.78190,75912
16.79002,69998
16.79815,60872
16.80627,56773
16.81440,54433
16.82252,57067
16.83063,56123
16.83877,53784
16.84688,47534
16.85502,48351
16.86313,47097
16.87125,46617
16.87938,45853
16.88750,47258
16.89563,45973
16.90375,52307
16.91187,44012
16.92000,43221
16.92812,42013
16.93623,49927
16.94437,49575
16.95248,49264
16.96062,46892
16.96873,44433
16.97685,47072
16.98498,42893
16.99310,44025
17.00123,46317
17.00935,50700
17.01747,43386
17.02560,44941
17.03372,46099
17.04183,49864
17.04997,56389
17.05808,55039
17.06622,62370
17.07433,62133
17.08245,59066
17.09058,54912
17.09870,52494
17.10683,56433
17.11495,58331
17.12307,64522
17.13120,65572
17.13932,69582
17.14745,66844
17.15557,69562
17.16368,65612
17.17182,66283
17.17993,63025
17.18805,55903
17.19618,57650
17.20430,50577
17.21243,49696
17.22055,47497
17.22867,48849
17.23680,50829
17.24492,51453
17.25305,49490
17.26117,48945
17.26928,47945
17.27742,48895
17.28553,48992
17.29365,48231
17.30178,50268
17.30990,47812
17.31803,48075
17.32615,51658
17.33427,59232
17.34240,74198
17.35052,79119
17.35865,87666
17.36677,92045
17.37488,89099
17.38302,78599
17.39113,79024
17.39927,82019
17.40738,83231
17.41550,84983
17.42363,89002
17.43175,81854
17.43987,84000
17.44800,87971
17.45612,80012
17.46425,75368
17.47237,70295
17.48048,63169
17.48862,63120
17.49673,60289
17.50487,57678
17.51298,52601
17.52110,51097
17.52923,51718
17.53735,49563
17.54548,48516
17.55360,57062
17.56172,66724
17.56985,79038
17.57797,122835
17.58608,194192
17.59422,311548
17.60233,473739
17.61047,615191
17.61858,692074
17.62670,667891
17.63483,555790
17.64295,439840
17.65108,355587
17.65920,321807
17.66732,340447
17.67545,357453
17.68357,347390
17.69168,319810
17.69982,266181
17.70793,226444
17.71607,181879
17.72418,151500
17.73230,136370
17.74043,131277
17.74855,122740
17.75668,125229
17.76480,114723
17.77292,110105
17.78105,96787
17.78917,92825
17.79730,87927
17.80542,81600
17.81353,76229
17.82167,76219
17.82978,82282
17.83790,84431
17.84603,92562
17.85415,105584
17.86228,118893
17.87040,127710
17.87852,128091
17.88665,117323
17.89477,110170
17.90290,88996
17.91102,78486
17.91913,75288
17.92727,63028
17.93538,58266
17.94352,59868
17.95163,56752
17.95975,55757
17.96788,58076
17.97600,53204
17.98412,54773
17.99225,57708
18.00037,54835
18.00850,56388
18.01662,61921
18.02473,80039
18.03287,89007
18.04098,120801
18.04912,133772
18.05723,125198
18.06535,116320
18.07348,109263
18.08160,107011
18.08972,103355
18.09785,123815
18.10597,136443
18.11410,161707
18.12222,190770
18.13033,219234
18.13847,226506
18.14658,207157
18.15472,177732
18.16283,153181
18.17095,130128
18.17908,123443
18.18720,120410
18.19533,107635
18.20345,104210
18.21157,100109
18.21970,85380
18.22782,83090
18.23593,75424
18.24407,76542
18.25218,75981
18.26032,67842
18.26843,73214
18.27655,72489
18.28468,69644
18.29280,69377
18.30093,59301
18.30905,61242
18.31717,55032
18.32530,53039
18.33342,51063
18.34153,47659
18.34967,48797
18.35778,54523
18.36592,50914
18.37403,55634
18.38215,49412
18.39028,52299
18.39840,55264
18.40653,55138
18.41465,64424
18.42277,74353
18.43090,89255
18.43902,114823
18.44715,138847
18.45527,159718
18.46338,184086
18.47152,217878
18.47963,246992
18.48775,282371
18.49588,270722
18.50400,244747
18.51213,212493
18.52025,160179
18.52837,130099
18.53650,99935
18.54462,90451
18.55275,74702
18.56087,71747
18.56898,67279
18.57712,60163
18.58523,63311
18.59337,66344
18.60148,79326
18.60960,79198
18.61773,83949
18.62585,91496
18.63397,104066
18.64210,104317
18.65022,96146
18.65835,93159
18.66647,91205
18.67458,78452
18.68272,64523
18.69083,64805
18.69897,57635
18.70708,67090
18.71520,60521
18.72333,62192
18.73145,58160
18.73957,56509
18.74770,56240
18.75582,54539
18.76395,56715
18.77207,48747
18.78018,52772
18.78832,49419
18.79643,46587
18.80457,52445
18.81268,54420
18.82080,49393
18.82893,50555
18.83705,50310
18.84518,51149
18.85330,53566
18.86142,59865
18.86955,56808
18.87767,70973
18.88578,74303
18.89392,78321
18.90203,78834
18.91017,77043
18.91828,73383
18.92640,67740
18.93453,62828
18.94265,65023
18.95078,72899
18.95890,69793
18.96702,75767
18.97515,71649
18.98327,70223
18.99140,67859
18.99952,61084
19.00763,59466
19.01577,57841
19.02388,54818
19.03200,61737
19.04013,55246
19.04825,52373
19.05638,52012
19.06450,53424
19.07262,54382
19.08075,54004
19.08887,62292
19.09700,81082
19.10512,100483
19.11323,112639
19.12137,117632
19.12948,109709
19.13760,104713
19.14573,88892
19.15385,83614
19.16198,86335
19.17010,94839
19.17822,121710
19.18635,144882
19.19447,162258
19.20260,158777
19.21072,167654
19.21883,168005
19.22697,165505
19.23508,161451
19.24322,159958
19.25133,155714
19.25945,153934
19.26758,154071
19.27570,158397
19.28382,159544
19.29195,180893
19.30007,183954
19.30820,189511
19.31632,190574
19.32443,190041
19.33257,196222
19.34068,184479
19.34882,176819
19.35693,194193
19.36505,195537
19.37318,225260
19.38130,227385
19.38942,226480
19.39755,226918
19.40567,212319
19.41380,195747
19.42192,185273
19.43003,175240
19.43817,167663
19.44628,159186
19.45442,161978
19.46253,152590
19.47065,154269
19.47878,160362
19.48690,165756
19.49503,158341
19.50315,172703
19.51127,186385
19.51940,227675
19.52752,247479
19.53563,261069
19.54377,243745
19.55188,235326
19.56002,215297
19.56813,195154
19.57625,173926
19.58438,164103
19.59250,155499
19.60063,144614
19.60875,145531
19.61687,143959
19.62500,148369
19.63312,142681
19.64125,155515
19.64937,179915
19.65748,238778
19.66562,325427
19.67373,426194
19.68185,501494
19.68998,523449
19.69810,496793
19.70623,458119
19.71435,369564
19.72247,329499
19.73060,286329
19.73872,248473
19.74685,223035
19.75497,208501
19.76308,192156
19.77122,200170
19.77933,190948
19.78747,215623
19.79558,233290
19.80370,253376
19.81183,279727
19.81995,274892
19.82807,260594
19.83620,231234
19.84432,200422
19.85245,182725
19.86057,172900
19.86868,190676
19.87682,259568
19.88493,410326
19.89307,680635
19.90118,1025567
19.90930,1453197
19.91743,1733567
19.92555,1969018
19.93367,2034393
19.94180,1993576
19.94992,1907801
19.95805,1738732
19.96617,1670370
19.97428,1615223
19.98242,1482429
19.99053,1406349
19.99867,1327174
20.00678,1302935
20.01490,1238828
20.02303,1212950
20.03115,1137101
20.03928,1050973
20.04740,971054
20.05552,872707
20.06365,756550
20.07177,648909
20.07988,597064
20.08802,571088
20.09613,555893
20.10427,553209
20.11238,499728
20.12050,438016
20.12863,383582
20.13675,343826
20.14488,370553
20.15300,397915
20.16112,555145
20.16925,822160
20.17737,1216263
20.18548,1707864
20.19362,2237125
20.20173,2567275
20.20987,2647524
20.21798,2501839
20.22610,2107069
20.23423,1713230
20.24235,1389670
20.25048,1264723
20.25860,1312892
20.26672,1515164
20.27485,1725606
20.28297,1885087
20.29110,1954383
20.29922,1830641
20.30733,1585961
20.31547,1274338
20.32358,979657
20.33170,743417
20.33983,558098
20.34795,443946
20.35608,342404
20.36420,290701
20.37232,242195
20.38045,208216
20.38857,189415
20.39670,172526
20.40482,161367
20.41293,151579
20.42107,142593
20.42918,146167
20.43732,146949
20.44543,151965
20.45355,162635
20.46168,170447
20.46980,170424
20.47792,168746
20.48605,155266
20.49417,148236
20.50230,134447
20.51042,125284
20.51853,113483
20.52667,107356
20.53478,108760
20.54292,106475
20.55103,104113
20.55915,113009
20.56728,106771
20.57540,101345
20.58352,100316
20.59165,101395
20.59977,95740
20.60790,96733
20.61602,95709
20.62413,102404
20.63227,95487
20.64038,98117
20.64852,102366
20.65663,103884
20.66475,106202
20.67288,107667
20.68100,101582
20.68913,96955
20.69725,97719
20.70537,88798
20.71350,83651
20.72162,87704
20.72973,86238
20.73787,83323
20.74598,84387
20.75412,86287
20.76223,90393
20.77035,90466
20.77848,101621
20.78660,119858
20.79473,157440
20.80285,239288
20.81097,374062
20.81910,523914
20.82722,643950
20.83535,673533
20.84347,586260
20.85158,431774
20.85972,316202
20.86783,207487
20.87595,161106
20.88408,136791
20.89220,122472
20.90033,123271
20.90845,118242
20.91657,126506
20.92470,137077
20.93282,147459
20.94095,152149
20.94907,160597
20.95718,153029
20.96532,148453
20.97343,131866
20.98155,116494
20.98968,106705
20.99780,104216
21.00593,90780
21.01405,92866
21.02217,103129
21.03030,87908
21.03842,96095
21.04655,88059
21.05467,98366
21.06278,90993
21.07092,86101
21.07903,86249
21.08717,84019
21.09528,84601
21.10340,79599
21.11153,85263
21.11965,74661
21.12777,83114
21.13590,95380
21.14402,115025
21.15215,148674
21.16027,199869
21.16838,237212
21.17652,252287
21.18463,245859
21.19277,210506
21.20088,165632
21.20900,136298
21.21713,115975
21.22525,107837
21.23337,100659
21.24150,100476
21.24962,84397
21.25775,89260
21.26587,82614
21.27398,84718
21.28212,84937
21.29023,85538
21.29837,82804
21.30648,76476
21.31460,79405
21.32273,76544
21.33085,78179
21.33898,70021
21.34710,75428
21.35522,73334
21.36335,72970
21.37147,74297
21.37958,71643
21.38772,81397
21.39583,82841
21.40397,85360
21.41208,98644
21.42020,110651
21.42833,125523
21.43645,127200
21.44458,132891
21.45270,123869
21.46082,105022
21.46895,96565
21.47707,90881
21.48520,84635
21.49332,82719
21.50143,72967
21.50957,75610
21.51768,78447
21.52580,75051
21.53393,78756
21.54205,74357
21.55018,77311
21.55830,72823
21.56642,77503
21.57455,74892
21.58267,80836
21.59080,84959
21.59892,86457
21.60703,98423
21.61517,91224
21.62328,89106
21.63140,91319
21.63953,91992
21.64765,100263
21.65578,112487
21.66390,114022
21.67202,130773
21.68015,128616
21.68827,128130
21.69640,120236
21.70452,113684
21.71263,104702
21.72077,90946
21.72888,82597
21.73702,76568
21.74513,74900
21.75325,74002
21.76138,71253
21.76950,72849
21.77762,75959
21.78575,77076
21.79387,72767
21.80200,71032
21.81012,77023
21.81823,74180
21.82637,80917
21.83448,86703
21.84262,96005
21.85073,96913
21.85885,107453
21.86698,115210
21.87510,109906
21.88323,103594
21.89135,94914
21.89947,86187
21.90760,76542
21.91572,69881
21.92383,75800
21.93197,72501
21.94008,64785
21.94822,61354
21.95633,63150
21.96445,61784
21.97258,50699
21.98070,55837
21.98883,52503
21.99695,53103
22.00507,53227
22.01320,47918
22.02132,53670
22.02943,52586
22.03757,59583
22.04568,59633
22.05382,62317
22.06193,64598
22.07005,57526
22.07818,59426
22.08630,58589
22.09443,63479
22.10255,62057
22.11067,60678
22.11880,57968
22.12692,54798
22.13505,53412
22.14317,53352
22.15128,53536
22.15942,52027
22.16753,51212
22.17565,51536
22.18378,50090
22.19190,53540
22.20003,51620
22.20815,54281
22.21627,53676
22.22440,54747
22.23252,54940
22.24065,62144
22.24877,65193
22.25688,65029
22.26502,64175
22.27313,65953
22.28127,72176
22.28938,72937
22.29750,87284
22.30563,98607
22.31375,121471
22.32187,165775
22.33000,215196
22.33812,264579
22.34625,291927
22.35437,300583
22.36248,265832
22.37062,220460
22.37873,171449
22.38687,132766
22.39498,128383
22.40310,135814
22.41123,157617
22.41935,189525
22.42747,209640
22.43560,211183
22.44372,205329
22.45185,167891
22.45997,132202
22.46808,108874
22.47622,97555
22.48433,97905
22.49247,93258
22.50058,97377
22.50870,115811
22.51683,124379
22.52495,138480
22.53308,137995
22.54120,133963
22.54932,118380
22.55745,99555
22.56557,98077
22.57368,90255
22.58182,86332
22.58993,86127
22.59807,87762
22.60618,90003
22.61430,88794
22.62243,87056
22.63055,82595
22.63868,85902
22.64680,90567
22.65492,90616
22.66305,98439
22.67117,94421
22.67928,110091
22.68742,115677
22.69553,118545
22.70367,131697
22.71178,122697
22.71990,131051
22.72803,124931
22.73615,119401
22.74428,114566
22.75240,112382
22.76052,107436
22.76865,102420
22.77677,102734
22.78490,105757
22.79302,101628
22.80113,104413
22.80927,123243
22.81738,112665
22.82550,122086
22.83363,116815
22.84175,111415
22.84988,109812
22.85800,110908
22.86612,123092
22.87425,131375
22.88237,148632
22.89050,186905
22.89862,211209
22.90673,230332
22.91487,222263
22.92298,219643
22.93112,222027
22.93923,220519
22.94735,216541
22.95548,190504
22.96360,171897
22.97172,151363
22.97985,132863
22.98797,120057
22.99610,112060
23.00422,101296
23.01233,92786
23.02047,88932
23.02858,73061
23.03672,72309
23.04483,72014
23.05295,72341
23.06108,73924
23.06920,73849
23.07732,80820
23.08545,83435
23.09357,75746
23.10170,80806
23.10982,68296
23.11793,66447
23.12607,70801
23.13418,62553
23.14232,60429
23.15043,56638
23.15855,59387
23.16668,60755
23.17480,56482
23.18293,52286
23.19105,61341
23.19917,57108
23.20730,53461
23.21542,53185
23.22353,55906
23.23167,57426
23.23978,63584
23.24792,71440
23.25603,80322
23.26415,102748
23.27228,116709
23.28040,128754
23.28853,139289
23.29665,131469
23.30477,128592
23.31290,122535
23.32102,120218
23.32915,122618
23.33727,136667
23.34538,157385
23.35352,183235
23.36163,210923
23.36975,232594
23.37788,250761
23.38600,241684
23.39413,222878
23.40225,222606
23.41037,180827
23.41850,181847
23.42662,167690
23.43475,161600
23.44287,146268
23.45098,143741
23.45912,147031
23.46723,139211
23.47535,135005
23.48348,130424
23.49160,132942
23.49973,131910
23.50785,133469
23.51597,129989
23.52410,128295
23.53222,126517
23.54035,127079
23.54847,132687
23.55658,132063
23.56472,133992
23.57283,161027
23.58097,186026
23.58908,232490
23.59720,280995
23.60533,339524
23.61345,361810
23.62157,377067
23.62970,343898
23.63782,332980
23.64595,372003
23.65407,484605
23.66218,657306
23.67032,845996
23.67843,955434
23.68657,951786
23.69468,812668
23.70280,619500
23.71093,449535
23.71905,353454
23.72717,269715
23.73530,220954
23.74342,192493
23.75155,170327
23.75967,197088
23.76778,312936
23.77592,567135
23.78403,1001453
23.79217,1557676
23.80028,2110696
23.80840,2399228
23.81653,2361219
23.82465,2012156
23.83278,1576761
23.84090,1188076
23.84902,905950
23.85715,698148
23.86527,563323
23.87338,466490
23.88152,415918
23.88963,360096
23.89777,336251
23.90588,330370
23.91400,302704
23.92213,286704
23.93025,273731
23.93838,255484
23.94650,239998
23.95462,228072
23.96275,229032
23.97087,216780
23.97900,193685
23.98712,180522
23.99523,192864
24.00337,179192
24.01148,179367
24.01960,212668
24.02773,267170
24.03585,330754
24.04398,380635
24.05210,413663
24.06022,393543
24.06835,324285
24.07647,266752
24.08460,219575
24.09272,191202
24.10083,161295
24.10897,147016
24.11708,145737
24.12520,142523
24.13333,143852
24.14145,145589
24.14958,162035
24.15770,173594
24.16582,174240
24.17395,181324
24.18207,180301
24.19020,179580
24.19832,180071
24.20643,170544
24.21457,170842
24.22268,169416
24.23082,159020
24.23893,147667
24.24705,137364
24.25518,120333
24.26330,119408
24.27142,109584
24.27955,103720
24.28767,101906
24.29580,103045
24.30392,103977
24.31203,105406
24.32017,111708
24.32828,104028
24.33642,110924
24.34453,106338
24.35265,105661
24.36078,100256
24.36890,102733
24.37703,97881
24.38515,101623
24.39327,102119
24.40140,113335
24.40952,119541
24.41763,134629
24.42577,133761
24.43388,134881
24.44202,120190
24.45013,106320
24.45825,96301
24.46638,94938
24.47450,97624
24.48263,93422
24.49075,89972
24.49887,97461
24.50700,96974
24.51512,97085
24.52323,105880
24.53137,109323
24.53948,126012
24.54762,136056
24.55573,153286
24.56385,165424
24.57198,167494
24.58010,159016
24.58823,146673
24.59635,132210
24.60447,117993
24.61260,106176
24.62072,99862
24.62885,98954
24.63697,88119
24.64508,90157
24.65322,85228
24.66133,87430
24.66945,81877
24.67758,83819
24.68570,82130
24.69383,81199
24.70195,77059
24.71007,84300
24.71820,76618
24.72632,71083
24.73445,80960
24.74257,78663
24.75068,69669
24.75882,71424
24.76693,75501
24.77505,81409
24.78318,77075
24.79130,80383
24.79943,80468
24.80755,78835
24.81567,82493
24.82380,84451
24.83192,91462
24.84005,97140
24.84817,114553
24.85628,140437
24.86442,168517
24.87253,230764
24.88067,299452
24.88878,396302
24.89690,507229
24.90503,554544
24.91315,529665
24.92127,454451
24.92940,351878
24.93752,255977
24.94565,178296
24.95377,135362
24.96188,103308
24.97002,82743
24.97813,82353
24.98627,75507
24.99438,74258
25.00250,80615
25.01063,86091
25.01875,109361
25.02688,127083
25.03500,139649
25.04312,140979
25.05125,144783
25.05937,153173
25.06748,152299
25.07562,155408
25.08373,159655
25.09187,168313
25.09998,184844
25.10810,237467
25.11623,379756
25.12435,671168
25.13248,1238520
25.14060,2060450
25.14872,2954541
25.15685,3497348
25.16497,3594203
25.17310,3061131
25.18122,2301182
25.18933,1543222
25.19747,964676
25.20558,625714
25.21370,430307
25.22183,336743
25.22995,286826
25.23808,260923
25.24620,263003
25.25432,295493
25.26245,309478
25.27057,349567
25.27870,364662
25.28682,377337
25.29493,351674
25.30307,337162
25.31118,293195
25.31930,265602
25.32743,238387
25.33555,232065
25.34368,225552
25.35180,221110
25.35992,218233
25.36805,214824
25.37617,201988
25.38430,191935
25.39242,190693
25.40053,184870
25.40867,179851
25.41678,166232
25.42492,170961
25.43303,167747
25.44115,159125
25.44928,157322
25.45740,157069
25.46552,156769
25.47365,152955
25.48177,152905
25.48990,151842
25.49802,145891
25.50613,139708
25.51427,140982
25.52238,124470
25.53052,109487
25.53863,103567
25.54675,88873
25.55488,84961
25.56300,82274
25.57112,78351
25.57925,79981
25.58737,76374
25.59550,81040
25.60362,80000
25.61173,75475
25.61987,72931
25.62798,76214
25.63612,72478
25.64423,86333
25.65235,89503
25.66048,86922
25.66860,103103
25.67673,89661
25.68485,89147
25.69297,79958
25.70110,73110
25.70922,73272
25.71733,67634
25.72547,69343
25.73358,73052
25.74172,72017
25.74983,78072
25.75795,80303
25.76608,88040
25.77420,82184
25.78233,81322
25.79045,74586
25.79857,76857
25.80670,76131
25.81482,76562
25.82295,74015
25.83107,76677
25.83918,75593
25.84732,79158
25.85543,79379
25.86355,76680
25.87168,76636
25.87980,67948
25.88793,67254
25.89605,74510
25.90417,75647
25.91230,94986
25.92042,121995
25.92855,166851
25.93667,199666
25.94478,216842
25.95292,235103
25.96103,243971
25.96915,247405
25.97728,245384
25.98540,251830
25.99353,246695
26.00165,250005
26.00977,246631
26.01790,238717
26.02602,245295
26.03415,239679
26.04227,241333
26.05038,248587
26.05852,245785
26.06663,254086
26.07477,247878
26.08288,238293
26.09100,240574
26.09913,255529
26.10725,250185
26.11537,249135
26.12350,243017
26.13162,254612
26.13975,257224
26.14787,252303
26.15598,248251
26.16412,257222
26.17223,262638
26.18037,262290
26.18848,253098
26.19660,241636
26.20473,236945
26.21285,228648
26.22098,228054
26.22910,219199
26.23722,216949
26.24535,226557
26.25347,217020
26.26158,203529
26.26972,197506
26.27783,196789
26.28597,196902
26.29408,198091
26.30220,197368
26.31033,188320
26.31845,194822
26.32658,187697
26.33470,187042
26.34282,194747
26.35095,203611
26.35907,223179
26.36718,269206
26.37532,382555
26.38343,500209
26.39157,695122
26.39968,906992
26.40780,1010917
26.41593,1013538
26.42405,902017
26.43218,739068
26.44030,584504
26.44842,415945
26.45655,316283
26.46467,254986
26.47280,226266
26.48092,210512
26.48903,193510
26.49717,188191
26.50528,186221
26.51340,170835
26.52153,171058
26.52965,162365
26.53778,163095
26.54590,159762
26.55402,153426
26.56215,153893
26.57027,146043
26.57840,153431
26.58652,149305
26.59463,153573
26.60277,148429
26.61088,152662
26.61900,144156
26.62713,143810
26.63525,148712
26.64338,137713
26.65150,150007
26.65962,146953
26.66775,146940
26.67587,154581
26.68400,163408
26.69212,151410
26.70023,156628
26.70837,148468
26.71648,138805
26.72462,141741
26.73273,126560
26.74085,133958
26.74898,122969
26.75710,123493
26.76522,124999
26.77335,126815
26.78147,124860
26.78960,123556
26.79772,123562
26.80583,122719
26.81397,116576
26.82208,119744
26.83022,121638
26.83833,119505
26.84645,114702
26.85458,114656
26.86270,111735
26.87083,112146
26.87895,106901
26.88707,105642
26.89520,108533
26.90332,102553
26.91143,100375
26.91957,99488
26.92768,99560
26.93582,100046
26.94393,102528
26.95205,108070
26.96018,103339
26.96830,101747
26.97643,110469
26.98455,129745
26.99267,165501
27.00080,239486
27.00892,347474
27.01703,500459
27.02517,656219
27.03328,799912
27.04142,838398
27.04953,773366
27.05765,664628
27.06578,549807
27.07390,449340
27.08203,381173
27.09015,315999
27.09827,268590
27.10640,236088
27.11452,218997
27.12265,204171
27.13077,197422
27.13888,178490
27.14702,176850
27.15513,173539
27.16325,167115
27.17138,179845
27.17950,185980
27.18763,205943
27.19575,216553
27.20387,205217
27.21200,199342
27.22012,186784
27.22825,165635
27.23637,147780
27.24448,137134
27.25262,131713
27.26073,121287
27.26887,125269
27.27698,120735
27.28510,108247
27.29323,98861
27.30135,102518
27.30947,110832
27.31760,101901
27.32572,107318
27.33385,100081
27.34197,102657
27.35008,109431
27.35822,100061
27.36633,100369
27.37447,99951
27.38258,98564
27.39070,97043
27.39883,96206
27.40695,105760
27.41507,95914
27.42320,95162
27.43132,91507
27.43945,96440
27.44757,91950
27.45568,93115
27.46382,88995
27.47193,87911
27.48007,82633
27.48818,84187
27.49630,84166
27.50443,82529
27.51255,89218
27.52068,84447
27.52880,84154
27.53692,84406
27.54505,84052
27.55317,87648
27.56128,90734
27.56942,88197
27.57753,93014
27.58567,97392
27.59378,102701
27.60190,106882
27.61003,114216
27.61815,115894
27.62628,109258
27.63440,101532
27.64252,94058
27.65065,84652
27.65877,82325
27.66688,81383
27.67502,85421
27.68313,92927
27.69127,85844
27.69938,85476
27.70750,95024
27.71563,88433
27.72375,80635
27.73188,77194
27.74000,72400
27.74812,69825
27.75625,67727
27.76437,64417
27.77250,68253
27.78062,66077
27.78873,76672
27.79687,72911
27.80498,74137
27.81310,73873
27.82123,74295
27.82935,75602
27.83748,76957
27.84560,80152
27.85372,77762
27.86185,77549
27.86997,73023
27.87810,75165
27.88622,72650
27.89433,59019
27.90247,66786
27.91058,65059
27.91872,67952
27.92683,65042
27.93495,66003
27.94308,61063
27.95120,65489
27.95932,69012
27.96745,64735
27.97557,63609
27.98370,65278
27.99182,66667
27.99993,61405
28.00807,65884
28.01618,66915
28.02432,83450
28.03243,84800
28.04055,99558
28.04868,114974
28.05680,130036
28.06492,130624
28.07305,124000
28.08117,112042
28.08930,90949
28.09742,83600
28.10553,73489
28.11367,72924
28.12178,72309
28.12992,69470
28.13803,70540
28.14615,64318
28.15428,70080
28.16240,61258
28.17053,61139
28.17865,60791
28.18677,67047
28.19490,68957
28.20302,74278
28.21113,83394
28.21927,100420
28.22738,105329
28.23552,109294
28.24363,106223
28.25175,103050
28.25988,86520
28.26800,79269
28.27613,72666
28.28425,69204
28.29237,67435
28.30050,72387
28.30862,75576
28.31675,76819
28.32487,84531
28.33298,95776
28.34112,109383
28.34923,116127
28.35735,125950
28.36548,128110
28.37360,128250
28.38173,156196
28.38985,159759
28.39797,167691
28.40610,163084
28.41422,153604
28.42235,149991
28.43047,142676
28.43858,132143
28.44672,124831
28.45483,116047
28.46295,111920
28.47108,103048
28.47920,107363
28.48733,103207
28.49545,106813
28.50357,107418
28.51170,106424
28.51982,103829
28.52795,106869
28.53607,101223
28.54418,90710
28.55232,77704
28.56043,77431
28.56857,74862
28.57668,71674
28.58480,70191
28.59293,68219
28.60105,72196
28.60917,70200
28.61730,73915
28.62542,70110
28.63355,81762
28.64167,79783
28.64978,89464
28.65792,89009
28.66603,93456
28.67417,96450
28.68228,92813
28.69040,89925
28.69853,76566
28.70665,74272
28.71478,68034
28.72290,68897
28.73102,64697
28.73915,66755
28.74727,60414
28.75538,62134
28.76352,66317
28.77163,65018
28.77977,74108
28.78788,76393
28.79600,85593
28.80413,82281
28.81225,79131
28.82038,74552
28.82850,76445
28.83662,72889
28.84475,72493
28.85287,71757
28.86098,66157
28.86912,62130
28.87723,64009
28.88537,68165
28.89348,74543
28.90160,76434
28.90973,82935
28.91785,78599
28.92598,79595
28.93410,79554
28.94222,79455
28.95035,74380
28.95847,77689
28.96660,82462
28.97472,83147
28.98283,80136
28.99097,79316
28.99908,70289
29.00720,70267
29.01533,67527
29.02345,68933
29.03158,69861
29.03970,63721
29.04782,63024
29.05595,60210
29.06407,68225
29.07220,59465
29.08032,64398
29.08843,68808
29.09657,63684
29.10468,65201
29.11280,67791
29.12093,63919
29.12905,60897
29.13718,59789
29.14530,60304
29.15342,62035
29.16155,60513
29.16967,60947
29.17780,62446
29.18592,70752
29.19403,74591
29.20217,88574
29.21028,98725
29.21842,105999
29.22653,119748
29.23465,120616
29.24278,113378
29.25090,108447
29.25902,103449
29.26715,94077
29.27527,100243
29.28340,95847
29.29152,92417
29.29963,80579
29.30777,73426
29.31588,63200
29.32402,61235
29.33213,59640
29.34025,60101
29.34838,56120
29.35650,57832
29.36463,58684
29.37275,57167
29.38087,59775
29.38900,64214
29.39712,63492
29.40523,66010
29.41337,63711
29.42148,70689
29.42962,73604
29.43773,76495
29.44585,77324
29.45398,72133
29.46210,68937
29.47023,60890
29.47835,64540
29.48647,62171
29.49460,63725
29.50272,72251
29.51083,64909
29.51897,68979
29.52708,68964
29.53522,71786
29.54333,58315
29.55145,54144
29.55958,56318
29.56770,58632
29.57583,53292
29.58395,56314
29.59207,52110
29.60020,54876
29.60832,54562
29.61645,56973
29.62457,59405
29.63268,58344
29.64082,55525
29.64893,58039
29.65705,54519
29.66518,52702
29.67330,53954
29.68143,55866
29.68955,64129
29.69767,63370
29.70580,65077
29.71392,61240
29.72205,66342
29.73017,58380
29.73828,60753
29.74642,57726
29.75453,63428
29.76267,57972
29.77078,55721
29.77890,53597
29.78703,58242
29.79515,53484
29.80327,53982
29.81140,53704
29.81952,53146
29.82765,53577
29.83577,52235
29.84388,53833
29.85202,54325
29.86013,66955
29.86827,82670
29.87638,151169
29.88450,272884
29.89263,487502
29.90075,743127
29.90887,938932
29.91700,1002367
29.92512,866121
29.93325,641477
29.94137,401865
29.94948,244184
29.95762,157592
29.96573,112664
29.97387,101733
29.98198,96629
29.99010,108648
29.99823,109345
30.00635,126938
30.01448,130784
30.02260,140536
30.03072,130016
30.03885,125789
30.04697,123348
30.05508,115762
30.06322,111572
30.07133,113878
30.07947,101078
30.08758,102254
30.09570,98305
30.10383,99907
30.11195,95807
30.12008,96421
30.12820,81960
30.13632,83117
30.14445,79391
30.15257,85760
30.16068,78592
30.16882,83568
30.17693,79663
30.18507,77242
30.19318,84502
30.20130,84445
30.20943,88715
30.21755,90218
30.22568,84475
30.23380,82155
30.24192,85122
30.25005,63649
30.25817,67571
30.26630,60132
30.27442,66764
30.28253,60325
30.29067,62952
30.29878,59872
30.30690,69439
30.31503,62818
30.32315,60754
30.33128,59210
30.33940,59104
30.34752,60886
30.35565,61987
30.36377,66841
30.37190,58835
30.38002,62282
30.38813,66553
30.39627,62321
30.40438,59096
30.41252,54897
30.42063,55389
30.42875,53180
30.43688,55398
30.44500,60659
30.45312,50686
30.46125,55955
30.46937,55713
30.47750,54644
30.48562,56190
30.49373,57717
30.50187,57910
30.50998,54928
30.51812,53606
30.52623,56351
30.53435,53062
30.54248,49700
30.55060,56078
30.55873,54193
30.56685,55629
30.57497,52982
30.58310,51790
30.59122,54778
30.59933,59057
30.60747,55195
30.61558,65555
30.62372,59295
30.63183,63202
30.63995,55847
30.64808,54823
30.65620,59848
30.66433,52911
30.67245,58849
30.68057,55926
30.68870,58452
30.69682,55281
30.70493,57118
30.71307,56189
30.72118,53341
30.72932,62369
30.73743,56213
30.74555,54805
30.75368,58822
30.76180,55837
30.76993,56660
30.77805,59810
30.78617,71005
30.79430,83421
30.80242,106875
30.81055,123298
30.81867,143045
30.82678,145881
30.83492,128181
30.84303,114455
30.85115,96320
30.85928,78365
30.86740,74344
30.87553,71809
30.88365,69138
30.89177,68863
30.89990,65892
30.90802,69991
30.91615,65017
30.92427,63472
30.93238,58162
30.94052,66034
30.94863,64934
30.95675,58970
30.96488,59159
30.97300,57334
30.98113,57416
30.98925,55451
30.99737,57100
31.00550,63388
31.01362,60299
31.02175,70542
31.02987,77095
31.03798,85326
31.04612,94627
31.05423,90833
31.06237,88837
31.07048,83318
31.07860,88204
31.08673,95769
31.09485,120828
31.10297,169093
31.11110,217681
31.11922,257221
31.12735,242344
31.13547,221478
31.14358,169173
31.15172,125120
31.15983,99567
31.16797,79878
31.17608,74460
31.18420,75109
31.19233,74940
31.20045,95745
31.20858,104648
31.21670,119473
31.22482,146849
31.23295,147455
31.24107,143043
31.24918,138759
31.25732,118072
31.26543,90699
31.27357,80011
31.28168,70261
31.28980,58256
31.29793,56756
31.30605,58847
31.31418,55645
31.32230,56596
31.33042,56917
31.33855,53948
31.34667,57118
31.35478,59507
31.36292,56273
31.37103,56584
31.37917,68448
31.38728,69950
31.39540,76478
31.40353,74223
31.41165,75017
31.41978,70830
31.42790,63064
31.43602,65380
31.44415,57454
31.45227,54704
31.46040,54984
31.46852,52491
31.47663,52646
31.48477,54782
31.49288,54893
31.50100,61360
31.50913,60188
31.51725,59969
31.52538,65153
31.53350,73720
31.54162,74978
31.54975,72658
31.55787,75553
31.56600,73266
31.57412,82320
31.58223,76537
31.59037,73540
31.59848,75326
31.60662,73011
31.61473,68919
31.62285,71731
31.63098,69748
31.63910,78410
31.64722,75264
31.65535,76368
31.66347,80391
31.67160,79127
31.67972,87521
31.68783,83275
31.69597,82734
31.70408,74794
31.71222,85564
31.72033,76219
31.72845,75097
31.73658,70349
31.74470,75138
31.75282,73369
31.76095,72625
31.76907,79056
31.77720,71708
31.78532,70824
31.79343,72105
31.80157,71793
31.80968,77934
31.81782,74294
31.82593,78055
31.83405,76924
31.84218,75878
31.85030,78923
31.85843,74903
31.86655,81839
31.87467,80180
31.88280,86783
31.89092,85964
31.89903,83689
31.90717,79385
31.91528,80189
31.92342,89100
31.93153,89944
31.93965,91458
31.94778,86170
31.95590,94851
31.96403,96993
31.97215,92134
31.98027,95416
31.98840,103071
31.99652,101321
32.00463,103329
32.01277,102843
32.02088,91372
32.02902,95865
32.03713,90803
32.04525,93163
32.05338,86143
32.06150,83374
32.06963,83071
32.07775,84165
32.08587,78478
32.09400,77343
32.10212,82253
32.11025,70923
32.11837,73220
32.12648,69976
32.13462,71967
32.14273,73262
32.15085,67243
32.15898,65581
32.16710,64580
32.17523,68510
32.18335,69702
32.19147,60422
32.19960,60454
32.20772,69029
32.21585,63106
32.22397,67164
32.23208,64873
32.24022,60091
32.24833,66006
32.25647,62996
32.26458,69134
32.27270,67201
32.28083,68274
32.28895,68678
32.29707,67495
32.30520,67412
32.31332,66562
32.32145,63692
32.32957,66657
32.33768,64613
32.34582,66510
32.35393,68284
32.36207,65855
32.37018,68141
32.37830,65631
32.38643,66546
32.39455,62985
32.40267,60365
32.41080,61539
32.41892,62227
32.42705,58882
32.43517,61690
32.44328,56683
32.45142,54442
32.45953,58328
32.46767,56321
32.47578,56446
32.48390,53112
32.49203,54547
32.50015,52122
32.50828,52811
32.51640,56272
32.52452,51979
32.53265,55896
32.54077,57623
32.54888,58380
32.55702,55364
32.56513,56632
32.57327,52991
32.58138,56547
32.58950,58394
32.59763,51543
32.60575,53173
32.61388,55428
32.62200,48887
32.63012,50865
32.63825,57117
32.64637,52057
32.65450,54837
32.66262,54658
32.67073,58733
32.67887,58718
32.68698,69173
32.69510,65648
32.70323,61672
32.71135,62851
32.71948,70269
32.72760,62781
32.73572,56617
32.74385,62799
32.75197,58314
32.76010,61520
32.76822,54899
32.77633,54763
32.78447,52448
32.79258,58292
32.80070,56575
32.80883,62491
32.81695,53041
32.82508,54246
32.83320,53594
32.84132,49580
32.84945,57338
32.85757,55410
32.86570,58308
32.87382,51218
32.88193,53739
32.89007,54294
32.89818,56501
32.90632,64843
32.91443,61385
32.92255,60819
32.93068,59541
32.93880,57411
32.94692,52849
32.95505,56882
32.96317,54223
32.97130,51543
32.97942,60371
32.98753,59353
32.99567,65890
33.00378,74902
33.01192,80468
33.02003,80997
33.02815,81324
33.03628,77117
33.04440,62791
33.05253,62156
33.06065,63645
33.06877,72633
33.07690,70248
33.08502,76356
33.09313,91024
33.10127,101256
33.10938,118410
33.11752,136134
33.12563,147649
33.13375,148963
33.14188,143466
33.15000,118580
33.15813,96951
33.16625,80830
33.17437,76207
33.18250,65098
33.19062,67269
33.19873,63494
33.20687,58450
33.21498,60472
33.22312,59049
33.23123,55830
33.23935,62234
33.24748,58354
33.25560,61818
33.26373,60110
33.27185,60025
33.27997,61977
33.28810,58227
33.29622,59797
33.30435,57203
33.31247,57487
33.32058,64123
33.32872,57181
33.33683,50984
33.34495,58189
33.35308,59200
33.36120,59045
33.36933,59894
33.37745,63026
33.38557,61190
33.39370,60408
33.40182,55024
33.40995,60963
33.41807,58628
33.42618,53334
33.43432,54541
33.44243,52869
33.45055,54081
33.45868,52289
33.46680,49217
33.47493,54405
33.48305,51324
33.49117,51701
33.49930,53522
33.50742,53344
33.51555,55619
33.52367,57397
33.53178,55292
33.53992,58472
33.54803,58070
33.55617,59062
33.56428,62921
33.57240,61061
33.58053,65477
33.58865,57169
33.59677,53877
33.60490,52201
33.61302,56076
33.62115,52956
33.62927,57972
33.63738,55967
33.64552,61492
33.65363,60617
33.66177,60441
33.66988,62939
33.67800,55353
33.68613,58557
33.69425,56434
33.70238,54888
33.71050,53841
33.71862,51775
33.72675,52874
33.73487,53057
33.74298,49199
33.75112,49752
33.75923,53250
33.76737,60891
33.77548,53173
33.78360,51848
33.79173,64426
33.79985,51825
33.80798,51379
33.81610,50519
33.82422,52002
33.83235,55474
33.84047,53011
33.84858,53024
33.85672,55702
33.86483,53401
33.87297,59639
33.88108,52902
33.88920,57459
33.89733,55360
33.90545,53193
33.91358,56940
33.92170,52941
33.92982,51367
33.93795,55642
33.94607,51981
33.95420,52912
33.96232,51555
33.97043,51948
33.97857,49658
33.98668,55863
33.99480,52925
34.00293,52589
34.01105,52078
34.01918,52047
34.02730,54865
34.03542,53552
34.04355,54823
34.05167,52345
34.05980,51283
34.06792,52352
34.07603,52834
34.08417,61786
34.09228,57096
34.10042,59138
34.10853,54907
34.11665,53026
34.12478,56279
34.13290,54285
34.14102,51103
34.14915,56245
34.15727,54523
34.16540,54410
34.17352,54287
34.18163,54337
34.18977,51482
34.19788,51144
34.20602,57012
34.21413,51771
34.22225,52275
34.23038,50264
34.23850,52417
34.24662,57532
34.25475,53407
34.26287,51343
34.27100,55581
34.27912,52364
34.28723,51665
34.29537,52409
34.30348,51940
34.31162,59791
34.31973,54906
34.32785,51013
34.33598,49357
34.34410,54893
34.35223,50410
34.36035,50286
34.36847,50552
34.37660,54876
34.38472,50544
34.39283,49257
34.40097,48126
34.40908,51273
34.41722,49813
34.42533,51750
34.43345,54802
34.44158,63178
34.44970,51406
34.45783,50704
34.46595,52589
34.47407,53511
34.48220,53356
34.49032,49642
34.49843,53282
34.50657,53631
34.51468,53026
34.52282,55667
34.53093,63359
34.53905,60724
34.54718,61771
34.55530,71816
34.56343,75530
34.57155,78080
34.57967,78251
34.58780,77688
34.59592,72757
34.60405,68815
34.61217,72180
34.62028,64178
34.62842,59643
34.63653,62917
34.64465,58802
34.65278,57802
34.66090,54272
34.66903,57051
34.67715,55555
34.68527,56769
34.69340,58677
34.70152,58009
34.70965,61094
34.71777,55777
34.72588,55326
34.73402,54185
34.74213,56967
34.75027,56211
34.75838,61065
34.76650,59132
34.77463,61100
34.78275,60180
34.79087,60990
34.79900,58716
34.80712,59208
34.81525,57357
34.82337,61387
34.83148,58197
34.83962,58948
34.84773,58290
34.85587,59400
34.86398,59021
34.87210,56990
34.88023,57289
34.88835,56331
34.89647,53840
34.90460,53994
34.91272,51084
34.92085,57298
34.92897,55927
34.93708,59506
34.94522,74549
34.95333,93531
34.96147,136394
34.96958,216544
34.97770,312009
34.98583,388591
34.99395,413880
35.00208,383918
35.01020,285573
35.01832,185420
35.02645,128216
35.03457,95838
35.04268,76855
35.05082,70297
35.05893,67906
35.06707,64730
35.07518,64366
35.08330,64716
35.09143,65624
35.09955,66478
35.10768,67784
35.11580,63486
35.12392,63793
35.13205,63191
35.14017,63354
35.14830,62037
35.15642,60792
35.16453,61792
35.17267,59711
35.18078,61639
35.18890,54835
35.19703,56401
35.20515,62484
35.21328,62143
35.22140,61055
35.22952,56631
35.23765,57388
35.24577,59882
35.25390,58226
35.26202,64311
35.27013,60435
35.27827,59819
35.28638,58775
35.29450,62483
35.30263,59622
35.31075,62152
35.31888,58677
35.32700,54093
35.33512,54606
35.34325,56949
35.35137,54166
35.35950,54406
35.36762,57028
35.37573,55816
35.38387,60379
35.39198,60716
35.40012,59364
35.40823,62169
35.41635,62462
35.42448,64641
35.43260,64097
35.44072,69547
35.44885,66905
35.45697,69532
35.46510,68633
35.47322,70628
35.48133,68880
35.48947,65172
35.49758,69513
35.50572,71553
35.51383,68507
35.52195,58362
35.53008,62156
35.53820,59990
35.54632,60146
35.55445,62395
35.56257,59430
35.57070,58883
35.57882,58471
35.58693,60198
35.59507,59381
35.60318,61751
35.61132,56289
35.61943,57232
35.62755,56710
35.63568,59504
35.64380,58313
35.65193,58191
35.66005,60185
35.66817,56901
35.67630,61715
35.68442,59085
35.69253,59610
35.70067,58029
35.70878,62094
35.71692,62777
35.72503,62717
35.73315,60829
35.74128,62735
35.74940,70030
35.75753,66047
35.76565,76337
35.77377,74103
35.78190,80345
35.79002,76938
35.79815,70338
35.80627,73923
35.81438,61259
35.82252,60602
35.83063,58674
35.83875,56910
35.84688,55609
35.85500,59638
35.86313,60855
35.87125,58177
35.87937,59743
35.88750,58290
35.89562,57341
35.90375,58910
35.91187,60860
35.91998,58957
35.92812,58005
35.93623,58048
35.94437,63409
35.95248,54123
35.96060,60987
35.96873,57946
35.97685,59392
35.98497,54934
35.99310,56235
36.00122,58571
36.00935,62580
36.01747,70533
36.02558,67323
36.03372,65923
36.04183,67219
36.04997,64777
36.05808,65946
36.06620,65902
36.07433,63167
36.08245,59180
36.09057,64744
36.09870,59119
36.10682,65671
36.11495,66671
36.12307,63302
36.13118,62666
36.13932,66392
36.14743,68195
36.15557,66522
36.16368,73532
36.17180,70294
36.17993,69039
36.18805,67954
36.19618,60425
36.20430,62640
36.21242,55724
36.22055,56784
36.22867,60954
36.23678,60813
36.24492,59488
36.25303,58494
36.26117,55842
36.26928,62496
36.27740,58465
36.28553,60378
36.29365,59163
36.30178,58979
36.30990,62585
36.31802,65435
36.32615,70089
36.33427,68737
36.34238,75946
36.35052,75473
36.35863,67658
36.36677,66158
36.37488,67196
36.38300,60831
36.39113,66075
36.39925,56593
36.40738,63339
36.41550,63263
36.42362,67484
36.43175,64626
36.43987,58599
36.44800,55986
36.45612,64742
36.46423,64558
36.47237,59045
36.48048,57937
36.48860,58921
36.49673,58170
36.50485,63493
36.51298,57248
36.52110,60922
36.52922,59292
36.53735,61929
36.54547,53042
36.55360,61897
36.56172,57942
36.56983,63813
36.57797,54720
36.58608,62428
36.59422,59636
36.60233,56561
36.61045,61218
36.61858,53584
36.62670,61557
36.63482,66581
36.64295,59396
36.65107,59890
36.65920,59696
36.66732,62399
36.67543,63841
36.68357,59461
36.69168,61489
36.69982,59896
36.70793,64831
36.71605,62504
36.72418,63727
36.73230,65954
36.74042,62589
36.74855,61264
36.75667,60273
36.76480,66430
36.77292,58964
36.78103,60367
36.78917,55374
36.79728,66780
36.80542,60486
36.81353,65684
36.82165,65761
36.82978,61819
36.83790,59060
36.84603,62758
36.85415,61728
36.86227,58047
36.87040,74005
36.87852,63465
36.88663,59307
36.89477,60175
36.90288,58948
36.91102,65121
36.91913,60173
36.92725,61560
36.93538,69377
36.94350,72305
36.95163,73687
36.95975,86420
36.96787,94616
36.97600,91719
36.98412,91206
36.99225,93329
37.00037,90379
37.00848,87703
37.01662,88159
37.02473,77207
37.03285,87136
37.04098,75823
37.04910,78345
37.05723,86510
37.06535,85510
37.07347,87912
37.08160,83432
37.08972,80759
37.09785,87574
37.10597,94840
37.11408,86741
37.12222,81503
37.13033,79384
37.13845,83248
37.14658,83108
37.15470,79234
37.16283,85361
37.17095,85755
37.17907,83284
37.18720,88278
37.19532,88425
37.20345,81311
37.21157,78071
37.21968,84000
37.22782,92790
37.23593,82936
37.24407,84144
37.25218,76296
37.26030,78345
37.26843,78021
37.27655,76178
37.28467,78615
37.29280,76148
37.30092,78595
37.30905,76947
37.31717,76749
37.32528,77427
37.33342,73452
37.34153,83587
37.34967,82726
37.35778,88970
37.36590,89411
37.37403,87129
37.38215,93254
37.39027,87634
37.39840,89481
37.40652,89187
37.41465,78577
37.42277,83536
37.43088,82703
37.43902,79339
37.44713,84989
37.45527,83263
37.46338,85431
37.47150,86041
37.47963,80323
37.48775,80732
