C:\MassHunter\GCMS\1\data\JTB-E02\BACandBLUE\JTB-E18-020-07.D Tue Jul 09 11:30:56 2019
Start of data points
2.09532,75593
2.10343,77472
2.11157,81812
2.11968,80751
2.12780,79220
2.13593,77695
2.14405,81023
2.15218,77878
2.16030,75298
2.16842,77343
2.17655,74906
2.18467,70322
2.19280,67164
2.20092,69534
2.20903,70670
2.21717,71562
2.22528,65651
2.23340,67248
2.24153,62609
2.24965,65354
2.25778,63690
2.26590,114260
2.27402,692770
2.28215,1579853
2.29027,938017
2.29840,410794
2.30652,289311
2.31463,241512
2.32277,219490
2.33088,227883
2.33902,335426
2.34713,229890
2.35525,179911
2.36338,161945
2.37150,147232
2.37962,140893
2.38775,138983
2.39587,131282
2.40400,131913
2.41212,123973
2.42023,118144
2.42837,120361
2.43648,116167
2.44462,116587
2.45273,117115
2.46085,114660
2.46898,109363
2.47710,103508
2.48522,109322
2.49335,134179
2.50147,138645
2.50960,116983
2.51772,109915
2.52583,112234
2.53397,109361
2.54208,111942
2.55022,108562
2.55833,135029
2.56645,153712
2.57458,134187
2.58270,119408
2.59083,114784
2.59895,121213
2.60707,287422
2.61520,622725
2.62332,558482
2.63143,346146
2.63957,230663
2.64768,184088
2.65582,155045
2.66393,140708
2.67205,131554
2.68018,125271
2.68830,115227
2.69643,116694
2.70455,109300
2.71267,113198
2.72080,108220
2.72892,104684
2.73703,105940
2.74517,98835
2.75328,97821
2.76142,98928
2.76953,97561
2.77765,120270
2.78578,194319
2.79390,227970
2.80203,160044
2.81015,144931
2.81827,172204
2.82640,180709
2.83452,145671
2.84265,133306
2.85077,118369
2.85888,110321
2.86702,107888
2.87513,107023
2.88325,105465
2.89138,100145
2.89950,97070
2.90763,96366
2.91575,96703
2.92387,100282
2.93200,98450
2.94012,91621
2.94825,88550
2.95637,96624
2.96448,103127
2.97262,108407
2.98073,100466
2.98887,97172
2.99698,98072
3.00510,98902
3.01323,93044
3.02135,94740
3.02947,92442
3.03760,84084
3.04572,88550
3.05385,87085
3.06197,90573
3.07008,89871
3.07822,125736
3.08633,409412
3.09447,1106302
3.10258,2012286
3.11070,3205953
3.11883,2939216
3.12695,1775574
3.13507,1185512
3.14320,900354
3.15132,712516
3.15945,605112
3.16757,576362
3.17568,616308
3.18382,784766
3.19193,1642655
3.20007,2216519
3.20818,1646268
3.21630,1102928
3.22443,872703
3.23255,727107
3.24068,621524
3.24880,542199
3.25692,474647
3.26505,433707
3.27317,393738
3.28128,396497
3.28942,616718
3.29753,1655344
3.30567,3674321
3.31378,5132580
3.32190,4625725
3.33003,3299177
3.33815,2342115
3.34628,1845867
3.35440,1512538
3.36252,1277362
3.37065,1121681
3.37877,1012430
3.38690,909667
3.39502,828437
3.40313,766329
3.41127,707362
3.41938,648240
3.42750,629119
3.43563,611876
3.44375,581042
3.45188,547196
3.46000,537827
3.46812,520057
3.47625,515913
3.48437,504307
3.49250,481636
3.50062,466552
3.50873,440049
3.51687,430685
3.52498,413407
3.53310,419950
3.54123,440392
3.54935,431782
3.55748,403455
3.56560,417051
3.57372,503946
3.58185,535175
3.58997,485526
3.59810,428486
3.60622,404740
3.61433,395586
3.62247,379953
3.63058,387509
3.63872,372212
3.64683,365461
3.65495,396752
3.66308,917800
3.67120,3633442
3.67932,8278063
3.68745,9303413
3.69557,6268876
3.70370,3685787
3.71182,2589856
3.71993,2105330
3.72807,1794616
3.73618,1568376
3.74432,1388679
3.75243,1279901
3.76055,1162483
3.76868,1092849
3.77680,1013920
3.78492,970152
3.79305,927753
3.80117,1029397
3.80930,1549699
3.81742,2192891
3.82553,2127716
3.83367,1592798
3.84178,1231182
3.84992,1063702
3.85803,945612
3.86615,866890
3.87428,803739
3.88240,744810
3.89053,721636
3.89865,698496
3.90677,669904
3.91490,719877
3.92302,911780
3.93113,1076546
3.93927,1042656
3.94738,1003959
3.95552,1410567
3.96363,2270951
3.97175,2662277
3.97988,2110584
3.98800,1532088
3.99613,2080309
4.00425,5453119
4.01237,1.08471E+07
4.02050,1.287049E+07
4.02862,9524557
4.03675,5396719
4.04487,3157670
4.05298,2227569
4.06112,1719560
4.06923,1408542
4.07735,1203463
4.08548,1054632
4.09360,933101
4.10173,863743
4.10985,787916
4.11797,743680
4.12610,708384
4.13422,751182
4.14235,1113344
4.15047,1688191
4.15858,1852320
4.16672,1478289
4.17483,1114380
4.18295,913239
4.19108,786669
4.19920,743342
4.20733,1243605
4.21545,3878777
4.22357,9958253
4.23170,1.692987E+07
4.23982,1.971495E+07
4.24795,1.612048E+07
4.25607,9568211
4.26418,5956531
4.27232,4228375
4.28043,3266770
4.28857,2616965
4.29668,2175826
4.30480,1828374
4.31293,1613252
4.32105,1427731
4.32917,1289315
4.33730,1214648
4.34542,1180580
4.35355,1141779
4.36167,1158012
4.36978,1122136
4.37792,1037894
4.38603,955159
4.39417,860126
4.40228,802184
4.41040,767095
4.41853,747754
4.42665,715801
4.43478,694215
4.44290,663495
4.45102,626255
4.45915,601498
4.46727,590394
4.47538,580176
4.48352,555422
4.49163,535202
4.49977,527389
4.50788,520038
4.51600,502499
4.52413,498314
4.53225,493384
4.54038,472305
4.54850,479619
4.55662,472320
4.56475,446500
4.57287,443262
4.58098,423367
4.58912,420072
4.59723,403918
4.60537,403552
4.61348,416020
4.62160,499778
4.62973,768717
4.63785,1172928
4.64598,1381560
4.65410,1226737
4.66222,907928
4.67035,692797
4.67847,583359
4.68660,540386
4.69472,497577
4.70283,435315
4.71097,420368
4.71908,406715
4.72720,384076
4.73533,371579
4.74345,357873
4.75158,343108
4.75970,344225
4.76782,335795
4.77595,332267
4.78407,333559
4.79220,383357
4.80032,461238
4.80843,512678
4.81657,497019
4.82468,434446
4.83282,426984
4.84093,426515
4.84905,445008
4.85718,431481
4.86530,409827
4.87342,384229
4.88155,359731
4.88967,340271
4.89780,326259
4.90592,317185
4.91403,316769
4.92217,318027
4.93028,392286
4.93842,607085
4.94653,1070666
4.95465,1651636
4.96278,1986724
4.97090,1976032
4.97902,1616155
4.98715,1309549
4.99527,1064707
5.00340,896726
5.01152,807752
5.01963,811800
5.02777,1047397
5.03588,1461053
5.04402,1745628
5.05213,1630641
5.06025,1281621
5.06838,1041501
5.07650,901387
5.08463,819841
5.09275,755659
5.10087,696658
5.10900,651417
5.11712,623796
5.12523,590001
5.13337,572155
5.14148,553554
5.14962,576058
5.15773,631658
5.16585,692629
5.17398,720479
5.18210,666236
5.19023,631957
5.19835,649866
5.20647,709752
5.21460,735767
5.22272,695608
5.23083,613999
5.23897,567196
5.24708,525092
5.25522,488544
5.26333,446661
5.27145,413297
5.27958,402099
5.28770,386658
5.29583,381688
5.30395,381792
5.31207,376226
5.32020,363149
5.32832,377756
5.33645,401506
5.34457,414623
5.35268,400063
5.36082,371590
5.36893,345198
5.37705,347899
5.38518,359740
5.39330,380649
5.40143,385753
5.40955,388468
5.41767,372207
5.42580,352771
5.43392,346455
5.44205,349859
5.45017,363686
5.45828,372042
5.46642,366938
5.47453,346820
5.48267,317244
5.49078,306531
5.49890,299777
5.50703,295359
5.51515,297188
5.52327,292923
5.53140,295703
5.53952,282788
5.54765,297966
5.55577,330517
5.56388,403959
5.57202,477080
5.58013,497544
5.58827,455957
5.59638,376238
5.60450,332586
5.61263,308379
5.62075,293393
5.62887,306709
5.63700,304776
5.64512,307776
5.65325,305146
5.66137,290282
5.66948,294466
5.67762,316648
5.68573,346585
5.69387,370945
5.70198,362125
5.71010,331507
5.71823,309702
5.72635,293045
5.73448,274284
5.74260,259954
5.75072,263641
5.75885,257787
5.76697,259030
5.77508,245928
5.78322,249229
5.79133,238001
5.79947,240918
5.80758,235680
5.81570,237438
5.82383,240631
5.83195,238941
5.84008,243682
5.84820,233355
5.85632,231437
5.86445,230041
5.87257,233365
5.88070,225192
5.88882,226488
5.89693,226639
5.90507,215512
5.91318,194794
5.92130,174488
5.92943,177598
5.93755,171833
5.94568,194510
5.95380,201281
5.96192,230975
5.97005,260492
5.97817,305263
5.98630,348635
5.99442,363322
6.00253,320971
6.01067,268365
6.01878,228191
6.02690,200972
6.03503,191658
6.04315,183673
6.05128,170699
6.05940,169179
6.06752,172455
6.07565,170801
6.08377,163176
6.09190,154500
6.10002,163596
6.10813,160041
6.11627,179507
6.12438,252314
6.13252,413764
6.14063,620443
6.14875,739792
6.15688,658704
6.16500,511600
6.17312,392155
6.18125,306138
6.18937,263945
6.19750,246601
6.20562,237005
6.21373,224469
6.22187,226754
6.22998,211125
6.23812,222934
6.24623,232936
6.25435,245053
6.26248,261464
6.27060,260503
6.27872,240151
6.28685,229205
6.29497,221064
6.30310,220320
6.31122,223144
6.31933,212360
6.32747,221978
6.33558,229718
6.34372,220531
6.35183,218392
6.35995,220908
6.36808,215338
6.37620,219790
6.38433,224044
6.39245,223531
6.40057,222020
6.40870,216563
6.41682,214856
6.42493,211102
6.43307,207009
6.44118,217894
6.44932,219072
6.45743,212915
6.46555,220312
6.47368,219281
6.48180,222112
6.48993,221008
6.49805,221209
6.50617,225074
6.51430,229459
6.52242,232461
6.53055,228663
6.53867,232645
6.54678,233676
6.55492,234949
6.56303,280501
6.57115,364039
6.57928,446830
6.58740,456532
6.59553,400137
6.60365,332045
6.61177,287703
6.61990,270084
6.62802,254208
6.63615,249903
6.64427,253784
6.65238,283913
6.66052,346211
6.66863,414393
6.67677,434020
6.68488,376954
6.69300,317384
6.70113,274554
6.70925,265565
6.71737,257827
6.72550,251070
6.73362,247312
6.74175,254798
6.74987,249488
6.75798,247836
6.76612,218946
6.77423,202544
6.78237,193948
6.79048,181014
6.79860,172292
6.80673,161806
6.81485,158796
6.82297,160746
6.83110,156444
6.83922,182296
6.84735,204200
6.85547,240379
6.86358,245734
6.87172,234374
6.87983,188632
6.88797,146406
6.89608,124006
6.90420,109362
6.91233,103232
6.92045,101955
6.92858,99418
6.93670,99842
6.94482,100291
6.95295,100632
6.96107,112920
6.96918,132866
6.97732,152500
6.98543,154836
6.99357,140441
7.00168,124614
7.00980,109649
7.01793,99957
7.02605,103258
7.03418,106073
7.04230,110738
7.05042,115159
7.05855,127154
7.06667,118519
7.07478,111658
7.08292,101420
7.09103,92327
7.09917,91605
7.10728,86252
7.11540,85430
7.12353,85002
7.13165,88533
7.13978,104489
7.14790,137824
7.15602,183666
7.16415,213233
7.17227,205236
7.18040,169990
7.18852,138476
7.19663,119648
7.20477,121677
7.21288,203872
7.22100,464888
7.22913,991362
7.23725,1571889
7.24538,1804065
7.25350,1469106
7.26162,966615
7.26975,598782
7.27787,411519
7.28600,318654
7.29412,245136
7.30223,188762
7.31037,151822
7.31848,134541
7.32662,135745
7.33473,122609
7.34285,115601
7.35098,110179
7.35910,112221
7.36722,108788
7.37535,105866
7.38347,106557
7.39160,105965
7.39972,104062
7.40783,99881
7.41597,95829
7.42408,93355
7.43222,92708
7.44033,95158
7.44845,100613
7.45658,102772
7.46470,103291
7.47282,92591
7.48095,90092
7.48907,84854
7.49720,96333
7.50532,124765
7.51343,213499
7.52157,389838
7.52968,680497
7.53782,1091287
7.54593,1466221
7.55405,1678095
7.56218,1563369
7.57030,1271559
7.57843,897819
7.58655,599656
7.59467,392649
7.60280,277593
7.61092,211625
7.61903,180263
7.62717,154637
7.63528,137157
7.64342,126181
7.65153,118323
7.65965,106371
7.66778,104511
7.67590,93371
7.68403,95585
7.69215,100435
7.70027,97459
7.70840,90759
7.71652,95843
7.72465,91648
7.73277,82851
7.74088,81226
7.74902,88827
7.75713,86162
7.76525,96382
7.77338,96255
7.78150,106956
7.78963,114385
7.79775,128135
7.80587,139103
7.81400,135561
7.82212,128653
7.83025,110656
7.83837,112882
7.84648,112171
7.85462,120136
7.86273,129762
7.87085,151338
7.87898,167972
7.88710,170354
7.89523,158274
7.90335,139013
7.91147,114712
7.91960,123693
7.92772,135768
7.93585,158763
7.94397,185337
7.95208,177453
7.96022,160003
7.96833,134458
7.97647,111809
7.98458,101119
7.99270,87914
8.00083,83197
8.00895,77337
8.01707,76678
8.02520,78624
8.03332,77816
8.04145,79635
8.04957,82640
8.05768,80349
8.06582,77795
8.07393,76034
8.08207,74059
8.09018,67686
8.09830,68463
8.10643,68278
8.11455,70942
8.12267,78570
8.13080,96979
8.13892,113326
8.14705,129893
8.15517,128481
8.16328,118679
8.17142,100238
8.17953,91109
8.18767,84218
8.19578,75947
8.20390,76976
8.21203,84032
8.22015,82419
8.22828,81547
8.23640,85196
8.24452,79057
8.25265,70481
8.26077,67728
8.26888,63253
8.27702,69222
8.28513,63924
8.29327,71860
8.30138,70956
8.30950,74317
8.31763,80496
8.32575,78365
8.33388,73557
8.34200,71409
8.35012,64971
8.35825,63574
8.36637,66404
8.37450,67351
8.38262,64989
8.39073,68952
8.39887,66563
8.40698,60744
8.41510,61244
8.42323,58805
8.43135,58146
8.43948,57383
8.44760,57787
8.45572,56263
8.46385,57285
8.47197,59616
8.48010,59672
8.48822,52952
8.49633,61464
8.50447,57887
8.51258,59859
8.52070,74610
8.52883,105889
8.53695,173643
8.54508,244444
8.55320,294894
8.56132,273680
8.56945,201360
8.57757,148116
8.58570,108198
8.59382,88780
8.60193,90026
8.61007,89196
8.61818,79000
8.62632,73323
8.63443,66807
8.64255,67229
8.65068,66405
8.65880,66074
8.66692,67592
8.67505,74797
8.68317,70480
8.69130,75813
8.69942,82564
8.70753,72699
8.71567,73689
8.72378,74145
8.73192,82436
8.74003,137067
8.74815,286045
8.75628,566123
8.76440,932696
8.77253,1189078
8.78065,1219390
8.78877,992086
8.79690,686268
8.80502,448564
8.81313,305388
8.82127,233443
8.82938,207546
8.83752,220730
8.84563,219686
8.85375,211023
8.86188,204304
8.87000,192059
8.87813,183398
8.88625,175745
8.89437,161947
8.90250,162449
8.91062,153204
8.91873,153461
8.92687,157947
8.93498,172779
8.94312,181356
8.95123,190598
8.95935,188597
8.96748,179027
8.97560,171229
8.98373,168499
8.99185,167338
8.99997,155589
9.00810,140453
9.01622,135254
9.02435,125852
9.03247,123418
9.04058,120714
9.04872,116277
9.05683,114006
9.06495,109675
9.07308,115405
9.08120,114763
9.08933,134600
9.09745,157455
9.10557,191646
9.11370,200357
9.12182,211278
9.12995,188843
9.13807,162901
9.14618,139029
9.15432,128090
9.16243,117281
9.17057,114925
9.17868,106093
9.18680,102835
9.19493,98740
9.20305,96699
9.21117,96142
9.21930,93229
9.22742,98099
9.23555,102447
9.24367,90983
9.25178,97980
9.25992,96111
9.26803,92683
9.27617,90771
9.28428,91542
9.29240,88852
9.30053,90349
9.30865,91410
9.31677,93378
9.32490,98516
9.33302,99613
9.34115,102464
9.34927,97683
9.35738,98596
9.36552,95882
9.37363,89798
9.38177,91227
9.38988,94901
9.39800,111765
9.40613,134775
9.41425,182184
9.42238,234897
9.43050,276917
9.43862,285704
9.44675,275244
9.45487,219541
9.46298,175276
9.47112,131078
9.47923,117689
9.48737,102208
9.49548,97849
9.50360,109268
9.51173,126372
9.51985,129043
9.52798,139471
9.53610,130963
9.54422,113980
9.55235,96890
9.56047,85392
9.56858,79168
9.57672,79337
9.58483,82037
9.59297,77840
9.60108,72353
9.60920,64371
9.61733,60415
9.62545,62395
9.63358,58084
9.64170,54422
9.64982,53115
9.65795,59069
9.66607,53094
9.67420,54167
9.68232,55403
9.69043,54752
9.69857,51388
9.70668,52264
9.71480,49946
9.72293,49652
9.73105,49014
9.73918,47276
9.74730,41559
9.75542,42319
9.76355,45002
9.77167,43775
9.77980,43844
9.78792,50186
9.79603,47808
9.80417,43776
9.81228,44420
9.82042,46509
9.82853,44883
9.83665,40275
9.84478,45746
9.85290,45716
9.86102,48802
9.86915,50549
9.87727,51599
9.88540,52326
9.89352,49668
9.90163,50501
9.90977,48060
9.91788,53239
9.92602,64272
9.93413,84088
9.94225,100056
9.95038,112640
9.95850,112352
9.96662,108276
9.97475,91596
9.98287,80442
9.99100,73050
9.99912,72445
10.00723,65475
10.01537,56171
10.02348,58706
10.03162,50373
10.03973,52051
10.04785,45241
10.05598,49626
10.06410,51757
10.07223,51865
10.08035,51442
10.08847,53965
10.09660,55469
10.10472,53483
10.11283,54758
10.12097,51120
10.12908,51908
10.13722,51004
10.14533,54382
10.15345,50814
10.16158,44330
10.16970,51745
10.17783,48663
10.18595,50729
10.19407,49774
10.20220,45936
10.21032,50338
10.21845,56747
10.22657,62734
10.23468,69119
10.24282,77899
10.25093,91039
10.25905,139165
10.26718,300044
10.27530,675807
10.28343,1347861
10.29155,2184399
10.29967,3102346
10.30780,4361205
10.31592,6166199
10.32405,8526214
10.33217,1.045152E+07
10.34028,1.057406E+07
10.34842,8968017
10.35653,6609271
10.36465,4806666
10.37278,3619974
10.38090,2645202
10.38903,1830210
10.39715,1160330
10.40527,746904
10.41340,523802
10.42152,423259
10.42965,374748
10.43777,374763
10.44588,397124
10.45402,388830
10.46213,394283
10.47027,364664
10.47838,340230
10.48650,307289
10.49463,278278
10.50275,257259
10.51087,231535
10.51900,223104
10.52712,203161
10.53525,201630
10.54337,192526
10.55148,188441
10.55962,183374
10.56773,184917
10.57587,181135
10.58398,165627
10.59210,159742
10.60023,153115
10.60835,144507
10.61647,138230
10.62460,131485
10.63272,127654
10.64085,126376
10.64897,127646
10.65708,116740
10.66522,111007
10.67333,107013
10.68147,110227
10.68958,112701
10.69770,117326
10.70583,110883
10.71395,111097
10.72208,111982
10.73020,113772
10.73832,110006
10.74645,102216
10.75457,98923
10.76268,97712
10.77082,96979
10.77893,92240
10.78707,97297
10.79518,96203
10.80330,109812
10.81143,113305
10.81955,107471
10.82768,101261
10.83580,91122
10.84392,84369
10.85205,78536
10.86017,69619
10.86830,78376
10.87642,73974
10.88453,74183
10.89267,72300
10.90078,76422
10.90890,75855
10.91703,73149
10.92515,70417
10.93328,65932
10.94140,66827
10.94952,64053
10.95765,66256
10.96577,64701
10.97390,66919
10.98202,74480
10.99013,81468
10.99827,80725
11.00638,85215
11.01452,83721
11.02263,73483
11.03075,69824
11.03888,64433
11.04700,66769
11.05512,68222
11.06325,72817
11.07137,79104
11.07950,83422
11.08762,88799
11.09573,90055
11.10387,87751
11.11198,81633
11.12012,69272
11.12823,62849
11.13635,61646
11.14448,59980
11.15260,60633
11.16072,62187
11.16885,66173
11.17697,66406
11.18510,68012
11.19322,62237
11.20133,61417
11.20947,58306
11.21758,56915
11.22572,52124
11.23383,49763
11.24195,48454
11.25008,47292
11.25820,50460
11.26633,51344
11.27445,51732
11.28257,69435
11.29070,97645
11.29882,209269
11.30693,442879
11.31507,940093
11.32318,1621126
11.33132,2390749
11.33943,2846601
11.34755,2841813
11.35568,2299801
11.36380,1615219
11.37193,1027835
11.38005,663661
11.38817,469787
11.39630,391623
11.40442,366764
11.41253,352301
11.42067,335316
11.42878,302748
11.43692,281898
11.44503,246680
11.45315,227046
11.46128,202695
11.46940,198165
11.47753,212248
11.48565,224488
11.49377,249011
11.50190,251725
11.51002,225578
11.51815,206528
11.52627,178285
11.53438,157883
11.54252,150140
11.55063,155965
11.55875,150153
11.56688,148965
11.57500,147467
11.58313,142467
11.59125,143492
11.59937,153637
11.60750,173254
11.61562,184858
11.62375,183658
11.63187,165220
11.63998,135323
11.64812,118553
11.65623,99836
11.66437,93203
11.67248,91979
11.68060,95838
11.68873,97989
11.69685,103435
11.70497,98774
11.71310,94593
11.72122,85886
11.72935,83198
11.73747,74900
11.74558,75001
11.75372,73681
11.76183,68823
11.76997,65794
11.77808,60650
11.78620,62445
11.79433,67456
11.80245,64864
11.81057,63609
11.81870,64649
11.82682,63283
11.83495,63403
11.84307,68706
11.85118,68554
11.85932,68655
11.86743,66243
11.87557,65141
11.88368,59018
11.89180,54002
11.89993,53154
11.90805,53268
11.91618,60454
11.92430,61874
11.93242,60508
11.94055,61474
11.94867,62797
11.95678,59945
11.96492,51634
11.97303,55168
11.98117,68770
11.98928,90158
11.99740,119848
12.00553,144313
12.01365,143370
12.02178,139420
12.02990,115975
12.03802,90408
12.04615,84969
12.05427,71899
12.06240,79693
12.07052,85263
12.07863,91549
12.08677,94819
12.09488,97435
12.10300,105457
12.11113,110222
12.11925,129316
12.12738,137497
12.13550,141733
12.14362,129239
12.15175,106538
12.15987,90448
12.16800,69704
12.17612,62739
12.18423,62755
12.19237,62485
12.20048,61411
12.20860,61680
12.21673,58203
12.22485,57039
12.23298,62995
12.24110,61326
12.24922,56227
12.25735,58534
12.26547,57408
12.27360,59817
12.28172,53876
12.28983,53878
12.29797,47412
12.30608,48528
12.31422,49339
12.32233,48552
12.33045,49545
12.33858,47145
12.34670,43627
12.35482,49019
12.36295,49231
12.37107,48615
12.37920,51202
12.38732,52091
12.39543,60972
12.40357,75455
12.41168,98805
12.41982,109728
12.42793,107425
12.43605,109124
12.44418,98096
12.45230,89197
12.46042,79069
12.46855,70575
12.47667,71995
12.48480,65536
12.49292,62681
12.50103,60909
12.50917,58393
12.51728,55751
12.52542,61591
12.53353,73166
12.54165,94743
12.54978,114159
12.55790,141393
12.56603,156044
12.57415,162419
12.58227,135864
12.59040,108404
12.59852,97593
12.60663,85295
12.61477,80976
12.62288,74583
12.63102,67654
12.63913,63204
12.64725,63786
12.65538,62648
12.66350,59492
12.67163,55407
12.67975,56058
12.68787,58537
12.69600,57100
12.70412,57227
12.71225,57368
12.72037,59007
12.72848,59260
12.73662,58501
12.74473,60485
12.75285,57050
12.76098,54163
12.76910,52630
12.77723,56157
12.78535,48287
12.79347,48237
12.80160,48079
12.80972,47849
12.81785,50241
12.82597,45224
12.83408,47703
12.84222,47486
12.85033,50540
12.85845,51499
12.86658,47633
12.87470,48555
12.88283,44016
12.89095,44622
12.89907,44633
12.90720,41633
12.91532,44196
12.92345,41958
12.93157,42558
12.93968,44037
12.94782,46107
12.95593,52456
12.96407,63442
12.97218,74761
12.98030,89613
12.98843,83257
12.99655,81539
13.00467,71811
13.01280,69578
13.02092,61658
13.02905,55683
13.03717,56694
13.04528,56131
13.05342,52850
13.06153,50469
13.06967,50039
13.07778,52552
13.08590,51614
13.09403,50733
13.10215,50486
13.11028,53454
13.11840,47007
13.12652,45580
13.13465,47872
13.14277,46274
13.15088,47348
13.15902,52904
13.16713,52814
13.17527,54215
13.18338,57653
13.19150,63539
13.19963,57120
13.20775,65660
13.21588,62473
13.22400,63398
13.23212,66017
13.24025,61772
13.24837,55071
13.25648,54622
13.26462,52194
13.27273,51990
13.28087,50957
13.28898,46398
13.29710,46356
13.30523,46513
13.31335,47127
13.32148,45370
13.32960,46049
13.33772,46248
13.34585,42964
13.35397,42449
13.36210,43432
13.37022,44096
13.37833,43311
13.38647,44415
13.39458,41985
13.40270,42531
13.41083,42998
13.41895,44954
13.42708,42974
13.43520,46772
13.44332,46698
13.45145,47660
13.45957,52121
13.46770,53769
13.47582,50916
13.48393,51461
13.49207,47738
13.50018,45678
13.50832,47425
13.51643,49180
13.52455,53087
13.53268,47074
13.54080,46299
13.54892,42840
13.55705,50581
13.56517,52041
13.57330,52602
13.58142,60784
13.58953,69994
13.59767,92302
13.60578,124710
13.61392,159905
13.62203,182246
13.63015,174442
13.63828,143262
13.64640,108672
13.65452,86586
13.66265,68531
13.67077,61472
13.67890,58301
13.68702,54708
13.69513,52792
13.70327,54039
13.71138,55957
13.71952,57198
13.72763,70482
13.73575,107951
13.74388,221778
13.75200,445303
13.76013,815881
13.76825,1226341
13.77637,1498724
13.78450,1480750
13.79262,1278388
13.80073,1058588
13.80887,847257
13.81698,829636
13.82512,881591
13.83323,918963
13.84135,860870
13.84948,744052
13.85760,609573
13.86573,464066
13.87385,365435
13.88197,297010
13.89010,253499
13.89822,217571
13.90633,193469
13.91447,182643
13.92258,167627
13.93072,153998
13.93883,145091
13.94695,135137
13.95508,135008
13.96320,136100
13.97133,135580
13.97945,134203
13.98757,134311
13.99570,125641
14.00382,124965
14.01195,114234
14.02007,113239
14.02818,112503
14.03632,103747
14.04443,103231
14.05255,100486
14.06068,98548
14.06880,97179
14.07693,103719
14.08505,96530
14.09317,95390
14.10130,92324
14.10942,94013
14.11755,94526
14.12567,91665
14.13378,93760
14.14192,96294
14.15003,105106
14.15817,115164
14.16628,143809
14.17440,189696
14.18253,247439
14.19065,305174
14.19877,331186
14.20690,320459
14.21502,275824
14.22315,254110
14.23127,215437
14.23938,210499
14.24752,197169
14.25563,190933
14.26377,175166
14.27188,160809
14.28000,141930
14.28813,125539
14.29625,112170
14.30437,110022
14.31250,109035
14.32062,99379
14.32875,93193
14.33687,88362
14.34498,83362
14.35312,71860
14.36123,63144
14.36937,64276
14.37748,66700
14.38560,84963
14.39373,138910
14.40185,237697
14.40998,360690
14.41810,474195
14.42622,479311
14.43435,418629
14.44247,304942
14.45058,212963
14.45872,152705
14.46683,129420
14.47497,119731
14.48308,111447
14.49120,98552
14.49933,94798
14.50745,94324
14.51558,85960
14.52370,86105
14.53182,84808
14.53995,78358
14.54807,81804
14.55620,67527
14.56432,70351
14.57243,65055
14.58057,64497
14.58868,59352
14.59680,54850
14.60493,57827
14.61305,54602
14.62118,54495
14.62930,55871
14.63742,52114
14.64555,57069
14.65367,53152
14.66180,50578
14.66992,50244
14.67803,52303
14.68617,54947
14.69428,56742
14.70240,51591
14.71053,52465
14.71865,56199
14.72678,55882
14.73490,58445
14.74302,60333
14.75115,62032
14.75927,59424
14.76740,58395
14.77552,68748
14.78363,91155
14.79177,202236
14.79988,483129
14.80802,1078021
14.81613,1973215
14.82425,2899844
14.83238,3333276
14.84050,3118724
14.84862,2362753
14.85675,1516002
14.86487,928074
14.87300,585351
14.88112,415435
14.88923,314904
14.89737,274215
14.90548,236940
14.91362,213236
14.92173,195107
14.92985,184560
14.93798,167487
14.94610,150502
14.95422,145671
14.96235,138665
14.97047,126458
14.97860,122397
14.98672,120099
14.99483,116805
15.00297,116320
15.01108,114452
15.01922,110510
15.02733,107759
15.03545,107351
15.04358,100358
15.05170,97791
15.05983,93443
15.06795,86884
15.07607,84305
15.08420,83538
15.09232,76249
15.10043,78923
15.10857,74065
15.11668,78747
15.12482,79429
15.13293,87483
15.14105,93306
15.14918,93202
15.15730,84674
15.16543,78082
15.17355,71940
15.18167,63087
15.18980,63691
15.19792,58536
15.20605,58477
15.21417,57966
15.22228,54771
15.23042,54269
15.23853,53264
15.24665,52163
15.25478,53430
15.26290,50692
15.27103,51489
15.27915,49230
15.28727,49679
15.29540,48609
15.30352,49425
15.31165,46404
15.31977,42051
15.32788,44121
15.33602,44512
15.34413,47235
15.35225,43212
15.36038,44565
15.36850,44183
15.37663,43719
15.38475,44080
15.39287,45712
15.40100,42715
15.40912,45094
15.41725,48278
15.42537,47762
15.43348,45560
15.44162,49642
15.44973,56523
15.45787,81963
15.46598,121583
15.47410,191929
15.48223,301965
15.49035,429554
15.49847,519190
15.50660,532319
15.51472,463358
15.52285,384351
15.53097,323063
15.53908,254713
15.54722,209422
15.55533,176576
15.56347,141379
15.57158,124457
15.57970,106456
15.58783,90280
15.59595,89561
15.60408,75394
15.61220,78785
15.62032,72981
15.62845,70237
15.63657,68436
15.64468,64618
15.65282,60416
15.66093,61815
15.66907,58930
15.67718,55923
15.68530,54116
15.69343,52417
15.70155,52962
15.70968,51734
15.71780,49001
15.72592,51423
15.73405,56090
15.74217,60502
15.75028,71180
15.75842,104228
15.76653,158048
15.77467,233245
15.78278,301577
15.79090,323952
15.79903,293879
15.80715,222656
15.81528,166828
15.82340,127250
15.83152,101648
15.83965,88476
15.84777,81075
15.85590,76296
15.86402,70112
15.87213,70460
15.88027,65091
15.88838,64577
15.89650,66590
15.90463,63294
15.91275,58009
15.92088,59195
15.92900,59494
15.93712,57464
15.94525,74524
15.95337,78133
15.96150,86531
15.96962,100097
15.97773,107328
15.98587,110112
15.99398,100624
16.00210,90354
16.01023,86006
16.01835,87824
16.02648,90552
16.03460,82575
16.04272,74651
16.05085,70474
16.05897,64628
16.06710,62002
16.07522,60532
16.08333,61190
16.09147,55213
16.09958,58029
16.10772,59900
16.11583,62668
16.12395,63360
16.13208,68354
16.14020,75092
16.14832,74501
16.15645,81981
16.16457,71426
16.17270,66362
16.18082,63416
16.18893,59631
16.19707,60178
16.20518,57399
16.21332,55485
16.22143,54800
16.22955,54223
16.23768,54079
16.24580,49363
16.25393,53946
16.26205,50931
16.27017,54307
16.27830,58768
16.28642,70190
16.29453,71100
16.30267,75083
16.31078,66705
16.31892,68486
16.32703,61557
16.33515,59912
16.34328,59344
16.35140,61590
16.35953,73802
16.36765,80457
16.37577,87997
16.38390,86759
16.39202,76227
16.40015,64418
16.40827,61993
16.41638,55225
16.42452,54483
16.43263,56656
16.44075,78581
16.44888,107759
16.45700,180406
16.46513,284570
16.47325,384969
16.48137,451335
16.48950,429800
16.49762,347488
16.50575,241944
16.51387,170660
16.52198,124041
16.53012,103068
16.53823,89134
16.54635,74333
16.55448,77428
16.56260,77459
16.57073,71421
16.57885,73750
16.58697,82473
16.59510,86806
16.60322,96623
16.61135,107645
16.61947,103443
16.62758,100751
16.63572,82526
16.64383,79429
16.65197,71469
16.66008,71432
16.66820,63259
16.67633,61271
16.68445,63752
16.69257,58809
16.70070,58021
16.70882,57106
16.71695,56505
16.72507,57236
16.73318,51016
16.74132,56063
16.74943,51678
16.75757,56903
16.76568,59325
16.77380,53402
16.78193,59609
16.79005,52965
16.79817,48660
16.80630,48147
16.81442,52096
16.82255,45607
16.83067,44452
16.83878,48681
16.84692,44242
16.85503,45941
16.86317,46460
16.87128,42305
16.87940,45218
16.88753,42496
16.89565,41369
16.90378,46679
16.91190,45108
16.92002,42948
16.92815,42674
16.93627,45398
16.94438,43112
16.95252,41643
16.96063,43456
16.96877,43784
16.97688,43277
16.98500,48986
16.99313,46719
17.00125,47553
17.00938,48108
17.01750,48940
17.02562,47658
17.03375,51762
17.04187,58308
17.05000,61989
17.05812,58698
17.06623,56013
17.07437,56296
17.08248,53549
17.09060,54582
17.09873,50838
17.10685,51000
17.11498,54919
17.12310,62884
17.13122,60616
17.13935,57682
17.14747,57286
17.15560,61041
17.16372,55729
17.17183,54263
17.17997,52201
17.18808,52777
17.19620,52501
17.20433,49505
17.21245,47533
17.22058,45511
17.22870,44705
17.23682,50277
17.24495,47474
17.25307,48002
17.26120,48383
17.26932,47344
17.27743,46914
17.28557,45313
17.29368,41316
17.30182,40860
17.30993,47108
17.31805,56084
17.32618,66812
17.33430,69039
17.34242,72589
17.35055,76019
17.35867,74588
17.36680,71079
17.37492,72404
17.38303,67271
17.39117,66840
17.39928,67682
17.40742,71765
17.41553,73878
17.42365,74991
17.43178,70022
17.43990,67937
17.44803,68327
17.45615,61562
17.46427,58016
17.47240,51295
17.48052,53159
17.48863,48556
17.49677,48405
17.50488,54767
17.51302,49216
17.52113,45032
17.52925,50164
17.53738,47562
17.54550,56857
17.55363,71523
17.56175,109590
17.56987,181731
17.57800,332969
17.58612,550493
17.59423,839419
17.60237,1071153
17.61048,1105524
17.61862,988575
17.62673,769862
17.63485,548675
17.64298,381519
17.65110,281139
17.65923,228206
17.66735,190175
17.67547,163820
17.68360,152059
17.69172,129760
17.69985,122747
17.70797,118896
17.71608,116980
17.72422,99611
17.73233,99733
17.74045,92930
17.74858,94371
17.75670,87188
17.76483,89003
17.77295,83349
17.78107,75452
17.78920,75775
17.79732,82771
17.80545,103377
17.81357,117784
17.82168,128752
17.82982,142466
17.83793,142297
17.84605,130935
17.85418,127457
17.86230,124339
17.87043,112956
17.87855,106940
17.88667,94629
17.89480,80166
17.90292,71153
17.91105,64123
17.91917,64141
17.92728,63211
17.93542,60116
17.94353,58746
17.95167,58052
17.95978,54684
17.96790,55684
17.97603,51882
17.98415,53147
17.99227,53783
18.00040,55742
18.00852,66758
18.01665,75763
18.02477,86559
18.03288,103316
18.04102,123774
18.04913,163368
18.05727,290659
18.06538,579997
18.07350,1072968
18.08163,1632967
18.08975,2068194
18.09788,2135903
18.10600,1832198
18.11412,1406176
18.12225,958830
18.13037,685251
18.13848,534192
18.14662,428682
18.15473,373934
18.16287,332851
18.17098,295137
18.17910,265468
18.18723,238456
18.19535,216530
18.20348,205180
18.21160,196677
18.21972,179975
18.22785,170779
18.23597,158644
18.24408,153548
18.25222,140797
18.26033,133798
18.26847,118316
18.27658,103109
18.28470,92623
18.29283,80107
18.30095,67996
18.30908,66164
18.31720,58136
18.32532,56566
18.33345,56971
18.34157,56469
18.34970,58177
18.35782,57134
18.36593,54820
18.37407,58366
18.38218,57514
18.39030,58649
18.39843,64502
18.40655,68624
18.41468,78669
18.42280,94081
18.43092,114281
18.43905,145057
18.44717,168762
18.45530,217134
18.46342,262110
18.47153,313844
18.47967,339756
18.48778,333604
18.49592,301389
18.50403,250161
18.51215,188805
18.52028,151379
18.52840,121838
18.53652,103136
18.54465,90477
18.55277,86136
18.56090,81852
18.56902,84937
18.57713,96296
18.58527,129957
18.59338,162357
18.60152,185169
18.60963,208501
18.61775,220488
18.62588,236073
18.63400,231758
18.64212,233599
18.65025,218000
18.65837,223653
18.66650,213989
18.67462,206312
18.68273,199738
18.69087,202643
18.69898,201066
18.70712,194196
18.71523,196890
18.72335,192945
18.73148,192584
18.73960,193586
18.74773,192746
18.75585,193113
18.76397,186903
18.77210,185726
18.78022,182377
18.78833,177028
18.79647,183757
18.80458,187712
18.81272,181500
18.82083,178677
18.82895,175271
18.83708,175614
18.84520,172506
18.85333,175295
18.86145,176519
18.86957,184497
18.87770,181800
18.88582,177433
18.89395,180497
18.90207,176718
18.91018,174213
18.91832,178292
18.92643,172657
18.93455,177155
18.94268,178480
18.95080,174274
18.95893,176843
18.96705,182021
18.97517,171178
18.98330,171476
18.99142,162316
18.99955,164909
19.00767,161499
19.01578,166736
19.02392,163855
19.03203,151259
19.04015,150352
19.04828,164175
19.05640,165999
19.06453,178617
19.07265,229062
19.08077,313164
19.08890,402121
19.09702,484123
19.10515,529249
19.11327,513328
19.12138,440735
19.12952,350550
19.13763,275273
19.14577,234280
19.15388,205705
19.16200,184191
19.17013,173768
19.17825,162344
19.18637,155065
19.19450,156484
19.20262,148571
19.21075,142890
19.21887,150701
19.22698,138731
19.23512,138864
19.24323,135277
19.25137,131636
19.25948,140040
19.26760,139618
19.27573,139108
19.28385,149093
19.29197,159967
19.30010,166469
19.30822,161378
19.31635,160900
19.32447,161561
19.33258,167895
19.34072,171028
19.34883,186330
19.35697,210834
19.36508,237965
19.37320,247282
19.38133,247091
19.38945,232179
19.39758,207817
19.40570,188808
19.41382,170292
19.42195,163261
19.43007,161440
19.43818,157983
19.44632,159113
19.45443,165878
19.46257,174493
19.47068,191975
19.47880,241982
19.48693,279751
19.49505,327585
19.50318,332973
19.51130,308903
19.51942,263152
19.52755,223939
19.53567,187379
19.54380,166636
19.55192,152663
19.56003,143549
19.56817,140225
19.57628,133282
19.58440,117758
19.59253,114548
19.60065,114044
19.60878,109950
19.61690,110187
19.62502,120113
19.63315,134041
19.64127,171943
19.64940,216023
19.65752,283331
19.66563,327040
19.67377,369553
19.68188,371465
19.69000,350340
19.69813,310236
19.70625,271870
19.71438,236355
19.72250,212103
19.73062,178696
19.73875,167304
19.74687,158253
19.75500,148142
19.76312,150857
19.77123,168377
19.77937,191138
19.78748,223597
19.79562,248718
19.80373,247861
19.81185,234550
19.81998,207005
19.82810,185097
19.83622,171727
19.84435,207669
19.85247,386044
19.86060,873805
19.86872,1934836
19.87683,3778414
19.88497,6008626
19.89308,8030001
19.90122,9037543
19.90933,8476495
19.91745,6826731
19.92558,4662529
19.93370,3104459
19.94183,2048634
19.94995,1498121
19.95807,1186685
19.96620,1003559
19.97432,890748
19.98243,845533
19.99057,762278
19.99868,728052
20.00682,679562
20.01493,631711
20.02305,583467
20.03118,534443
20.03930,504146
20.04743,448343
20.05555,422581
20.06367,399227
20.07180,403019
20.07992,412823
20.08803,405982
20.09617,380633
20.10428,334142
20.11242,290439
20.12053,261741
20.12865,236742
20.13678,225808
20.14490,259716
20.15303,328554
20.16115,439922
20.16927,607702
20.17740,800816
20.18552,945304
20.19365,1064044
20.20177,1043006
20.20988,952753
20.21802,797162
20.22613,680301
20.23425,603836
20.24238,572392
20.25050,626026
20.25863,690427
20.26675,795400
20.27487,825474
20.28300,803265
20.29112,737156
20.29925,605478
20.30737,493706
20.31548,402653
20.32362,307681
20.33173,245358
20.33985,199612
20.34798,170016
20.35610,148895
20.36423,134855
20.37235,119409
20.38047,116678
20.38860,112735
20.39672,105080
20.40485,100955
20.41297,106309
20.42108,111277
20.42922,119307
20.43733,120194
20.44547,121127
20.45358,118069
20.46170,112439
20.46983,102773
20.47795,99341
20.48607,95629
20.49420,93024
20.50232,86150
20.51045,83471
20.51857,84398
20.52668,84378
20.53482,86304
20.54293,88271
20.55107,80654
20.55918,81323
20.56730,79266
20.57543,78085
20.58355,81145
20.59168,76589
20.59980,76464
20.60792,79173
20.61605,77998
20.62417,80670
20.63228,81976
20.64042,91092
20.64853,96682
20.65667,97575
20.66478,91364
20.67290,88047
20.68103,82488
20.68915,78067
20.69728,77871
20.70540,70530
20.71352,71032
20.72165,69926
20.72977,68190
20.73788,72789
20.74602,81758
20.75413,80987
20.76227,90675
20.77038,110451
20.77850,142160
20.78663,217159
20.79475,356973
20.80288,548930
20.81100,737649
20.81912,795457
20.82725,739862
20.83537,593940
20.84350,415358
20.85162,282084
20.85973,196612
20.86787,146720
20.87598,121097
20.88410,112192
20.89223,109769
20.90035,116176
20.90848,114943
20.91660,121018
20.92472,120341
20.93285,127353
20.94097,125364
20.94910,124342
20.95722,115906
20.96533,109179
20.97347,96927
20.98158,94824
20.98972,84177
20.99783,87320
21.00595,80448
21.01408,85980
21.02220,88854
21.03032,87748
21.03845,86958
21.04657,79368
21.05470,80372
21.06282,78633
21.07093,75082
21.07907,77161
21.08718,71723
21.09532,72002
21.10343,71090
21.11155,71286
21.11968,77706
21.12780,89104
21.13592,112274
21.14405,144770
21.15217,170289
21.16030,185872
21.16842,192002
21.17653,170252
21.18467,147641
21.19278,122630
21.20092,100939
21.20903,91036
21.21715,85033
21.22528,86160
21.23340,78955
21.24153,80462
21.24965,75788
21.25777,73072
21.26590,73004
21.27402,70955
21.28213,75068
21.29027,67713
21.29838,74299
21.30652,62913
21.31463,64128
21.32275,61736
21.33088,58700
21.33900,62076
21.34713,62253
21.35525,61648
21.36337,60938
21.37150,65004
21.37962,71840
21.38773,83946
21.39587,93184
21.40398,103590
21.41212,102040
21.42023,105962
21.42835,91554
21.43648,87964
21.44460,79228
21.45273,70698
21.46085,72005
21.46897,71942
21.47710,68697
21.48522,67758
21.49335,67142
21.50147,66708
21.50958,69843
21.51772,64626
21.52583,65722
21.53395,64592
21.54208,66122
21.55020,63452
21.55833,66774
21.56645,68944
21.57457,72999
21.58270,79711
21.59082,87880
21.59895,93440
21.60707,98760
21.61518,96378
21.62332,98883
21.63143,101914
21.63957,99762
21.64768,109387
21.65580,109401
21.66393,109881
21.67205,115137
21.68017,115582
21.68830,115659
21.69642,104972
21.70455,97449
21.71267,90045
21.72078,76705
21.72892,74440
21.73703,74989
21.74517,75935
21.75328,68944
21.76140,71685
21.76953,79669
21.77765,73317
21.78578,74389
21.79390,71205
21.80202,79202
21.81015,80981
21.81827,90046
21.82638,91471
21.83452,95015
21.84263,89432
21.85077,81229
21.85888,86698
21.86700,79896
21.87513,76214
21.88325,74630
21.89138,71995
21.89950,63533
21.90762,70176
21.91575,68521
21.92387,66295
21.93198,62182
21.94012,58082
21.94823,58488
21.95637,56256
21.96448,54001
21.97260,58018
21.98073,54166
21.98885,56743
21.99698,55921
22.00510,58823
22.01322,58061
22.02135,62567
22.02947,61860
22.03760,66948
22.04572,73958
22.05383,82379
22.06197,82808
22.07008,80040
22.07820,82693
22.08633,84642
22.09445,86513
22.10258,85142
22.11070,85211
22.11882,87207
22.12695,90446
22.13507,91600
22.14320,85127
22.15132,89303
22.15943,89773
22.16757,84585
22.17568,82972
22.18380,85014
22.19193,90356
22.20005,85851
22.20818,92931
22.21630,92491
22.22442,94691
22.23255,85315
22.24067,84146
22.24880,79354
22.25692,78675
22.26503,77000
22.27317,81453
22.28128,86522
22.28942,88047
22.29753,88800
22.30565,85026
22.31378,84014
22.32190,80146
22.33002,82051
22.33815,79788
22.34627,73398
22.35440,68420
22.36252,67862
22.37063,67293
22.37877,74377
22.38688,92683
22.39502,125204
22.40313,159910
22.41125,199658
22.41938,212088
22.42750,214191
22.43563,184716
22.44375,153217
22.45187,123420
22.46000,107845
22.46812,102822
22.47623,108565
22.48437,122904
22.49248,138118
22.50062,151000
22.50873,162639
22.51685,146457
22.52498,135249
22.53310,127852
22.54123,113706
22.54935,112978
22.55747,130557
22.56560,129317
22.57372,131462
22.58183,133036
22.58997,138104
22.59808,133261
22.60622,134807
22.61433,140662
22.62245,145709
22.63058,140775
22.63870,146219
22.64683,149637
22.65495,153412
22.66307,149710
22.67120,152726
22.67932,159398
22.68745,162706
22.69557,177834
22.70368,183484
22.71182,188918
22.71993,184756
22.72805,187682
22.73618,173112
22.74430,164997
22.75243,168108
22.76055,155099
22.76867,157408
22.77680,157355
22.78492,174405
22.79305,186564
22.80117,202055
22.80928,202478
22.81742,203544
22.82553,186868
22.83367,180714
22.84178,164101
22.84990,161542
22.85803,169714
22.86615,186287
22.87427,208547
22.88240,232572
22.89052,259083
22.89865,283655
22.90677,300802
22.91488,322424
22.92302,321372
22.93113,308804
22.93927,277007
22.94738,240618
22.95550,198613
22.96363,174488
22.97175,158613
22.97987,151519
22.98800,138730
22.99612,133279
23.00425,127578
23.01237,124441
23.02048,122110
23.02862,121996
23.03673,117920
23.04487,122412
23.05298,121014
23.06110,127555
23.06923,127855
23.07735,124436
23.08548,126096
23.09360,119609
23.10172,115821
23.10985,111145
23.11797,110776
23.12608,107434
23.13422,98756
23.14233,105020
23.15047,99152
23.15858,99140
23.16670,99171
23.17483,99645
23.18295,93208
23.19108,94067
23.19920,95512
23.20732,91116
23.21545,94807
23.22357,89094
23.23168,94413
23.23982,101948
23.24793,103080
23.25607,108025
23.26418,112376
23.27230,108366
23.28043,105217
23.28855,96300
23.29668,99788
23.30480,95360
23.31292,96020
23.32105,109256
23.32917,109748
23.33730,135718
23.34542,159218
23.35353,195745
23.36167,222539
23.36978,231906
23.37790,239647
23.38603,225647
23.39415,210658
23.40228,200656
23.41040,180605
23.41852,172531
23.42665,171459
23.43477,163063
23.44290,150510
23.45102,149014
23.45913,141753
23.46727,143163
23.47538,137681
23.48352,128203
23.49163,125785
23.49975,123366
23.50788,120564
23.51600,121341
23.52412,135377
23.53225,141138
23.54037,159805
23.54850,193504
23.55662,214978
23.56473,250418
23.57287,282683
23.58098,325359
23.58912,367458
23.59723,398695
23.60535,404915
23.61348,366100
23.62160,323223
23.62972,252981
23.63785,218237
23.64597,197595
23.65410,187852
23.66222,181252
23.67033,178626
23.67847,163104
23.68658,144851
23.69472,135839
23.70283,117200
23.71095,108023
23.71908,107755
23.72720,106036
23.73533,136800
23.74345,229391
23.75157,496299
23.75970,1068008
23.76782,1951998
23.77593,3093013
23.78407,3794745
23.79218,4120895
23.80032,3852352
23.80843,3215860
23.81655,2443157
23.82468,1830596
23.83280,1347872
23.84093,1028703
23.84905,789251
23.85717,668179
23.86530,546213
23.87342,479460
23.88155,403744
23.88967,396662
23.89778,365977
23.90592,330720
23.91403,327104
23.92215,303281
23.93028,279295
23.93840,257068
23.94653,239413
23.95465,219255
23.96277,203056
23.97090,198006
23.97902,187588
23.98715,180821
23.99527,170549
24.00338,169745
24.01152,177417
24.01963,188403
24.02775,192649
24.03588,202643
24.04400,186910
24.05213,175563
24.06025,156790
24.06837,139110
24.07650,137630
24.08462,134448
24.09275,127897
24.10087,129047
24.10898,135689
24.11712,132346
24.12523,133210
24.13337,141705
24.14148,145799
24.14960,149779
24.15773,147683
24.16585,152844
24.17397,163270
24.18210,154960
24.19022,154642
24.19835,157131
24.20647,147423
24.21458,140569
24.22272,128485
24.23083,122539
24.23897,106438
24.24708,102986
24.25520,106854
24.26333,95089
24.27145,89926
24.27958,94979
24.28770,89760
24.29582,97808
24.30395,108026
24.31207,122364
24.32018,148032
24.32832,173457
24.33643,187547
24.34457,213791
24.35268,238690
24.36080,268656
24.36893,316157
24.37705,353061
24.38518,373956
24.39330,360906
24.40142,319162
24.40955,269754
24.41767,238028
24.42578,219428
24.43392,210666
24.44203,218933
24.45017,219314
24.45828,233068
24.46640,242476
24.47453,259278
24.48265,269995
24.49078,298177
24.49890,293098
24.50702,299965
24.51515,307663
24.52327,321158
24.53140,361164
24.53952,394189
24.54763,430274
24.55577,439042
24.56388,439870
24.57200,411798
24.58013,362279
24.58825,320770
24.59638,281495
24.60450,263296
24.61262,250363
24.62075,250384
24.62887,249669
24.63700,237005
24.64512,239087
24.65323,256399
24.66137,239067
24.66948,242820
24.67760,241081
24.68573,243304
24.69385,231890
24.70198,230668
24.71010,228963
24.71822,228910
24.72635,228160
24.73447,213208
24.74260,216894
24.75072,214737
24.75883,214724
24.76697,217002
24.77508,219456
24.78322,228484
24.79133,225126
24.79945,215425
24.80758,214829
24.81570,224840
24.82382,234096
24.83195,270225
24.84007,311752
24.84820,352194
24.85632,432421
24.86443,552141
24.87257,689850
24.88068,834432
24.88882,934745
24.89693,906976
24.90505,781742
24.91318,629351
24.92130,482501
24.92943,357953
24.93755,276113
24.94567,231081
24.95380,201751
24.96192,198547
24.97003,182822
24.97817,172480
24.98628,167750
24.99442,159531
25.00253,148427
25.01065,138527
25.01878,123687
25.02690,109717
25.03503,102650
25.04315,100192
25.05127,97170
25.05940,99274
25.06752,95298
25.07563,99023
25.08377,110097
25.09188,151633
25.10002,265926
25.10813,541845
25.11625,1127451
25.12438,2066982
25.13250,3152484
25.14063,4021633
25.14875,4206896
25.15687,3666895
25.16500,2742468
25.17312,1813065
25.18125,1080730
25.18937,642608
25.19748,389338
25.20562,273932
25.21373,203857
25.22185,173048
25.22998,172016
25.23810,199888
25.24623,255125
25.25435,324488
25.26247,367880
25.27060,399098
25.27872,391276
25.28685,347639
25.29497,296116
25.30308,226164
25.31122,178818
25.31933,136238
25.32747,121075
25.33558,106562
25.34370,98527
25.35183,94783
25.35995,94620
25.36807,85705
25.37620,83853
25.38432,82216
25.39245,81885
25.40057,83100
25.40868,84152
25.41682,92525
25.42493,115503
25.43307,142443
25.44118,181070
25.44930,216308
25.45743,244928
25.46555,254209
25.47367,262783
25.48180,271200
25.48992,271493
25.49805,276897
25.50617,272988
25.51428,277013
25.52242,274459
25.53053,279605
25.53867,277164
25.54678,280829
25.55490,275913
25.56303,275757
25.57115,276260
25.57928,273086
25.58740,272426
25.59552,280372
25.60365,270254
25.61177,267123
25.61988,260761
25.62802,261623
25.63613,257156
25.64427,254783
25.65238,256080
25.66050,253853
25.66863,253155
25.67675,258258
25.68488,259848
25.69300,265785
25.70112,256263
25.70925,247109
25.71737,245485
25.72548,238515
25.73362,230829
25.74173,240198
25.74987,221355
25.75798,229809
25.76610,221051
25.77423,230445
25.78235,233281
25.79048,215770
25.79860,220238
25.80672,217294
25.81485,218295
25.82297,220633
25.83110,217769
25.83922,228069
25.84733,227029
25.85547,212499
25.86358,220967
25.87170,204827
25.87983,202726
25.88795,196799
25.89608,195570
25.90420,192485
25.91232,186415
25.92045,182431
25.92857,182831
25.93670,181035
25.94482,180126
25.95293,180819
25.96107,185171
25.96918,173938
25.97732,167330
25.98543,162485
25.99355,165738
26.00168,163905
26.00980,156139
26.01792,157132
26.02605,161876
26.03417,159139
26.04230,147842
26.05042,152275
26.05853,159260
26.06667,154638
26.07478,159589
26.08292,153882
26.09103,162355
26.09915,154686
26.10728,152305
26.11540,144796
26.12352,146246
26.13165,145547
26.13977,148439
26.14790,149363
26.15602,158888
26.16413,152526
26.17227,147404
26.18038,143434
26.18852,139399
26.19663,136446
26.20475,131266
26.21288,129258
26.22100,129815
26.22913,135319
26.23725,130540
26.24537,126307
26.25350,119505
26.26162,121279
26.26973,119472
26.27787,118239
26.28598,117454
26.29412,117497
26.30223,113256
26.31035,114768
26.31848,109586
26.32660,107900
26.33473,113028
26.34285,114688
26.35097,122897
26.35910,159454
26.36722,182874
26.37535,237279
26.38347,293130
26.39158,331640
26.39972,349821
26.40783,346554
26.41595,314291
26.42408,253011
26.43220,200264
26.44033,162235
26.44845,135971
26.45657,124022
26.46470,112034
26.47282,110999
26.48095,107765
26.48907,104453
26.49718,107589
26.50532,99565
26.51343,94636
26.52155,89381
26.52968,90975
26.53780,90509
26.54593,90968
26.55405,86879
26.56217,88950
26.57030,85171
26.57842,84712
26.58655,84936
26.59467,79059
26.60278,82891
26.61092,83576
26.61903,82777
26.62717,77446
26.63528,80727
26.64340,83252
26.65153,85334
26.65965,87181
26.66777,86162
26.67590,82159
26.68402,81079
26.69215,79888
26.70027,79634
26.70838,83070
26.71652,80932
26.72463,82121
26.73277,77758
26.74088,79788
26.74900,75884
26.75713,81548
26.76525,81434
26.77337,84617
26.78150,87930
26.78962,91531
26.79775,87414
26.80587,95999
26.81398,93298
26.82212,83256
26.83023,85275
26.83837,89215
26.84648,76531
26.85460,77265
26.86273,76171
26.87085,75471
26.87898,78174
26.88710,75811
26.89522,73247
26.90335,73082
26.91147,77904
26.91958,72181
26.92772,76060
26.93583,76307
26.94397,74618
26.95208,83560
26.96020,97827
26.96833,136672
26.97645,205744
26.98458,322198
26.99270,489171
27.00082,711979
27.00895,992753
27.01707,1218133
27.02520,1367218
27.03332,1339408
27.04143,1203085
27.04957,1031413
27.05768,815823
27.06580,626979
27.07393,519685
27.08205,421935
27.09018,359394
27.09830,305365
27.10642,272293
27.11455,248578
27.12267,224518
27.13080,207316
27.13892,192745
27.14703,193628
27.15517,187642
27.16328,194913
27.17142,201342
27.17953,195873
27.18765,188826
27.19578,184952
27.20390,178770
27.21202,161418
27.22015,156282
27.22827,141463
27.23640,131634
27.24452,136640
27.25263,119331
27.26077,117660
27.26888,112111
27.27702,110519
27.28513,106992
27.29325,106368
27.30138,98124
27.30950,105375
27.31762,102024
27.32575,98068
27.33387,103155
27.34200,101459
27.35012,97482
27.35823,105367
27.36637,104533
27.37448,102877
27.38262,96302
27.39073,89530
27.39885,92809
27.40698,91442
27.41510,96359
27.42323,88814
27.43135,93341
27.43947,86695
27.44760,85018
27.45572,84895
27.46383,79414
27.47197,76331
27.48008,82040
27.48822,80499
27.49633,79661
27.50445,84364
27.51258,87386
27.52070,87475
27.52883,90519
27.53695,85002
27.54507,81647
27.55320,79500
27.56132,79734
27.56943,89590
27.57757,103747
27.58568,104730
27.59382,116909
27.60193,123822
27.61005,113289
27.61818,107991
27.62630,103163
27.63443,92600
27.64255,84912
27.65067,83967
27.65880,92894
27.66692,102766
27.67505,112909
27.68317,116341
27.69128,123685
27.69942,113748
27.70753,112409
27.71565,97762
27.72378,86184
27.73190,75298
27.74003,69860
27.74815,68209
27.75627,72973
27.76440,66775
27.77252,71597
27.78065,68580
27.78877,71521
27.79688,71345
27.80502,69011
27.81313,70718
27.82127,70143
27.82938,67784
27.83750,65808
27.84563,69048
27.85375,61733
27.86187,64821
27.87000,61097
27.87812,64199
27.88625,71243
27.89437,63694
27.90248,64783
27.91062,61501
27.91873,59346
27.92687,63146
27.93498,66293
27.94310,63201
27.95123,62939
27.95935,60496
27.96747,60651
27.97560,60819
27.98372,66718
27.99185,63693
27.99997,72758
28.00808,87824
28.01622,117638
28.02433,149511
28.03247,197760
28.04058,227325
28.04870,251739
28.05683,256744
28.06495,213305
28.07308,166455
28.08120,131095
28.08932,111077
28.09745,96203
28.10557,88792
28.11368,78850
28.12182,76289
28.12993,69788
28.13807,66280
28.14618,64017
28.15430,65276
28.16243,67474
28.17055,67976
28.17868,79366
28.18680,91929
28.19492,93120
28.20305,107160
28.21117,112057
28.21930,112749
28.22742,111736
28.23553,100751
28.24367,90266
28.25178,79691
28.25990,73571
28.26803,71671
28.27615,67822
28.28428,71292
28.29240,81803
28.30052,94504
28.30865,114916
28.31677,135766
28.32490,163251
28.33302,194745
28.34113,225548
28.34927,251849
28.35738,268849
28.36550,301076
28.37363,327267
28.38175,335129
28.38988,342803
28.39800,339008
28.40612,313922
28.41425,308828
28.42237,286360
28.43050,274876
28.43862,248531
28.44673,219567
28.45487,210982
28.46298,196544
28.47112,181622
28.47923,169844
28.48735,169230
28.49548,154453
28.50360,157170
28.51172,145534
28.51985,141967
28.52797,125441
28.53610,115290
28.54422,106750
28.55233,107214
28.56047,105037
28.56858,97635
28.57672,96225
28.58483,94739
28.59295,97125
28.60108,91678
28.60920,96660
28.61732,100408
28.62545,99760
28.63357,100531
28.64170,94926
28.64982,98202
28.65793,93436
28.66607,90669
28.67418,85082
28.68232,90992
28.69043,80729
28.69855,79391
28.70668,74745
28.71480,84117
28.72293,86700
28.73105,92128
28.73917,101828
28.74730,124581
28.75542,134216
28.76353,131805
28.77167,123414
28.77978,110666
28.78792,92307
28.79603,96524
28.80415,90966
28.81228,89961
28.82040,87449
28.82853,88861
28.83665,87653
28.84477,79714
28.85290,77609
28.86102,82316
28.86915,81026
28.87727,84646
28.88538,97711
28.89352,100446
28.90163,96272
28.90975,94779
28.91788,93488
28.92600,83537
28.93413,83664
28.94225,79044
28.95037,83453
28.95850,80642
28.96662,77823
28.97475,74967
28.98287,69082
28.99098,70637
28.99912,71461
29.00723,66727
29.01535,64678
29.02348,61148
29.03160,65379
29.03973,64341
29.04785,60520
29.05597,63176
29.06410,66691
29.07222,69160
29.08035,71185
29.08847,65358
29.09658,68864
29.10472,67958
29.11283,66848
29.12097,64792
29.12908,64157
29.13720,63540
29.14533,64991
29.15345,62972
29.16157,63710
29.16970,68107
29.17782,69904
29.18595,83753
29.19407,96630
29.20218,107250
29.21032,120669
29.21843,128614
29.22657,132226
29.23468,130899
29.24280,127971
29.25093,129268
29.25905,141066
29.26718,137129
29.27530,135102
29.28342,114198
29.29155,100118
29.29967,90527
29.30778,73712
29.31592,69869
29.32403,66927
29.33217,62324
29.34028,59948
29.34840,62954
29.35653,61890
29.36465,57157
29.37278,60890
29.38090,58325
29.38902,62152
29.39715,63808
29.40527,57157
29.41338,60872
29.42152,62832
29.42963,64492
29.43777,61684
29.44588,60101
29.45400,60179
29.46213,63874
29.47025,56677
29.47838,62436
29.48650,63375
29.49462,62363
29.50275,66843
29.51087,62469
29.51900,61599
29.52712,63905
29.53523,60905
29.54337,57283
29.55148,57077
29.55960,53130
29.56773,51948
29.57585,53159
29.58398,55642
29.59210,58136
29.60022,55211
29.60835,55800
29.61647,52032
29.62460,54109
29.63272,58473
29.64083,53735
29.64897,53872
29.65708,56479
29.66522,60999
29.67333,61785
29.68145,60166
29.68958,64740
29.69770,67063
29.70582,65237
29.71395,65977
29.72207,61263
29.73020,58135
29.73832,55862
29.74643,57748
29.75457,53644
29.76268,55060
29.77082,50711
29.77893,54568
29.78705,52597
29.79518,54277
29.80330,51219
29.81142,51212
29.81955,48913
29.82767,49719
29.83580,57140
29.84392,48601
29.85203,50656
29.86017,55417
29.86828,63163
29.87642,69188
29.88453,80311
29.89265,89891
29.90078,95689
29.90890,92036
29.91703,85757
29.92515,76495
29.93327,81087
29.94140,80699
29.94952,79352
29.95763,88717
29.96577,95878
29.97388,113565
29.98202,124330
29.99013,137825
29.99825,140860
30.00638,161426
30.01450,160231
30.02263,168344
30.03075,166698
30.03887,166138
30.04700,162250
30.05512,161184
30.06323,162028
30.07137,159457
30.07948,160848
30.08762,152036
30.09573,148298
30.10385,140094
30.11198,138450
30.12010,139067
30.12823,130355
30.13635,124113
30.14447,118937
30.15260,117521
30.16072,104187
30.16885,106470
30.17697,115533
30.18508,112611
30.19322,114377
30.20133,111185
30.20945,110481
30.21758,108173
30.22570,101693
30.23383,91641
30.24195,86365
30.25007,78113
30.25820,77990
30.26632,73681
30.27445,69963
30.28257,68502
30.29068,68756
30.29882,64428
30.30693,68111
30.31507,70542
30.32318,68819
30.33130,72799
30.33943,67802
30.34755,71013
30.35567,68201
30.36380,62147
30.37192,63501
30.38005,62540
30.38817,63861
30.39628,61289
30.40442,54359
30.41253,60085
30.42067,60353
30.42878,59835
30.43690,62022
30.44503,60926
30.45315,61488
30.46127,57500
30.46940,54400
30.47752,59118
30.48565,58677
30.49377,58170
30.50188,59132
30.51002,57836
30.51813,59623
30.52627,55704
30.53438,57503
30.54250,52989
30.55063,56141
30.55875,58538
30.56688,62086
30.57500,62439
30.58312,57488
30.59125,55812
30.59937,57673
30.60748,54273
30.61562,55264
30.62373,57640
30.63187,54381
30.63998,53012
30.64810,52109
30.65623,52589
30.66435,53219
30.67248,56005
30.68060,49266
30.68872,53456
30.69685,52311
30.70497,53684
30.71310,54602
30.72122,53325
30.72933,58287
30.73747,52847
30.74558,52447
30.75370,53974
30.76183,57853
30.76995,59680
30.77808,72271
30.78620,85766
30.79432,101297
30.80245,113380
30.81057,111094
30.81870,103909
30.82682,96303
30.83493,80125
30.84307,70732
30.85118,68291
30.85930,61114
30.86743,60100
30.87555,65968
30.88368,61242
30.89180,57136
30.89992,61175
30.90805,59413
30.91617,58663
30.92430,60790
30.93242,65137
30.94053,62386
30.94867,71423
30.95678,68757
30.96492,66379
30.97303,67963
30.98115,67362
30.98928,68793
30.99740,72822
31.00552,68265
31.01365,68798
31.02177,73343
31.02990,72495
31.03802,65959
31.04613,69076
31.05427,71863
31.06238,78206
31.07052,78859
31.07863,80427
31.08675,82027
31.09488,90635
31.10300,99005
31.11112,100710
31.11925,89263
31.12737,91212
31.13550,84619
31.14362,87641
31.15173,82546
31.15987,86797
31.16798,86927
31.17612,98089
31.18423,119751
31.19235,149318
31.20048,184329
31.20860,233781
31.21673,268935
31.22485,297004
31.23297,282614
31.24110,234931
31.24922,185474
31.25733,142773
31.26547,115854
31.27358,96796
31.28172,78682
31.28983,77334
31.29795,70157
31.30608,73942
31.31420,75521
31.32233,75401
31.33045,74047
31.33857,76281
31.34670,74796
31.35482,76206
31.36295,69104
31.37107,68878
31.37918,71602
31.38732,71592
31.39543,75704
31.40355,66807
31.41168,71539
31.41980,66232
31.42793,73001
31.43605,66054
31.44417,62916
31.45230,64677
31.46042,65495
31.46855,72147
31.47667,67188
31.48478,67617
31.49292,66274
31.50103,71700
31.50915,71574
31.51728,68441
31.52540,74951
31.53353,71146
31.54165,76704
31.54977,79980
31.55790,69921
31.56602,69314
31.57415,68120
31.58227,65036
31.59038,67829
31.59852,66927
31.60663,68247
31.61477,63901
31.62288,64255
31.63100,62813
31.63913,62996
31.64725,65443
31.65537,69471
31.66350,65541
31.67162,65165
31.67975,65548
31.68787,66133
31.69598,65984
31.70412,64750
31.71223,62008
31.72037,64038
31.72848,57722
31.73660,60411
31.74473,57525
31.75285,63466
31.76098,63320
31.76910,60263
31.77722,61366
31.78535,60961
31.79347,59966
31.80158,63048
31.80972,66400
31.81783,62505
31.82597,62263
31.83408,64463
31.84220,59617
31.85033,63208
31.85845,66244
31.86658,66514
31.87470,64083
31.88282,70363
31.89095,83551
31.89907,88661
31.90718,96762
31.91532,105638
31.92343,115875
31.93157,121186
31.93968,125547
31.94780,140819
31.95593,144305
31.96405,137379
31.97218,145372
31.98030,145179
31.98842,148798
31.99655,145013
32.00467,149385
32.01280,138725
32.02092,130732
32.02903,130848
32.03717,121814
32.04528,115928
32.05340,119139
32.06153,113079
32.06965,106881
32.07778,102668
32.08590,94991
32.09402,92378
32.10215,91021
32.11027,79743
32.11840,82167
32.12652,80304
32.13463,75343
32.14277,72045
32.15088,72677
32.15900,70087
32.16713,71100
32.17525,72139
32.18338,74643
32.19150,71607
32.19962,70170
32.20775,64512
32.21587,68443
32.22400,65938
32.23212,64582
32.24023,68787
32.24837,69967
32.25648,69472
32.26462,67822
32.27273,68208
32.28085,62858
32.28898,65887
32.29710,63014
32.30522,64522
32.31335,60378
32.32147,59679
32.32960,58914
32.33772,67748
32.34583,65447
32.35397,68041
32.36208,63410
32.37022,63603
32.37833,60125
32.38645,59829
32.39458,57144
32.40270,56049
32.41083,56502
32.41895,59109
32.42707,55056
32.43520,56172
32.44332,53050
32.45143,54904
32.45957,58770
32.46768,59968
32.47582,57823
32.48393,58157
32.49205,57110
32.50018,55993
32.50830,55016
32.51643,56879
32.52455,57023
32.53267,56221
32.54080,55686
32.54892,59110
32.55705,54241
32.56517,56492
32.57328,54664
32.58142,52159
32.58953,54445
32.59765,55294
32.60578,55597
32.61390,58436
32.62203,60187
32.63015,70828
32.63827,78484
32.64640,85153
32.65452,84414
32.66265,84736
32.67077,80738
32.67888,65755
32.68702,64230
32.69513,58017
32.70325,59525
32.71138,62805
32.71950,57458
32.72763,54582
32.73575,57383
32.74387,51035
32.75200,53970
32.76012,48985
32.76825,53303
32.77637,55390
32.78448,51023
32.79262,54200
32.80073,54398
32.80887,51188
32.81698,50175
32.82510,52441
32.83323,50933
32.84135,54320
32.84947,54925
32.85760,59545
32.86572,56329
32.87385,58289
32.88197,63661
32.89008,74089
32.89822,76943
32.90633,78728
32.91447,80271
32.92258,76916
32.93070,66989
32.93883,64619
32.94695,58579
32.95507,55592
32.96320,58834
32.97132,60224
32.97945,66527
32.98757,72032
32.99568,83738
33.00382,81292
33.01193,79648
33.02007,72400
33.02818,69115
33.03630,61681
33.04443,69936
33.05255,63632
33.06068,73080
33.06880,71512
33.07692,77686
33.08505,83912
33.09317,93115
33.10128,103991
33.10942,97175
33.11753,93289
33.12567,84385
33.13378,84005
33.14190,75419
33.15003,68224
33.15815,71863
33.16628,64290
33.17440,65339
33.18252,64263
33.19065,55355
33.19877,58395
33.20690,58794
33.21502,63729
33.22313,58224
33.23127,58402
33.23938,56270
33.24750,53176
33.25563,57582
33.26375,52700
33.27188,58900
33.28000,57680
33.28812,55315
33.29625,57183
33.30437,53757
33.31250,61520
33.32062,63795
33.32873,57337
33.33687,59552
33.34498,59084
33.35310,63679
33.36123,62277
33.36935,65419
33.37748,64744
33.38560,60188
33.39372,55806
33.40185,56072
33.40997,54089
33.41810,52282
33.42622,53241
33.43433,51181
33.44247,51353
33.45058,51205
33.45872,47476
33.46683,51074
33.47495,51727
33.48308,50927
33.49120,52116
33.49932,50838
33.50745,53243
33.51557,53360
33.52370,55549
33.53182,54602
33.53993,57083
33.54807,62638
33.55618,61690
33.56432,60195
33.57243,59640
33.58055,61412
33.58868,57377
33.59680,52985
33.60493,53542
33.61305,53972
33.62117,54525
33.62930,53496
33.63742,57100
33.64553,56436
33.65367,55453
33.66178,58481
33.66992,56468
33.67803,52420
33.68615,56520
33.69428,48829
33.70240,57443
33.71053,50488
33.71865,51884
33.72677,50564
33.73490,52898
33.74302,51373
33.75113,49043
33.75927,47235
33.76738,48487
33.77552,45778
33.78363,50087
33.79175,48914
33.79988,48919
33.80800,51811
33.81613,48377
33.82425,52424
33.83237,56790
33.84050,48473
33.84862,53273
33.85675,56569
33.86487,59160
33.87298,60233
33.88112,63465
33.88923,72338
33.89735,81739
33.90548,80910
33.91360,81393
33.92173,80224
33.92985,84907
33.93797,87311
33.94610,83165
33.95422,89255
33.96235,94054
33.97047,101367
33.97858,107367
33.98672,108915
33.99483,113374
34.00295,115133
34.01108,117849
34.01920,125313
34.02733,117807
34.03545,119927
34.04357,120874
34.05170,119558
34.05982,122939
34.06795,127085
34.07607,132173
34.08418,136570
34.09232,138474
34.10043,140919
34.10857,135880
34.11668,135971
34.12480,138212
34.13293,138485
34.14105,132530
34.14917,126391
34.15730,126617
34.16542,124417
34.17355,120223
34.18167,119626
34.18978,118513
34.19792,115688
34.20603,117513
34.21417,110994
34.22228,110632
34.23040,106642
34.23853,99655
34.24665,98016
34.25478,98932
34.26290,99937
34.27102,92984
34.27915,90723
34.28727,90353
34.29538,91156
34.30352,90642
34.31163,91116
34.31977,89162
34.32788,88890
34.33600,85182
34.34413,87809
34.35225,83313
34.36038,84691
34.36850,81865
34.37662,86369
34.38475,82687
34.39287,85504
34.40098,78205
34.40912,75131
34.41723,77710
34.42537,75665
34.43348,76349
34.44160,75505
34.44973,73866
34.45785,77648
34.46598,75304
34.47410,75495
34.48222,77703
34.49035,84082
34.49847,98766
34.50660,103626
34.51472,118796
34.52283,142946
34.53097,147660
34.53908,151763
34.54720,155785
34.55533,157248
34.56345,149790
34.57158,138979
34.57970,132617
34.58782,120083
34.59595,117542
34.60407,108712
34.61220,101394
34.62032,96081
34.62843,95595
34.63657,90682
34.64468,86573
34.65282,93816
34.66093,82687
34.66905,89316
34.67718,82321
34.68530,81964
34.69342,83989
34.70155,84246
34.70967,88796
34.71780,83081
34.72592,81205
34.73403,82382
34.74217,83410
34.75028,85210
34.75842,84808
34.76653,92313
34.77465,90155
34.78278,92470
34.79090,96444
34.79902,91596
34.80715,96810
34.81527,92882
34.82340,97036
34.83152,102858
34.83963,99911
34.84777,95259
34.85588,99268
34.86402,93860
34.87213,96239
34.88025,93323
34.88838,91539
34.89650,99065
34.90463,94687
34.91275,96102
34.92087,95211
34.92900,95531
34.93712,91820
34.94523,90551
34.95337,96165
34.96148,92515
34.96962,99728
34.97773,89512
34.98585,86905
34.99398,82893
35.00210,80186
35.01023,81066
35.01835,80428
35.02647,74598
35.03460,67543
35.04272,74774
35.05085,70243
35.05897,72495
35.06708,68425
35.07522,79293
35.08333,72837
35.09145,70974
35.09958,70552
35.10770,72437
35.11583,67230
35.12395,68134
35.13207,71358
35.14020,78118
35.14832,69928
35.15645,68764
35.16457,73315
35.17268,74506
35.18082,65096
35.18893,68119
35.19705,66136
35.20518,66635
35.21330,64545
35.22143,66244
35.22955,65156
35.23767,68397
35.24580,65582
35.25392,65295
35.26205,60884
35.27017,65971
35.27828,69541
35.28642,68779
35.29453,60173
35.30267,62694
35.31078,63782
35.31890,64636
35.32703,61205
35.33515,64443
35.34327,68089
35.35140,66570
35.35952,66361
35.36765,64119
35.37577,70098
35.38388,77120
35.39202,83486
35.40013,92660
35.40827,107258
35.41638,118716
35.42450,125986
35.43263,124021
35.44075,125578
35.44887,107031
35.45700,96275
35.46512,86450
35.47325,77025
35.48137,68654
35.48948,72680
35.49762,71408
35.50573,68505
35.51387,71409
35.52198,69486
35.53010,73558
35.53823,63366
35.54635,65046
35.55448,64193
35.56260,66789
35.57072,64940
35.57885,69933
35.58697,69281
35.59508,67453
35.60322,63741
35.61133,68594
35.61947,68267
35.62758,67962
35.63570,66938
35.64383,71291
35.65195,70221
35.66008,70699
35.66820,76045
35.67632,74511
35.68445,71461
35.69257,65764
35.70070,69569
35.70882,66085
35.71693,66022
35.72507,66467
35.73318,75369
35.74130,73015
35.74943,75076
35.75755,76818
35.76568,75460
35.77380,75915
35.78192,71357
35.79005,72932
35.79817,73078
35.80630,65997
35.81442,68102
35.82253,63502
35.83067,64015
35.83878,63300
35.84690,66646
35.85503,66543
35.86315,65989
35.87128,64162
35.87940,63606
35.88752,66676
35.89565,63015
35.90377,63078
35.91190,64225
35.92002,62205
35.92813,67863
35.93627,59687
35.94438,64940
35.95252,64649
35.96063,58915
35.96875,62294
35.97688,65228
35.98500,64411
35.99312,66409
36.00125,65312
36.00937,69127
36.01750,67513
36.02562,69376
36.03373,69692
36.04187,68192
36.04998,69156
36.05812,72371
36.06623,68730
36.07435,67641
36.08248,65239
36.09060,65604
36.09873,71004
36.10685,63072
36.11497,66361
36.12310,67349
36.13122,68045
36.13933,72164
36.14747,69096
36.15558,70982
36.16372,71740
36.17183,66042
36.17995,62933
36.18808,65842
36.19620,64369
36.20433,63062
36.21245,66260
36.22057,68712
36.22870,62067
36.23682,61657
36.24493,63553
36.25307,62807
36.26118,65098
36.26932,70991
36.27743,81721
36.28555,87658
36.29368,91564
36.30180,93732
36.30993,92775
36.31805,80856
36.32617,77674
36.33430,71048
36.34242,70842
36.35055,64805
36.35867,65134
36.36678,68261
36.37492,65327
36.38303,66215
36.39115,67618
36.39928,64651
36.40740,70571
36.41553,65260
36.42365,65001
36.43177,67001
36.43990,64144
36.44802,64559
36.45615,62577
36.46427,61948
36.47238,64504
36.48052,62878
36.48863,63284
36.49675,63233
36.50488,65233
36.51300,64702
36.52113,65979
36.52925,68353
36.53737,67907
36.54550,69367
36.55362,70705
36.56175,70597
36.56987,68626
36.57798,70881
36.58612,72112
36.59423,70929
36.60237,72941
36.61048,66548
36.61860,71048
36.62673,75422
36.63485,76076
36.64297,75791
36.65110,69609
36.65922,72734
36.66735,76698
36.67547,72256
36.68358,72471
36.69172,71284
36.69983,73428
36.70797,74586
36.71608,74049
36.72420,70585
36.73233,70987
36.74045,69100
36.74858,67421
36.75670,71477
36.76482,70004
36.77295,71628
36.78107,70380
36.78918,66317
36.79732,69517
36.80543,71929
36.81357,70454
36.82168,68976
36.82980,67373
36.83793,76308
36.84605,65550
36.85418,70960
36.86230,71028
36.87042,69661
36.87855,70205
36.88667,68104
36.89480,67452
36.90292,71551
36.91103,68232
36.91917,71157
36.92728,74023
36.93540,70635
36.94353,79814
36.95165,88876
36.95978,88501
36.96790,88124
36.97602,89503
36.98415,89450
36.99227,79182
37.00040,79255
37.00852,79324
37.01663,75047
37.02477,74176
37.03288,70853
37.04100,73454
37.04913,71906
37.05725,73967
37.06538,70170
37.07350,72789
37.08162,73019
37.08975,74839
37.09787,72566
37.10600,73824
37.11412,75043
37.12223,70987
37.13037,75848
37.13848,77071
37.14662,76246
37.15473,70647
37.16285,71221
37.17098,66749
37.17910,69204
37.18722,68818
37.19535,68787
37.20347,74035
37.21160,70548
37.21972,69581
37.22783,70338
37.23597,67660
37.24408,65403
37.25222,66341
37.26033,69293
37.26845,68240
37.27658,67725
37.28470,70433
37.29282,74920
37.30095,85349
37.30907,92772
37.31720,106388
37.32532,123460
37.33343,125148
37.34157,123840
37.34968,128932
37.35782,124008
37.36593,112412
37.37405,107476
37.38218,99587
37.39030,101107
37.39843,96809
37.40655,96169
37.41467,90052
37.42280,94148
37.43092,83145
37.43903,89885
37.44717,87162
37.45528,87479
37.46342,86102
37.47153,81284
37.47965,76538
37.48778,80690
