C:\MassHunter\GCMS\1\data\JTB-E02\BACandBLUE\JTB-E18-021-07.D Wed Jul 10 09:44:48 2019
Start of data points
2.09538,48112
2.10350,51568
2.11162,52733
2.11975,49544
2.12787,54490
2.13598,51527
2.14412,50188
2.15223,51109
2.16037,52092
2.16848,47549
2.17660,44433
2.18473,49341
2.19285,49052
2.20098,45664
2.20910,45992
2.21722,42966
2.22535,42361
2.23347,43557
2.24158,42175
2.24972,42677
2.25783,44684
2.26597,45122
2.27408,100993
2.28220,815267
2.29033,1667777
2.29845,806361
2.30658,345476
2.31470,233940
2.32282,203635
2.33095,177998
2.33907,154923
2.34720,157416
2.35532,138662
2.36343,128841
2.37157,114878
2.37968,112173
2.38780,114434
2.39593,114132
2.40405,108646
2.41218,104305
2.42030,98348
2.42842,99938
2.43655,98012
2.44467,94635
2.45280,99264
2.46092,95207
2.46903,88657
2.47717,91242
2.48528,86329
2.49340,87592
2.50153,95104
2.50965,93727
2.51778,87644
2.52590,78204
2.53402,81994
2.54215,79279
2.55027,80950
2.55840,83342
2.56652,103720
2.57463,136724
2.58277,107112
2.59088,97737
2.59902,90509
2.60713,95918
2.61525,286424
2.62338,889090
2.63150,818025
2.63962,436552
2.64775,277932
2.65587,218920
2.66400,171663
2.67212,143828
2.68023,133157
2.68837,121234
2.69648,114493
2.70462,110142
2.71273,102089
2.72085,97202
2.72898,101442
2.73710,89754
2.74523,92052
2.75335,89850
2.76147,89263
2.76960,85216
2.77772,83245
2.78583,97054
2.79397,173288
2.80208,253988
2.81022,185943
2.81833,135232
2.82645,137160
2.83458,148901
2.84270,127582
2.85083,112155
2.85895,98025
2.86707,98193
2.87520,91266
2.88332,84720
2.89143,86713
2.89957,87645
2.90768,85590
2.91582,80938
2.92393,76403
2.93205,75798
2.94018,77506
2.94830,72779
2.95643,68977
2.96455,76529
2.97267,92430
2.98080,104831
2.98892,95670
2.99705,84612
3.00517,83106
3.01328,78210
3.02142,76381
3.02953,77148
3.03765,72863
3.04578,70407
3.05390,73900
3.06203,71691
3.07015,76674
3.07827,72930
3.08640,88129
3.09452,339892
3.10265,1366944
3.11077,2484136
3.11888,3522039
3.12702,4041782
3.13513,2939672
3.14327,1827939
3.15138,1377228
3.15950,1073026
3.16763,858436
3.17575,732722
3.18387,659369
3.19200,657767
3.20012,976676
3.20825,1713322
3.21637,1784431
3.22448,1318177
3.23262,1009369
3.24073,837364
3.24887,704432
3.25698,616084
3.26510,542145
3.27323,487774
3.28135,416783
3.28947,386562
3.29760,404508
3.30572,748761
3.31385,2008635
3.32197,3861029
3.33008,4560716
3.33822,3572784
3.34633,2308452
3.35447,1540014
3.36258,1149786
3.37070,922174
3.37883,767206
3.38695,686031
3.39508,606810
3.40320,567286
3.41132,517490
3.41945,495457
3.42757,462285
3.43568,442553
3.44382,432672
3.45193,414611
3.46007,396989
3.46818,375003
3.47630,358708
3.48443,358414
3.49255,341703
3.50068,327546
3.50880,294030
3.51692,274235
3.52505,254404
3.53317,237627
3.54128,235352
3.54942,244257
3.55753,256056
3.56567,249406
3.57378,251697
3.58190,303757
3.59003,428267
3.59815,472020
3.60628,414986
3.61440,367148
3.62252,344054
3.63065,347541
3.63877,336618
3.64690,326159
3.65502,312305
3.66313,293003
3.67127,314776
3.67938,721470
3.68750,2667891
3.69563,5590326
3.70375,6060797
3.71188,4256844
3.72000,2944450
3.72812,2293102
3.73625,1937679
3.74437,1641196
3.75250,1441896
3.76062,1282476
3.76873,1167362
3.77687,1065973
3.78498,999223
3.79312,943388
3.80123,888169
3.80935,853304
3.81748,973859
3.82560,1457966
3.83372,2021313
3.84185,1939325
3.84997,1557530
3.85810,1242074
3.86622,1047304
3.87433,930808
3.88247,835007
3.89058,758993
3.89872,685682
3.90683,645146
3.91495,592419
3.92308,585726
3.93120,640417
3.93932,813078
3.94745,943909
3.95557,900378
3.96370,1060897
3.97182,2145231
3.97993,3959834
3.98807,4593595
3.99618,3454159
4.00432,2355591
4.01243,3643422
4.02055,1.037938E+07
4.02868,2.063358E+07
4.03680,2.424169E+07
4.04493,1.787255E+07
4.05305,9245273
4.06117,4799753
4.06930,3089548
4.07742,2262523
4.08553,1794816
4.09367,1509155
4.10178,1304215
4.10992,1142558
4.11803,1027282
4.12615,926168
4.13428,847303
4.14240,813284
4.15053,805711
4.15865,911621
4.16677,1051327
4.17490,1067974
4.18302,904360
4.19115,759598
4.19927,658614
4.20738,580950
4.21552,552577
4.22363,982975
4.23175,3390081
4.23988,9472943
4.24800,1.621482E+07
4.25613,1.912E+07
4.26425,1.620021E+07
4.27237,1.00113E+07
4.28050,6128298
4.28862,4273941
4.29675,3220038
4.30487,2553824
4.31298,2124058
4.32112,1823599
4.32923,1609160
4.33735,1439376
4.34548,1306818
4.35360,1213200
4.36173,1150122
4.36985,1141014
4.37797,1095068
4.38610,1031859
4.39422,942554
4.40235,854499
4.41047,772342
4.41858,696087
4.42672,634222
4.43483,595050
4.44297,532571
4.45108,498188
4.45920,481768
4.46733,465278
4.47545,439507
4.48357,438624
4.49170,443128
4.49982,440537
4.50795,439588
4.51607,445690
4.52418,448510
4.53232,440426
4.54043,443734
4.54857,435721
4.55668,434129
4.56480,424365
4.57293,411178
4.58105,385532
4.58918,371962
4.59730,360215
4.60542,351027
4.61355,337861
4.62167,332433
4.62978,339048
4.63792,388867
4.64603,544028
4.65417,807764
4.66228,992399
4.67040,907511
4.67853,693555
4.68665,535733
4.69478,452121
4.70290,417325
4.71102,379630
4.71915,360078
4.72727,338749
4.73538,328391
4.74352,320520
4.75163,299338
4.75977,302525
4.76788,291986
4.77600,291519
4.78413,278286
4.79225,268678
4.80038,276144
4.80850,298006
4.81662,354776
4.82475,430534
4.83287,432053
4.84100,395751
4.84912,377182
4.85723,378837
4.86537,380817
4.87348,376458
4.88160,366536
4.88973,358099
4.89785,331007
4.90598,313160
4.91410,298663
4.92222,294051
4.93035,285376
4.93847,283556
4.94660,322281
4.95472,470523
4.96283,901174
4.97097,1647654
4.97908,2336639
4.98720,2498933
4.99533,2052546
5.00345,1509788
5.01158,1073660
5.01970,823965
5.02782,689301
5.03595,644518
5.04407,710718
5.05220,976903
5.06032,1255760
5.06843,1324975
5.07657,1163090
5.08468,992290
5.09282,841640
5.10093,750327
5.10905,673387
5.11718,622061
5.12530,600142
5.13342,562384
5.14155,537609
5.14967,520928
5.15780,526523
5.16592,516551
5.17403,541328
5.18217,586517
5.19028,602021
5.19842,555417
5.20653,506050
5.21465,498388
5.22278,525787
5.23090,524402
5.23903,508207
5.24715,474725
5.25527,445904
5.26340,426256
5.27152,402651
5.27963,363898
5.28777,344126
5.29588,334863
5.30402,323278
5.31213,317500
5.32025,313997
5.32838,297241
5.33650,302158
5.34463,305593
5.35275,317092
5.36087,330531
5.36900,334781
5.37712,306621
5.38523,296395
5.39337,285131
5.40148,286333
5.40962,285471
5.41773,286404
5.42585,292017
5.43398,283615
5.44210,275381
5.45023,270758
5.45835,281390
5.46647,284288
5.47460,298229
5.48272,278643
5.49085,272960
5.49897,251713
5.50708,239915
5.51522,241512
5.52333,237077
5.53145,243956
5.53958,240593
5.54770,237918
5.55583,244174
5.56395,239834
5.57207,239543
5.58020,267654
5.58832,300936
5.59645,319448
5.60457,311394
5.61268,270132
5.62082,259566
5.62893,235068
5.63707,226721
5.64518,239296
5.65330,239396
5.66143,249375
5.66955,250578
5.67767,233913
5.68580,237820
5.69392,252069
5.70205,288933
5.71017,309469
5.71828,329263
5.72642,305982
5.73453,265508
5.74267,236639
5.75078,227484
5.75890,222387
5.76703,214142
5.77515,217012
5.78327,204321
5.79140,208803
5.79952,208026
5.80765,204252
5.81577,202117
5.82388,201523
5.83202,193886
5.84013,199767
5.84827,198171
5.85638,202720
5.86450,197133
5.87263,189431
5.88075,193937
5.88888,189342
5.89700,182382
5.90512,180484
5.91325,168897
5.92137,149193
5.92948,138215
5.93762,141799
5.94573,135302
5.95387,141622
5.96198,155782
5.97010,177511
5.97823,196317
5.98635,232058
5.99448,281357
6.00260,321523
6.01072,348265
6.01885,314273
6.02697,273949
6.03508,220190
6.04322,183771
6.05133,169270
6.05947,157015
6.06758,156865
6.07570,149196
6.08383,149564
6.09195,140380
6.10008,143843
6.10820,137302
6.11632,137603
6.12445,141384
6.13257,152132
6.14070,165320
6.14882,220448
6.15693,353598
6.16507,477003
6.17318,510856
6.18130,452306
6.18943,361766
6.19755,302608
6.20568,270610
6.21380,237662
6.22192,231300
6.23005,216014
6.23817,220383
6.24630,211991
6.25442,210951
6.26253,198789
6.27067,202422
6.27878,211308
6.28692,209774
6.29503,195684
6.30315,195959
6.31128,187833
6.31940,193155
6.32752,193929
6.33565,191732
6.34377,192706
6.35190,198438
6.36002,198212
6.36813,200451
6.37627,193020
6.38438,190736
6.39252,193500
6.40063,187999
6.40875,198543
6.41688,192079
6.42500,188690
6.43312,188901
6.44125,190488
6.44937,193656
6.45750,183089
6.46562,189618
6.47373,189787
6.48187,189535
6.48998,188822
6.49812,186295
6.50623,189790
6.51435,191486
6.52248,192606
6.53060,196611
6.53873,204797
6.54685,201703
6.55497,203939
6.56310,193971
6.57122,198148
6.57933,200200
6.58747,218043
6.59558,243562
6.60372,262577
6.61183,264431
6.61995,237807
6.62808,225030
6.63620,218136
6.64433,225555
6.65245,205861
6.66057,208057
6.66870,213548
6.67682,240234
6.68495,289640
6.69307,316767
6.70118,298617
6.70932,257777
6.71743,206667
6.72555,171301
6.73368,171461
6.74180,158295
6.74993,148866
6.75805,148693
6.76617,145731
6.77430,142067
6.78242,150448
6.79055,139078
6.79867,149632
6.80678,144198
6.81492,142174
6.82303,137466
6.83115,131999
6.83928,129278
6.84740,129831
6.85553,126691
6.86365,130332
6.87177,147216
6.87990,171406
6.88802,211970
6.89615,209980
6.90427,180200
6.91238,137007
6.92052,110434
6.92863,103436
6.93677,94613
6.94488,88135
6.95300,91225
6.96113,88420
6.96925,86118
6.97737,95147
6.98550,110760
6.99362,127235
7.00175,135276
7.00987,134001
7.01798,117748
7.02612,104562
7.03423,95907
7.04237,94977
7.05048,89929
7.05860,85921
7.06673,79308
7.07485,84120
7.08297,85398
7.09110,84961
7.09922,86183
7.10735,86912
7.11547,83609
7.12358,80477
7.13172,74845
7.13983,75150
7.14797,72951
7.15608,84014
7.16420,95835
7.17233,131551
7.18045,160585
7.18858,180621
7.19670,182015
7.20482,197178
7.21295,360365
7.22107,795109
7.22918,1407246
7.23732,1867219
7.24543,1729880
7.25357,1215844
7.26168,727899
7.26980,424217
7.27793,252453
7.28605,164730
7.29418,126666
7.30230,101988
7.31042,97653
7.31855,92825
7.32667,97867
7.33480,99182
7.34292,103157
7.35103,110928
7.35917,113872
7.36728,115835
7.37540,113625
7.38353,105222
7.39165,98916
7.39978,92098
7.40790,88082
7.41602,93490
7.42415,92630
7.43227,94559
7.44040,98408
7.44852,95458
7.45663,94802
7.46477,94800
7.47288,86550
7.48102,83219
7.48913,83154
7.49725,79542
7.50538,74941
7.51350,74968
7.52162,77706
7.52975,75073
7.53787,87541
7.54600,96333
7.55412,122804
7.56223,166442
7.57037,252190
7.57848,352149
7.58662,424373
7.59473,463214
7.60285,436604
7.61098,340168
7.61910,251699
7.62722,179094
7.63535,134777
7.64347,107268
7.65160,94484
7.65972,86070
7.66783,80139
7.67597,79930
7.68408,80812
7.69222,76409
7.70033,74068
7.70845,76144
7.71658,72510
7.72470,73410
7.73283,74625
7.74095,74563
7.74907,76033
7.75720,72048
7.76532,74641
7.77343,78053
7.78157,76705
7.78968,76416
7.79782,79733
7.80593,81693
7.81405,85361
7.82218,87487
7.83030,86554
7.83843,87724
7.84655,85900
7.85467,84596
7.86280,76319
7.87092,76589
7.87903,80044
7.88717,81307
7.89528,93798
7.90342,102275
7.91153,99774
7.91965,97224
7.92778,94503
7.93590,97026
7.94403,99211
7.95215,119137
7.96027,142904
7.96840,149599
7.97652,142118
7.98465,124181
7.99277,101527
8.00088,86279
8.00902,78432
8.01713,70492
8.02525,69268
8.03338,67881
8.04150,68608
8.04963,63424
8.05775,63357
8.06587,66798
8.07400,68225
8.08212,66699
8.09025,65273
8.09837,60816
8.10648,64616
8.11462,61811
8.12273,59670
8.13087,58587
8.13898,62844
8.14710,68054
8.15523,77242
8.16335,92815
8.17147,101759
8.17960,108849
8.18772,96094
8.19585,80276
8.20397,77055
8.21208,70046
8.22022,65858
8.22833,67391
8.23647,64696
8.24458,65944
8.25270,66937
8.26083,64394
8.26895,65470
8.27707,60867
8.28520,63318
8.29332,60852
8.30145,56950
8.30957,58336
8.31768,57751
8.32582,59182
8.33393,61865
8.34207,66386
8.35018,66773
8.35830,63351
8.36643,64294
8.37455,61252
8.38268,58633
8.39080,57649
8.39892,59022
8.40705,63435
8.41517,58552
8.42328,55281
8.43142,57975
8.43953,55430
8.44767,51907
8.45578,54281
8.46390,52466
8.47203,53371
8.48015,51646
8.48828,52971
8.49640,54485
8.50452,52865
8.51265,50689
8.52077,53055
8.52890,71022
8.53702,104510
8.54513,183133
8.55327,259297
8.56138,310776
8.56950,289751
8.57763,213178
8.58575,135059
8.59388,94480
8.60200,73299
8.61012,71988
8.61825,76450
8.62637,79902
8.63450,73626
8.64262,75985
8.65073,74175
8.65887,73333
8.66698,70174
8.67510,63119
8.68323,61139
8.69135,62866
8.69948,58863
8.70760,66598
8.71572,62888
8.72385,64800
8.73197,60359
8.74010,56144
8.74822,62877
8.75633,66759
8.76447,110093
8.77258,224111
8.78072,466383
8.78883,803643
8.79695,1093936
8.80508,1133285
8.81320,936977
8.82132,636823
8.82945,388840
8.83757,247788
8.84570,198622
8.85382,176128
8.86193,171391
8.87007,173605
8.87818,164370
8.88632,159711
8.89443,150364
8.90255,137004
8.91068,129020
8.91880,122495
8.92692,120400
8.93505,120468
8.94317,131363
8.95130,144079
8.95942,154041
8.96753,153734
8.97567,140730
8.98378,128935
8.99192,124232
9.00003,125533
9.00815,119029
9.01628,119887
9.02440,118496
9.03253,109244
9.04065,101494
9.04877,103620
9.05690,98232
9.06502,94364
9.07313,95458
9.08127,92780
9.08938,91844
9.09752,93271
9.10563,96126
9.11375,98810
9.12188,107551
9.13000,119206
9.13813,134930
9.14625,129765
9.15437,125630
9.16250,114282
9.17062,108991
9.17875,99633
9.18687,94672
9.19498,92602
9.20312,94310
9.21123,89123
9.21935,83835
9.22748,86675
9.23560,83297
9.24373,84492
9.25185,78092
9.25997,78112
9.26810,81108
9.27622,74542
9.28435,73869
9.29247,78592
9.30058,72697
9.30872,70798
9.31683,79373
9.32495,76223
9.33308,75701
9.34120,78103
9.34933,77265
9.35745,81534
9.36557,78287
9.37370,82020
9.38182,77272
9.38995,75495
9.39807,73287
9.40618,73361
9.41432,76375
9.42243,80321
9.43057,88802
9.43868,95880
9.44680,114516
9.45493,129328
9.46305,142838
9.47117,139488
9.47930,124081
9.48742,105897
9.49555,96309
9.50367,85846
9.51178,74817
9.51992,81730
9.52803,81524
9.53617,90075
9.54428,93557
9.55240,88810
9.56053,77334
9.56865,68525
9.57678,63582
9.58490,56814
9.59302,61477
9.60115,66841
9.60927,69963
9.61738,69955
9.62552,71669
9.63363,63598
9.64177,56644
9.64988,48364
9.65800,48181
9.66613,50451
9.67425,47326
9.68238,46869
9.69050,43409
9.69862,48104
9.70675,46022
9.71487,49714
9.72298,49045
9.73112,47067
9.73923,48498
9.74737,44289
9.75548,45443
9.76360,41734
9.77173,42882
9.77985,44353
9.78798,45506
9.79610,43174
9.80422,40387
9.81235,42807
9.82047,46022
9.82860,43943
9.83672,44365
9.84483,43858
9.85297,43020
9.86108,43472
9.86920,47035
9.87733,45914
9.88545,45142
9.89358,45926
9.90170,50197
9.90982,43962
9.91795,46229
9.92607,43812
9.93420,46003
9.94232,55626
9.95043,68907
9.95857,81623
9.96668,104169
9.97480,120657
9.98293,123507
9.99105,120822
9.99918,105441
10.00730,85035
10.01542,80713
10.02355,69426
10.03167,62753
10.03980,60281
10.04792,59426
10.05603,54106
10.06417,56092
10.07228,55908
10.08042,50089
10.08853,55476
10.09665,54689
10.10478,55365
10.11290,57576
10.12102,54607
10.12915,52591
10.13727,55424
10.14540,52478
10.15352,52029
10.16163,56485
10.16977,52430
10.17788,48300
10.18602,48252
10.19413,50938
10.20225,49788
10.21038,47721
10.21850,47501
10.22663,48094
10.23475,46152
10.24287,50689
10.25100,53341
10.25912,65861
10.26723,88228
10.27537,158954
10.28348,375675
10.29162,832682
10.29973,1508980
10.30785,2364504
10.31598,3371180
10.32410,4810997
10.33223,7018139
10.34035,9504976
10.34847,1.06095E+07
10.35660,9608078
10.36472,6722902
10.37283,3906280
10.38097,2150203
10.38908,1413221
10.39722,1116659
10.40533,902895
10.41345,713592
10.42158,527571
10.42970,389141
10.43783,312363
10.44595,276513
10.45407,257358
10.46220,240685
10.47032,231836
10.47845,213552
10.48657,190730
10.49468,178091
10.50282,161248
10.51093,159301
10.51905,149070
10.52718,142323
10.53530,132508
10.54343,129349
10.55155,126928
10.55967,123531
10.56780,125935
10.57592,118056
10.58405,121188
10.59217,119904
10.60028,117371
10.60842,109479
10.61653,106177
10.62467,100608
10.63278,96222
10.64090,95140
10.64903,93647
10.65715,88260
10.66527,86288
10.67340,86478
10.68152,82665
10.68965,75767
10.69777,85460
10.70588,81359
10.71402,81235
10.72213,80779
10.73027,81158
10.73838,84410
10.74650,83305
10.75463,81353
10.76275,82653
10.77087,78295
10.77900,77926
10.78712,74412
10.79525,71985
10.80337,69053
10.81148,69529
10.81962,69729
10.82773,72061
10.83587,73675
10.84398,70692
10.85210,66855
10.86023,66532
10.86835,59072
10.87648,62525
10.88460,61926
10.89272,59939
10.90085,58447
10.90897,57145
10.91708,56968
10.92522,57045
10.93333,54033
10.94147,57630
10.94958,52414
10.95770,52022
10.96583,54593
10.97395,54185
10.98208,60188
10.99020,53537
10.99832,53941
11.00645,53494
11.01457,56856
11.02270,54960
11.03082,51901
11.03893,52198
11.04707,51564
11.05518,53360
11.06330,53113
11.07143,50567
11.07955,51012
11.08768,54048
11.09580,55981
11.10392,58665
11.11205,58479
11.12017,52467
11.12830,54815
11.13642,50578
11.14453,50135
11.15267,43515
11.16078,42120
11.16890,44339
11.17703,40549
11.18515,46416
11.19328,49463
11.20140,52347
11.20952,51488
11.21765,46626
11.22577,47685
11.23390,42930
11.24202,41519
11.25013,41781
11.25827,43518
11.26638,42014
11.27452,38163
11.28263,36389
11.29075,39237
11.29888,43041
11.30700,48893
11.31512,53717
11.32325,81480
11.33137,134423
11.33950,226197
11.34762,362228
11.35573,506570
11.36387,605968
11.37198,609885
11.38012,530738
11.38823,382589
11.39635,276612
11.40448,203461
11.41260,161122
11.42072,141919
11.42885,122038
11.43697,104781
11.44510,93501
11.45322,75464
11.46133,67516
11.46947,70279
11.47758,68333
11.48572,75018
11.49383,86500
11.50195,107730
11.51008,128920
11.51820,140816
11.52633,142911
11.53445,133417
11.54257,121823
11.55070,105620
11.55882,97875
11.56693,86238
11.57507,82314
11.58318,83416
11.59132,83811
11.59943,81171
11.60755,92625
11.61568,112446
11.62380,137195
11.63193,145984
11.64005,148867
11.64817,127374
11.65630,100882
11.66442,79664
11.67255,68410
11.68067,54587
11.68878,60342
11.69692,49419
11.70503,57945
11.71315,54678
11.72128,59141
11.72940,56147
11.73753,53236
11.74565,51842
11.75377,50898
11.76190,52540
11.77002,45620
11.77815,52450
11.78627,48079
11.79438,43996
11.80252,46946
11.81063,44595
11.81875,43661
11.82688,44552
11.83500,44346
11.84313,48421
11.85125,50547
11.85937,51595
11.86750,52944
11.87562,59580
11.88375,55218
11.89187,50401
11.89998,44426
11.90812,44550
11.91623,45623
11.92437,48385
11.93248,48276
11.94060,49312
11.94873,47556
11.95685,49203
11.96497,44857
11.97310,42579
11.98122,38135
11.98935,46099
11.99747,56864
12.00558,79967
12.01372,110974
12.02183,122557
12.02997,133523
12.03808,121159
12.04620,96484
12.05433,76137
12.06245,67891
12.07058,58131
12.07870,54875
12.08682,53674
12.09495,57073
12.10307,58120
12.11118,53370
12.11932,54913
12.12743,57437
12.13557,53503
12.14368,57868
12.15180,56461
12.15993,65054
12.16805,57992
12.17618,53892
12.18430,52209
12.19242,44232
12.20055,52813
12.20867,49881
12.21678,48451
12.22492,47860
12.23303,46195
12.24117,44967
12.24928,44673
12.25740,48805
12.26553,43661
12.27365,47148
12.28178,44729
12.28990,44070
12.29802,43978
12.30615,43862
12.31427,41203
12.32240,39456
12.33052,40021
12.33863,37633
12.34677,38863
12.35488,38943
12.36300,38247
12.37113,37228
12.37925,41853
12.38738,39494
12.39550,44031
12.40362,45225
12.41175,53814
12.41987,63333
12.42800,77590
12.43612,88293
12.44423,86351
12.45237,80879
12.46048,66652
12.46860,61031
12.47673,60969
12.48485,53301
12.49298,54330
12.50110,47393
12.50922,49765
12.51735,47545
12.52547,47566
12.53360,44302
12.54172,48525
12.54983,67501
12.55797,96796
12.56608,120297
12.57422,151142
12.58233,149076
12.59045,135015
12.59858,108904
12.60670,83180
12.61482,70441
12.62295,61865
12.63107,58311
12.63920,53119
12.64732,52198
12.65543,52433
12.66357,50737
12.67168,44044
12.67982,42317
12.68793,43209
12.69605,46374
12.70418,39374
12.71230,41119
12.72043,43279
12.72855,44841
12.73667,41429
12.74480,48154
12.75292,51365
12.76103,48917
12.76917,48663
12.77728,44937
12.78542,39726
12.79353,38997
12.80165,36494
12.80978,35158
12.81790,34103
12.82603,38630
12.83415,34486
12.84227,38542
12.85040,35665
12.85852,34197
12.86665,33567
12.87477,35358
12.88288,38333
12.89102,34394
12.89913,35666
12.90725,33558
12.91538,37709
12.92350,30894
12.93163,30873
12.93975,32555
12.94787,34431
12.95600,34420
12.96412,34648
12.97225,45806
12.98037,58417
12.98848,64622
12.99662,69397
13.00473,62938
13.01285,58610
13.02098,51882
13.02910,43863
13.03723,40867
13.04535,36954
13.05347,38626
13.06160,37812
13.06972,38373
13.07785,39032
13.08597,36195
13.09408,36289
13.10222,39404
13.11033,36362
13.11847,36758
13.12658,34276
13.13470,35021
13.14283,38606
13.15095,33831
13.15907,37121
13.16720,38368
13.17532,37152
13.18345,37589
13.19157,39694
13.19968,40340
13.20782,40651
13.21593,40379
13.22407,51499
13.23218,46264
13.24030,53781
13.24843,45719
13.25655,42449
13.26467,38761
13.27280,38199
13.28092,38881
13.28905,39239
13.29717,32450
13.30528,31854
13.31342,35566
13.32153,30689
13.32967,29092
13.33778,29549
13.34590,31749
13.35403,30603
13.36215,29781
13.37028,35035
13.37840,31389
13.38652,30908
13.39465,34728
13.40277,29018
13.41088,31419
13.41902,32226
13.42713,32245
13.43527,34818
13.44338,29646
13.45150,33777
13.45963,29224
13.46775,30797
13.47588,30947
13.48400,31725
13.49212,32329
13.50025,30301
13.50837,28891
13.51650,33291
13.52462,33769
13.53273,32690
13.54087,31655
13.54898,31061
13.55710,34247
13.56523,31379
13.57335,33936
13.58148,32604
13.58960,35613
13.59772,43754
13.60585,56021
13.61397,83191
13.62210,122239
13.63022,163293
13.63833,178149
13.64647,154215
13.65458,122182
13.66270,90037
13.67083,65756
13.67895,51691
13.68708,46174
13.69520,43117
13.70332,39600
13.71145,38509
13.71957,38338
13.72770,37817
13.73582,45924
13.74393,63796
13.75207,112102
13.76018,249820
13.76832,514992
13.77643,935608
13.78455,1328604
13.79268,1547187
13.80080,1441284
13.80892,1138256
13.81705,847884
13.82517,631359
13.83330,521163
13.84142,506415
13.84953,510869
13.85767,507018
13.86578,459202
13.87392,377094
13.88203,296529
13.89015,245724
13.89828,197979
13.90640,180612
13.91453,153456
13.92265,140752
13.93077,131761
13.93890,123751
13.94702,115447
13.95513,115040
13.96327,108643
13.97138,113134
13.97952,111190
13.98763,113071
13.99575,116288
14.00388,121824
14.01200,117282
14.02013,103460
14.02825,101551
14.03637,89662
14.04450,91141
14.05262,88654
14.06073,84128
14.06887,83596
14.07698,84696
14.08512,84646
14.09323,82362
14.10135,76777
14.10948,74367
14.11760,76294
14.12573,78099
14.13385,75193
14.14197,71715
14.15010,76463
14.15822,76369
14.16635,84198
14.17447,92931
14.18258,118092
14.19072,149186
14.19883,198517
14.20695,214646
14.21508,223226
14.22320,210889
14.23133,179659
14.23945,163386
14.24757,145486
14.25570,136830
14.26382,129268
14.27195,127030
14.28007,111532
14.28818,104293
14.29632,103279
14.30443,87750
14.31255,82166
14.32068,81326
14.32880,75169
14.33693,74069
14.34505,66065
14.35317,61006
14.36130,62783
14.36942,59798
14.37755,51158
14.38567,54140
14.39378,68197
14.40192,99202
14.41003,171480
14.41817,291355
14.42628,451018
14.43440,539798
14.44253,529099
14.45065,405563
14.45877,285705
14.46690,187065
14.47502,134597
14.48315,109221
14.49127,94134
14.49938,91851
14.50752,81304
14.51563,75301
14.52377,74675
14.53188,67052
14.54000,69904
14.54813,67642
14.55625,62168
14.56438,58404
14.57250,59648
14.58062,58530
14.58875,51467
14.59687,54753
14.60498,50096
14.61312,51113
14.62123,48789
14.62937,47141
14.63748,44947
14.64560,42312
14.65373,43687
14.66185,45363
14.66998,41696
14.67810,41886
14.68622,43737
14.69435,44432
14.70247,44745
14.71058,44304
14.71872,42455
14.72683,43922
14.73497,43525
14.74308,45005
14.75120,47399
14.75933,44197
14.76745,45641
14.77558,46884
14.78370,49453
14.79182,64664
14.79995,105898
14.80807,259043
14.81620,613111
14.82432,1294593
14.83243,2155876
14.84057,2954451
14.84868,3130015
14.85680,2667014
14.86493,1940289
14.87305,1236327
14.88118,771834
14.88930,528268
14.89742,385333
14.90555,303005
14.91367,258646
14.92180,213692
14.92992,191663
14.93803,164343
14.94617,160124
14.95428,147804
14.96242,130456
14.97053,126078
14.97865,117741
14.98678,110003
14.99490,106998
15.00302,101833
15.01115,103591
15.01927,99539
15.02740,97528
15.03552,91711
15.04363,84801
15.05177,84083
15.05988,75449
15.06802,78105
15.07613,77262
15.08425,74055
15.09238,67987
15.10050,68774
15.10862,68903
15.11675,65727
15.12487,68135
15.13300,72430
15.14112,72725
15.14923,80651
15.15737,85842
15.16548,85898
15.17362,72056
15.18173,61035
15.18985,58873
15.19798,61094
15.20610,53538
15.21423,50862
15.22235,49057
15.23047,45239
15.23860,45898
15.24672,45344
15.25483,47225
15.26297,41551
15.27108,43138
15.27922,38814
15.28733,42191
15.29545,41218
15.30358,37763
15.31170,43873
15.31983,38650
15.32795,37382
15.33607,39521
15.34420,37725
15.35232,38584
15.36043,39642
15.36857,41457
15.37668,40976
15.38482,40468
15.39293,43448
15.40105,39783
15.40918,41248
15.41730,41253
15.42543,39371
15.43355,36207
15.44167,38856
15.44980,36210
15.45792,38604
15.46605,39050
15.47417,43155
15.48228,51276
15.49042,64686
15.49853,85390
15.50665,107054
15.51478,125544
15.52290,134316
15.53103,133304
15.53915,122193
15.54727,109041
15.55540,89151
15.56352,86041
15.57165,72174
15.57977,59146
15.58788,60059
15.59602,49647
15.60413,45105
15.61227,44029
15.62038,40513
15.62850,42370
15.63663,37943
15.64475,37997
15.65287,37151
15.66100,37322
15.66912,36614
15.67725,36331
15.68537,33270
15.69348,35318
15.70162,37470
15.70973,34527
15.71787,35286
15.72598,35697
15.73410,34207
15.74223,34740
15.75035,44512
15.75847,48894
15.76660,73089
15.77472,116615
15.78285,177413
15.79097,246390
15.79908,308550
15.80722,295916
15.81533,259287
15.82347,195731
15.83158,137340
15.83970,109464
15.84783,84832
15.85595,76241
15.86408,67993
15.87220,62423
15.88032,64125
15.88845,61691
15.89657,54709
15.90468,52318
15.91282,55917
15.92093,51094
15.92907,48098
15.93718,49668
15.94530,51136
15.95343,50721
15.96155,59546
15.96968,71896
15.97780,85490
15.98592,98895
15.99405,102754
16.00217,92806
16.01030,89391
16.01842,77839
16.02653,73852
16.03467,70805
16.04278,70277
16.05090,70940
16.05903,62151
16.06715,57448
16.07528,53599
16.08340,49566
16.09152,47978
16.09965,47848
16.10777,42734
16.11590,44684
16.12402,42307
16.13213,45681
16.14027,48531
16.14838,52875
16.15650,53613
16.16463,53759
16.17275,53867
16.18088,52271
16.18900,47274
16.19712,53897
16.20525,42917
16.21337,49231
16.22150,45271
16.22962,45067
16.23773,45483
16.24587,43964
16.25398,42457
16.26212,37866
16.27023,44201
16.27835,39317
16.28648,41375
16.29460,47080
16.30272,44768
16.31085,50272
16.31897,47832
16.32710,51241
16.33522,46426
16.34333,46376
16.35147,47261
16.35958,54797
16.36772,61058
16.37583,73387
16.38395,78656
16.39208,87516
16.40020,80209
16.40833,70161
16.41645,59958
16.42457,53608
16.43270,50164
16.44082,49313
16.44893,54808
16.45707,76888
16.46518,119888
16.47332,212328
16.48143,320250
16.48955,415438
16.49768,440071
16.50580,391613
16.51393,292380
16.52205,207923
16.53017,138927
16.53830,105495
16.54642,91574
16.55453,75986
16.56267,75956
16.57078,73852
16.57892,64871
16.58703,67530
16.59515,70487
16.60328,70379
16.61140,79629
16.61953,89047
16.62765,90418
16.63577,87516
16.64390,83074
16.65202,72371
16.66015,66459
16.66827,56622
16.67638,55961
16.68452,54973
16.69263,52393
16.70075,48666
16.70888,52004
16.71700,49007
16.72513,49597
16.73325,45557
16.74137,45892
16.74950,47971
16.75762,45742
16.76575,47975
16.77387,50167
16.78198,45864
16.79012,48648
16.79823,44103
16.80635,40464
16.81448,40193
16.82260,42761
16.83073,37399
16.83885,38646
16.84697,36978
16.85510,38482
16.86322,37570
16.87135,41054
16.87947,38701
16.88758,36823
16.89572,35081
16.90383,34489
16.91197,32352
16.92008,37468
16.92820,37739
16.93633,35641
16.94445,37844
16.95257,37975
16.96070,37290
16.96882,37015
16.97695,38982
16.98507,40022
16.99318,37073
17.00132,38411
17.00943,40387
17.01757,39210
17.02568,38725
17.03380,41373
17.04193,45618
17.05005,46178
17.05818,48074
17.06630,54315
17.07442,53813
17.08255,47572
17.09067,49079
17.09878,47854
17.10692,40744
17.11503,40829
17.12317,38833
17.13128,44978
17.13940,42157
17.14753,40612
17.15565,39602
17.16378,44648
17.17190,39859
17.18002,47785
17.18815,42584
17.19627,38373
17.20438,38999
17.21252,38306
17.22063,37773
17.22877,35548
17.23688,37069
17.24500,37043
17.25313,36640
17.26125,39132
17.26938,41211
17.27750,35166
17.28562,35893
17.29375,33320
17.30187,33732
17.31000,36522
17.31812,37463
17.32623,42801
17.33437,41772
17.34248,51723
17.35060,54036
17.35873,61289
17.36685,61281
17.37498,61921
17.38310,55907
17.39122,57028
17.39935,51436
17.40747,50799
17.41560,49313
17.42372,46188
17.43183,47304
17.43997,47534
17.44808,49096
17.45622,47611
17.46433,46029
17.47245,41777
17.48058,43001
17.48870,40108
17.49682,39203
17.50495,36862
17.51307,39538
17.52120,37264
17.52932,38722
17.53743,38772
17.54557,38634
17.55368,42007
17.56182,55733
17.56993,83298
17.57805,144796
17.58618,259625
17.59430,483517
17.60242,807392
17.61055,1156150
17.61867,1331067
17.62680,1274743
17.63492,997787
17.64303,697783
17.65117,461130
17.65928,297783
17.66742,221501
17.67553,173478
17.68365,146913
17.69178,134926
17.69990,119477
17.70803,109761
17.71615,96487
17.72427,89238
17.73240,86823
17.74052,77528
17.74863,70511
17.75677,69066
17.76488,64852
17.77302,64064
17.78113,64534
17.78925,67266
17.79738,68296
17.80550,85018
17.81363,120119
17.82175,181912
17.82987,235139
17.83800,284885
17.84612,286846
17.85423,269535
17.86237,206354
17.87048,172881
17.87862,142341
17.88673,120148
17.89485,100951
17.90298,90733
17.91110,83071
17.91923,73465
17.92735,69197
17.93547,67344
17.94360,63384
17.95172,58677
17.95985,61305
17.96797,60107
17.97608,59385
17.98422,53483
17.99233,53833
18.00045,57168
18.00858,54997
18.01670,58775
18.02483,67666
18.03295,70953
18.04107,79445
18.04920,98767
18.05732,122788
18.06545,202808
18.07357,408852
18.08168,800345
18.08982,1380632
18.09793,1974919
18.10607,2301291
18.11418,2248392
18.12230,1929029
18.13043,1483374
18.13855,1084125
18.14667,834219
18.15480,665495
18.16292,572378
18.17105,492329
18.17917,445185
18.18728,388374
18.19542,356981
18.20353,326771
18.21167,294316
18.21978,269086
18.22790,252151
18.23603,234367
18.24415,218054
18.25228,205704
18.26040,183786
18.26852,178797
18.27665,152125
18.28477,132577
18.29288,105795
18.30102,86700
18.30913,73274
18.31727,70627
18.32538,66135
18.33350,66427
18.34163,62629
18.34975,58602
18.35788,56866
18.36600,55554
18.37412,51859
18.38225,55498
18.39037,48804
18.39848,50255
18.40662,55177
18.41473,56386
18.42287,53421
18.43098,57003
18.43910,62790
18.44723,82094
18.45535,109738
18.46348,152172
18.47160,229182
18.47972,350497
18.48785,479469
18.49597,546777
18.50410,535748
18.51222,473388
18.52033,405965
18.52847,346680
18.53658,307632
18.54470,287782
18.55283,268182
18.56095,262400
18.56908,262471
18.57720,259648
18.58532,255746
18.59345,250873
18.60157,250555
18.60970,258461
18.61782,251278
18.62593,259960
18.63407,253823
18.64218,252438
18.65030,246201
18.65843,241245
18.66655,230167
18.67468,227905
18.68280,223859
18.69092,222850
18.69905,215002
18.70717,223763
18.71530,205082
18.72342,214114
18.73153,209109
18.73967,212036
18.74778,206195
18.75592,208397
18.76403,203906
18.77215,194044
18.78028,194851
18.78840,195172
18.79652,202222
18.80465,194181
18.81277,194534
18.82090,186798
18.82902,191718
18.83713,190589
18.84527,180953
18.85338,182736
18.86152,182049
18.86963,181391
18.87775,171902
18.88588,175169
18.89400,175048
18.90213,177068
18.91025,167038
18.91837,169319
18.92650,173630
18.93462,174540
18.94273,181999
18.95087,173598
18.95898,172353
18.96712,170220
18.97523,181242
18.98335,177744
18.99148,172186
18.99960,164866
19.00773,162366
19.01585,154976
19.02397,153436
19.03210,154827
19.04022,153846
19.04833,150380
19.05647,148262
19.06458,154729
19.07272,161429
19.08083,180874
19.08895,203493
19.09708,262839
19.10520,313226
19.11333,355238
19.12145,351311
19.12957,313743
19.13770,265902
19.14582,228413
19.15395,194614
19.16207,167669
19.17018,164986
19.17832,153125
19.18643,144096
19.19455,142924
19.20268,143321
19.21080,138647
19.21893,132032
19.22705,133782
19.23517,132194
19.24330,132321
19.25142,128500
19.25955,123606
19.26767,123990
19.27578,126571
19.28392,136612
19.29203,130300
19.30017,127477
19.30828,133478
19.31640,134550
19.32453,135945
19.33265,126235
19.34077,126349
19.34890,133592
19.35702,140581
19.36515,158813
19.37327,186788
19.38138,205964
19.38952,200556
19.39763,196409
19.40577,172340
19.41388,157455
19.42200,141324
19.43013,125409
19.43825,124092
19.44637,125203
19.45450,119420
19.46262,121267
19.47075,126023
19.47887,142781
19.48698,164647
19.49512,196867
19.50323,224239
19.51137,219425
19.51948,207244
19.52760,179105
19.53573,154784
19.54385,132354
19.55198,127322
19.56010,122463
19.56822,116192
19.57635,112734
19.58447,108420
19.59258,104541
19.60072,102378
19.60883,94347
19.61697,95875
19.62508,93781
19.63320,95454
19.64133,104639
19.64945,121313
19.65758,145389
19.66570,173960
19.67382,209150
19.68195,230936
19.69007,234023
19.69818,235282
19.70632,217977
19.71443,204555
19.72257,175645
19.73068,159312
19.73880,151919
19.74693,135045
19.75505,123293
19.76318,117600
19.77130,117467
19.77942,112716
19.78755,119719
19.79567,129156
19.80380,140873
19.81192,139653
19.82003,142287
19.82817,134191
19.83628,124744
19.84440,121446
19.85253,134809
19.86065,237266
19.86878,527866
19.87690,1261929
19.88502,2667221
19.89315,4671386
19.90127,6767220
19.90940,8000866
19.91752,8190991
19.92563,6973111
19.93377,5164270
19.94188,3519037
19.95002,2419956
19.95813,1750252
19.96625,1349445
19.97438,1157048
19.98250,1017981
19.99062,912544
19.99875,849116
20.00687,789359
20.01500,753997
20.02312,675597
20.03123,635621
20.03937,576682
20.04748,518719
20.05562,443492
20.06373,369368
20.07185,303860
20.07998,255001
20.08810,227534
20.09622,213775
20.10435,200492
20.11247,189393
20.12060,178121
20.12872,162778
20.13683,151984
20.14497,143634
20.15308,142327
20.16122,137158
20.16933,146170
20.17745,159817
20.18558,164858
20.19370,178412
20.20183,188965
20.20995,189787
20.21807,190295
20.22620,180935
20.23432,159138
20.24243,159171
20.25057,146539
20.25868,163394
20.26682,175652
20.27493,209245
20.28305,234031
20.29118,235564
20.29930,227884
20.30743,207405
20.31555,187019
20.32367,159582
20.33180,135185
20.33992,117399
20.34805,108574
20.35617,94487
20.36428,87196
20.37242,73739
20.38053,73335
20.38865,73287
20.39678,75781
20.40490,74703
20.41303,70714
20.42115,77717
20.42927,82920
20.43740,86841
20.44552,85309
20.45365,88857
20.46177,85049
20.46988,87681
20.47802,79088
20.48613,77501
20.49425,72556
20.50238,73697
20.51050,73421
20.51863,73127
20.52675,71752
20.53487,67414
20.54300,72788
20.55112,71149
20.55925,71134
20.56737,71154
20.57548,70262
20.58362,69025
20.59173,67897
20.59987,64464
20.60798,61167
20.61610,62240
20.62423,65578
20.63235,66767
20.64047,65753
20.64860,66059
20.65672,65338
20.66485,73658
20.67297,70944
20.68108,72370
20.68922,72648
20.69733,68051
20.70547,63553
20.71358,64034
20.72170,61330
20.72983,65370
20.73795,63116
20.74608,63394
20.75420,65636
20.76232,67269
20.77045,69533
20.77857,76483
20.78668,90779
20.79482,135660
20.80293,185144
20.81107,278694
20.81918,353608
20.82730,413536
20.83543,406643
20.84355,329406
20.85168,245390
20.85980,166519
20.86792,123701
20.87605,97460
20.88417,82364
20.89228,83627
20.90042,74470
20.90853,76842
20.91667,78024
20.92478,73223
20.93290,74215
20.94103,72672
20.94915,77165
20.95728,74368
20.96540,74146
20.97352,70370
20.98165,70429
20.98977,68099
20.99790,65103
21.00602,67057
21.01413,63793
21.02227,67971
21.03038,67860
21.03850,65976
21.04663,65585
21.05475,65816
21.06288,69437
21.07100,64616
21.07912,65661
21.08725,61753
21.09537,61542
21.10350,61793
21.11162,58489
21.11973,59131
21.12787,59842
21.13598,68254
21.14410,73520
21.15223,78902
21.16035,92341
21.16848,102954
21.17660,104055
21.18472,96654
21.19285,91821
21.20097,77067
21.20910,74670
21.21722,64689
21.22533,68679
21.23347,67720
21.24158,66140
21.24972,64833
21.25783,61826
21.26595,60787
21.27408,60658
21.28220,59498
21.29032,56562
21.29845,55035
21.30657,53689
21.31470,47174
21.32282,51577
21.33093,46079
21.33907,47690
21.34718,51779
21.35532,50180
21.36343,51820
21.37155,50717
21.37968,54684
21.38780,63005
21.39593,69124
21.40405,81016
21.41217,85703
21.42030,93960
21.42842,93387
21.43653,90712
21.44467,73886
21.45278,64970
21.46092,66864
21.46903,57625
21.47715,60398
21.48528,51447
21.49340,53033
21.50153,55550
21.50965,49262
21.51777,49566
21.52590,52318
21.53402,52143
21.54213,52268
21.55027,49200
21.55838,50807
21.56652,53407
21.57463,51966
21.58275,63113
21.59088,66333
21.59900,69136
21.60713,74748
21.61525,76129
21.62337,70505
21.63150,74585
21.63962,80130
21.64775,79384
21.65587,79935
21.66398,83957
21.67212,82518
21.68023,91651
21.68835,91727
21.69648,85920
21.70460,81083
21.71273,75473
21.72085,63522
21.72897,63813
21.73710,56590
21.74522,56535
21.75335,60366
21.76147,55704
21.76958,52585
21.77772,55059
21.78583,54634
21.79397,54320
21.80208,56256
21.81020,55498
21.81833,58730
21.82645,64533
21.83457,61999
21.84270,63796
21.85082,62261
21.85895,65974
21.86707,60260
21.87518,61182
21.88332,57190
21.89143,53785
21.89957,52100
21.90768,53938
21.91580,55208
21.92393,53887
21.93205,50284
21.94017,49857
21.94830,47565
21.95642,46163
21.96455,44909
21.97267,44608
21.98078,47018
21.98892,44160
21.99703,41065
22.00517,43730
22.01328,46050
22.02140,43781
22.02953,48964
22.03765,57027
22.04578,64340
22.05390,67078
22.06202,70100
22.07015,72768
22.07827,78718
22.08638,75136
22.09452,79046
22.10263,79737
22.11077,80767
22.11888,80861
22.12700,80994
22.13513,85394
22.14325,83406
22.15138,81934
22.15950,80289
22.16762,81020
22.17575,82534
22.18387,79524
22.19198,80637
22.20012,80429
22.20823,82635
22.21637,85026
22.22448,81882
22.23260,80394
22.24073,78808
22.24885,74196
22.25698,74403
22.26510,64728
22.27322,63165
22.28135,68451
22.28947,69690
22.29760,69555
22.30572,72130
22.31383,67426
22.32197,72259
22.33008,67545
22.33820,66788
22.34633,64160
22.35445,60316
22.36258,62229
22.37070,58030
22.37882,56860
22.38695,63140
22.39507,74767
22.40320,95606
22.41132,118410
22.41943,147704
22.42757,165994
22.43568,158528
22.44382,144551
22.45193,121118
22.46005,97210
22.46818,82017
22.47630,77544
22.48442,81573
22.49255,93569
22.50067,105403
22.50880,115563
22.51692,111515
22.52503,104792
22.53317,95404
22.54128,89822
22.54942,84929
22.55753,90229
22.56565,108295
22.57378,118666
22.58190,124505
22.59002,124174
22.59815,131873
22.60627,127661
22.61440,134629
22.62252,132725
22.63063,140229
22.63877,145356
22.64688,142668
22.65502,143092
22.66313,144199
22.67125,151025
22.67938,153563
22.68750,153250
22.69563,155594
22.70375,166121
22.71187,172633
22.72000,181205
22.72812,177253
22.73623,176108
22.74437,176809
22.75248,169218
22.76062,156573
22.76873,157006
22.77685,156973
22.78498,162198
22.79310,182778
22.80123,196955
22.80935,216797
22.81747,229298
22.82560,235953
22.83372,225678
22.84185,202013
22.84997,184621
22.85808,169853
22.86622,156990
22.87433,154581
22.88245,165713
22.89058,172578
22.89870,191099
22.90683,222699
22.91495,253800
22.92307,290115
22.93120,304331
22.93932,305799
22.94745,276955
22.95557,247255
22.96368,204516
22.97182,181292
22.97993,158110
22.98805,152949
22.99618,144481
23.00430,138588
23.01243,133174
23.02055,123170
23.02867,121608
23.03680,119204
23.04492,120574
23.05305,118989
23.06117,119362
23.06928,117487
23.07742,113212
23.08553,112208
23.09367,115530
23.10178,113609
23.10990,106016
23.11803,112666
23.12615,102649
23.13427,101549
23.14240,102681
23.15052,105078
23.15865,99861
23.16677,97823
23.17488,99339
23.18302,94538
23.19113,93660
23.19927,94818
23.20738,93157
23.21550,90688
23.22363,89915
23.23175,88917
23.23987,91252
23.24800,98954
23.25612,98582
23.26425,103218
23.27237,115611
23.28048,108247
23.28862,107128
23.29673,101723
23.30487,96161
23.31298,97782
23.32110,97469
23.32923,97276
23.33735,107627
23.34548,126681
23.35360,162788
23.36172,207565
23.36985,278012
23.37797,360740
23.38608,448164
23.39422,528450
23.40233,600460
23.41047,664109
23.41858,677505
23.42670,695062
23.43483,697619
23.44295,687256
23.45108,637744
23.45920,616150
23.46732,578181
23.47545,546818
23.48357,502712
23.49170,465468
23.49982,423203
23.50793,389019
23.51607,366579
23.52418,339549
23.53230,326638
23.54043,313287
23.54855,304946
23.55668,318483
23.56480,319122
23.57292,321063
23.58105,332202
23.58917,336183
23.59730,353974
23.60542,366707
23.61353,362626
23.62167,342179
23.62978,307574
23.63792,263920
23.64603,238315
23.65415,224423
23.66228,218836
23.67040,222811
23.67852,206469
23.68665,192681
23.69477,177462
23.70290,154425
23.71102,147158
23.71913,128890
23.72727,120894
23.73538,116592
23.74352,123560
23.75163,150352
23.75975,241497
23.76788,407898
23.77600,702326
23.78412,1095533
23.79225,1425177
23.80037,1662648
23.80850,1630264
23.81662,1466123
23.82473,1229481
23.83287,1001215
23.84098,769348
23.84912,604010
23.85723,507280
23.86535,421746
23.87348,373246
23.88160,334385
23.88973,304184
23.89785,276510
23.90597,264648
23.91410,249845
23.92222,231557
23.93033,230119
23.93847,214312
23.94658,192609
23.95472,178107
23.96283,171503
23.97095,163177
23.97908,154486
23.98720,148608
23.99533,145401
24.00345,131588
24.01157,137749
24.01970,144744
24.02782,153326
24.03593,163207
24.04407,164940
24.05218,154161
24.06032,143426
24.06843,128920
24.07655,119632
24.08468,106367
24.09280,104153
24.10093,112217
24.10905,100746
24.11717,98278
24.12530,101528
24.13342,100522
24.14155,96148
24.14967,100920
24.15778,100891
24.16592,104092
24.17403,104733
24.18215,105548
24.19028,98754
24.19840,105863
24.20653,105208
24.21465,98028
24.22277,98677
24.23090,88154
24.23902,84600
24.24715,83963
24.25527,81148
24.26338,80108
24.27152,78733
24.27963,89271
24.28777,112531
24.29588,133514
24.30400,159074
24.31213,182417
24.32025,183177
24.32837,193200
24.33650,200591
24.34462,204193
24.35275,195671
24.36087,210854
24.36898,227008
24.37712,237383
24.38523,252955
24.39337,262046
24.40148,263784
24.40960,246789
24.41773,226656
24.42585,224556
24.43397,215736
24.44210,218686
24.45022,214455
24.45835,229659
24.46647,226478
24.47458,239230
24.48272,261771
24.49083,283850
24.49897,299866
24.50708,292037
24.51520,297907
24.52333,294484
24.53145,307838
24.53958,320403
24.54770,329274
24.55582,342559
24.56395,351411
24.57207,354403
24.58018,346319
24.58832,317365
24.59643,299676
24.60457,289429
24.61268,270451
24.62080,272480
24.62893,259376
24.63705,254865
24.64518,258179
24.65330,248772
24.66142,251794
24.66955,254330
24.67767,243224
24.68580,247834
24.69392,234444
24.70203,238655
24.71017,229582
24.71828,220030
24.72640,226292
24.73453,224600
24.74265,225651
24.75078,226373
24.75890,217223
24.76702,220086
24.77515,227647
24.78327,225169
24.79140,220307
24.79952,222730
24.80763,215196
24.81577,213009
24.82388,218321
24.83200,218632
24.84013,253065
24.84825,291009
24.85638,346495
24.86450,430556
24.87262,553687
24.88075,684138
24.88887,816258
24.89700,912070
24.90512,882714
24.91323,770333
24.92137,594850
24.92948,453408
24.93762,345308
24.94573,262196
24.95385,228760
24.96198,196883
24.97010,178282
24.97822,155104
24.98635,142169
24.99447,128660
25.00260,109269
25.01072,105661
25.01883,98600
25.02697,94033
25.03508,91138
25.04322,87492
25.05133,82070
25.05945,81185
25.06758,85785
25.07570,86629
25.08382,88302
25.09195,100851
25.10007,143818
25.10820,271496
25.11632,579285
25.12443,1174788
25.13257,2108594
25.14068,3074742
25.14882,3841410
25.15693,3942948
25.16505,3369758
25.17318,2438984
25.18130,1554910
25.18943,853461
25.19755,443114
25.20567,262334
25.21380,182853
25.22192,153633
25.23003,135362
25.23817,145525
25.24628,167131
25.25442,211403
25.26253,262227
25.27065,312164
25.27878,339969
25.28690,327768
25.29503,280491
25.30315,228835
25.31127,176702
25.31940,140880
25.32752,118574
25.33565,94981
25.34377,87944
25.35188,90410
25.36002,81441
25.36813,76800
25.37625,76934
25.38438,78438
25.39250,78693
25.40063,100137
25.40875,135007
25.41687,174150
25.42500,202010
25.43312,243527
25.44125,264441
25.44937,273576
25.45748,287421
25.46562,286647
25.47373,289020
25.48185,297493
25.48998,295681
25.49810,300777
25.50623,301178
25.51435,293724
25.52247,303453
25.53060,307019
25.53872,293697
25.54685,297190
25.55497,283141
25.56308,283115
25.57122,307406
25.57933,292215
25.58747,287826
25.59558,273910
25.60370,280688
25.61183,288684
25.61995,275162
25.62807,265058
25.63620,276869
25.64432,272501
25.65245,267745
25.66057,264584
25.66868,263841
25.67682,256873
25.68493,260419
25.69307,253811
25.70118,258442
25.70930,234034
25.71743,241573
25.72555,243620
25.73368,236918
25.74180,239231
25.74992,229425
25.75805,231610
25.76617,230944
25.77428,231101
25.78242,228250
25.79053,224309
25.79867,222470
25.80678,221087
25.81490,228069
25.82303,221342
25.83115,220686
25.83928,217047
25.84740,220786
25.85552,221324
25.86365,212831
25.87177,214349
25.87988,204408
25.88802,209693
25.89613,190853
25.90427,189002
25.91238,183227
25.92050,189521
25.92863,185834
25.93675,190454
25.94488,181560
25.95300,184077
25.96112,177342
25.96925,173961
25.97737,168336
25.98550,170718
25.99362,164861
26.00173,163333
26.00987,159483
26.01798,167979
26.02610,157455
26.03423,157907
26.04235,156091
26.05048,152135
26.05860,155654
26.06672,147437
26.07485,145415
26.08297,149880
26.09110,144278
26.09922,150256
26.10733,149284
26.11547,149026
26.12358,146908
26.13172,141440
26.13983,145723
26.14795,138424
26.15608,148849
26.16420,142619
26.17232,135539
26.18045,135949
26.18857,137498
26.19670,128528
26.20482,133157
26.21293,129931
26.22107,130437
26.22918,121979
26.23732,118854
26.24543,117167
26.25355,119073
26.26168,118292
26.26980,115439
26.27792,113802
26.28605,109344
26.29417,107996
26.30230,104996
26.31042,107841
26.31853,105333
26.32667,108889
26.33478,104286
26.34292,101149
26.35103,103801
26.35915,98396
26.36728,102378
26.37540,105616
26.38353,103032
26.39165,108205
26.39977,116069
26.40790,114124
26.41602,110734
26.42413,100814
26.43227,100026
26.44038,102892
26.44852,92494
26.45663,90920
26.46475,93926
26.47288,93625
26.48100,95860
26.48913,91743
26.49725,98482
26.50537,92540
26.51350,84940
26.52162,90930
26.52973,88352
26.53787,78991
26.54598,78985
26.55412,81254
26.56223,78052
26.57035,82401
26.57848,77660
26.58660,76640
26.59473,75729
26.60285,75827
26.61097,80843
26.61910,78960
26.62722,76022
26.63535,79755
26.64347,72785
26.65158,77101
26.65972,77166
26.66783,74645
26.67595,75576
26.68408,73519
26.69220,79037
26.70033,69834
26.70845,74591
26.71657,68915
26.72470,71479
26.73282,68416
26.74095,71103
26.74907,70867
26.75718,69561
26.76532,69632
26.77343,69708
26.78157,64964
26.78968,75063
26.79780,72824
26.80593,80038
26.81405,75369
26.82217,74101
26.83030,68103
26.83842,69553
26.84655,71911
26.85467,67211
26.86278,63536
26.87092,64569
26.87903,59973
26.88717,63046
26.89528,57863
26.90340,58931
26.91153,59484
26.91965,57756
26.92777,58332
26.93590,58807
26.94402,62774
26.95215,62748
26.96027,63486
26.96838,68181
26.97652,75112
26.98463,95652
26.99277,116061
27.00088,153404
27.00900,191765
27.01713,226624
27.02525,261698
27.03338,274823
27.04150,280869
27.04962,263538
27.05775,229256
27.06587,196870
27.07398,173054
27.08212,155610
27.09023,139139
27.09837,128307
27.10648,117043
27.11460,115913
27.12273,116450
27.13085,112380
27.13898,106498
27.14710,97651
27.15522,93670
27.16335,101140
27.17147,89418
27.17960,94969
27.18772,96195
27.19583,93478
27.20397,87938
27.21208,88117
27.22020,81394
27.22833,84794
27.23645,83753
27.24458,73725
27.25270,72470
27.26082,73116
27.26895,71329
27.27707,72154
27.28520,66935
27.29332,62005
27.30143,66705
27.30957,64911
27.31768,63076
27.32580,66974
27.33393,67008
27.34205,64104
27.35018,64701
27.35830,65255
27.36642,63152
27.37455,62878
27.38267,62109
27.39080,60918
27.39892,61086
27.40703,57098
27.41517,57863
27.42328,55553
27.43142,59086
27.43953,56864
27.44765,59142
27.45578,54876
27.46390,53756
27.47202,54275
27.48015,53054
27.48827,52749
27.49640,52170
27.50452,54979
27.51263,57801
27.52077,58937
27.52888,61616
27.53702,60988
27.54513,57084
27.55325,56251
27.56138,53130
27.56950,61247
27.57762,66817
27.58575,75999
27.59387,80882
27.60200,85649
27.61012,87670
27.61823,82637
27.62637,75894
27.63448,63845
27.64262,63880
27.65073,56610
27.65885,58214
27.66698,55529
27.67510,58381
27.68323,57982
27.69135,58937
27.69947,61415
27.70760,62593
27.71572,57061
27.72383,56503
27.73197,48888
27.74008,50758
27.74822,48847
27.75633,49411
27.76445,48135
27.77258,45184
27.78070,56667
27.78883,53239
27.79695,52262
27.80507,52705
27.81320,49542
27.82132,53645
27.82945,47520
27.83757,47062
27.84568,50544
27.85382,51171
27.86193,48957
27.87005,48359
27.87818,43691
27.88630,45195
27.89443,44873
27.90255,48898
27.91067,45786
27.91880,48394
27.92692,48018
27.93505,45294
27.94317,45015
27.95128,42099
27.95942,41291
27.96753,45612
27.97567,43602
27.98378,41282
27.99190,50334
28.00003,48808
28.00815,50182
28.01627,53685
28.02440,55424
28.03252,66059
28.04065,72116
28.04877,85462
28.05688,77212
28.06502,78499
28.07313,74143
28.08127,68419
28.08938,68773
28.09750,62749
28.10563,57595
28.11375,55273
28.12187,59335
28.13000,52779
28.13812,47519
28.14625,44387
28.15437,47971
28.16248,44806
28.17062,48213
28.17873,51438
28.18687,58978
28.19498,66334
28.20310,71018
28.21123,80653
28.21935,82296
28.22748,85138
28.23560,89273
28.24372,76971
28.25185,74740
28.25997,61617
28.26808,60123
28.27622,53848
28.28433,53236
28.29247,50971
28.30058,50982
28.30870,55607
28.31683,65098
28.32495,68809
28.33308,69559
28.34120,74296
28.34932,82099
28.35745,87820
28.36557,87506
28.37368,92489
28.38182,94982
28.38993,99049
28.39807,101907
28.40618,104052
28.41430,107330
28.42243,105458
28.43055,97043
28.43868,91407
28.44680,88827
28.45492,79662
28.46305,79065
28.47117,76603
28.47930,76717
28.48742,73865
28.49553,69934
28.50367,69621
28.51178,72509
28.51990,68663
28.52803,63153
28.53615,61274
28.54428,60749
28.55240,62371
28.56052,62169
28.56865,56284
28.57677,54558
28.58490,58280
28.59302,56990
28.60113,52825
28.60927,55283
28.61738,54625
28.62552,59126
28.63363,59664
28.64175,56715
28.64988,59790
28.65800,58844
28.66612,61089
28.67425,61308
28.68237,58764
28.69050,55033
28.69862,56525
28.70673,52100
28.71487,50761
28.72298,52508
28.73112,51556
28.73923,54990
28.74735,58421
28.75548,65367
28.76360,70714
28.77172,64877
28.77985,63224
28.78797,62305
28.79610,60522
28.80422,56920
28.81233,58630
28.82047,60580
28.82858,53681
28.83672,64355
28.84483,58511
28.85295,54458
28.86108,62847
28.86920,60548
28.87733,62886
28.88545,71355
28.89357,73028
28.90170,80378
28.90982,77002
28.91793,71728
28.92607,62766
28.93418,60959
28.94232,55594
28.95043,57373
28.95855,56451
28.96668,55377
28.97480,55734
28.98293,49843
28.99105,47926
28.99917,47173
29.00730,48396
29.01542,46059
29.02355,43403
29.03167,49643
29.03978,45562
29.04792,46193
29.05603,43212
29.06415,48569
29.07228,53924
29.08040,52627
29.08853,54710
29.09665,55343
29.10477,54456
29.11290,56999
29.12102,51557
29.12915,48039
29.13727,42897
29.14538,49534
29.15352,47969
29.16163,48540
29.16975,46886
29.17788,51758
29.18600,64500
29.19413,77720
29.20225,92953
29.21037,112199
29.21850,121383
29.22662,120431
29.23475,107122
29.24287,93448
29.25098,88735
29.25912,78463
29.26723,77939
29.27537,80372
29.28348,69030
29.29160,68616
29.29973,63688
29.30785,57980
29.31597,53207
29.32410,46627
29.33222,49725
29.34035,48889
29.34847,43304
29.35658,43666
29.36472,41051
29.37283,42052
29.38097,45453
29.38908,42854
29.39720,42814
29.40533,47648
29.41345,44333
29.42157,43056
29.42970,44366
29.43782,44389
29.44595,44770
29.45407,47909
29.46218,44194
29.47032,47926
29.47843,43922
29.48657,44511
29.49468,45165
29.50280,44069
29.51093,44803
29.51905,43002
29.52718,45425
29.53530,47840
29.54342,41965
29.55155,42075
29.55967,44551
29.56778,42226
29.57592,42378
29.58403,39787
29.59217,37994
29.60028,43482
29.60840,39731
29.61653,39820
29.62465,42838
29.63278,40709
29.64090,41829
29.64902,43990
29.65715,41434
29.66527,40097
29.67340,47163
29.68152,50867
29.68963,52523
29.69777,54213
29.70588,51889
29.71400,50295
29.72213,50163
29.73025,46443
29.73838,42798
29.74650,46794
29.75462,42357
29.76275,40951
29.77087,41041
29.77900,43974
29.78712,43951
29.79523,38250
29.80337,36799
29.81148,42548
29.81960,39407
29.82773,38283
29.83585,38361
29.84398,39357
29.85210,36750
29.86022,41927
29.86835,46355
29.87647,52386
29.88460,63684
29.89272,77936
29.90083,84194
29.90897,83815
29.91708,76093
29.92522,70009
29.93333,61213
29.94145,52393
29.94958,48632
29.95770,50733
29.96582,48216
29.97395,50088
29.98207,57681
29.99020,61416
29.99832,60617
30.00643,63356
30.01457,72227
30.02268,69268
30.03082,69151
30.03893,66208
30.04705,68484
30.05518,68300
30.06330,68606
30.07143,65927
30.07955,68596
30.08767,64681
30.09580,70724
30.10392,67630
30.11203,68872
30.12017,62144
30.12828,61278
30.13642,62002
30.14453,59110
30.15265,60147
30.16078,61008
30.16890,53848
30.17703,60701
30.18515,56131
30.19327,56211
30.20140,54160
30.20952,56114
30.21763,52539
30.22577,51740
30.23388,53144
30.24202,47500
30.25013,49200
30.25825,47467
30.26638,48195
30.27450,43049
30.28263,46011
30.29075,47834
30.29887,45600
30.30700,46191
30.31512,46950
30.32325,43643
30.33137,44434
30.33948,46017
30.34762,46706
30.35573,48905
30.36385,43642
30.37198,46462
30.38010,42638
30.38823,42602
30.39635,44057
30.40447,41686
30.41260,39500
30.42072,42389
30.42885,43617
30.43697,42825
30.44508,45229
30.45322,41101
30.46133,41851
30.46945,44020
30.47758,42212
30.48570,40748
30.49383,41534
30.50195,39504
30.51007,41781
30.51820,42723
30.52632,41220
30.53445,38182
30.54257,41548
30.55068,42089
30.55882,40212
30.56693,42050
30.57507,44644
30.58318,43681
30.59130,41486
30.59943,40878
30.60755,41818
30.61567,38271
30.62380,37431
30.63192,39106
30.64005,40479
30.64817,41081
30.65628,40217
30.66442,39587
30.67253,37801
30.68067,38351
30.68878,38830
30.69690,34065
30.70503,39891
30.71315,41817
30.72128,38916
30.72940,43141
30.73752,38577
30.74565,40889
30.75377,40787
30.76188,41261
30.77002,43617
30.77813,50650
30.78627,65937
30.79438,72591
30.80250,90864
30.81063,103835
30.81875,106059
30.82688,100036
30.83500,81959
30.84312,65096
30.85125,53686
30.85937,49905
30.86748,45576
30.87562,42844
30.88373,43443
30.89187,43742
30.89998,42851
30.90810,38373
30.91623,41050
30.92435,42216
30.93248,43778
30.94060,51117
30.94872,50738
30.95685,48848
30.96497,48510
30.97310,52200
30.98122,53177
30.98933,58340
30.99747,55244
31.00558,58211
31.01370,58631
31.02183,58991
31.02995,59717
31.03808,61841
31.04620,62402
31.05432,66732
31.06245,61972
31.07057,66936
31.07870,65180
31.08682,72880
31.09493,76245
31.10307,80741
31.11118,82974
31.11932,78662
31.12743,77286
31.13555,75205
31.14368,70095
31.15180,72044
31.15992,72176
31.16805,76744
31.17617,80516
31.18430,82746
31.19242,102108
31.20053,125549
31.20867,143059
31.21678,173371
31.22492,181455
31.23303,192762
31.24115,177329
31.24928,152548
31.25740,119752
31.26552,95184
31.27365,81536
31.28177,70015
31.28990,68600
31.29802,65786
31.30613,67217
31.31427,62908
31.32238,69588
31.33052,66691
31.33863,64235
31.34675,65998
31.35488,67762
31.36300,66600
31.37113,64541
31.37925,62735
31.38737,64429
31.39550,63074
31.40362,63162
31.41173,62505
31.41987,63033
31.42798,56736
31.43612,55512
31.44423,59505
31.45235,57622
31.46048,54435
31.46860,61386
31.47673,59872
31.48485,59723
31.49297,56744
31.50110,55460
31.50922,53727
31.51735,58916
31.52547,55069
31.53358,55368
31.54172,56648
31.54983,59599
31.55795,55894
31.56608,57179
31.57420,58819
31.58233,57452
31.59045,54251
31.59857,55592
31.60670,56832
31.61482,49282
31.62295,59745
31.63107,52572
31.63918,51589
31.64732,52438
31.65543,52654
31.66355,56169
31.67168,59226
31.67980,60662
31.68793,60461
31.69605,54148
31.70417,53474
31.71230,52210
31.72042,55018
31.72855,51496
31.73667,49088
31.74478,49926
31.75292,46268
31.76103,46297
31.76917,49160
31.77728,49310
31.78540,50795
31.79353,47090
31.80165,53009
31.80977,50750
31.81790,48591
31.82602,49771
31.83415,50846
31.84227,48594
31.85038,47692
31.85852,53175
31.86663,53100
31.87477,56346
31.88288,53090
31.89100,55092
31.89913,57548
31.90725,63714
31.91537,71997
31.92350,71926
31.93162,70838
31.93975,72845
31.94787,79139
31.95598,73004
31.96412,79786
31.97223,77413
31.98037,71262
31.98848,75880
31.99660,77149
32.00473,73685
32.01285,80412
32.02098,77017
32.02910,73890
32.03722,66604
32.04535,73255
32.05347,71360
32.06158,66707
32.06972,68398
32.07783,59774
32.08597,60655
32.09408,57255
32.10220,58985
32.11033,56402
32.11845,53066
32.12658,57431
32.13470,54559
32.14282,52559
32.15095,50856
32.15907,57356
32.16720,51123
32.17532,49046
32.18343,46641
32.19157,52302
32.19968,49305
32.20780,47105
32.21593,52093
32.22405,50295
32.23218,48111
32.24030,49418
32.24842,51722
32.25655,51134
32.26467,54234
32.27280,53904
32.28092,52921
32.28903,52134
32.29717,48314
32.30528,47015
32.31340,44813
32.32153,47598
32.32965,51885
32.33778,45489
32.34590,47225
32.35402,45650
32.36215,47078
32.37027,52023
32.37840,46315
32.38652,48682
32.39463,47247
32.40277,43546
32.41088,47545
32.41902,43430
32.42713,44404
32.43525,45591
32.44338,44430
32.45150,46588
32.45962,44945
32.46775,41264
32.47587,46101
32.48400,42151
32.49212,43165
32.50023,43877
32.50837,46150
32.51648,44345
32.52462,39153
32.53273,44027
32.54085,47788
32.54898,41487
32.55710,43312
32.56523,47709
32.57335,45818
32.58147,44495
32.58960,44805
32.59772,44188
32.60583,40413
32.61397,44033
32.62208,44748
32.63022,46410
32.63833,51713
32.64645,48385
32.65458,54032
32.66270,52057
32.67083,50492
32.67895,47946
32.68707,48005
32.69520,48288
32.70332,48555
32.71143,46801
32.71957,45139
32.72768,46213
32.73582,46651
32.74393,42967
32.75205,43088
32.76018,43337
32.76830,43947
32.77643,41339
32.78455,39952
32.79267,43235
32.80080,42086
32.80892,40373
32.81705,40264
32.82517,42947
32.83328,41554
32.84142,41658
32.84953,42854
32.85765,42760
32.86578,41818
32.87390,44925
32.88203,43993
32.89015,42531
32.89827,45569
32.90640,47176
32.91452,45848
32.92265,47734
32.93077,43908
32.93888,43231
32.94702,43086
32.95513,54383
32.96325,46384
32.97138,52100
32.97950,53657
32.98763,59786
32.99575,68688
33.00387,70370
33.01200,71714
33.02012,70908
33.02825,62856
33.03637,59966
33.04448,54432
33.05262,50630
33.06073,51370
33.06887,53718
33.07698,56738
33.08510,58121
33.09323,61989
33.10135,64618
33.10947,67596
33.11760,72023
33.12572,66625
33.13385,64501
33.14197,59499
33.15008,55368
33.15822,53328
33.16633,50963
33.17447,48091
33.18258,50117
33.19070,48354
33.19883,47623
33.20695,45790
33.21508,44780
33.22320,46447
33.23132,46645
33.23945,42644
33.24757,45361
33.25568,44339
33.26382,45370
33.27193,44766
33.28007,43820
33.28818,39738
33.29630,45314
33.30443,46876
33.31255,42304
33.32068,40643
33.32880,41184
33.33692,45793
33.34505,45638
33.35317,48056
33.36128,46871
33.36942,50183
33.37753,52546
33.38567,49595
33.39378,46046
33.40190,47100
33.41003,42843
33.41815,45947
33.42628,45496
33.43440,45122
33.44252,39598
33.45065,41055
33.45877,39906
33.46690,44190
33.47502,43043
33.48313,43002
33.49127,42434
33.49938,40348
33.50750,40937
33.51563,43196
33.52375,45377
33.53188,47948
33.54000,47504
33.54812,52153
33.55625,53068
33.56437,50887
33.57250,53826
33.58062,49989
33.58873,46103
33.59687,43627
33.60498,43184
33.61312,41009
33.62123,43114
33.62935,43109
33.63748,45987
33.64560,45933
33.65372,44650
33.66185,49548
33.66997,49885
33.67810,50061
33.68622,45821
33.69433,45270
33.70247,47320
33.71058,43667
33.71872,44015
33.72683,42369
33.73495,41646
33.74308,46146
33.75120,44811
33.75932,43770
33.76745,42208
33.77557,39934
33.78370,41179
33.79182,40515
33.79993,40960
33.80807,42159
33.81618,40070
33.82432,44108
33.83243,44307
33.84055,44649
33.84868,43381
33.85680,45262
33.86493,46275
33.87305,46112
33.88117,47376
33.88930,47206
33.89742,45638
33.90553,45851
33.91367,47835
33.92178,49020
33.92992,46129
33.93803,46044
33.94615,49169
33.95428,51686
33.96240,45886
33.97053,47408
33.97865,44545
33.98677,47461
33.99490,47739
34.00302,48555
34.01113,53718
34.01927,49745
34.02738,51426
34.03552,49162
34.04363,52203
34.05175,52631
34.05988,51933
34.06800,56726
34.07613,54413
34.08425,59647
34.09237,53915
34.10050,58383
34.10862,51199
34.11675,56999
34.12487,53660
34.13298,57519
34.14112,59589
34.14923,60155
34.15735,55295
34.16548,54004
34.17360,56855
34.18173,57349
34.18985,55329
34.19797,57415
34.20610,53914
34.21422,55551
34.22235,60824
34.23047,54194
34.23858,54990
34.24672,52429
34.25483,51337
34.26297,48487
34.27108,51542
34.27920,48174
34.28733,49324
34.29545,53836
34.30357,50630
34.31170,49867
34.31982,52740
34.32795,52750
34.33607,50138
34.34418,47020
34.35232,48962
34.36043,47848
34.36857,51006
34.37668,49184
34.38480,48580
34.39293,49455
34.40105,49217
34.40918,51874
34.41730,45565
34.42542,45896
34.43355,46162
34.44167,47400
34.44978,47857
34.45792,49012
34.46603,45517
34.47417,50134
34.48228,52662
34.49040,50798
34.49853,54409
34.50665,54344
34.51478,57669
34.52290,62043
34.53102,69618
34.53915,72528
34.54727,73639
34.55538,71924
34.56352,72882
34.57163,68949
34.57977,68079
34.58788,65003
34.59600,61822
34.60413,56748
34.61225,58800
34.62038,56129
34.62850,63261
34.63662,59473
34.64475,52223
34.65287,52866
34.66100,49999
34.66912,54998
34.67723,52591
34.68537,50873
34.69348,50633
34.70160,50664
34.70973,51471
34.71785,46772
34.72598,52608
34.73410,52053
34.74222,51668
34.75035,47196
34.75847,53599
34.76660,54253
34.77472,55217
34.78283,55902
34.79097,58154
34.79908,53669
34.80720,51545
34.81533,55512
34.82345,54447
34.83158,59002
34.83970,56942
34.84782,60012
34.85595,62637
34.86407,56633
34.87220,57879
34.88032,57848
34.88843,58370
34.89657,56841
34.90468,55486
34.91282,59701
34.92093,56618
34.92905,58084
34.93718,58327
34.94530,58254
34.95342,56998
34.96155,60535
34.96967,61824
34.97780,63523
34.98592,58978
34.99403,58521
35.00217,55118
35.01028,53853
35.01842,55942
35.02653,54072
35.03465,53353
35.04278,50158
35.05090,56680
35.05903,53292
35.06715,47547
35.07527,49274
35.08340,48846
35.09152,46718
35.09963,52237
35.10777,48573
35.11588,50154
35.12402,47675
35.13213,48596
35.14025,51310
35.14838,53362
35.15650,51337
35.16463,52550
35.17275,49365
35.18087,51110
35.18900,46086
35.19712,48754
35.20523,46271
35.21337,47940
35.22148,50191
35.22962,47915
35.23773,48326
35.24585,48232
35.25398,48646
35.26210,52016
35.27023,52779
35.27835,49249
35.28647,48561
35.29460,48302
35.30272,50636
35.31085,46482
35.31897,46411
35.32708,49066
35.33522,45226
35.34333,48167
35.35145,44227
35.35958,49535
35.36770,47557
35.37583,44605
35.38395,47183
35.39207,48946
35.40020,52036
35.40832,50766
35.41645,50267
35.42457,47324
35.43268,54469
35.44082,53708
35.44893,51387
35.45707,56917
35.46518,54741
35.47330,56174
35.48143,52946
35.48955,52208
35.49767,53698
35.50580,52324
35.51392,49825
35.52205,47398
35.53017,51560
35.53828,49712
35.54642,47360
35.55453,50208
35.56267,48535
35.57078,49793
35.57890,49043
35.58703,46721
35.59515,47895
35.60327,45852
35.61140,47288
35.61952,49169
35.62765,50491
35.63577,48746
35.64388,49465
35.65202,52457
35.66013,52620
35.66827,52061
35.67638,45669
35.68450,49397
35.69263,49811
35.70075,51228
35.70888,50928
35.71700,48154
35.72512,53126
35.73325,51075
35.74137,55660
35.74948,52208
35.75762,57091
35.76573,56552
35.77387,54996
35.78198,54242
35.79010,51654
35.79823,51099
35.80635,51980
35.81448,51769
35.82260,48728
35.83072,46762
35.83885,47622
35.84697,43705
35.85508,47365
35.86322,53066
35.87133,51695
35.87947,46176
35.88758,51234
35.89570,50484
35.90383,50890
35.91195,48237
35.92008,46473
35.92820,50873
35.93632,46104
35.94445,48481
35.95257,48193
35.96070,47970
35.96882,45631
35.97693,47767
35.98507,48791
35.99318,50900
36.00130,50047
36.00943,52332
36.01755,47096
36.02568,50864
36.03380,47971
36.04192,51920
36.05005,49064
36.05817,47939
36.06630,55095
36.07442,54848
36.08253,53747
36.09067,47660
36.09878,53627
36.10692,54210
36.11503,49634
36.12315,58257
36.13128,54197
36.13940,56811
36.14752,53991
36.15565,55489
36.16377,52535
36.17190,52077
36.18002,48918
36.18813,48063
36.19627,51484
36.20438,52093
36.21252,49109
36.22063,49718
36.22875,47258
36.23688,49275
36.24500,48102
36.25312,51402
36.26125,51068
36.26937,51660
36.27750,53882
36.28562,55163
36.29373,59567
36.30187,60847
36.30998,57688
36.31812,61064
36.32623,57886
36.33435,55592
36.34248,49426
36.35060,45391
36.35873,50469
36.36685,49959
36.37497,50170
36.38310,53882
36.39122,49505
36.39933,49818
36.40747,54577
36.41558,50531
36.42372,50448
36.43183,51213
36.43995,52027
36.44808,55569
36.45620,53295
36.46433,52575
36.47245,51215
36.48057,48233
36.48870,45411
36.49682,49643
36.50495,47574
36.51307,49747
36.52118,51951
36.52932,50169
36.53743,52872
36.54555,52271
36.55368,53940
36.56180,56513
36.56993,54323
36.57805,54801
36.58617,55547
36.59430,57894
36.60242,55809
36.61055,56137
36.61867,53677
36.62678,59917
36.63492,59219
36.64303,63128
36.65115,55303
36.65928,60169
36.66740,56659
36.67553,56290
36.68365,56634
36.69177,52533
36.69990,59495
36.70802,56953
36.71615,58649
36.72427,57117
36.73238,62013
36.74052,59010
36.74863,56640
36.75677,58864
36.76488,57256
36.77300,59387
36.78113,55444
36.78925,59319
36.79737,53944
36.80550,55663
36.81362,54788
36.82175,55428
36.82987,58092
36.83798,58338
36.84612,54417
36.85423,56799
36.86237,56356
36.87048,53583
36.87860,57523
36.88673,55333
36.89485,58015
36.90297,58760
36.91110,59126
36.91922,52854
36.92735,56313
36.93547,59398
36.94358,62180
36.95172,66945
36.95983,72073
36.96797,74825
36.97608,77545
36.98420,73558
36.99233,70234
37.00045,64064
37.00858,63390
37.01670,58616
37.02482,58847
37.03295,57505
37.04107,60762
37.04918,58343
37.05732,53031
37.06543,54559
37.07357,57062
37.08168,61646
37.08980,62698
37.09793,59317
37.10605,56878
37.11418,56582
37.12230,57190
37.13042,58602
37.13855,56771
37.14667,59551
37.15480,60540
37.16292,58468
37.17103,57424
37.17917,54025
37.18728,57506
37.19540,58828
37.20353,58343
37.21165,58887
37.21978,56616
37.22790,56771
37.23602,55642
37.24415,59663
37.25227,55156
37.26040,52879
37.26852,55101
37.27663,54100
37.28477,60672
37.29288,57821
37.30100,55984
37.30913,62074
37.31725,67093
37.32538,68551
37.33350,73323
37.34162,74291
37.34975,74616
37.35787,71279
37.36600,74932
37.37412,75715
37.38223,70199
37.39037,64468
37.39848,67664
37.40662,68549
37.41473,62672
37.42285,67651
37.43098,66675
37.43910,62704
37.44722,65268
37.45535,65637
37.46347,66260
37.47160,63774
37.47972,64341
37.48783,63731
