C:\MassHunter\GCMS\1\data\JTB-E02\BACandBLUE\JTB-E18-009-13.D Thu May 16 15:29:44 2019
Start of data points
2.09530,46408
2.10343,50345
2.11155,49675
2.11967,48888
2.12780,47163
2.13592,50523
2.14405,47449
2.15217,45750
2.16028,46612
2.16842,48397
2.17653,44041
2.18465,43770
2.19278,46453
2.20090,46247
2.20903,43705
2.21715,40705
2.22527,41623
2.23340,43343
2.24152,41150
2.24965,51182
2.25777,271216
2.26588,1413595
2.27402,1399011
2.28213,547497
2.29027,302394
2.29838,248594
2.30650,211107
2.31463,189838
2.32275,179223
2.33087,171427
2.33900,147643
2.34712,135054
2.35525,125338
2.36337,117278
2.37148,118749
2.37962,111817
2.38773,107348
2.39587,104303
2.40398,110136
2.41210,105486
2.42023,102483
2.42835,100540
2.43648,96944
2.44460,95614
2.45272,89808
2.46085,91204
2.46897,91595
2.47708,103125
2.48522,121589
2.49333,107621
2.50147,95542
2.50958,91725
2.51770,90674
2.52583,90097
2.53395,90097
2.54208,108118
2.55020,173862
2.55832,174098
2.56645,126413
2.57457,111711
2.58268,107947
2.59082,122458
2.59893,255462
2.60707,325318
2.61518,230015
2.62330,159877
2.63143,134442
2.63955,118898
2.64768,110534
2.65580,99663
2.66392,99833
2.67205,92754
2.68017,92274
2.68830,92874
2.69642,87314
2.70453,88147
2.71267,83914
2.72078,84557
2.72890,82846
2.73703,87037
2.74515,81389
2.75328,82055
2.76140,95365
2.76952,290696
2.77765,731129
2.78577,661615
2.79390,375827
2.80202,269067
2.81013,240604
2.81827,209101
2.82638,198307
2.83450,168007
2.84263,147092
2.85075,139114
2.85888,124553
2.86700,120143
2.87512,116780
2.88325,108884
2.89137,102660
2.89950,101370
2.90762,96851
2.91573,97053
2.92387,100592
2.93198,96054
2.94012,92469
2.94823,89064
2.95635,91487
2.96448,83312
2.97260,90124
2.98072,91344
2.98885,91443
2.99697,92209
3.00510,92483
3.01322,90128
3.02133,86570
3.02947,84413
3.03758,81366
3.04572,84460
3.05383,95982
3.06195,96372
3.07008,132768
3.07820,372789
3.08633,895247
3.09445,1867071
3.10257,3025226
3.11070,2480220
3.11882,1502141
3.12693,1041444
3.13507,819827
3.14318,666614
3.15132,553212
3.15943,491058
3.16755,473199
3.17568,620255
3.18380,1127200
3.19193,1300283
3.20005,954713
3.20817,687834
3.21630,552237
3.22442,476733
3.23253,422987
3.24067,373317
3.24878,334187
3.25692,300683
3.26503,279971
3.27315,277894
3.28128,430508
3.28940,1167997
3.29753,2597594
3.30565,3666481
3.31377,3380448
3.32190,2435675
3.33002,1757547
3.33815,1389205
3.34627,1151604
3.35438,995242
3.36252,884464
3.37063,776401
3.37875,710822
3.38688,658209
3.39500,606081
3.40313,576503
3.41125,539801
3.41937,505336
3.42750,505508
3.43562,482055
3.44375,457697
3.45187,444345
3.45998,454505
3.46812,446953
3.47623,440772
3.48437,409688
3.49248,391092
3.50060,385438
3.50873,381458
3.51685,374033
3.52497,371246
3.53310,385111
3.54122,365563
3.54935,349349
3.55747,332419
3.56558,321611
3.57372,324907
3.58183,327268
3.58997,317350
3.59808,322723
3.60620,313564
3.61433,319518
3.62245,340642
3.63057,341540
3.63870,339026
3.64682,367990
3.65495,951212
3.66307,4040976
3.67118,9370021
3.67932,1.058595E+07
3.68743,7161534
3.69557,4200089
3.70368,3018386
3.71180,2435733
3.71993,2068379
3.72805,1800029
3.73618,1600218
3.74430,1444527
3.75242,1321302
3.76055,1226523
3.76867,1132905
3.77678,1079839
3.78492,1033056
3.79303,1079500
3.80117,1473526
3.80928,2042669
3.81740,2029574
3.82553,1535659
3.83365,1239769
3.84178,1044755
3.84990,967098
3.85802,881500
3.86615,829658
3.87427,766605
3.88240,741180
3.89052,699922
3.89863,683634
3.90677,692611
3.91488,771053
3.92300,851869
3.93113,833827
3.93925,798650
3.94738,975884
3.95550,1447037
3.96362,1677757
3.97175,1383374
3.97987,1013056
3.98800,905824
3.99612,1285666
4.00423,2072613
4.01237,2436955
4.02048,1950350
4.02860,1288874
4.03673,914447
4.04485,757227
4.05298,646563
4.06110,590063
4.06922,551469
4.07735,537516
4.08547,506958
4.09360,485126
4.10172,469176
4.10983,440243
4.11797,437813
4.12608,429429
4.13422,458377
4.14233,500113
4.15045,494788
4.15858,473288
4.16670,435034
4.17482,431482
4.18295,420554
4.19107,409877
4.19920,616806
4.20732,2072733
4.21543,6395861
4.22357,1.218145E+07
4.23168,1.487167E+07
4.23982,1.244554E+07
4.24793,7550132
4.25605,4707271
4.26418,3349711
4.27230,2542530
4.28042,2001472
4.28855,1665916
4.29667,1404567
4.30480,1205645
4.31292,1081741
4.32103,990167
4.32917,907120
4.33728,854194
4.34542,809566
4.35353,798724
4.36165,786506
4.36978,765610
4.37790,699427
4.38603,639608
4.39415,598243
4.40227,574123
4.41040,543853
4.41852,528605
4.42663,510619
4.43477,490850
4.44288,474455
4.45102,458150
4.45913,450510
4.46725,437592
4.47538,426748
4.48350,414020
4.49163,405565
4.49975,417128
4.50787,387360
4.51600,380008
4.52412,385068
4.53225,378200
4.54037,376433
4.54848,366240
4.55662,360878
4.56473,356476
4.57285,350712
4.58098,334255
4.58910,332386
4.59723,332122
4.60535,326135
4.61347,333554
4.62160,421899
4.62972,561731
4.63785,684715
4.64597,647460
4.65408,533906
4.66222,433817
4.67033,398521
4.67845,362815
4.68658,359762
4.69470,328121
4.70283,318836
4.71095,316537
4.71907,314668
4.72720,315877
4.73532,317722
4.74345,292336
4.75157,286537
4.75968,278985
4.76782,277584
4.77593,304094
4.78407,415874
4.79218,793998
4.80030,1241026
4.80843,1378933
4.81655,1098942
4.82467,800948
4.83280,690183
4.84092,628004
4.84905,565728
4.85717,511364
4.86528,449008
4.87342,401174
4.88153,393677
4.88967,374043
4.89778,360558
4.90590,338786
4.91403,332525
4.92215,336054
4.93028,378466
4.93840,569365
4.94652,1019915
4.95465,1671344
4.96277,2093536
4.97088,2062927
4.97902,1680170
4.98713,1285914
4.99527,1027014
5.00338,844014
5.01150,743038
5.01963,699692
5.02775,727178
5.03588,778755
5.04400,764317
5.05212,708412
5.06025,629437
5.06837,591494
5.07648,546105
5.08462,523430
5.09273,499363
5.10087,479256
5.10898,468932
5.11710,450899
5.12523,434059
5.13335,432634
5.14148,424109
5.14960,459861
5.15772,506357
5.16585,544212
5.17397,515380
5.18210,486024
5.19022,469336
5.19833,481518
5.20647,501549
5.21458,492455
5.22270,466964
5.23083,457910
5.23895,424598
5.24708,412847
5.25520,391631
5.26332,362519
5.27145,348824
5.27957,335899
5.28770,332618
5.29582,331191
5.30393,324770
5.31207,328621
5.32018,318948
5.32830,335762
5.33643,333825
5.34455,350977
5.35268,326006
5.36080,327453
5.36892,311510
5.37705,314080
5.38517,321821
5.39330,344445
5.40142,341956
5.40953,333496
5.41767,325700
5.42578,310797
5.43392,300914
5.44203,306149
5.45015,304000
5.45828,315098
5.46640,305142
5.47452,285060
5.48265,281515
5.49077,271515
5.49890,274940
5.50702,276067
5.51513,276611
5.52327,277655
5.53138,280119
5.53952,274411
5.54763,292762
5.55575,324581
5.56388,402351
5.57200,457594
5.58013,458735
5.58825,405238
5.59637,334293
5.60450,311183
5.61262,284901
5.62073,273670
5.62887,272690
5.63698,270530
5.64512,269414
5.65323,267568
5.66135,256562
5.66948,271232
5.67760,284900
5.68573,322987
5.69385,328484
5.70197,310658
5.71010,293475
5.71822,272697
5.72633,264598
5.73447,246527
5.74258,255109
5.75072,244799
5.75883,239177
5.76695,235741
5.77508,238158
5.78320,238064
5.79133,228001
5.79945,227946
5.80757,236364
5.81570,230598
5.82382,237118
5.83195,228962
5.84007,231552
5.84818,239021
5.85632,230586
5.86443,236971
5.87255,221081
5.88068,224219
5.88880,223224
5.89693,222987
5.90505,222738
5.91317,201112
5.92130,182332
5.92942,174331
5.93755,168489
5.94567,185316
5.95378,204325
5.96192,223822
5.97003,257539
5.97817,304692
5.98628,334835
5.99440,318328
6.00253,289343
6.01065,248921
6.01877,221321
6.02690,205874
6.03502,187112
6.04315,186243
6.05127,169978
6.05938,169091
6.06752,164605
6.07563,156225
6.08377,157407
6.09188,158787
6.10000,182432
6.10813,192581
6.11625,223701
6.12437,252490
6.13250,335750
6.14062,442390
6.14875,468751
6.15687,412667
6.16498,329202
6.17312,262670
6.18123,225916
6.18937,228593
6.19748,222034
6.20560,215165
6.21373,208306
6.22185,200218
6.22998,195110
6.23810,189790
6.24622,189590
6.25435,194468
6.26247,204162
6.27058,188846
6.27872,194565
6.28683,184827
6.29497,177178
6.30308,181294
6.31120,189876
6.31933,201945
6.32745,237447
6.33558,272080
6.34370,282185
6.35182,263164
6.35995,224482
6.36807,204794
6.37618,202703
6.38432,191951
6.39243,191692
6.40057,193982
6.40868,182270
6.41680,186209
6.42493,182890
6.43305,189284
6.44118,193437
6.44930,185389
6.45742,185145
6.46555,190706
6.47367,186352
6.48180,181452
6.48992,185891
6.49803,186089
6.50617,190518
6.51428,191489
6.52240,187061
6.53053,190668
6.53865,187184
6.54678,190378
6.55490,203935
6.56302,221742
6.57115,268675
6.57927,295990
6.58740,316266
6.59552,276126
6.60363,239897
6.61177,215780
6.61988,209269
6.62802,209116
6.63613,205112
6.64425,214946
6.65238,285966
6.66050,401377
6.66862,508726
6.67675,521117
6.68487,423163
6.69300,322212
6.70112,254311
6.70923,237673
6.71737,206120
6.72548,195942
6.73362,187740
6.74173,175854
6.74985,171132
6.75798,164186
6.76610,170421
6.77423,167900
6.78235,165049
6.79047,159949
6.79860,154239
6.80672,155279
6.81483,148035
6.82297,148135
6.83108,149661
6.83922,148284
6.84733,149548
6.85545,149365
6.86358,134951
6.87170,127213
6.87983,103729
6.88795,96328
6.89607,91324
6.90420,85756
6.91232,89782
6.92043,81659
6.92857,82957
6.93668,86036
6.94482,87232
6.95293,86400
6.96105,93742
6.96918,102598
6.97730,121821
6.98543,125733
6.99355,123878
7.00167,106599
7.00980,96019
7.01792,94868
7.02605,87492
7.03417,86606
7.04228,87246
7.05042,94377
7.05853,93681
7.06665,98163
7.07478,96540
7.08290,97940
7.09103,91535
7.09915,81414
7.10727,81057
7.11540,83371
7.12352,81681
7.13165,79695
7.13977,96728
7.14788,125895
7.15602,155624
7.16413,182573
7.17225,165630
7.18038,152695
7.18850,138868
7.19663,185232
7.20475,426989
7.21287,1032269
7.22100,1822145
7.22912,2304017
7.23725,2109505
7.24537,1493967
7.25348,895931
7.26162,563367
7.26973,363455
7.27787,228405
7.28598,145986
7.29410,119193
7.30223,107839
7.31035,105215
7.31847,112644
7.32660,117002
7.33472,116007
7.34285,116219
7.35097,107862
7.35908,101081
7.36722,96849
7.37533,99835
7.38347,94509
7.39158,89833
7.39970,91167
7.40783,89890
7.41595,96210
7.42408,82261
7.43220,80228
7.44032,87504
7.44845,85080
7.45657,86880
7.46468,88854
7.47282,86577
7.48093,88027
7.48907,81869
7.49718,77998
7.50530,72871
7.51343,91907
7.52155,113341
7.52968,165863
7.53780,286434
7.54592,427797
7.55405,612218
7.56217,732976
7.57028,721967
7.57842,636525
7.58653,473917
7.59467,339398
7.60278,237872
7.61090,180741
7.61903,142271
7.62715,118755
7.63528,111690
7.64340,98454
7.65152,98895
7.65965,91206
7.66777,85946
7.67590,83006
7.68402,81969
7.69213,79891
7.70027,81318
7.70838,85144
7.71650,78117
7.72463,75777
7.73275,79113
7.74088,80192
7.74900,80138
7.75712,84217
7.76525,83411
7.77337,90166
7.78150,89507
7.78962,94391
7.79773,100932
7.80587,102077
7.81398,107244
7.82212,104773
7.83023,94419
7.83835,88856
7.84648,84172
7.85460,80969
7.86272,86347
7.87085,100351
7.87897,107113
7.88710,110989
7.89522,118324
7.90333,109024
7.91147,95515
7.91958,99516
7.92772,101235
7.93583,113515
7.94395,123902
7.95208,127867
7.96020,126880
7.96832,111166
7.97645,97554
7.98457,88571
7.99270,79555
8.00082,71563
8.00893,70191
8.01707,69463
8.02518,68344
8.03332,64801
8.04143,66817
8.04955,73672
8.05768,67570
8.06580,66853
8.07393,67990
8.08205,64004
8.09017,63593
8.09830,63814
8.10642,63365
8.11453,59666
8.12267,65230
8.13078,71888
8.13892,83356
8.14703,98118
8.15515,100472
8.16328,91848
8.17140,88201
8.17953,80530
8.18765,69853
8.19577,68502
8.20390,67063
8.21202,65751
8.22013,66037
8.22827,63991
8.23638,66729
8.24452,63934
8.25263,61906
8.26075,62304
8.26888,59948
8.27700,58872
8.28513,63984
8.29325,60614
8.30137,63366
8.30950,65414
8.31762,68171
8.32575,70696
8.33387,65494
8.34198,66457
8.35012,61336
8.35823,60913
8.36635,61036
8.37448,59438
8.38260,63418
8.39073,59012
8.39885,58349
8.40697,60628
8.41510,58555
8.42322,59362
8.43135,53600
8.43947,61044
8.44758,55948
8.45572,54656
8.46383,57213
8.47197,55351
8.48008,53484
8.48820,52846
8.49633,58386
8.50445,63304
8.51257,90334
8.52070,186504
8.52882,395087
8.53695,735468
8.54507,1015994
8.55318,1036650
8.56132,798986
8.56943,508653
8.57757,277065
8.58568,172749
8.59380,123228
8.60193,110908
8.61005,112306
8.61817,104062
8.62630,100572
8.63442,93128
8.64255,88089
8.65067,89723
8.65878,78166
8.66692,80564
8.67503,81427
8.68317,84351
8.69128,83103
8.69940,77137
8.70753,77310
8.71565,75459
8.72378,77280
8.73190,78316
8.74002,78230
8.74815,73284
8.75627,86546
8.76438,130456
8.77252,219698
8.78063,367900
8.78877,505817
8.79688,572235
8.80500,508852
8.81313,399127
8.82125,287157
8.82938,231685
8.83750,199840
8.84562,182863
8.85375,193469
8.86187,184815
8.87000,181385
8.87812,175493
8.88623,163415
8.89437,156180
8.90248,152096
8.91060,153870
8.91873,160270
8.92685,156509
8.93498,175114
8.94310,181739
8.95122,189842
8.95935,183480
8.96747,167517
8.97560,160798
8.98372,162523
8.99183,155294
8.99997,148590
9.00808,143964
9.01620,134745
9.02433,132194
9.03245,123036
9.04058,117294
9.04870,115593
9.05682,120243
9.06495,118485
9.07307,117994
9.08120,111600
9.08932,118988
9.09743,127215
9.10557,136383
9.11368,159773
9.12182,170469
9.12993,165038
9.13805,147473
9.14618,134699
9.15430,125534
9.16242,111707
9.17055,113957
9.17867,102415
9.18680,104946
9.19492,104925
9.20303,105049
9.21117,97407
9.21928,107697
9.22742,104173
9.23553,100573
9.24365,108315
9.25178,100196
9.25990,100002
9.26802,98496
9.27615,94251
9.28427,97524
9.29240,93774
9.30052,92147
9.30863,88391
9.31677,89798
9.32488,84949
9.33302,85233
9.34113,86998
9.34925,87338
9.35738,81446
9.36550,86287
9.37363,87194
9.38175,82568
9.38987,85299
9.39800,97081
9.40612,95863
9.41423,105939
9.42237,115228
9.43048,124970
9.43862,137460
9.44673,139763
9.45485,128024
9.46298,127020
9.47110,107413
9.47923,103908
9.48735,93542
9.49547,92592
9.50360,93535
9.51172,105488
9.51985,123022
9.52797,131033
9.53608,122801
9.54422,116546
9.55233,105388
9.56045,92418
9.56858,84967
9.57670,76792
9.58483,80032
9.59295,81722
9.60107,80691
9.60920,76528
9.61732,67669
9.62545,60539
9.63357,57267
9.64168,55023
9.64982,54731
9.65793,54861
9.66605,56371
9.67418,52468
9.68230,49608
9.69043,47647
9.69855,46773
9.70667,47672
9.71480,50474
9.72292,52332
9.73105,51648
9.73917,48502
9.74728,49629
9.75542,47811
9.76353,46490
9.77167,47736
9.77978,42121
9.78790,49241
9.79603,47137
9.80415,45315
9.81227,47387
9.82040,46182
9.82852,47291
9.83665,44492
9.84477,47290
9.85288,47319
9.86102,50160
9.86913,52773
9.87727,46710
9.88538,50527
9.89350,50459
9.90163,48090
9.90975,47679
9.91788,50960
9.92600,54973
9.93412,67376
9.94225,86665
9.95037,100408
9.95848,120684
9.96662,120972
9.97473,114696
9.98287,105896
9.99098,84783
9.99910,77373
10.00723,66598
10.01535,68789
10.02348,64571
10.03160,63720
10.03972,66403
10.04785,62493
10.05597,58270
10.06408,61793
10.07222,58771
10.08033,59315
10.08847,63875
10.09658,65841
10.10470,56499
10.11283,61276
10.12095,58215
10.12908,53406
10.13720,58680
10.14532,55576
10.15345,51051
10.16157,53131
10.16970,49330
10.17782,46993
10.18593,49514
10.19407,50581
10.20218,48543
10.21030,46744
10.21843,49341
10.22655,50640
10.23468,56498
10.24280,63667
10.25092,75989
10.25905,143807
10.26717,341753
10.27530,845029
10.28342,1807761
10.29153,3136463
10.29967,4805342
10.30778,7007263
10.31592,1.045469E+07
10.32403,1.555273E+07
10.33215,2.143686E+07
10.34028,2.645868E+07
10.34840,2.703596E+07
10.35652,2.120383E+07
10.36465,1.271633E+07
10.37277,6325391
10.38090,3114858
10.38902,1957011
10.39713,1431048
10.40527,1122295
10.41338,892718
10.42152,758142
10.42963,670974
10.43775,608975
10.44588,560877
10.45400,524768
10.46212,492767
10.47025,468890
10.47837,435033
10.48650,394040
10.49462,376417
10.50273,350810
10.51087,341680
10.51898,312042
10.52712,305341
10.53523,304818
10.54335,301061
10.55148,291912
10.55960,279226
10.56773,255645
10.57585,247393
10.58397,243864
10.59210,231088
10.60022,216149
10.60833,214454
10.61647,212435
10.62458,196595
10.63272,186246
10.64083,180378
10.64895,175695
10.65708,171985
10.66520,172999
10.67333,166918
10.68145,167245
10.68957,162857
10.69770,162349
10.70582,158684
10.71393,156120
10.72207,150023
10.73018,148476
10.73832,139695
10.74643,143869
10.75455,139270
10.76268,132042
10.77080,133311
10.77893,124867
10.78705,126442
10.79517,127286
10.80330,116310
10.81142,129300
10.81955,130259
10.82767,123808
10.83578,121976
10.84392,109872
10.85203,110314
10.86015,103234
10.86828,103319
10.87640,101414
10.88453,98788
10.89265,98581
10.90077,98502
10.90890,91719
10.91702,91014
10.92515,93750
10.93327,86678
10.94138,89870
10.94952,95019
10.95763,86343
10.96577,85790
10.97388,86440
10.98200,84646
10.99013,87291
10.99825,86652
11.00637,88056
11.01450,87363
11.02262,84928
11.03075,79317
11.03887,80732
11.04698,80382
11.05512,79027
11.06323,83076
11.07137,81102
11.07948,82858
11.08760,81174
11.09573,81630
11.10385,83420
11.11197,73133
11.12010,77593
11.12822,66610
11.13635,60567
11.14447,60270
11.15258,56663
11.16072,54644
11.16883,58048
11.17697,60464
11.18508,57317
11.19320,65176
11.20133,69826
11.20945,62758
11.21758,60261
11.22570,60045
11.23382,53812
11.24195,51610
11.25007,52286
11.25818,50014
11.26632,47706
11.27443,50040
11.28257,47883
11.29068,50552
11.29880,59753
11.30693,75548
11.31505,126676
11.32318,207461
11.33130,335279
11.33942,459137
11.34755,537191
11.35567,552594
11.36380,452801
11.37192,335602
11.38003,231263
11.38817,169226
11.39628,129722
11.40440,128076
11.41253,116164
11.42065,112366
11.42878,102092
11.43690,96166
11.44502,88308
11.45315,83369
11.46127,82682
11.46940,82967
11.47752,96569
11.48563,116921
11.49377,145118
11.50188,163585
11.51000,167162
11.51813,159162
11.52625,136226
11.53438,135695
11.54250,132127
11.55062,117883
11.55875,111079
11.56687,106460
11.57500,95452
11.58312,92469
11.59123,95952
11.59937,113066
11.60748,150163
11.61562,178833
11.62373,195747
11.63185,178184
11.63998,151597
11.64810,117654
11.65622,94358
11.66435,83228
11.67247,76509
11.68060,72135
11.68872,72651
11.69683,75089
11.70497,71371
11.71308,69226
11.72122,74283
11.72933,73536
11.73745,64979
11.74558,63931
11.75370,59721
11.76182,59392
11.76995,62986
11.77807,55120
11.78620,56879
11.79432,55906
11.80243,56639
11.81057,54354
11.81868,56454
11.82682,56222
11.83493,55299
11.84305,52980
11.85118,54078
11.85930,49575
11.86743,52664
11.87555,54938
11.88367,48248
11.89180,51317
11.89992,53920
11.90803,51806
11.91617,57218
11.92428,55661
11.93242,60986
11.94053,60153
11.94865,60197
11.95678,56958
11.96490,51088
11.97303,49634
11.98115,58001
11.98927,63692
11.99740,82960
12.00552,103987
12.01365,116128
12.02177,117572
12.02988,100782
12.03802,85190
12.04613,71291
12.05425,64961
12.06238,61545
12.07050,57732
12.07863,56997
12.08675,57388
12.09487,58525
12.10300,61433
12.11112,70795
12.11925,78864
12.12737,93839
12.13548,110653
12.14362,110882
12.15173,113232
12.15987,92994
12.16798,79104
12.17610,69287
12.18423,59053
12.19235,62425
12.20047,63377
12.20860,58989
12.21672,58454
12.22485,55874
12.23297,55128
12.24108,53078
12.24922,53823
12.25733,53340
12.26547,57776
12.27358,55063
12.28170,61043
12.28983,50341
12.29795,48302
12.30607,54065
12.31420,54478
12.32232,51436
12.33045,50167
12.33857,57464
12.34668,48282
12.35482,50253
12.36293,49601
12.37107,47958
12.37918,52892
12.38730,50820
12.39543,49796
12.40355,60058
12.41168,70059
12.41980,84164
12.42792,95587
12.43605,94659
12.44417,91663
12.45228,81308
12.46042,70658
12.46853,67281
12.47667,66820
12.48478,59787
12.49290,59962
12.50103,55044
12.50915,57237
12.51728,56208
12.52540,66361
12.53352,82284
12.54165,136508
12.54977,245450
12.55788,387074
12.56602,523272
12.57413,531171
12.58227,456343
12.59038,309663
12.59850,215015
12.60663,152659
12.61475,119187
12.62288,104148
12.63100,98073
12.63912,87902
12.64725,84844
12.65537,76532
12.66350,71127
12.67162,69336
12.67973,65572
12.68787,61695
12.69598,63579
12.70410,63026
12.71223,59501
12.72035,61181
12.72848,59567
12.73660,63972
12.74472,67967
12.75285,61671
12.76097,60524
12.76910,56172
12.77722,53732
12.78533,48532
12.79347,54954
12.80158,52781
12.80972,49809
12.81783,49417
12.82595,47524
12.83408,44541
12.84220,45698
12.85032,44025
12.85845,47714
12.86657,44388
12.87470,43396
12.88282,41613
12.89093,44476
12.89907,41782
12.90718,45409
12.91532,42402
12.92343,44797
12.93155,39371
12.93968,42623
12.94780,47543
12.95592,45195
12.96405,50608
12.97217,51747
12.98030,53649
12.98842,58762
12.99653,49897
13.00467,47415
13.01278,45225
13.02092,47574
13.02903,43696
13.03715,45242
13.04528,45285
13.05340,44464
13.06153,44822
13.06965,42581
13.07777,46958
13.08590,44008
13.09402,49474
13.10213,45702
13.11027,41947
13.11838,43813
13.12652,43360
13.13463,44103
13.14275,39772
13.15088,42160
13.15900,45986
13.16713,41991
13.17525,43584
13.18337,45912
13.19150,51167
13.19962,52834
13.20775,54620
13.21587,47030
13.22398,52950
13.23212,51451
13.24023,51381
13.24835,50404
13.25648,48257
13.26460,46322
13.27273,42944
13.28085,42077
13.28897,41178
13.29710,41485
13.30522,42474
13.31335,40089
13.32147,44023
13.32958,38622
13.33772,42192
13.34583,38642
13.35395,40690
13.36208,37803
13.37020,36284
13.37833,38069
13.38645,40643
13.39457,35855
13.40270,39127
13.41082,38563
13.41895,36175
13.42707,41696
13.43518,40124
13.44332,39249
13.45143,40168
13.45957,38472
13.46768,37845
13.47580,38797
13.48393,38696
13.49205,42536
13.50017,39881
13.50830,38065
13.51642,37009
13.52455,40757
13.53267,40530
13.54078,43837
13.54892,40299
13.55703,42712
13.56517,41295
13.57328,42147
13.58140,47009
13.58953,46696
13.59765,46402
13.60577,51331
13.61390,61579
13.62202,62990
13.63015,64062
13.63827,57429
13.64638,55124
13.65452,48040
13.66263,42812
13.67077,42700
13.67888,40641
13.68700,38286
13.69513,37784
13.70325,39024
13.71138,35497
13.71950,35875
13.72762,42434
13.73575,47092
13.74387,60169
13.75198,97943
13.76012,160787
13.76823,262345
13.77637,366529
13.78448,459132
13.79260,495995
13.80073,481009
13.80885,432109
13.81698,381567
13.82510,339150
13.83322,329069
13.84135,317232
13.84947,296773
13.85760,251376
13.86572,218668
13.87383,176376
13.88197,146594
13.89008,128150
13.89820,110274
13.90633,96023
13.91445,94527
13.92258,85955
13.93070,83152
13.93882,84845
13.94695,72015
13.95507,75581
13.96320,77795
13.97132,81304
13.97943,87355
13.98757,84457
13.99568,88343
14.00380,83528
14.01193,84980
14.02005,84622
14.02818,78744
14.03630,80196
14.04442,73185
14.05255,66987
14.06067,69848
14.06880,64867
14.07692,66050
14.08503,68552
14.09317,68035
14.10128,64257
14.10942,64181
14.11753,60155
14.12565,61447
14.13378,64405
14.14190,68790
14.15002,63466
14.15815,62463
14.16627,64438
14.17440,71837
14.18252,73555
14.19063,92906
14.19877,111894
14.20688,150763
14.21502,173425
14.22313,199901
14.23125,211510
14.23938,208019
14.24750,218188
14.25563,220697
14.26375,219757
14.27187,196521
14.28000,178391
14.28812,156071
14.29623,137173
14.30437,125309
14.31248,111812
14.32062,104827
14.32873,106376
14.33685,104937
14.34498,108202
14.35310,103190
14.36123,97964
14.36935,95263
14.37747,79964
14.38560,69415
14.39372,69489
14.40183,64943
14.40997,66993
14.41808,69891
14.42622,75460
14.43433,79053
14.44245,74762
14.45058,70833
14.45870,64202
14.46683,62396
14.47495,59756
14.48307,56074
14.49120,52268
14.49932,55958
14.50745,55068
14.51557,58000
14.52368,55192
14.53182,55705
14.53993,55124
14.54805,53686
14.55618,55107
14.56430,55994
14.57243,53290
14.58055,54280
14.58867,54446
14.59680,47280
14.60492,46924
14.61305,43544
14.62117,45890
14.62928,46682
14.63742,43842
14.64553,42254
14.65365,44941
14.66178,44838
14.66990,42698
14.67803,42749
14.68615,46462
14.69427,44610
14.70240,44639
14.71052,43200
14.71865,42807
14.72677,44767
14.73488,46978
14.74302,49404
14.75113,51744
14.75927,47697
14.76738,46983
14.77550,50960
14.78363,60095
14.79175,104035
14.79987,242673
14.80800,631651
14.81612,1433524
14.82425,2593596
14.83237,3749593
14.84048,4202405
14.84862,3864285
14.85673,2961870
14.86487,1947675
14.87298,1197350
14.88110,768532
14.88923,554897
14.89735,422446
14.90548,355363
14.91360,300352
14.92172,274039
14.92985,243360
14.93797,226597
14.94608,203946
14.95422,197861
14.96233,176167
14.97047,173519
14.97858,171706
14.98670,155744
14.99483,159058
15.00295,143900
15.01108,139697
15.01920,138700
15.02732,133374
15.03545,123566
15.04357,121902
15.05168,113229
15.05982,109656
15.06793,107128
15.07607,106342
15.08418,103831
15.09230,102181
15.10043,95067
15.10855,97158
15.11668,94092
15.12480,97938
15.13292,105189
15.14105,112956
15.14917,114027
15.15730,111046
15.16542,104303
15.17353,96156
15.18167,78273
15.18978,74092
15.19790,63355
15.20603,62064
15.21415,57654
15.22228,55009
15.23040,54408
15.23852,53713
15.24665,52835
15.25477,50887
15.26290,54549
15.27102,51843
15.27913,50702
15.28727,49578
15.29538,49396
15.30352,46798
15.31163,43696
15.31975,46288
15.32788,49340
15.33600,48330
15.34412,43580
15.35225,43449
15.36037,46092
15.36850,48389
15.37662,52157
15.38473,48374
15.39287,46672
15.40098,48186
15.40912,40109
15.41723,42583
15.42535,44675
15.43348,46279
15.44160,44273
15.44972,50722
15.45785,42323
15.46597,51506
15.47410,55338
15.48222,66710
15.49033,83958
15.49847,105845
15.50658,115280
15.51472,115335
15.52283,115951
15.53095,106617
15.53908,101447
15.54720,97116
15.55533,94468
15.56345,84441
15.57157,76665
15.57970,65525
15.58782,58678
15.59593,56347
15.60407,51525
15.61218,51260
15.62032,50951
15.62843,47753
15.63655,47759
15.64468,48819
15.65280,44055
15.66093,45612
15.66905,43456
15.67717,43753
15.68530,44023
15.69342,41501
15.70155,40809
15.70967,46442
15.71778,43469
15.72592,41947
15.73403,44680
15.74215,45533
15.75028,52881
15.75840,69615
15.76653,111455
15.77465,174450
15.78277,267671
15.79090,354127
15.79902,373547
15.80715,334924
15.81527,264270
15.82338,187378
15.83152,140785
15.83963,106387
15.84775,90573
15.85588,83041
15.86400,75714
15.87213,81442
15.88025,81149
15.88837,90263
15.89650,98322
15.90462,85650
15.91275,94623
15.92087,80263
15.92898,78513
15.93712,73339
15.94523,67507
15.95337,63570
15.96148,61895
15.96960,65414
15.97773,72428
15.98585,68100
15.99397,67197
16.00210,68039
16.01022,69075
16.01835,70685
16.02647,76339
16.03458,74213
16.04272,71192
16.05083,68480
16.05897,67115
16.06708,61830
16.07520,60271
16.08333,55308
16.09145,49878
16.09957,56531
16.10770,48224
16.11582,54396
16.12395,49683
16.13207,54134
16.14018,54348
16.14832,56955
16.15643,62213
16.16457,56312
16.17268,54775
16.18080,58054
16.18893,51190
16.19705,53990
16.20518,52674
16.21330,49830
16.22142,50949
16.22955,51189
16.23767,49727
16.24578,50780
16.25392,48021
16.26203,45124
16.27017,48741
16.27828,47006
16.28640,51895
16.29453,53366
16.30265,57460
16.31078,53254
16.31890,54530
16.32702,53172
16.33515,53993
16.34327,52234
16.35140,59311
16.35952,64190
16.36763,71759
16.37577,76420
16.38388,85301
16.39200,85064
16.40013,81397
16.40825,67814
16.41638,64903
16.42450,60422
16.43262,57524
16.44075,67485
16.44887,89440
16.45700,141078
16.46512,267463
16.47323,481349
16.48137,687892
16.48948,831791
16.49760,799825
16.50573,636158
16.51385,443100
16.52198,290585
16.53010,190014
16.53822,147041
16.54635,118152
16.55447,102786
16.56260,93343
16.57072,96402
16.57883,87107
16.58697,83216
16.59508,82640
16.60322,79839
16.61133,80973
16.61945,76882
16.62758,75174
16.63570,79725
16.64382,71930
16.65195,68312
16.66007,69440
16.66820,64387
16.67632,64062
16.68443,64538
16.69257,60596
16.70068,55730
16.70882,58102
16.71693,56365
16.72505,57502
16.73318,48748
16.74130,52077
16.74943,58437
16.75755,57185
16.76567,58933
16.77380,63855
16.78192,63553
16.79003,54193
16.79817,53314
16.80628,49399
16.81442,50275
16.82253,47735
16.83065,47204
16.83878,48647
16.84690,48265
16.85503,49568
16.86315,51907
16.87127,44214
16.87940,44978
16.88752,42650
16.89563,49127
16.90377,47543
16.91188,45609
16.92002,44701
16.92813,49431
16.93625,44536
16.94438,45564
16.95250,44864
16.96063,45255
16.96875,45895
16.97687,43237
16.98500,41586
16.99312,46453
17.00125,45137
17.00937,44527
17.01748,46904
17.02562,44513
17.03373,44906
17.04185,48587
17.04998,50757
17.05810,52857
17.06623,51992
17.07435,51930
17.08247,52219
17.09060,53481
17.09872,59149
17.10685,63695
17.11497,67903
17.12308,67817
17.13122,72659
17.13933,66208
17.14745,63143
17.15558,62749
17.16370,58556
17.17183,56368
17.17995,58039
17.18807,54571
17.19620,47607
17.20432,44765
17.21245,44051
17.22057,49496
17.22868,45577
17.23682,45035
17.24493,45725
17.25307,51355
17.26118,47733
17.26930,49062
17.27743,46621
17.28555,44336
17.29367,42354
17.30180,42034
17.30992,44307
17.31805,47529
17.32617,50432
17.33428,53350
17.34242,58551
17.35053,63115
17.35867,64550
17.36678,66189
17.37490,63354
17.38303,60648
17.39115,61302
17.39928,65283
17.40740,60304
17.41552,57024
17.42365,55954
17.43177,59345
17.43988,56279
17.44802,65051
17.45613,55719
17.46427,56165
17.47238,49001
17.48050,46415
17.48863,48238
17.49675,48070
17.50488,44633
17.51300,49406
17.52112,47120
17.52925,48261
17.53737,46125
17.54550,48797
17.55362,49564
17.56173,59523
17.56987,85239
17.57798,126996
17.58610,197433
17.59423,315662
17.60235,426013
17.61048,556647
17.61860,575760
17.62672,534125
17.63485,439700
17.64297,319843
17.65110,235795
17.65922,186874
17.66733,155623
17.67547,137392
17.68358,132933
17.69170,116289
17.69983,99559
17.70795,95476
17.71608,86602
17.72420,84951
17.73232,82436
17.74045,78139
17.74857,71370
17.75670,72473
17.76482,70203
17.77293,64289
17.78107,64253
17.78918,56653
17.79732,61061
17.80543,63239
17.81355,60847
17.82168,62632
17.82980,62188
17.83792,64677
17.84605,73688
17.85417,74464
17.86230,79406
17.87042,89046
17.87853,88176
17.88667,83059
17.89478,71707
17.90292,61466
17.91103,61115
17.91915,52745
17.92728,53398
17.93540,56576
17.94352,49557
17.95165,48887
17.95977,53381
17.96790,50578
17.97602,45547
17.98413,48339
17.99227,44908
18.00038,46219
18.00852,52461
18.01663,62303
18.02475,69309
18.03288,84912
18.04100,102996
18.04913,102869
18.05725,101172
18.06537,90226
18.07350,85486
18.08162,89710
18.08973,91312
18.09787,104055
18.10598,104318
18.11412,99753
18.12223,95369
18.13035,94341
18.13848,93471
18.14660,90822
18.15473,91237
18.16285,85965
18.17097,82761
18.17910,78897
18.18722,74635
18.19535,74353
18.20347,67624
18.21158,66290
18.21972,63184
18.22783,64741
18.23595,60970
18.24408,62579
18.25220,62670
18.26033,55130
18.26845,58591
18.27657,54840
18.28470,61293
18.29282,57160
18.30095,46331
18.30907,44139
18.31718,48680
18.32532,49371
18.33343,47570
18.34155,45853
18.34968,41140
18.35780,45660
18.36593,43068
18.37405,44290
18.38217,43124
18.39030,41603
18.39842,43361
18.40655,40606
18.41467,45162
18.42278,45666
18.43092,50229
18.43903,54581
18.44717,67459
18.45528,79807
18.46340,113866
18.47153,135710
18.47965,174399
18.48777,198361
18.49590,208635
18.50402,187673
18.51215,163259
18.52027,127358
18.52838,101262
18.53652,84587
18.54463,70975
18.55277,64776
18.56088,64485
18.56900,62230
18.57713,63985
18.58525,58010
18.59338,57961
18.60150,57922
18.60962,58960
18.61775,61855
18.62587,60030
18.63398,61988
18.64212,58300
18.65023,60034
18.65837,55733
18.66648,53796
18.67460,52367
18.68273,48139
18.69085,46558
18.69898,44597
18.70710,44209
18.71522,46991
18.72335,44805
18.73147,43674
18.73958,53722
18.74772,68197
18.75583,85781
18.76397,106445
18.77208,119618
18.78020,129264
18.78833,134451
18.79645,141674
18.80458,151725
18.81270,146763
18.82082,154109
18.82895,145562
18.83707,160792
18.84520,158332
18.85332,156545
18.86143,155392
18.86957,166636
18.87768,158519
18.88580,162249
18.89393,163693
18.90205,158384
18.91018,161191
18.91830,166115
18.92642,167423
18.93455,173163
18.94267,172843
18.95080,183738
18.95892,175205
18.96703,190211
18.97517,184444
18.98328,177888
18.99140,168024
18.99953,162680
19.00765,157814
19.01578,166294
19.02390,156813
19.03202,153464
19.04015,154394
19.04827,145276
19.05640,161038
19.06452,198177
19.07263,291736
19.08077,520481
19.08888,925946
19.09702,1456139
19.10513,2044304
19.11325,2337873
19.12138,2230644
19.12950,1826940
19.13762,1352517
19.14575,924543
19.15387,618629
19.16200,450338
19.17012,358077
19.17823,311318
19.18637,268768
19.19448,248743
19.20262,222723
19.21073,213876
19.21885,198061
19.22698,193076
19.23510,180442
19.24323,164530
19.25135,164147
19.25947,153802
19.26760,152699
19.27572,155976
19.28383,155749
19.29197,167937
19.30008,171760
19.30822,160891
19.31633,167492
19.32445,160584
19.33258,150589
19.34070,147884
19.34883,149728
19.35695,163257
19.36507,173621
19.37320,190171
19.38132,194288
19.38943,193144
19.39757,179217
19.40568,164528
19.41382,148109
19.42193,143521
19.43005,138595
19.43818,131636
19.44630,132895
19.45443,124693
19.46255,123474
19.47067,125775
19.47880,124817
19.48692,132294
19.49505,140421
19.50317,164862
19.51128,199396
19.51942,223281
19.52753,238838
19.53565,230624
19.54378,190333
19.55190,167868
19.56003,149713
19.56815,130358
19.57627,126807
19.58440,114266
19.59252,115620
19.60065,106727
19.60877,107339
19.61688,101999
19.62502,107972
19.63313,108671
19.64127,129574
19.64938,159524
19.65750,214313
19.66563,271893
19.67375,337937
19.68187,384292
19.69000,395867
19.69812,380864
19.70625,343363
19.71437,303703
19.72248,265538
19.73062,231617
19.73873,201885
19.74687,175534
19.75498,164758
19.76310,156458
19.77123,142016
19.77935,139598
19.78747,133773
19.79560,146563
19.80372,147344
19.81185,151422
19.81997,144589
19.82808,134237
19.83622,125186
19.84433,116589
19.85247,112044
19.86058,105158
19.86870,108329
19.87683,111596
19.88495,121648
19.89308,146171
19.90120,158325
19.90932,188448
19.91745,202708
19.92557,212214
19.93368,205904
19.94182,202358
19.94993,186860
19.95807,187409
19.96618,183276
19.97430,174207
19.98243,161802
19.99055,164103
19.99868,161230
20.00680,159532
20.01492,162268
20.02305,158664
20.03117,160032
20.03930,154464
20.04742,146472
20.05553,135783
20.06367,119225
20.07178,128968
20.07990,127688
20.08803,127192
20.09615,127257
20.10428,121213
20.11240,116845
20.12052,104723
20.12865,103116
20.13677,100842
20.14490,99233
20.15302,102219
20.16113,109737
20.16927,117718
20.17738,137908
20.18550,153795
20.19363,171317
20.20175,189849
20.20988,177943
20.21800,161228
20.22612,154812
20.23425,141721
20.24237,139489
20.25050,150030
20.25862,181897
20.26673,238360
20.27487,320105
20.28298,382854
20.29112,442778
20.29923,441463
20.30735,390379
20.31548,334133
20.32360,275255
20.33172,221886
20.33985,187965
20.34797,149200
20.35610,131306
20.36422,111609
20.37233,106637
20.38047,105436
20.38858,96521
20.39672,89214
20.40483,95846
20.41295,93141
20.42108,95335
20.42920,100823
20.43732,104141
20.44545,117167
20.45357,122298
20.46170,126025
20.46982,116511
20.47793,114089
20.48607,102880
20.49418,96621
20.50232,94039
20.51043,90169
20.51855,82688
20.52668,76735
20.53480,77843
20.54293,75535
20.55105,79341
20.55917,73074
20.56730,72214
20.57542,73643
20.58353,73786
20.59167,68620
20.59978,68683
20.60792,63830
20.61603,67047
20.62415,64896
20.63228,65902
20.64040,64996
20.64853,74489
20.65665,67357
20.66477,69728
20.67290,71100
20.68102,67006
20.68915,67608
20.69727,66999
20.70538,61193
20.71352,67311
20.72163,63267
20.72975,64821
20.73788,61246
20.74600,62539
20.75413,64039
20.76225,69226
20.77037,67455
20.77850,79690
20.78662,86614
20.79475,110222
20.80287,149136
20.81098,200462
20.81912,247258
20.82723,277255
20.83535,263056
20.84348,216016
20.85160,171755
20.85973,131628
20.86785,109666
20.87597,90091
20.88410,81639
20.89222,75553
20.90035,77102
20.90847,74122
20.91658,70281
20.92472,76181
20.93283,76134
20.94097,71772
20.94908,69117
20.95720,68409
20.96533,70260
20.97345,68185
20.98157,64963
20.98970,62965
20.99782,62728
21.00595,67821
21.01407,64097
21.02218,64391
21.03032,61249
21.03843,67757
21.04657,67919
21.05468,64707
21.06280,73149
21.07093,67575
21.07905,69632
21.08718,71490
21.09530,66568
21.10342,66811
21.11155,67211
21.11967,65606
21.12778,69830
21.13592,75875
21.14403,96604
21.15217,127262
21.16028,156846
21.16840,175921
21.17653,184911
21.18465,171883
21.19278,140649
21.20090,117994
21.20902,99609
21.21715,85131
21.22527,86854
21.23338,75437
21.24152,72341
21.24963,69884
21.25777,65008
21.26588,67957
21.27400,64256
21.28213,65363
21.29025,63749
21.29838,61021
21.30650,62980
21.31462,65685
21.32275,62026
21.33087,59842
21.33900,56695
21.34712,58998
21.35523,54487
21.36337,65816
21.37148,58473
21.37960,53591
21.38773,57853
21.39585,61677
21.40398,67258
21.41210,69519
21.42022,70808
21.42835,71967
21.43647,73066
21.44460,64834
21.45272,65047
21.46083,63749
21.46897,62406
21.47708,56364
21.48520,58627
21.49333,54553
21.50145,52016
21.50958,52975
21.51770,53510
21.52582,52077
21.53395,53708
21.54207,52929
21.55020,50986
21.55832,55327
21.56643,57604
21.57457,52070
21.58268,62525
21.59082,61405
21.59893,64775
21.60705,69008
21.61518,70467
21.62330,73992
21.63142,77727
21.63955,89193
21.64767,100342
21.65580,104268
21.66392,108707
21.67203,100783
21.68017,102091
21.68828,101954
21.69642,93528
21.70453,87138
21.71265,78338
21.72078,70928
21.72890,64999
21.73703,68092
21.74515,61491
21.75327,60014
21.76140,61633
21.76952,62408
21.77763,56893
21.78577,60817
21.79388,57351
21.80202,56404
21.81013,62451
21.81825,64592
21.82638,67873
21.83450,74217
21.84263,85537
21.85075,95189
21.85887,98391
21.86700,88259
21.87512,81215
21.88323,68219
21.89137,62884
21.89948,64516
21.90762,59799
21.91573,55127
21.92385,53937
21.93198,53470
21.94010,53919
21.94823,52546
21.95635,48475
21.96447,48070
21.97260,51952
21.98072,46716
21.98885,44669
21.99697,46979
22.00508,47051
22.01322,46616
22.02133,45931
22.02945,49274
22.03758,52549
22.04570,51521
22.05383,50355
22.06195,50024
22.07007,49214
22.07820,48825
22.08632,49992
22.09445,49664
22.10257,50624
22.11068,50429
22.11882,47579
22.12693,44377
22.13507,48837
22.14318,49315
22.15130,59413
22.15943,66817
22.16755,64660
22.17567,76536
22.18380,79558
22.19192,79938
22.20005,77672
22.20817,79443
22.21628,78874
22.22442,83786
22.23253,86330
22.24067,91490
22.24878,86343
22.25690,87029
22.26503,92564
22.27315,96672
22.28127,89004
22.28940,94515
22.29752,97737
22.30565,98878
22.31377,98161
22.32188,102866
22.33002,104483
22.33813,96940
22.34627,99090
22.35438,97028
22.36250,86347
22.37063,86469
22.37875,77988
22.38688,79953
22.39500,76896
22.40312,90961
22.41125,109719
22.41937,129377
22.42748,134452
22.43562,129061
22.44373,127932
22.45187,107334
22.45998,95565
22.46810,79108
22.47623,79149
22.48435,77238
22.49248,79171
22.50060,84127
22.50872,87468
22.51685,89486
22.52497,81382
22.53308,80136
22.54122,79673
22.54933,72225
22.55747,63831
22.56558,62374
22.57370,63049
22.58183,60790
22.58995,53156
22.59808,53636
22.60620,54998
22.61432,49502
22.62245,46028
22.63057,47796
22.63870,44074
22.64682,45721
22.65493,52676
22.66307,51523
22.67118,60024
22.67930,79751
22.68743,90859
22.69555,109063
22.70368,132798
22.71180,148682
22.71992,154484
22.72805,161215
22.73617,163089
22.74430,161132
22.75242,149031
22.76053,156341
22.76867,151170
22.77678,148945
22.78492,153827
22.79303,168167
22.80115,178013
22.80928,187280
22.81740,190827
22.82552,188639
22.83365,183153
22.84177,174307
22.84990,165330
22.85802,160880
22.86613,156796
22.87427,157757
22.88238,165147
22.89052,171266
22.89863,179148
22.90675,193586
22.91488,200903
22.92300,202372
22.93113,217162
22.93925,224403
22.94737,225192
22.95550,214901
22.96362,198264
22.97173,184242
22.97987,173293
22.98798,162482
22.99612,148514
23.00423,145761
23.01235,136535
23.02048,135128
23.02860,133706
23.03673,129773
23.04485,126907
23.05297,125334
23.06110,125030
23.06922,123476
23.07733,121378
23.08547,117836
23.09358,118670
23.10172,119062
23.10983,118229
23.11795,109458
23.12608,116051
23.13420,114419
23.14233,106798
23.15045,117052
23.15857,105813
23.16670,106279
23.17482,107406
23.18295,111790
23.19107,101131
23.19918,105434
23.20732,101820
23.21543,99543
23.22355,98691
23.23168,96923
23.23980,98499
23.24793,99466
23.25605,102991
23.26417,105670
23.27230,107883
23.28042,109391
23.28855,107633
23.29667,109428
23.30478,97185
23.31292,94745
23.32103,102079
23.32915,95532
23.33728,102157
23.34540,109137
23.35353,128651
23.36165,137524
23.36977,149936
23.37790,152446
23.38602,152061
23.39415,146544
23.40227,138929
23.41038,135263
23.41852,128434
23.42663,126706
23.43477,121351
23.44288,118125
23.45100,114937
23.45913,107419
23.46725,107514
23.47537,105555
23.48350,109639
23.49162,102650
23.49975,99243
23.50787,97994
23.51598,96955
23.52412,93762
23.53223,95004
23.54037,93027
23.54848,98440
23.55660,95424
23.56473,97502
23.57285,113626
23.58098,123658
23.58910,167851
23.59722,209322
23.60535,235254
23.61347,245295
23.62158,236269
23.62972,220935
23.63783,190298
23.64597,169158
23.65408,157757
23.66220,154521
23.67033,154993
23.67845,151945
23.68658,139162
23.69470,134599
23.70282,125140
23.71095,109522
23.71907,106095
23.72718,98107
23.73532,96119
23.74343,101211
23.75157,124227
23.75968,206199
23.76780,393453
23.77593,759632
23.78405,1322972
23.79218,1923661
23.80030,2294947
23.80842,2361687
23.81655,2150053
23.82467,1776137
23.83280,1354265
23.84092,1059125
23.84903,810359
23.85717,629193
23.86528,516135
23.87340,441790
23.88153,379182
23.88965,345396
23.89778,313924
23.90590,290653
23.91402,272494
23.92215,260556
23.93027,240666
23.93840,220351
23.94652,215052
23.95463,195467
23.96277,191013
23.97088,180269
23.97902,158373
23.98713,156668
23.99525,145138
24.00338,157963
24.01150,176476
24.01962,211556
24.02775,270032
24.03587,316797
24.04400,332912
24.05212,326442
24.06023,277372
24.06837,212066
24.07648,164371
24.08462,135422
24.09273,125895
24.10085,110171
24.10898,105597
24.11710,104877
24.12522,110424
24.13335,122710
24.14147,129324
24.14960,142224
24.15772,155399
24.16583,149012
24.17397,142693
24.18208,132784
24.19022,123926
24.19833,118088
24.20645,122109
24.21458,113000
24.22270,110694
24.23083,108031
24.23895,100621
24.24707,98831
24.25520,91836
24.26332,88224
24.27143,85041
24.27957,84567
24.28768,79579
24.29582,81137
24.30393,77066
24.31205,78210
24.32018,79541
24.32830,80078
24.33643,80280
24.34455,81674
24.35267,75727
24.36080,74967
24.36892,72869
24.37703,76913
24.38517,76648
24.39328,93917
24.40142,113163
24.40953,131780
24.41765,161894
24.42578,175475
24.43390,181783
24.44203,169549
24.45015,169333
24.45827,177580
24.46640,177905
24.47452,187133
24.48265,184709
24.49077,191711
24.49888,201479
24.50702,205844
24.51513,209431
24.52325,214843
24.53138,226121
24.53950,225851
24.54763,228251
24.55575,229779
24.56387,219393
24.57200,219138
24.58012,217999
24.58825,205020
24.59637,197416
24.60448,201464
24.61262,203248
24.62073,188352
24.62887,182401
24.63698,180211
24.64510,188076
24.65323,179668
24.66135,175887
24.66947,175552
24.67760,171915
24.68572,169053
24.69385,170963
24.70197,167057
24.71008,166714
24.71822,155971
24.72633,164853
24.73447,159736
24.74258,154535
24.75070,156572
24.75883,150416
24.76695,150669
24.77507,162569
24.78320,158257
24.79132,164786
24.79945,163695
24.80757,162040
24.81568,164256
24.82382,163429
24.83193,165283
24.84007,174857
24.84818,202698
24.85630,229638
24.86443,275318
24.87255,338508
24.88068,422601
24.88880,528369
24.89692,572955
24.90505,565810
24.91317,503278
24.92128,421370
24.92942,334547
24.93753,273033
24.94567,232779
24.95378,198010
24.96190,179625
24.97003,178487
24.97815,171927
24.98628,161284
24.99440,158763
25.00252,163302
25.01065,163431
25.01877,155043
25.02690,159159
25.03502,158639
25.04313,159089
25.05127,153101
25.05938,151661
25.06750,158892
25.07563,152663
25.08375,147469
25.09188,154929
25.10000,177876
25.10812,247847
25.11625,435486
25.12437,762529
25.13250,1292123
25.14062,2020322
25.14873,2526599
25.15687,2667080
25.16498,2427823
25.17310,1921011
25.18123,1348972
25.18935,893347
25.19748,565864
25.20560,393679
25.21372,278419
25.22185,227310
25.22997,207596
25.23810,214658
25.24622,255159
25.25433,331364
25.26247,440515
25.27058,564583
25.27872,645517
25.28683,620407
25.29495,581385
25.30308,462614
25.31120,346669
25.31932,247488
25.32745,185319
25.33557,145531
25.34370,125281
25.35182,104649
25.35993,98405
25.36807,94079
25.37618,90508
25.38432,81188
25.39243,81723
25.40055,80943
25.40868,77169
25.41680,73231
25.42493,75024
25.43305,71206
25.44117,67276
25.44930,72177
25.45742,73782
25.46553,69151
25.47367,74680
25.48178,78315
25.48992,76214
25.49803,72326
25.50615,74321
25.51428,70483
25.52240,75020
25.53053,65968
25.53865,66410
25.54677,60307
25.55490,61387
25.56302,62511
25.57113,59202
25.57927,62033
25.58738,57994
25.59552,60453
25.60363,58807
25.61175,61810
25.61988,72582
25.62800,72830
25.63613,78965
25.64425,80863
25.65237,99684
25.66050,87876
25.66862,87130
25.67675,76073
25.68487,63978
25.69298,65149
25.70112,62557
25.70923,68889
25.71735,74555
25.72548,92505
25.73360,117747
25.74173,127754
25.74985,146151
25.75797,141681
25.76610,156110
25.77422,158826
25.78235,164201
25.79047,174703
25.79858,169633
25.80672,177660
25.81483,169140
25.82295,173757
25.83108,178001
25.83920,175552
25.84733,178259
25.85545,182029
25.86357,183918
25.87170,182835
25.87982,175263
25.88795,172622
25.89607,168158
25.90418,165959
25.91232,168656
25.92043,163547
25.92857,167525
25.93668,162255
25.94480,166045
25.95293,167145
25.96105,158824
25.96917,160243
25.97730,160856
25.98542,159693
25.99355,156488
26.00167,163888
26.00978,149942
26.01792,155579
26.02603,151637
26.03417,147411
26.04228,143472
26.05040,148718
26.05853,144893
26.06665,144223
26.07478,145684
26.08290,139328
26.09102,143901
26.09915,148758
26.10727,146301
26.11538,149363
26.12352,134692
26.13163,142900
26.13977,146589
26.14788,148281
26.15600,150623
26.16413,150872
26.17225,145361
26.18038,139674
26.18850,143291
26.19662,135953
26.20475,133478
26.21287,128014
26.22098,125154
26.22912,124642
26.23723,125333
26.24537,119859
26.25348,122047
26.26160,127959
26.26973,127762
26.27785,124069
26.28598,118884
26.29410,118087
26.30222,116128
26.31035,116043
26.31847,115336
26.32660,108298
26.33472,114103
26.34283,112899
26.35097,110857
26.35908,122548
26.36720,123042
26.37533,130675
26.38345,145289
26.39158,169020
26.39970,182617
26.40782,180337
26.41595,184096
26.42407,166335
26.43220,157469
26.44032,139181
26.44843,130978
26.45657,124775
26.46468,118645
26.47282,119268
26.48093,116688
26.48905,110850
26.49718,108624
26.50530,104626
26.51342,105820
26.52155,101506
26.52967,96001
26.53780,98064
26.54592,101508
26.55403,93787
26.56217,97475
26.57028,94718
26.57842,89445
26.58653,88877
26.59465,94976
26.60278,86751
26.61090,90049
26.61902,87499
26.62715,89746
26.63527,87707
26.64340,89724
26.65152,84383
26.65963,87055
26.66777,86647
26.67588,93174
26.68402,88481
26.69213,82256
26.70025,84977
26.70838,80595
26.71650,76789
26.72463,77595
26.73275,76302
26.74087,71579
26.74900,76495
26.75712,72360
26.76523,72918
26.77337,70554
26.78148,68734
26.78962,67295
26.79773,68865
26.80585,76047
26.81398,75776
26.82210,75617
26.83023,72962
26.83835,70037
26.84647,69536
26.85460,68412
26.86272,70406
26.87085,68298
26.87897,67491
26.88708,63807
26.89522,59812
26.90333,65325
26.91145,61854
26.91958,65887
26.92770,59021
26.93583,63388
26.94395,60793
26.95207,58755
26.96020,64950
26.96832,60951
26.97645,78766
26.98457,101574
26.99268,134409
27.00082,197362
27.00893,293382
27.01705,389219
27.02518,467896
27.03330,522060
27.04143,543503
27.04955,501926
27.05767,442661
27.06580,372231
27.07392,316314
27.08205,259666
27.09017,224349
27.09828,205356
27.10642,180375
27.11453,163910
27.12267,160641
27.13078,138684
27.13890,130891
27.14703,129195
27.15515,124916
27.16327,126055
27.17140,129918
27.17952,129537
27.18765,134409
27.19577,146679
27.20388,137946
27.21202,131965
27.22013,123357
27.22827,120201
27.23638,105810
27.24450,102795
27.25263,93797
27.26075,85598
27.26888,88609
27.27700,83582
27.28512,86128
27.29325,81536
27.30137,80588
27.30948,81448
27.31762,79547
27.32573,74899
27.33387,70706
27.34198,73811
27.35010,74130
27.35823,76793
27.36635,77609
27.37448,74606
27.38260,73690
27.39072,74607
27.39885,70742
27.40697,69908
27.41508,72688
27.42322,65272
27.43133,66192
27.43947,64450
27.44758,62549
27.45570,63075
27.46383,64584
27.47195,60015
27.48008,61579
27.48820,60360
27.49632,59430
27.50445,58673
27.51257,59122
27.52070,62500
27.52882,61950
27.53693,63151
27.54507,65292
27.55318,64927
27.56130,62903
27.56943,65279
27.57755,69045
27.58568,71833
27.59380,82007
27.60192,82515
27.61005,89320
27.61817,85280
27.62630,75999
27.63442,70022
27.64253,66112
27.65067,63046
27.65878,55134
27.66690,58965
27.67503,55319
27.68315,59730
27.69128,56939
27.69940,64088
27.70752,57076
27.71565,57481
27.72377,57145
27.73190,52302
27.74002,54995
27.74813,54030
27.75627,56077
27.76438,63124
27.77252,70357
27.78063,86808
27.78875,96929
27.79688,92878
27.80500,94234
27.81312,95278
27.82125,87238
27.82937,70268
27.83750,64646
27.84562,61156
27.85373,54681
27.86187,54852
27.86998,55297
27.87812,56933
27.88623,53176
27.89435,53737
27.90248,50988
27.91060,49343
27.91873,54760
27.92685,50145
27.93497,51687
27.94310,50226
27.95122,49205
27.95933,49290
27.96747,47347
27.97558,47076
27.98372,51561
27.99183,53967
27.99995,55628
28.00808,58718
28.01620,55232
28.02433,61145
28.03245,62428
28.04057,64150
28.04870,64465
28.05682,62248
28.06493,64578
28.07307,61534
28.08118,60822
28.08932,58598
28.09743,54157
28.10555,52647
28.11368,49232
28.12180,52450
28.12993,50871
28.13805,48919
28.14617,48647
28.15430,46803
28.16242,47476
28.17055,48956
28.17867,50252
28.18678,51514
28.19492,53856
28.20303,68522
28.21115,76119
28.21928,79775
28.22740,86294
28.23553,92690
28.24365,77585
28.25177,76177
28.25990,67378
28.26802,59195
28.27615,55610
28.28427,55241
28.29238,53160
28.30052,54873
28.30863,59562
28.31677,56112
28.32488,65550
28.33300,77361
28.34113,85011
28.34925,101051
28.35737,112741
28.36550,133674
28.37362,142839
28.38175,157453
28.38987,161666
28.39798,169014
28.40612,170287
28.41423,172197
28.42237,159411
28.43048,154916
28.43860,143512
28.44673,133142
28.45485,123054
28.46297,112150
28.47110,107702
28.47922,105066
28.48735,100916
28.49547,99996
28.50358,96977
28.51172,92718
28.51983,90725
28.52797,90992
28.53608,86184
28.54420,78820
28.55233,71931
28.56045,72204
28.56858,69486
28.57670,73434
28.58482,69481
28.59295,68231
28.60107,68453
28.60918,68134
28.61732,68698
28.62543,65852
28.63357,66275
28.64168,70069
28.64980,73450
28.65793,78107
28.66605,78879
28.67418,79445
28.68230,77100
28.69042,68424
28.69855,72534
28.70667,69993
28.71478,66393
28.72292,59529
28.73103,61265
28.73917,60986
28.74728,61448
28.75540,65690
28.76353,69934
28.77165,72688
28.77978,78778
28.78790,79384
28.79602,80179
28.80415,75384
28.81227,70473
28.82040,70235
28.82852,65366
28.83663,67351
28.84477,67775
28.85288,66268
28.86100,61931
28.86913,62759
28.87725,62582
28.88538,66214
28.89350,73442
28.90162,66380
28.90975,68025
28.91787,69273
28.92600,70318
28.93412,66115
28.94223,60096
28.95037,60364
28.95848,66552
28.96662,64493
28.97473,66138
28.98285,59306
28.99098,58272
28.99910,51870
29.00722,55627
29.01535,52473
29.02347,50521
29.03160,54282
29.03972,50759
29.04783,57281
29.05597,54724
29.06408,56177
29.07222,63587
29.08033,66831
29.08845,67254
29.09658,66227
29.10470,59681
29.11282,62679
29.12095,58715
29.12907,56950
29.13720,58026
29.14532,52009
29.15343,51072
29.16157,52834
29.16968,53595
29.17782,55255
29.18593,62013
29.19405,65683
29.20218,73597
29.21030,84033
29.21843,92956
29.22655,91359
29.23467,89826
29.24280,86356
29.25092,87932
29.25903,82173
29.26717,79696
29.27528,83721
29.28342,82962
29.29153,74207
29.29965,65945
29.30778,62451
29.31590,55447
29.32403,51180
29.33215,51357
29.34027,53892
29.34840,50461
29.35652,49761
29.36465,45963
29.37277,48573
29.38088,45769
29.38902,49373
29.39713,48777
29.40525,50725
29.41338,49886
29.42150,57629
29.42963,53849
29.43775,59216
29.44587,53882
29.45400,56955
29.46212,53223
29.47025,51920
29.47837,55470
29.48648,57376
29.49462,55182
29.50273,55498
29.51085,58039
29.51898,54293
29.52710,55937
29.53523,54262
29.54335,57222
29.55147,54621
29.55960,51786
29.56772,48924
29.57585,45693
29.58397,46230
29.59208,48358
29.60022,48821
29.60833,54721
29.61647,49806
29.62458,43982
29.63270,48828
29.64083,50657
29.64895,43480
29.65707,46751
29.66520,43736
29.67332,43212
29.68145,47264
29.68957,49577
29.69768,48419
29.70582,49784
29.71393,46712
29.72207,46924
29.73018,47526
29.73830,45604
29.74643,47106
29.75455,42602
29.76268,44922
29.77080,43091
29.77892,45111
29.78705,44106
29.79517,42538
29.80328,41782
29.81142,41691
29.81953,47871
29.82767,41110
29.83578,44389
29.84390,47678
29.85203,46637
29.86015,49836
29.86828,54699
29.87640,69862
29.88452,97339
29.89265,127710
29.90077,155145
29.90888,172755
29.91702,153026
29.92513,133247
29.93327,107251
29.94138,80328
29.94950,66965
29.95763,61243
29.96575,61477
29.97388,67621
29.98200,66481
29.99012,74518
29.99825,80527
30.00637,84476
30.01450,87868
30.02262,100033
30.03073,100230
30.03887,97355
30.04698,101490
30.05510,101038
30.06323,105432
30.07135,108382
30.07948,103668
30.08760,100598
30.09572,97867
30.10385,99909
30.11197,91351
30.12010,93762
30.12822,91701
30.13633,88195
30.14447,77131
30.15258,82030
30.16070,81346
30.16883,79311
30.17695,78630
30.18508,78135
30.19320,73778
30.20132,72166
30.20945,70573
30.21757,75694
30.22570,69776
30.23382,68905
30.24193,61724
30.25007,63101
30.25818,61190
30.26632,51945
30.27443,56187
30.28255,53421
30.29068,52404
30.29880,55131
30.30692,57980
30.31505,49801
30.32317,53264
30.33130,50995
30.33942,56552
30.34753,51844
30.35567,53720
30.36378,49190
30.37192,48679
30.38003,55795
30.38815,49910
30.39628,49021
30.40440,52404
30.41253,47762
30.42065,47052
30.42877,49108
30.43690,48019
30.44502,47750
30.45313,45529
30.46127,46208
30.46938,50321
30.47752,48100
30.48563,46934
30.49375,48533
30.50188,48133
30.51000,52310
30.51813,47973
30.52625,46503
30.53437,46735
30.54250,46617
30.55062,48595
30.55873,47308
30.56687,47906
30.57498,44438
30.58312,48122
30.59123,45294
30.59935,49834
30.60748,47700
30.61560,43570
30.62373,45045
30.63185,45862
30.63997,45363
30.64810,42719
30.65622,42623
30.66435,42957
30.67247,43851
30.68058,43898
30.68872,41590
30.69683,42955
30.70495,45092
30.71308,41759
30.72120,45024
30.72933,44704
30.73745,37024
30.74557,43156
30.75370,44925
30.76182,46054
30.76995,50497
30.77807,68106
30.78618,95337
30.79432,139077
30.80243,205284
30.81057,254931
30.81868,295540
30.82680,272019
30.83493,225301
30.84305,156312
30.85117,113118
30.85930,85747
30.86742,68436
30.87555,65760
30.88367,55808
30.89178,55387
30.89992,53958
30.90803,50831
30.91617,50800
30.92428,52984
30.93240,45282
30.94053,47969
30.94865,43535
30.95677,49271
30.96490,46690
30.97302,44619
30.98115,45181
30.98927,44249
30.99738,49042
31.00552,45000
31.01363,42647
31.02177,45421
31.02988,48490
31.03800,45666
31.04613,50061
31.05425,48765
31.06238,51277
31.07050,52166
31.07862,61311
31.08675,63216
31.09487,70294
31.10298,78875
31.11112,83805
31.11923,83153
31.12737,77716
31.13548,73813
31.14360,72959
31.15173,69621
31.15985,74106
31.16798,69597
31.17610,76921
31.18422,77280
31.19235,90212
31.20047,111020
31.20858,131875
31.21672,158376
31.22483,181942
31.23297,198061
31.24108,179621
31.24920,161457
31.25733,131983
31.26545,112953
31.27358,84907
31.28170,76707
31.28982,72246
31.29795,64114
31.30607,68179
31.31420,66863
31.32232,61976
31.33043,64318
31.33857,67897
31.34668,62026
31.35480,61269
31.36293,63154
31.37105,60506
31.37918,60321
31.38730,63292
31.39542,60951
31.40355,60893
31.41167,60921
31.41980,63495
31.42792,64749
31.43603,65810
31.44417,64189
31.45228,63849
31.46042,62349
31.46853,67771
31.47665,70068
31.48478,75861
31.49290,78755
31.50102,78728
31.50915,78962
31.51727,76394
31.52540,72950
31.53352,72655
31.54163,68847
31.54977,67089
31.55788,74785
31.56602,80471
31.57413,77931
31.58225,78434
31.59038,73654
31.59850,69535
31.60663,64701
31.61475,61656
31.62287,63297
31.63100,57218
31.63912,55585
31.64723,53476
31.65537,52285
31.66348,57176
31.67162,59084
31.67973,59476
31.68785,58860
31.69598,60077
31.70410,58029
31.71223,55541
31.72035,53170
31.72847,54127
31.73660,52032
31.74472,50158
31.75283,49687
31.76097,50415
31.76908,48787
31.77722,51411
31.78533,50252
31.79345,50912
31.80158,50862
31.80970,53663
31.81783,52496
31.82595,53884
31.83407,56474
31.84220,54344
31.85032,54127
31.85845,54171
31.86657,59496
31.87468,60517
31.88282,69345
31.89093,60700
31.89905,57786
31.90718,62868
31.91530,61442
31.92343,70828
31.93155,73474
31.93967,71170
31.94780,75876
31.95592,84277
31.96405,90013
31.97217,90896
31.98028,95602
31.98842,95568
31.99653,98782
32.00465,102832
32.01278,97482
32.02090,100660
32.02903,101489
32.03715,87781
32.04527,93967
32.05340,93504
32.06152,89979
32.06965,80527
32.07777,88350
32.08588,80270
32.09402,81703
32.10213,76765
32.11027,76278
32.11838,69426
32.12650,65024
32.13463,65472
32.14275,60825
32.15087,60821
32.15900,59845
32.16712,58459
32.17525,58222
32.18337,59978
32.19148,59530
32.19962,55071
32.20773,54794
32.21587,54085
32.22398,54357
32.23210,54723
32.24023,56747
32.24835,55374
32.25648,59803
32.26460,58658
32.27272,59590
32.28085,65138
32.28897,57606
32.29708,57231
32.30522,56940
32.31333,56118
32.32147,54291
32.32958,51776
32.33770,51540
32.34583,51720
32.35395,49314
32.36208,57020
32.37020,51881
32.37832,54233
32.38645,51096
32.39457,48926
32.40268,51705
32.41082,49950
32.41893,48105
32.42707,45490
32.43518,45775
32.44330,48267
32.45143,45176
32.45955,47778
32.46768,48339
32.47580,47355
32.48392,45116
32.49205,42914
32.50017,45494
32.50830,45382
32.51642,45351
32.52453,45516
32.53267,45507
32.54078,45647
32.54890,47148
32.55703,50483
32.56515,44853
32.57328,46423
32.58140,49113
32.58952,48570
32.59765,45090
32.60577,43077
32.61390,45223
32.62202,44239
32.63013,45358
32.63827,44624
32.64638,47761
32.65452,48023
32.66263,54988
32.67075,56000
32.67888,61503
32.68700,57400
32.69512,60303
32.70325,56163
32.71137,48325
32.71950,51506
32.72762,51271
32.73573,52330
32.74387,51502
32.75198,47939
32.76012,43281
32.76823,42185
32.77635,46767
32.78448,42643
32.79260,43098
32.80072,43728
32.80885,45497
32.81697,41165
32.82510,45623
32.83322,43976
32.84133,47255
32.84947,48540
32.85758,45727
32.86572,42853
32.87383,38834
32.88195,44285
32.89008,44768
32.89820,44564
32.90633,44420
32.91445,50810
32.92257,44955
32.93070,44438
32.93882,42325
32.94693,42090
32.95507,45497
32.96318,48465
32.97132,50200
32.97943,67929
32.98755,77449
32.99568,96616
33.00380,112532
33.01193,126779
33.02005,119606
33.02817,104465
33.03630,91591
33.04442,77504
33.05253,64873
33.06067,67194
33.06878,62470
33.07692,63973
33.08503,66509
33.09315,69237
33.10128,71555
33.10940,80786
33.11753,85735
33.12565,91301
33.13377,85921
33.14190,81750
33.15002,72731
33.15815,69111
33.16627,60036
33.17438,54867
33.18252,56084
33.19063,49832
33.19875,53879
33.20688,52049
33.21500,47780
33.22313,52503
33.23125,49892
33.23937,52346
33.24750,48224
33.25562,47782
33.26375,46060
33.27187,45979
33.27998,43422
33.28812,48120
33.29623,44541
33.30437,47362
33.31248,44030
33.32060,45912
33.32873,44668
33.33685,49027
33.34497,49364
33.35310,51319
33.36122,49457
33.36935,53479
33.37747,50765
33.38558,53323
33.39372,49464
33.40183,45354
33.40997,49570
33.41808,43793
33.42620,46465
33.43433,47671
33.44245,45672
33.45057,44485
33.45870,42880
33.46682,43119
33.47495,44207
33.48307,42977
33.49118,45793
33.49932,48849
33.50743,54186
33.51557,49842
33.52368,50711
33.53180,49725
33.53993,50352
33.54805,51077
33.55618,50920
33.56430,53661
33.57242,53635
33.58055,52627
33.58867,46307
33.59678,46906
33.60492,42866
33.61303,45454
33.62117,46692
33.62928,43922
33.63740,48461
33.64553,46639
33.65365,50366
33.66178,46390
33.66990,48082
33.67802,46818
33.68615,49406
33.69427,46140
33.70240,46708
33.71052,43005
33.71863,42653
33.72677,43222
33.73488,44729
33.74300,49252
33.75113,43188
33.75925,43674
33.76738,43853
33.77550,40640
33.78362,44262
33.79175,42328
33.79987,43883
33.80800,45956
33.81612,48028
33.82423,43344
33.83237,45555
33.84048,43139
33.84860,48101
33.85673,47901
33.86485,52374
33.87298,48395
33.88110,47079
33.88922,49328
33.89735,46155
33.90547,42398
33.91360,45827
33.92172,45886
33.92983,48901
33.93797,43657
33.94608,48319
33.95422,48871
33.96233,46169
33.97045,44690
33.97858,46854
33.98670,48307
33.99482,45172
34.00295,45674
34.01107,44802
34.01920,43972
34.02732,45232
34.03543,49086
34.04357,45080
34.05168,46059
34.05982,42815
34.06793,44388
34.07605,42323
34.08418,49739
34.09230,44117
34.10043,45450
34.10855,45023
34.11667,41370
34.12480,43300
34.13292,47602
34.14103,45443
34.14917,45308
34.15728,43803
34.16542,46636
34.17353,42302
34.18165,41989
34.18978,43156
34.19790,46242
34.20603,44397
34.21415,50574
34.22227,41635
34.23040,45405
34.23852,43640
34.24663,46242
34.25477,41576
34.26288,46972
34.27102,51853
34.27913,44371
34.28725,44019
34.29538,48914
34.30350,43107
34.31163,42162
34.31975,45188
34.32787,45158
34.33600,44963
34.34412,47667
34.35225,44736
34.36037,42332
34.36848,42067
34.37662,48100
34.38473,43748
34.39285,45195
34.40098,46987
34.40910,45258
34.41723,45827
34.42535,46352
34.43347,44644
34.44160,42312
34.44972,44388
34.45785,49507
34.46597,42083
34.47408,44030
34.48222,43879
34.49033,43623
34.49845,42948
34.50658,42907
34.51470,49308
34.52283,53713
34.53095,60941
34.53907,73111
34.54720,77584
34.55532,85262
34.56345,89529
34.57157,88683
34.57968,92247
34.58782,89101
34.59593,80985
34.60407,81616
34.61218,75556
34.62030,70486
34.62843,68349
34.63655,69882
34.64467,62845
34.65280,59589
34.66092,58388
34.66905,59380
34.67717,55600
34.68528,59975
34.69342,56379
34.70153,53059
34.70967,57828
34.71778,52011
34.72590,54793
34.73403,51349
34.74215,52936
34.75028,51872
34.75840,58010
34.76652,54673
34.77465,53116
34.78277,52429
34.79088,47415
34.79902,55913
34.80713,52466
34.81527,48362
34.82338,58286
34.83150,48395
34.83963,49457
34.84775,53913
34.85588,49080
34.86400,52176
34.87212,51825
34.88025,49470
34.88837,51079
34.89648,47281
34.90462,50942
34.91273,53070
34.92087,49511
34.92898,48367
34.93710,51207
34.94523,57194
34.95335,55318
34.96148,55571
34.96960,57450
34.97772,57903
34.98585,57755
34.99397,59523
35.00210,55601
35.01022,52187
35.01833,53047
35.02647,53671
35.03458,54529
35.04270,51593
35.05083,52057
35.05895,53350
35.06708,53653
35.07520,50074
35.08332,50948
35.09145,49651
35.09957,48188
35.10770,48392
35.11582,53444
35.12393,48224
35.13207,50028
35.14018,52235
35.14832,50546
35.15643,51056
35.16455,53319
35.17268,55162
35.18080,51988
35.18892,47740
35.19705,50388
35.20517,47690
35.21330,48954
35.22142,46692
35.22953,49634
35.23767,48232
35.24578,51160
35.25392,49528
35.26203,47798
35.27015,50942
35.27828,46534
35.28640,57086
35.29452,49077
35.30265,53355
35.31077,52928
35.31890,45759
35.32702,46422
35.33513,44298
35.34327,47540
35.35138,46832
35.35952,48259
35.36763,47463
35.37575,49254
35.38388,48226
35.39200,47917
35.40013,51759
35.40825,46814
35.41637,48066
35.42450,49200
35.43262,51262
35.44073,50879
35.44887,53544
35.45698,51797
35.46512,54543
35.47323,58024
35.48135,54017
35.48948,52317
35.49760,51609
35.50573,54229
35.51385,54718
35.52197,50253
35.53010,50230
35.53822,49441
35.54633,49082
35.55447,49148
35.56258,48513
35.57072,48425
35.57883,51014
35.58695,50000
35.59508,49738
35.60320,45359
35.61133,50379
35.61945,51674
35.62757,48213
35.63570,51411
35.64382,51821
35.65195,52558
35.66007,47497
35.66818,47034
35.67632,50385
35.68443,57706
35.69255,54989
35.70068,52082
35.70880,54495
35.71693,52825
35.72505,51965
35.73317,54241
35.74130,58264
35.74942,58634
35.75755,60924
35.76567,59957
35.77378,58059
35.78192,58724
35.79003,58568
35.79817,54356
35.80628,56753
35.81440,50317
35.82253,48477
35.83065,49038
35.83877,55406
35.84690,49825
35.85502,50510
35.86315,46990
35.87127,50422
35.87938,52691
35.88752,46797
35.89563,51674
35.90377,48115
35.91188,51144
35.92000,51320
35.92813,48761
35.93625,51069
35.94438,47095
35.95250,48036
35.96062,50125
35.96875,46118
35.97687,48656
35.98498,53517
35.99312,50242
36.00123,48408
36.00937,52547
36.01748,59015
36.02560,58062
36.03373,56892
36.04185,59206
36.04998,55858
36.05810,56038
36.06622,55357
36.07435,52550
36.08247,52807
36.09058,55072
36.09872,49954
36.10683,51723
36.11497,51831
36.12308,51156
36.13120,52912
36.13933,55225
36.14745,60885
36.15558,55020
36.16370,58388
36.17182,56408
36.17995,56592
36.18807,51816
36.19620,56220
36.20432,51158
36.21243,50205
36.22057,52164
36.22868,52329
36.23680,54870
36.24493,52384
36.25305,49921
36.26118,51815
36.26930,46041
36.27742,56134
36.28555,54128
36.29367,53143
36.30180,55385
36.30992,60684
36.31803,61873
36.32617,60434
36.33428,57712
36.34240,57973
36.35053,53805
36.35865,55264
36.36678,51721
36.37490,52038
36.38302,52573
36.39115,52708
36.39927,50979
36.40740,54454
36.41552,57144
36.42363,57214
36.43177,53450
36.43988,53171
36.44802,54088
36.45613,61616
36.46425,57008
36.47238,51098
36.48050,50815
36.48862,50752
36.49675,46112
36.50487,51880
36.51300,49203
36.52112,54226
36.52923,55536
36.53737,50845
36.54548,50450
36.55362,54149
36.56173,50916
36.56985,51142
36.57798,53356
36.58610,50095
36.59423,54262
36.60235,52139
36.61047,54147
36.61860,53710
36.62672,48978
36.63483,51951
36.64297,57613
36.65108,54248
36.65922,52243
36.66733,52405
36.67545,57571
36.68358,59120
36.69170,55204
36.69983,53686
36.70795,56947
36.71607,58056
36.72420,58996
36.73232,58149
36.74043,57808
36.74857,58215
36.75668,54562
36.76482,51997
36.77293,51977
36.78105,58616
36.78918,56353
36.79730,56169
36.80543,53941
36.81355,54340
36.82167,55307
36.82980,55668
36.83792,58587
36.84605,54779
36.85417,53905
36.86228,55651
36.87042,56042
36.87853,51164
36.88665,52612
36.89478,55087
36.90290,59764
36.91103,53652
36.91915,53276
36.92727,56774
36.93540,61323
36.94352,64903
36.95165,74355
36.95977,78837
36.96788,93215
36.97602,88333
36.98413,82418
36.99227,83626
37.00038,79917
37.00850,72595
37.01663,66590
37.02475,66827
37.03287,62331
37.04100,57132
37.04912,61286
37.05725,59399
37.06537,61840
37.07348,60963
37.08162,60946
37.08973,60753
37.09787,62505
37.10598,62541
37.11410,59711
37.12223,62861
37.13035,59762
37.13847,63631
37.14660,59434
37.15472,64370
37.16285,61075
37.17097,63366
37.17908,59268
37.18722,60324
37.19533,57870
37.20347,57875
37.21158,57373
37.21970,56572
37.22783,63583
37.23595,59281
37.24408,62459
37.25220,58107
37.26032,56852
37.26845,61913
37.27657,57785
37.28468,61115
37.29282,54405
37.30093,61412
37.30907,58802
37.31718,59729
37.32530,62173
37.33343,68372
37.34155,66440
37.34968,80953
37.35780,87748
37.36592,84308
37.37405,85731
37.38217,86953
37.39028,80563
37.39842,82490
37.40653,73170
37.41467,80169
37.42278,75916
37.43090,73843
37.43903,75611
37.44715,74954
37.45528,73307
37.46340,72808
37.47152,71023
37.47965,69964
37.48777,66647
