C:\MassHunter\GCMS\1\data\JTB-E02\BACandBLUE\JTB-E18-020-08.D Tue Jul 09 12:31:09 2019
Start of data points
2.09532,52033
2.10343,53494
2.11155,50407
2.11968,52694
2.12780,50654
2.13592,50741
2.14405,52953
2.15217,48753
2.16030,48911
2.16842,48819
2.17653,51300
2.18467,45268
2.19278,45890
2.20092,46703
2.20903,42532
2.21715,50875
2.22528,42011
2.23340,40246
2.24153,43337
2.24965,41967
2.25777,44719
2.26590,49459
2.27402,291664
2.28213,1450724
2.29027,1358128
2.29838,507851
2.30652,299176
2.31463,230975
2.32275,202451
2.33088,193748
2.33900,276809
2.34713,272745
2.35525,185513
2.36337,155732
2.37150,137366
2.37962,132291
2.38775,133426
2.39587,126828
2.40398,113270
2.41212,116796
2.42023,106757
2.42835,109410
2.43648,104250
2.44460,101284
2.45273,109927
2.46085,107435
2.46897,95685
2.47710,89772
2.48522,95428
2.49335,111346
2.50147,137631
2.50958,116032
2.51772,98115
2.52583,96884
2.53395,94180
2.54208,91659
2.55020,94096
2.55833,105519
2.56645,133704
2.57457,124158
2.58270,103008
2.59082,99627
2.59895,97433
2.60707,153535
2.61518,467815
2.62332,631774
2.63143,427781
2.63957,238416
2.64768,182655
2.65580,144060
2.66393,123958
2.67205,115092
2.68017,111743
2.68830,105596
2.69642,99699
2.70455,90792
2.71267,96522
2.72078,86668
2.72892,92011
2.73703,86457
2.74517,84975
2.75328,83243
2.76140,87624
2.76953,81360
2.77765,87362
2.78577,138491
2.79390,204364
2.80202,164259
2.81015,121108
2.81827,138479
2.82638,178889
2.83452,232060
2.84263,261646
2.85077,183817
2.85888,132767
2.86700,115819
2.87513,114570
2.88325,100424
2.89138,93508
2.89950,96424
2.90762,87725
2.91575,83022
2.92387,85200
2.93198,78953
2.94012,79366
2.94823,79047
2.95637,79903
2.96448,84721
2.97260,94161
2.98073,84569
2.98885,86952
2.99698,86025
3.00510,88675
3.01322,85430
3.02135,85363
3.02947,75927
3.03760,75127
3.04572,75780
3.05383,79993
3.06197,103376
3.07008,133875
3.07820,132858
3.08633,248813
3.09445,800273
3.10258,1525880
3.11070,2556174
3.11882,3041679
3.12695,2063183
3.13507,1264921
3.14320,941110
3.15132,756545
3.15943,599972
3.16757,528406
3.17568,555362
3.18380,624714
3.19193,1173137
3.20005,2082098
3.20818,1932173
3.21630,1279259
3.22442,957271
3.23255,804376
3.24067,663055
3.24880,551954
3.25692,489661
3.26503,436589
3.27317,385951
3.28128,375354
3.28942,510796
3.29753,1509948
3.30565,4274992
3.31378,7470386
3.32190,7773793
3.33002,5779940
3.33815,3792916
3.34627,2675542
3.35440,2036128
3.36252,1620941
3.37063,1359999
3.37877,1142582
3.38688,1000045
3.39502,880179
3.40313,783304
3.41125,716814
3.41938,653896
3.42750,611676
3.43563,588632
3.44375,564309
3.45187,526442
3.46000,506123
3.46812,476537
3.47623,484317
3.48437,466845
3.49248,456691
3.50062,424555
3.50873,407258
3.51685,395445
3.52498,382739
3.53310,362412
3.54123,394833
3.54935,396382
3.55747,376752
3.56560,367700
3.57372,414818
3.58183,498294
3.58997,465856
3.59808,401484
3.60622,361166
3.61433,345103
3.62245,365715
3.63058,403543
3.63870,487072
3.64683,516977
3.65495,477757
3.66307,600273
3.67120,2105896
3.67932,6436924
3.68745,9679022
3.69557,7689853
3.70368,4506852
3.71182,2990768
3.71993,2383970
3.72805,1997729
3.73618,1713867
3.74430,1518896
3.75243,1349005
3.76055,1240875
3.76867,1139445
3.77680,1065055
3.78492,1003156
3.79305,925932
3.80117,950055
3.80928,1243199
3.81742,1901816
3.82553,2159250
3.83367,1755163
3.84178,1304384
3.84990,1079731
3.85803,969765
3.86615,870117
3.87427,800855
3.88240,750611
3.89052,712438
3.89865,691471
3.90677,651120
3.91488,662398
3.92302,805283
3.93113,1033896
3.93927,1105961
3.94738,971131
3.95550,1116757
3.96363,1904855
3.97175,2676070
3.97987,2475609
3.98800,1659514
3.99612,1551837
4.00425,3645653
4.01237,9097764
4.02048,1.366482E+07
4.02862,1.213982E+07
4.03673,6979519
4.04487,3548943
4.05298,2125692
4.06110,1525108
4.06923,1218420
4.07735,1015262
4.08548,883875
4.09360,789913
4.10172,728328
4.10985,674131
4.11797,628431
4.12608,590757
4.13422,628255
4.14233,855616
4.15047,1438017
4.15858,1892834
4.16670,1692142
4.17483,1243681
4.18295,959634
4.19108,795968
4.19920,694340
4.20732,813476
4.21545,2164823
4.22357,6742575
4.23168,1.424101E+07
4.23982,1.910484E+07
4.24793,1.83601E+07
4.25607,1.234444E+07
4.26418,7082275
4.27230,4688103
4.28043,3449709
4.28855,2686563
4.29668,2142172
4.30480,1796302
4.31292,1542215
4.32105,1345528
4.32917,1225648
4.33730,1132600
4.34542,1073855
4.35353,1057433
4.36167,1071109
4.36978,1063786
4.37790,1004921
4.38603,894531
4.39415,802324
4.40228,722079
4.41040,710892
4.41852,663638
4.42665,653173
4.43477,618378
4.44290,592442
4.45102,566661
4.45913,555842
4.46727,536644
4.47538,507532
4.48352,500986
4.49163,492267
4.49975,477493
4.50788,477112
4.51600,467844
4.52412,456009
4.53225,444794
4.54037,437051
4.54850,437666
4.55662,425877
4.56473,420546
4.57287,395192
4.58098,393002
4.58912,372286
4.59723,375838
4.60535,362488
4.61348,371374
4.62160,407121
4.62972,583735
4.63785,981482
4.64597,1397103
4.65410,1385887
4.66222,1073193
4.67033,758735
4.67847,588346
4.68658,514572
4.69472,470682
4.70283,434237
4.71095,382442
4.71908,373253
4.72720,348806
4.73533,336487
4.74345,335991
4.75157,318695
4.75970,309519
4.76782,310002
4.77593,296645
4.78407,307022
4.79218,323188
4.80032,385453
4.80843,462318
4.81655,482297
4.82468,426680
4.83280,402559
4.84093,396946
4.84905,410627
4.85717,417070
4.86530,385354
4.87342,367623
4.88155,353729
4.88967,323361
4.89778,320147
4.90592,299842
4.91403,291701
4.92215,291729
4.93028,345809
4.93840,591761
4.94653,1240960
4.95465,2316771
4.96277,3319530
4.97090,3602346
4.97902,3165107
4.98715,2369720
4.99527,1743694
5.00338,1328725
5.01152,1061024
5.01963,917782
5.02775,991927
5.03588,1302122
5.04400,1654257
5.05213,1709288
5.06025,1439796
5.06837,1156430
5.07650,976106
5.08462,871796
5.09275,799034
5.10087,736925
5.10898,678749
5.11712,661031
5.12523,616028
5.13337,595141
5.14148,562977
5.14960,573687
5.15773,615363
5.16585,683813
5.17397,722151
5.18210,707171
5.19022,649188
5.19835,642525
5.20647,708840
5.21458,743645
5.22272,719287
5.23083,646176
5.23897,578428
5.24708,522628
5.25520,479494
5.26333,437268
5.27145,401338
5.27957,382774
5.28770,364239
5.29582,357056
5.30395,345770
5.31207,337313
5.32018,342572
5.32832,355427
5.33643,367081
5.34457,389796
5.35268,383261
5.36080,367508
5.36893,346269
5.37705,338353
5.38518,337856
5.39330,370576
5.40142,404438
5.40955,408491
5.41767,401226
5.42578,365899
5.43392,344072
5.44203,332908
5.45017,343378
5.45828,356334
5.46640,344667
5.47453,325734
5.48265,309748
5.49078,287184
5.49890,279192
5.50702,275102
5.51515,274737
5.52327,272285
5.53140,278810
5.53952,273268
5.54763,275524
5.55577,282302
5.56388,353529
5.57200,443552
5.58013,493748
5.58825,474895
5.59638,405557
5.60450,330993
5.61262,295177
5.62075,277179
5.62887,275381
5.63700,283411
5.64512,279119
5.65323,276397
5.66137,284662
5.66948,277113
5.67762,279426
5.68573,315489
5.69385,351230
5.70198,348229
5.71010,332304
5.71822,296685
5.72635,278753
5.73447,262540
5.74260,255601
5.75072,249299
5.75883,239410
5.76697,234621
5.77508,236164
5.78322,234278
5.79133,223236
5.79945,230133
5.80758,223004
5.81570,227391
5.82382,217041
5.83195,224246
5.84007,230640
5.84820,233234
5.85632,245963
5.86443,238896
5.87257,234650
5.88068,218688
5.88882,215568
5.89693,203425
5.90505,204338
5.91318,181330
5.92130,165023
5.92943,166574
5.93755,164883
5.94567,175448
5.95380,197877
5.96192,216224
5.97003,241630
5.97817,283272
5.98628,339110
5.99442,362352
6.00253,345424
6.01065,281134
6.01878,246047
6.02690,213193
6.03503,205476
6.04315,189464
6.05127,183611
6.05940,169935
6.06752,162058
6.07563,156021
6.08377,156295
6.09188,152580
6.10002,150715
6.10813,150014
6.11625,159850
6.12438,193986
6.13250,307009
6.14063,501248
6.14875,694970
6.15687,723111
6.16500,605526
6.17312,460527
6.18125,339559
6.18937,282257
6.19748,258569
6.20562,244387
6.21373,236787
6.22185,232007
6.22998,227606
6.23810,219604
6.24623,234028
6.25435,239050
6.26247,257121
6.27060,274176
6.27872,259535
6.28685,245816
6.29497,227171
6.30308,226961
6.31122,223206
6.31933,222703
6.32747,219195
6.33558,233627
6.34370,221857
6.35183,225575
6.35995,221185
6.36807,227124
6.37620,228096
6.38432,227688
6.39245,222866
6.40057,224002
6.40868,215672
6.41682,213636
6.42493,218761
6.43307,214650
6.44118,216299
6.44930,218281
6.45743,213892
6.46555,208472
6.47367,214497
6.48180,215470
6.48992,218542
6.49805,216996
6.50617,223453
6.51428,231546
6.52242,232506
6.53053,231272
6.53867,236701
6.54678,233200
6.55490,238065
6.56303,252330
6.57115,317999
6.57928,417777
6.58740,473729
6.59552,459796
6.60365,389470
6.61177,310660
6.61988,283459
6.62802,273436
6.63613,250289
6.64427,246810
6.65238,265432
6.66050,317834
6.66863,395259
6.67675,458432
6.68488,438130
6.69300,372962
6.70112,300549
6.70925,275754
6.71737,273132
6.72550,263282
6.73362,265946
6.74173,261485
6.74987,228837
6.75798,207294
6.76610,194828
6.77423,189311
6.78235,191793
6.79048,182440
6.79860,168362
6.80672,168241
6.81485,162353
6.82297,151097
6.83110,150019
6.83922,159823
6.84733,178767
6.85547,207398
6.86358,241196
6.87170,247771
6.87983,230564
6.88795,169588
6.89608,134978
6.90420,121132
6.91232,113429
6.92045,100152
6.92857,100795
6.93670,94820
6.94482,95961
6.95293,99875
6.96107,106268
6.96918,125072
6.97732,148073
6.98543,156952
6.99355,157942
7.00168,132803
7.00980,117571
7.01792,111129
7.02605,102006
7.03417,95657
7.04230,109554
7.05042,106046
7.05853,115088
7.06667,120571
7.07478,114305
7.08292,112569
7.09103,103250
7.09915,93065
7.10728,89627
7.11540,84394
7.12352,84079
7.13165,83523
7.13977,95006
7.14790,115721
7.15602,160722
7.16413,199474
7.17227,215081
7.18038,196418
7.18852,157258
7.19663,130353
7.20475,132008
7.21288,228255
7.22100,507383
7.22913,1099063
7.23725,1654837
7.24537,1776430
7.25350,1369816
7.26162,861140
7.26973,506984
7.27787,340491
7.28598,265162
7.29412,197741
7.30223,150595
7.31035,129289
7.31848,122960
7.32660,130121
7.33473,130284
7.34285,122857
7.35097,121114
7.35910,110215
7.36722,107728
7.37535,106050
7.38347,102668
7.39158,102212
7.39972,107810
7.40783,98948
7.41595,96376
7.42408,92487
7.43220,93649
7.44033,97384
7.44845,97175
7.45657,103307
7.46470,101781
7.47282,96150
7.48095,90269
7.48907,81408
7.49718,88248
7.50532,89373
7.51343,125539
7.52155,218554
7.52968,414019
7.53780,749213
7.54593,1177722
7.55405,1578917
7.56217,1781417
7.57030,1660396
7.57842,1330268
7.58655,916204
7.59467,573990
7.60278,354647
7.61092,230293
7.61903,174089
7.62717,146309
7.63528,125024
7.64340,108493
7.65153,97484
7.65965,98930
7.66777,91745
7.67590,85955
7.68402,85556
7.69215,81731
7.70027,87285
7.70838,89400
7.71652,89689
7.72463,91874
7.73277,82429
7.74088,87935
7.74900,84892
7.75713,83658
7.76525,88350
7.77338,90636
7.78150,95790
7.78962,105282
7.79775,114352
7.80587,123437
7.81398,128460
7.82212,119960
7.83023,111534
7.83837,98718
7.84648,98043
7.85460,104376
7.86273,114306
7.87085,135860
7.87898,161628
7.88710,178957
7.89522,176683
7.90335,156403
7.91147,128031
7.91958,120251
7.92772,124068
7.93583,145242
7.94397,176279
7.95208,182425
7.96020,170032
7.96833,149311
7.97645,118985
7.98458,93450
7.99270,85113
8.00082,78110
8.00895,78229
8.01707,77014
8.02520,72268
8.03332,72955
8.04143,79715
8.04957,74795
8.05768,75266
8.06580,70693
8.07393,74812
8.08205,72794
8.09018,72647
8.09830,71455
8.10642,66177
8.11455,66092
8.12267,71536
8.13080,80746
8.13892,106048
8.14703,123686
8.15517,135364
8.16328,132038
8.17140,112415
8.17953,92025
8.18765,81482
8.19578,78084
8.20390,72807
8.21202,75913
8.22015,76186
8.22827,80504
8.23640,81540
8.24452,80763
8.25263,73079
8.26077,66829
8.26888,64895
8.27702,64155
8.28513,62399
8.29325,62359
8.30138,64985
8.30950,74427
8.31762,69420
8.32575,79204
8.33387,79733
8.34200,73827
8.35012,63828
8.35823,61661
8.36637,60087
8.37448,64402
8.38262,61143
8.39073,63491
8.39885,68397
8.40698,61913
8.41510,57465
8.42323,58931
8.43135,60970
8.43947,58784
8.44760,58320
8.45572,57251
8.46383,54134
8.47197,56195
8.48008,54461
8.48822,54410
8.49633,54530
8.50445,52967
8.51258,58047
8.52070,62334
8.52883,92500
8.53695,155528
8.54507,243122
8.55320,289659
8.56132,282750
8.56943,229071
8.57757,156605
8.58568,105266
8.59382,87210
8.60193,81910
8.61005,87276
8.61818,78189
8.62630,75618
8.63443,75954
8.64255,69992
8.65067,62180
8.65880,61339
8.66692,62170
8.67505,63124
8.68317,64700
8.69128,79361
8.69942,75816
8.70753,76152
8.71565,68567
8.72378,70669
8.73190,71604
8.74003,107989
8.74815,211563
8.75627,509559
8.76440,1045819
8.77252,1608655
8.78065,1995017
8.78877,1847283
8.79688,1395115
8.80502,887519
8.81313,532123
8.82127,340474
8.82938,251541
8.83750,227756
8.84563,223539
8.85375,227115
8.86187,214330
8.87000,198492
8.87812,178026
8.88625,165796
8.89437,159619
8.90248,163970
8.91062,150604
8.91873,144595
8.92687,146692
8.93498,155806
8.94310,167599
8.95123,178475
8.95935,178224
8.96747,177588
8.97560,167659
8.98372,167368
8.99185,161614
8.99997,154766
9.00808,144475
9.01622,139356
9.02433,128813
9.03247,120172
9.04058,112758
9.04870,111867
9.05683,109805
9.06495,106774
9.07308,106269
9.08120,110042
9.08932,123717
9.09745,142861
9.10557,182292
9.11368,209605
9.12182,225704
9.12993,230966
9.13807,189426
9.14618,161161
9.15430,142316
9.16243,121609
9.17055,114612
9.17868,111754
9.18680,101224
9.19492,100058
9.20305,99628
9.21117,99789
9.21930,98059
9.22742,97043
9.23553,101395
9.24367,92401
9.25178,92226
9.25990,96266
9.26803,96334
9.27615,88010
9.28428,88513
9.29240,87971
9.30052,97703
9.30865,89392
9.31677,92421
9.32490,93936
9.33302,96729
9.34113,99916
9.34927,103462
9.35738,98540
9.36550,91213
9.37363,85206
9.38175,89180
9.38988,89199
9.39800,92051
9.40612,120465
9.41425,155309
9.42237,209216
9.43050,255423
9.43862,307545
9.44673,306037
9.45487,267455
9.46298,227623
9.47112,167672
9.47923,130138
9.48735,105863
9.49548,102881
9.50360,105302
9.51172,115395
9.51985,125291
9.52797,131642
9.53610,134414
9.54422,116232
9.55233,101882
9.56047,93628
9.56858,80239
9.57672,80126
9.58483,84571
9.59295,86069
9.60108,84005
9.60920,75582
9.61732,65120
9.62545,58186
9.63357,54745
9.64170,53753
9.64982,56865
9.65793,55889
9.66607,57066
9.67418,56983
9.68232,58999
9.69043,58990
9.69855,54082
9.70668,47517
9.71480,47329
9.72293,50827
9.73105,50721
9.73917,52893
9.74730,52188
9.75542,45541
9.76353,46824
9.77167,46582
9.77978,49705
9.78792,47443
9.79603,47646
9.80415,46139
9.81228,49478
9.82040,45998
9.82853,47347
9.83665,49541
9.84477,50323
9.85290,48562
9.86102,46160
9.86915,51768
9.87727,53483
9.88538,51359
9.89352,48724
9.90163,46401
9.90975,50066
9.91788,54792
9.92600,62686
9.93413,70613
9.94225,93380
9.95037,113863
9.95850,125377
9.96662,130131
9.97475,116180
9.98287,98931
9.99098,89036
9.99912,76384
10.00723,75188
10.01535,67084
10.02348,60280
10.03160,59869
10.03973,55546
10.04785,52830
10.05597,49888
10.06410,52115
10.07222,57693
10.08035,58064
10.08847,56701
10.09658,62294
10.10472,59523
10.11283,56409
10.12097,55014
10.12908,54056
10.13720,54937
10.14533,53065
10.15345,52872
10.16157,50940
10.16970,49589
10.17782,50878
10.18595,52383
10.19407,47857
10.20218,47409
10.21032,49271
10.21843,53579
10.22657,61500
10.23468,68316
10.24280,70817
10.25093,84215
10.25905,111079
10.26718,220443
10.27530,475587
10.28342,1010195
10.29155,1808311
10.29967,2752094
10.30778,3794255
10.31592,5301340
10.32403,7468973
10.33217,9828642
10.34028,1.085791E+07
10.34840,9753737
10.35653,7535355
10.36465,5465498
10.37278,4344911
10.38090,3428996
10.38902,2601016
10.39715,1740443
10.40527,1105227
10.41338,689091
10.42152,480388
10.42963,381566
10.43777,370748
10.44588,359746
10.45400,359070
10.46213,356879
10.47025,326772
10.47838,288367
10.48650,262778
10.49462,233194
10.50275,210990
10.51087,193826
10.51900,180279
10.52712,175891
10.53523,156823
10.54337,158365
10.55148,154250
10.55960,147662
10.56773,143213
10.57585,144793
10.58398,146074
10.59210,140825
10.60022,137741
10.60835,124598
10.61647,115011
10.62460,112617
10.63272,113059
10.64083,111089
10.64897,101944
10.65708,104180
10.66520,101002
10.67333,102506
10.68145,100142
10.68958,100206
10.69770,95911
10.70582,100574
10.71395,102808
10.72207,107232
10.73020,102622
10.73832,104612
10.74643,96391
10.75457,97211
10.76268,94731
10.77082,88060
10.77893,88794
10.78705,85310
10.79518,92375
10.80330,93720
10.81142,104190
10.81955,103103
10.82767,102714
10.83580,91264
10.84392,81465
10.85203,78801
10.86017,73143
10.86828,70069
10.87642,69178
10.88453,70926
10.89265,70586
10.90078,68432
10.90890,69068
10.91703,71079
10.92515,67227
10.93327,66378
10.94140,65299
10.94952,64866
10.95763,65438
10.96577,62932
10.97388,62500
10.98202,63940
10.99013,73082
10.99825,77565
11.00638,84066
11.01450,84822
11.02263,85474
11.03075,80169
11.03887,66754
11.04700,65185
11.05512,67557
11.06325,70996
11.07137,69654
11.07948,75790
11.08762,84791
11.09573,87970
11.10385,87787
11.11198,85113
11.12010,81446
11.12823,71075
11.13635,61867
11.14447,58800
11.15260,58673
11.16072,59476
11.16885,63502
11.17697,65156
11.18508,63502
11.19322,60639
11.20133,66128
11.20945,57122
11.21758,54340
11.22570,52897
11.23383,49137
11.24195,49604
11.25007,47470
11.25820,48480
11.26632,46904
11.27445,48948
11.28257,51131
11.29068,72700
11.29882,124081
11.30693,258055
11.31507,576162
11.32318,1164133
11.33130,2025336
11.33943,2829427
11.34755,3184306
11.35567,2985526
11.36380,2368029
11.37192,1634655
11.38005,1071394
11.38817,684777
11.39628,485774
11.40442,391821
11.41253,367043
11.42067,316172
11.42878,283764
11.43690,237569
11.44503,199061
11.45315,173002
11.46127,154114
11.46940,139773
11.47752,140146
11.48565,154034
11.49377,178467
11.50188,195635
11.51002,190572
11.51813,180987
11.52627,153507
11.53438,129546
11.54250,127239
11.55063,123663
11.55875,126761
11.56688,129364
11.57500,129299
11.58312,128671
11.59125,126016
11.59937,128723
11.60748,148024
11.61562,164910
11.62373,174773
11.63187,161928
11.63998,134468
11.64810,117236
11.65623,91850
11.66435,87910
11.67248,82627
11.68060,81841
11.68872,87409
11.69685,90358
11.70497,90588
11.71310,86063
11.72122,85148
11.72933,77395
11.73747,74144
11.74558,65703
11.75370,68156
11.76183,64244
11.76995,60668
11.77808,60929
11.78620,57119
11.79432,57462
11.80245,55856
11.81057,58942
11.81870,52897
11.82682,56702
11.83493,57219
11.84307,59654
11.85118,65171
11.85930,65331
11.86743,62595
11.87555,63881
11.88368,56993
11.89180,54087
11.89992,48778
11.90805,54548
11.91617,56561
11.92430,56611
11.93242,59878
11.94053,59210
11.94867,58686
11.95678,55397
11.96492,51738
11.97303,53969
11.98115,56289
11.98928,74680
11.99740,103299
12.00552,130123
12.01365,142257
12.02177,147721
12.02990,124418
12.03802,100903
12.04613,78961
12.05427,74113
12.06238,70258
12.07052,77819
12.07863,82802
12.08675,94228
12.09488,102850
12.10300,102023
12.11113,106961
12.11925,114135
12.12737,140392
12.13550,144540
12.14362,140554
12.15173,129139
12.15987,111455
12.16798,92317
12.17612,72418
12.18423,64564
12.19235,64381
12.20048,64792
12.20860,63769
12.21673,67024
12.22485,64234
12.23297,63645
12.24110,60941
12.24922,62752
12.25733,63728
12.26547,65669
12.27358,62054
12.28172,60611
12.28983,57396
12.29795,54429
12.30608,50554
12.31420,54649
12.32233,54816
12.33045,52356
12.33857,51922
12.34670,49781
12.35482,49285
12.36295,53976
12.37107,50606
12.37918,47709
12.38732,52569
12.39543,58177
12.40355,69665
12.41168,82603
12.41980,102944
12.42793,118204
12.43605,116320
12.44417,107379
12.45230,100540
12.46042,82697
12.46855,80699
12.47667,73774
12.48478,71359
12.49292,68915
12.50103,62665
12.50915,60558
12.51728,61881
12.52540,63933
12.53353,69376
12.54165,85215
12.54977,104097
12.55790,127935
12.56602,149101
12.57415,156139
12.58227,145930
12.59038,120438
12.59852,103300
12.60663,87193
12.61477,79682
12.62288,72657
12.63100,64796
12.63913,64124
12.64725,62489
12.65537,60132
12.66350,59607
12.67162,56803
12.67975,53032
12.68787,49967
12.69598,51390
12.70412,51895
12.71223,49612
12.72037,48906
12.72848,60254
12.73660,56119
12.74473,59372
12.75285,59416
12.76098,58521
12.76910,54300
12.77722,49247
12.78535,46164
12.79347,42779
12.80158,43318
12.80972,42864
12.81783,38268
12.82597,39501
12.83408,42676
12.84220,39468
12.85033,38923
12.85845,42720
12.86658,40504
12.87470,41522
12.88282,41382
12.89095,34761
12.89907,41885
12.90718,41020
12.91532,38526
12.92343,40461
12.93157,40002
12.93968,40535
12.94780,43024
12.95593,46088
12.96405,52338
12.97218,63536
12.98030,71010
12.98842,84250
12.99655,75223
13.00467,73542
13.01280,66864
13.02092,54109
13.02903,59333
13.03717,55537
13.04528,49734
13.05340,47531
13.06153,44412
13.06965,48962
13.07778,44420
13.08590,46845
13.09402,47702
13.10215,46469
13.11027,45354
13.11840,42920
13.12652,44495
13.13463,41164
13.14277,42382
13.15088,43624
13.15902,44367
13.16713,45565
13.17525,49994
13.18338,46758
13.19150,51037
13.19962,54728
13.20775,57809
13.21587,58767
13.22400,55181
13.23212,53480
13.24023,56223
13.24837,52522
13.25648,48915
13.26462,47428
13.27273,42287
13.28085,44100
13.28898,42908
13.29710,41966
13.30522,43048
13.31335,42549
13.32147,39921
13.32960,39969
13.33772,39833
13.34583,38068
13.35397,36455
13.36208,37964
13.37022,37768
13.37833,37653
13.38645,36858
13.39458,39011
13.40270,39582
13.41083,36648
13.41895,35211
13.42707,34618
13.43520,36817
13.44332,40182
13.45143,41216
13.45957,45895
13.46768,46530
13.47582,47908
13.48393,44589
13.49205,46029
13.50018,43120
13.50830,45642
13.51643,43048
13.52455,39400
13.53267,38561
13.54080,44151
13.54892,38284
13.55705,39778
13.56517,43548
13.57328,46544
13.58142,50902
13.58953,61634
13.59765,72963
13.60578,95794
13.61390,137338
13.62203,164423
13.63015,176108
13.63827,155395
13.64640,120691
13.65452,87049
13.66265,68641
13.67077,56355
13.67888,54683
13.68702,47529
13.69513,45466
13.70325,42711
13.71138,42286
13.71950,44694
13.72763,47245
13.73575,78862
13.74387,148346
13.75200,322669
13.76012,636727
13.76825,1050560
13.77637,1423524
13.78448,1548077
13.79262,1419443
13.80073,1190580
13.80887,922655
13.81698,847072
13.82510,884439
13.83323,937743
13.84135,944800
13.84947,862763
13.85760,694795
13.86572,537355
13.87385,403393
13.88197,309161
13.89008,250053
13.89822,206391
13.90633,179234
13.91447,163602
13.92258,151009
13.93070,139830
13.93883,130500
13.94695,132838
13.95507,127360
13.96320,124810
13.97132,128376
13.97945,132415
13.98757,127784
13.99568,129744
14.00382,119283
14.01193,112138
14.02007,111139
14.02818,104338
14.03630,98781
14.04443,101319
14.05255,96160
14.06068,98921
14.06880,99489
14.07692,93382
14.08505,94187
14.09317,87968
14.10128,89110
14.10942,82538
14.11753,88237
14.12567,79712
14.13378,85331
14.14190,88342
14.15003,100961
14.15815,111082
14.16628,148259
14.17440,214338
14.18252,338271
14.19065,460083
14.19877,506536
14.20690,489639
14.21502,408697
14.22313,320021
14.23127,256731
14.23938,217184
14.24750,205446
14.25563,195704
14.26375,178191
14.27188,166873
14.28000,140200
14.28812,132569
14.29625,126011
14.30437,112072
14.31250,108104
14.32062,105933
14.32873,95138
14.33687,89124
14.34498,86547
14.35310,79496
14.36123,70555
14.36935,66724
14.37748,63774
14.38560,80421
14.39372,112363
14.40185,182572
14.40997,310395
14.41810,441955
14.42622,516643
14.43433,467884
14.44247,362750
14.45058,262264
14.45872,182730
14.46683,142274
14.47495,125095
14.48308,115624
14.49120,109043
14.49932,104506
14.50745,97382
14.51557,86333
14.52370,82402
14.53182,79353
14.53993,76272
14.54807,75917
14.55618,69574
14.56432,70039
14.57243,65587
14.58055,61958
14.58868,59009
14.59680,59674
14.60493,55155
14.61305,56708
14.62117,55048
14.62930,57641
14.63742,54209
14.64553,56303
14.65367,50333
14.66178,53027
14.66992,52600
14.67803,54644
14.68615,50560
14.69428,48713
14.70240,55364
14.71053,57092
14.71865,56857
14.72677,56709
14.73490,59527
14.74302,62198
14.75113,62409
14.75927,62975
14.76738,65832
14.77552,62530
14.78363,82763
14.79175,143798
14.79988,309949
14.80800,772052
14.81613,1599228
14.82425,2598278
14.83237,3402655
14.84050,3458697
14.84862,2913938
14.85675,2013248
14.86487,1284029
14.87298,788723
14.88112,542236
14.88923,380216
14.89735,311306
14.90548,259327
14.91360,227595
14.92173,208288
14.92985,196609
14.93797,184474
14.94610,164787
14.95422,154899
14.96235,141342
14.97047,131103
14.97858,127678
14.98672,121718
14.99483,119687
15.00295,116347
15.01108,114608
15.01920,108723
15.02733,116091
15.03545,111066
15.04357,103472
15.05170,98062
15.05982,96815
15.06795,91909
15.07607,85960
15.08418,83632
15.09232,82191
15.10043,77880
15.10857,76113
15.11668,79703
15.12480,78131
15.13293,88118
15.14105,95297
15.14917,87435
15.15730,87659
15.16542,82345
15.17355,77280
15.18167,68517
15.18978,65475
15.19792,65395
15.20603,58265
15.21417,63300
15.22228,59380
15.23040,55518
15.23853,59386
15.24665,54819
15.25478,55184
15.26290,54068
15.27102,54589
15.27915,55498
15.28727,51818
15.29538,47640
15.30352,47651
15.31163,48757
15.31977,48343
15.32788,47372
15.33600,47699
15.34413,46213
15.35225,44863
15.36038,48322
15.36850,46650
15.37662,47048
15.38475,46849
15.39287,50815
15.40098,47511
15.40912,46577
15.41723,45745
15.42537,49493
15.43348,50642
15.44160,49101
15.44973,51243
15.45785,62354
15.46598,94598
15.47410,154028
15.48222,247316
15.49035,380116
15.49847,500557
15.50660,591940
15.51472,582911
15.52283,493578
15.53097,411983
15.53908,325700
15.54720,252058
15.55533,212497
15.56345,166255
15.57158,132987
15.57970,104471
15.58782,89065
15.59595,78372
15.60407,69731
15.61220,68299
15.62032,66362
15.62843,59928
15.63657,56720
15.64468,56717
15.65282,52497
15.66093,55719
15.66905,51690
15.67718,46160
15.68530,47352
15.69342,47888
15.70155,44497
15.70967,47422
15.71780,42660
15.72592,46071
15.73403,46562
15.74217,50096
15.75028,60391
15.75842,85498
15.76653,127890
15.77465,199832
15.78278,268522
15.79090,335575
15.79902,340515
15.80715,270672
15.81527,211663
15.82340,146428
15.83152,113771
15.83963,92728
15.84777,84622
15.85588,76724
15.86402,75035
15.87213,71331
15.88025,73721
15.88838,69942
15.89650,65435
15.90463,70000
15.91275,63023
15.92087,59681
15.92900,62702
15.93712,63786
15.94523,68027
15.95337,72539
15.96148,84073
15.96962,99144
15.97773,104846
15.98585,112008
15.99398,108990
16.00210,98307
16.01023,97777
16.01835,91260
16.02647,91063
16.03460,86340
16.04272,84656
16.05083,75877
16.05897,78911
16.06708,65132
16.07522,60148
16.08333,59350
16.09145,58303
16.09958,65058
16.10770,62794
16.11583,62156
16.12395,64875
16.13207,71083
16.14020,75504
16.14832,80785
16.15645,88933
16.16457,80082
16.17268,75454
16.18082,68956
16.18893,60766
16.19705,63912
16.20518,56734
16.21330,57649
16.22143,56522
16.22955,54925
16.23767,58518
16.24580,55652
16.25392,50832
16.26205,52183
16.27017,57489
16.27828,60293
16.28642,67271
16.29453,74093
16.30267,80612
16.31078,75256
16.31890,72451
16.32703,67557
16.33515,64501
16.34327,63711
16.35140,67692
16.35952,69774
16.36765,86700
16.37577,92739
16.38388,94020
16.39202,84390
16.40013,77584
16.40827,67466
16.41638,69959
16.42450,55507
16.43263,58056
16.44075,65830
16.44888,90027
16.45700,142857
16.46512,218104
16.47325,353871
16.48137,448344
16.48948,482723
16.49762,421982
16.50573,310525
16.51387,215628
16.52198,152075
16.53010,119534
16.53823,92672
16.54635,84446
16.55448,79664
16.56260,74699
16.57072,73613
16.57885,71511
16.58697,82960
16.59508,87094
16.60322,96771
16.61133,106494
16.61947,107455
16.62758,104975
16.63570,99110
16.64383,86842
16.65195,78066
16.66008,73515
16.66820,65597
16.67632,64297
16.68445,66985
16.69257,60376
16.70070,56630
16.70882,54614
16.71693,55158
16.72507,57590
16.73318,53814
16.74130,58063
16.74943,55990
16.75755,55057
16.76568,59747
16.77380,57286
16.78192,55187
16.79005,54535
16.79817,51974
16.80630,47254
16.81442,48988
16.82253,48044
16.83067,47957
16.83878,51015
16.84690,49941
16.85503,51695
16.86315,50218
16.87128,47106
16.87940,48588
16.88752,43054
16.89565,44404
16.90377,49117
16.91190,42700
16.92002,47542
16.92813,45746
16.93627,44381
16.94438,43430
16.95252,48353
16.96063,46310
16.96875,42476
16.97688,46700
16.98500,44859
16.99312,48451
17.00125,48002
17.00937,48959
17.01750,54335
17.02562,54980
17.03373,53218
17.04187,56952
17.04998,56386
17.05812,62474
17.06623,66982
17.07435,63311
17.08248,56886
17.09060,56870
17.09873,52890
17.10685,58703
17.11497,61590
17.12310,59844
17.13122,67452
17.13933,62955
17.14747,65513
17.15558,61988
17.16372,59885
17.17183,59335
17.17995,58990
17.18808,58716
17.19620,51691
17.20433,53218
17.21245,47310
17.22057,46336
17.22870,46313
17.23682,48402
17.24493,47526
17.25307,46662
17.26118,46243
17.26932,48840
17.27743,50202
17.28555,44196
17.29368,41810
17.30180,43856
17.30993,45985
17.31805,49965
17.32617,56581
17.33430,68659
17.34242,74195
17.35055,78848
17.35867,82926
17.36678,72460
17.37492,74790
17.38303,71169
17.39115,73468
17.39928,69791
17.40740,71721
17.41553,76863
17.42365,74170
17.43177,76883
17.43990,74685
17.44802,72594
17.45615,65391
17.46427,60176
17.47238,57748
17.48052,53285
17.48863,48848
17.49677,48016
17.50488,45300
17.51300,47771
17.52113,48642
17.52925,48344
17.53737,53164
17.54550,52369
17.55362,61415
17.56175,90109
17.56987,152253
17.57798,271395
17.58612,481267
17.59423,767205
17.60237,1091654
17.61048,1237228
17.61860,1157378
17.62673,919471
17.63485,655885
17.64297,432114
17.65110,299003
17.65922,213562
17.66735,184728
17.67547,158891
17.68358,140590
17.69172,129937
17.69983,123314
17.70797,110946
17.71608,111176
17.72420,103714
17.73233,101912
17.74045,94197
17.74858,91822
17.75670,89463
17.76482,88573
17.77295,88838
17.78107,81981
17.78918,77337
17.79732,81924
17.80543,95399
17.81357,109193
17.82168,132865
17.82980,144791
17.83793,153428
17.84605,155331
17.85418,144925
17.86230,138798
17.87042,124288
17.87855,117204
17.88667,102212
17.89478,87525
17.90292,80701
17.91103,72983
17.91917,68139
17.92728,66204
17.93540,65602
17.94353,63470
17.95165,59628
17.95978,60424
17.96790,60624
17.97602,59569
17.98415,61361
17.99227,55106
18.00040,58428
18.00852,63970
18.01663,71751
18.02477,88991
18.03288,101264
18.04100,124936
18.04913,144603
18.05725,219810
18.06538,413998
18.07350,801647
18.08162,1355569
18.08975,1899923
18.09787,2196692
18.10600,2092325
18.11412,1687431
18.12223,1224275
18.13037,854339
18.13848,644103
18.14662,524762
18.15473,438282
18.16285,378928
18.17098,334454
18.17910,306521
18.18722,280702
18.19535,257119
18.20347,230430
18.21160,216702
18.21972,197196
18.22783,192000
18.23597,170967
18.24408,161937
18.25222,156575
18.26033,144701
18.26845,140309
18.27658,120331
18.28470,103273
18.29282,84720
18.30095,78543
18.30907,66721
18.31720,62770
18.32532,60974
18.33343,61013
18.34157,54378
18.34968,57137
18.35782,59299
18.36593,58157
18.37405,57690
18.38218,59245
18.39030,60636
18.39843,62473
18.40655,65887
18.41467,76503
18.42280,91363
18.43092,110642
18.43903,138052
18.44717,166461
18.45528,204257
18.46342,256245
18.47153,301204
18.47965,357399
18.48778,378092
18.49590,345101
18.50403,280537
18.51215,211279
18.52027,161204
18.52840,127613
18.53652,102763
18.54465,90968
18.55277,84678
18.56088,83997
18.56902,76558
18.57713,76276
18.58525,78445
18.59338,78554
18.60150,91033
18.60963,93294
18.61775,101873
18.62587,113675
18.63400,115611
18.64212,112713
18.65025,110512
18.65837,99979
18.66648,107065
18.67462,122525
18.68273,130851
18.69085,146852
18.69898,148362
18.70710,162665
18.71523,164695
18.72335,174825
18.73147,176193
18.73960,173022
18.74772,172517
18.75585,172288
18.76397,174172
18.77208,176426
18.78022,171621
18.78833,174723
18.79647,178113
18.80458,172036
18.81270,180125
18.82083,170088
18.82895,170527
18.83707,174063
18.84520,173253
18.85332,172976
18.86145,175936
18.86957,178734
18.87768,174084
18.88582,173786
18.89393,175967
18.90207,174755
18.91018,172023
18.91830,173142
18.92643,177133
18.93455,173455
18.94268,171195
18.95080,183517
18.95892,186738
18.96705,176075
18.97517,173237
18.98328,173266
18.99142,169622
18.99953,163513
19.00767,162515
19.01578,153558
19.02390,149013
19.03203,154040
19.04015,155855
19.04828,151279
19.05640,152654
19.06452,169103
19.07265,198519
19.08077,264043
19.08888,349192
19.09702,453117
19.10513,538885
19.11327,545463
19.12138,481050
19.12950,395106
19.13763,314326
19.14575,239746
19.15388,200713
19.16200,178367
19.17012,160345
19.17825,158969
19.18637,148944
19.19450,147158
19.20262,138805
19.21073,145790
19.21887,144331
19.22698,143734
19.23510,137148
19.24323,133970
19.25135,130598
19.25948,130076
19.26760,129824
19.27572,135041
19.28385,142766
19.29197,145318
19.30010,142072
19.30822,147945
19.31633,146517
19.32447,131039
19.33258,133916
19.34070,140071
19.34883,141564
19.35695,162395
19.36508,187123
19.37320,211509
19.38132,216598
19.38945,204004
19.39757,187248
19.40570,164330
19.41382,146264
19.42193,135022
19.43007,130540
19.43818,128858
19.44632,122848
19.45443,123580
19.46255,131591
19.47068,155549
19.47880,204194
19.48692,282354
19.49505,348569
19.50317,380305
19.51130,365284
19.51942,306350
19.52753,239755
19.53567,202630
19.54378,177499
19.55192,166748
19.56003,153388
19.56815,139709
19.57628,127520
19.58440,121176
19.59253,114529
19.60065,105922
19.60877,101400
19.61690,105397
19.62502,105276
19.63313,116089
19.64127,145779
19.64938,168544
19.65752,216477
19.66563,270162
19.67375,310754
19.68188,329793
19.69000,319242
19.69813,302954
19.70625,274559
19.71437,246028
19.72250,226413
19.73062,179530
19.73873,173270
19.74687,156259
19.75498,150294
19.76312,148154
19.77123,161716
19.77935,181994
19.78748,214831
19.79560,248437
19.80373,268434
19.81185,270215
19.81997,234348
19.82810,212194
19.83622,185039
19.84435,186487
19.85247,266084
19.86058,558202
19.86872,1297289
19.87683,2704674
19.88495,4807740
19.89308,7094855
19.90120,8626424
19.90933,8802057
19.91745,7493147
19.92557,5728820
19.93370,3854402
19.94182,2465296
19.94995,1734651
19.95807,1353191
19.96618,1121154
19.97432,1005613
19.98243,903523
19.99057,818712
19.99868,756500
20.00680,733274
20.01493,674854
20.02305,652357
20.03117,600326
20.03930,543846
20.04742,495974
20.05555,448572
20.06367,423385
20.07178,402044
20.07992,407340
20.08803,422769
20.09617,416541
20.10428,378902
20.11240,326241
20.12053,278951
20.12865,240112
20.13677,219456
20.14490,224126
20.15302,262160
20.16115,365581
20.16927,509008
20.17738,705867
20.18552,902724
20.19363,1066416
20.20177,1120440
20.20988,1041076
20.21800,882694
20.22613,711883
20.23425,582951
20.24238,513272
20.25050,516399
20.25862,595142
20.26675,699068
20.27487,769749
20.28298,798091
20.29112,751194
20.29923,640898
20.30737,513964
20.31548,389133
20.32360,293722
20.33173,219810
20.33985,178682
20.34798,149157
20.35610,132599
20.36422,117927
20.37235,105414
20.38047,97721
20.38858,94015
20.39672,91849
20.40483,94525
20.41297,94208
20.42108,101362
20.42920,101405
20.43733,104924
20.44545,111082
20.45358,109718
20.46170,110808
20.46982,106080
20.47795,94093
20.48607,95458
20.49420,85852
20.50232,87392
20.51043,80861
20.51857,86504
20.52668,83983
20.53480,79013
20.54293,83462
20.55105,86339
20.55918,81086
20.56730,80042
20.57542,75581
20.58355,78272
20.59167,76581
20.59980,72596
20.60792,75662
20.61603,72913
20.62417,78438
20.63228,84088
20.64042,86950
20.64853,92365
20.65665,95049
20.66478,94273
20.67290,94685
20.68102,88405
20.68915,75670
20.69727,76669
20.70540,69686
20.71352,69348
20.72163,69591
20.72977,67052
20.73788,73270
20.74602,77783
20.75413,78172
20.76225,86522
20.77038,95827
20.77850,114376
20.78663,187797
20.79475,294195
20.80287,483213
20.81100,704211
20.81912,842239
20.82723,850624
20.83537,730111
20.84348,520041
20.85162,334949
20.85973,216977
20.86785,147301
20.87598,119709
20.88410,103592
20.89223,108244
20.90035,102314
20.90847,107751
20.91660,120041
20.92472,120738
20.93283,126656
20.94097,127798
20.94908,125730
20.95722,115454
20.96533,118999
20.97345,97747
20.98158,93055
20.98970,85397
20.99783,84063
21.00595,78927
21.01407,85517
21.02220,83587
21.03032,86499
21.03845,85168
21.04657,86319
21.05468,82109
21.06282,77079
21.07093,84483
21.07905,76837
21.08718,74412
21.09530,73564
21.10343,70537
21.11155,70180
21.11967,74677
21.12780,86862
21.13592,102012
21.14405,124735
21.15217,152365
21.16028,179487
21.16842,193698
21.17653,185077
21.18465,161762
21.19278,134609
21.20090,113194
21.20903,97525
21.21715,89922
21.22527,86547
21.23340,82058
21.24152,77464
21.24965,80160
21.25777,79778
21.26588,82242
21.27402,73019
21.28213,75578
21.29027,74100
21.29838,70295
21.30650,67113
21.31463,65525
21.32275,60608
21.33087,61970
21.33900,69132
21.34712,67978
21.35525,63244
21.36337,63759
21.37148,66802
21.37962,70511
21.38773,80654
21.39587,94366
21.40398,108960
21.41210,106552
21.42023,108480
21.42835,95574
21.43648,87899
21.44460,81874
21.45272,69293
21.46085,70234
21.46897,72579
21.47708,66873
21.48522,69976
21.49333,67886
21.50147,67117
21.50958,65027
21.51770,64137
21.52583,62173
21.53395,63360
21.54208,61718
21.55020,58765
21.55832,60742
21.56645,64768
21.57457,70412
21.58268,73643
21.59082,85303
21.59893,90314
21.60707,92885
21.61518,91867
21.62330,93615
21.63143,95924
21.63955,95679
21.64768,98499
21.65580,107037
21.66392,110968
21.67205,111555
21.68017,114625
21.68830,110991
21.69642,109704
21.70453,86836
21.71267,78958
21.72078,74411
21.72890,68220
21.73703,70452
21.74515,63761
21.75328,63367
21.76140,66753
21.76952,64756
21.77765,64965
21.78577,64451
21.79390,67440
21.80202,70589
21.81013,67165
21.81827,78798
21.82638,79121
21.83452,83700
21.84263,78819
21.85075,82059
21.85888,75120
21.86700,68242
21.87512,72943
21.88325,69822
21.89137,66102
21.89950,69191
21.90762,61152
21.91573,64760
21.92387,67066
21.93198,60180
21.94012,57828
21.94823,61668
21.95635,53196
21.96448,54954
21.97260,51216
21.98072,54068
21.98885,52907
21.99697,53245
22.00510,51618
22.01322,53202
22.02133,55524
22.02947,58487
22.03758,53534
22.04572,57594
22.05383,54801
22.06195,55780
22.07008,55498
22.07820,54484
22.08633,55023
22.09445,62085
22.10257,72040
22.11070,74409
22.11882,74591
22.12693,71700
22.13507,74901
22.14318,74614
22.15132,81016
22.15943,81416
22.16755,79849
22.17568,80859
22.18380,78051
22.19193,78838
22.20005,84226
22.20817,85948
22.21630,86902
22.22442,90551
22.23253,88724
22.24067,82255
22.24878,86961
22.25692,89341
22.26503,90220
22.27315,95987
22.28128,102730
22.28940,103637
22.29753,101824
22.30565,97926
22.31377,92230
22.32190,94849
22.33002,89361
22.33815,84915
22.34627,75568
22.35438,69617
22.36252,72417
22.37063,69687
22.37875,75190
22.38688,88756
22.39500,117529
22.40313,154310
22.41125,200844
22.41937,230679
22.42750,236112
22.43562,223454
22.44375,181629
22.45187,143801
22.45998,117682
22.46812,98543
22.47623,103409
22.48437,114178
22.49248,133182
22.50060,152235
22.50873,166628
22.51685,159508
22.52497,143602
22.53310,134616
22.54122,131141
22.54935,108854
22.55747,97945
22.56558,86337
22.57372,78385
22.58183,75364
22.58997,73299
22.59808,72710
22.60620,95087
22.61433,110075
22.62245,107921
22.63057,120745
22.63870,123842
22.64682,128620
22.65495,133155
22.66307,139864
22.67118,141973
22.67932,143228
22.68743,155101
22.69557,157666
22.70368,173065
22.71180,175584
22.71993,185900
22.72805,186407
22.73618,175483
22.74430,167648
22.75242,162780
22.76055,159214
22.76867,159608
22.77678,162671
22.78492,169836
22.79303,184298
22.80117,205210
22.80928,204305
22.81740,214588
22.82553,209550
22.83365,193913
22.84178,176494
22.84990,168409
22.85802,166544
22.86615,182013
22.87427,200589
22.88240,233255
22.89052,249416
22.89863,263215
22.90677,295480
22.91488,312023
22.92300,321885
22.93113,305958
22.93925,295837
22.94738,256374
22.95550,216588
22.96362,188284
22.97175,170098
22.97987,152621
22.98800,146165
22.99612,145385
23.00423,136468
23.01237,132371
23.02048,125998
23.02860,126412
23.03673,124274
23.04485,124423
23.05298,132315
23.06110,132517
23.06922,125691
23.07735,130500
23.08547,120837
23.09360,124118
23.10172,120340
23.10983,113865
23.11797,110460
23.12608,110252
23.13422,104404
23.14233,108387
23.15045,106135
23.15858,110852
23.16670,105207
23.17482,104333
23.18295,105649
23.19107,101640
23.19920,98054
23.20732,91692
23.21543,97546
23.22357,92648
23.23168,97811
23.23982,98171
23.24793,100201
23.25605,111073
23.26418,121584
23.27230,119310
23.28042,114376
23.28855,104220
23.29667,99477
23.30480,99226
23.31292,92949
23.32103,101311
23.32917,116846
23.33728,129154
23.34542,162323
23.35353,185985
23.36165,207809
23.36978,240727
23.37790,243292
23.38603,241361
23.39415,219822
23.40227,210563
23.41040,190636
23.41852,181400
23.42663,176041
23.43477,174663
23.44288,159143
23.45102,164979
23.45913,156206
23.46725,151321
23.47538,139193
23.48350,139132
23.49163,133688
23.49975,125725
23.50787,124661
23.51600,126912
23.52412,125705
23.53225,134500
23.54037,143377
23.54848,166211
23.55662,187104
23.56473,222555
23.57285,251387
23.58098,284766
23.58910,334836
23.59723,397614
23.60535,417487
23.61347,404071
23.62160,336759
23.62972,275780
23.63785,225817
23.64597,198150
23.65408,185462
23.66222,179434
23.67033,172104
23.67845,172338
23.68658,145766
23.69470,130394
23.70283,120761
23.71095,109265
23.71907,101525
23.72720,99544
23.73532,115203
23.74345,160463
23.75157,289847
23.75968,589837
23.76782,1189813
23.77593,2032916
23.78407,2858190
23.79218,3446937
23.80030,3540659
23.80843,3142528
23.81655,2529665
23.82467,1878582
23.83280,1443623
23.84092,1106701
23.84905,879838
23.85717,720729
23.86528,589496
23.87342,496074
23.88153,441919
23.88967,393528
23.89778,370485
23.90590,352818
23.91403,327834
23.92215,310907
23.93028,293668
23.93840,267670
23.94652,248041
23.95465,217144
23.96277,214289
23.97088,200924
23.97902,187522
23.98713,177960
23.99527,184245
24.00338,177611
24.01150,172672
24.01963,182267
24.02775,191879
24.03588,198471
24.04400,194171
24.05212,183451
24.06025,166268
24.06837,150613
24.07648,148062
24.08462,136697
24.09273,129414
24.10087,131191
24.10898,125775
24.11710,131436
24.12523,130562
24.13335,129815
24.14148,140316
24.14960,141956
24.15772,140416
24.16585,149344
24.17397,143884
24.18210,147581
24.19022,147759
24.19833,146247
24.20647,149802
24.21458,135630
24.22270,134633
24.23083,114977
24.23895,108942
24.24708,97691
24.25520,96059
24.26332,93984
24.27145,92338
24.27957,88160
24.28770,93430
24.29582,91145
24.30393,93931
24.31207,92513
24.32018,85525
24.32832,89535
24.33643,90863
24.34455,103487
24.35268,130006
24.36080,162552
24.36892,202561
24.37705,244832
24.38517,295364
24.39330,307364
24.40142,295153
24.40953,260753
24.41767,237221
24.42578,212179
24.43392,211522
24.44203,204747
24.45015,204252
24.45828,216522
24.46640,228585
24.47452,246267
24.48265,260748
24.49077,279554
24.49890,281287
24.50702,290355
24.51513,299070
24.52327,329605
24.53138,336027
24.53952,374424
24.54763,425217
24.55575,454905
24.56388,464318
24.57200,440569
24.58013,379583
24.58825,336092
24.59637,294208
24.60450,259893
24.61262,246039
24.62073,237812
24.62887,228169
24.63698,227252
24.64512,220628
24.65323,226405
24.66135,232878
24.66948,232784
24.67760,227108
24.68573,232391
24.69385,222889
24.70197,233117
24.71010,229631
24.71822,221289
24.72633,224078
24.73447,217561
24.74258,218444
24.75072,215876
24.75883,218297
24.76695,221161
24.77508,220253
24.78320,225757
24.79133,223394
24.79945,225325
24.80757,224488
24.81570,217033
24.82382,239488
24.83195,258285
24.84007,291243
24.84818,341185
24.85632,427413
24.86443,521993
24.87255,663951
24.88068,794776
24.88880,937871
24.89693,955878
24.90505,874108
24.91317,711304
24.92130,543298
24.92942,392528
24.93755,301603
24.94567,240896
24.95378,222205
24.96192,198236
24.97003,186273
24.97817,184829
24.98628,176121
24.99440,169820
25.00253,169465
25.01065,166139
25.01877,162695
25.02690,159782
25.03502,151563
25.04315,149316
25.05127,131442
25.05938,130164
25.06752,120778
25.07563,114376
25.08377,123175
25.09188,149325
25.10000,230293
25.10813,461657
25.11625,983281
25.12437,1933962
25.13250,3143070
25.14062,4142690
25.14875,4555594
25.15687,4250519
25.16498,3382362
25.17312,2305329
25.18123,1387214
25.18937,770917
25.19748,441503
25.20560,279186
25.21373,199985
25.22185,161313
25.22998,170447
25.23810,188129
25.24622,230113
25.25435,281803
25.26247,350730
25.27058,409698
25.27872,409582
25.28683,371583
25.29497,313732
25.30308,249192
25.31120,194357
25.31933,152694
25.32745,130569
25.33558,111093
25.34370,103708
25.35182,97701
25.35995,94969
25.36807,87621
25.37620,90197
25.38432,85237
25.39243,88316
25.40057,84565
25.40868,80860
25.41680,81052
25.42493,80122
25.43305,75700
25.44118,77981
25.44930,74811
25.45742,82634
25.46555,96810
25.47367,117637
25.48180,148766
25.48992,178789
25.49803,205912
25.50617,227558
25.51428,235011
25.52240,248474
25.53053,245611
25.53865,253113
25.54678,249884
25.55490,259387
25.56302,257283
25.57115,260845
25.57927,260137
25.58740,263517
25.59552,272061
25.60363,258220
25.61177,264458
25.61988,270715
25.62802,267019
25.63613,259317
25.64425,252531
25.65238,248345
25.66050,257771
25.66862,257432
25.67675,261936
25.68487,257206
25.69300,260642
25.70112,263896
25.70923,270980
25.71737,253170
25.72548,251010
25.73362,242620
25.74173,242091
25.74985,238209
25.75798,226722
25.76610,228575
25.77422,226841
25.78235,223946
25.79047,222414
25.79860,224894
25.80672,228594
25.81483,217103
25.82297,215170
25.83108,215567
25.83922,221317
25.84733,227886
25.85545,229157
25.86358,222808
25.87170,212239
25.87983,202283
25.88795,199349
25.89607,195172
25.90420,196761
25.91232,195759
25.92043,186205
25.92857,189157
25.93668,185268
25.94482,184494
25.95293,189927
25.96105,180069
25.96918,175098
25.97730,174072
25.98543,168716
25.99355,168561
26.00167,166016
26.00980,158093
26.01792,160613
26.02605,161219
26.03417,156159
26.04228,160247
26.05042,156256
26.05853,158014
26.06665,166195
26.07478,163007
26.08290,158880
26.09103,168600
26.09915,159455
26.10727,150196
26.11540,155237
26.12352,158841
26.13165,149596
26.13977,158730
26.14788,157976
26.15602,155273
26.16413,151325
26.17227,153520
26.18038,151076
26.18850,143446
26.19663,139098
26.20475,133348
26.21287,136404
26.22100,133437
26.22912,125238
26.23725,130206
26.24537,125974
26.25348,122532
26.26162,118945
26.26973,119109
26.27787,119676
26.28598,110178
26.29410,114434
26.30223,111137
26.31035,109697
26.31847,115382
26.32660,110805
26.33472,113703
26.34285,111595
26.35097,117076
26.35908,139475
26.36722,173074
26.37533,224262
26.38347,293790
26.39158,348081
26.39970,403863
26.40783,418224
26.41595,380473
26.42408,321025
26.43220,255344
26.44032,204688
26.44845,155761
26.45657,130805
26.46468,121034
26.47282,116162
26.48093,110623
26.48907,104012
26.49718,101272
26.50530,102656
26.51343,96160
26.52155,91715
26.52968,94021
26.53780,88034
26.54592,85043
26.55405,84738
26.56217,87708
26.57028,90147
26.57842,82362
26.58653,82524
26.59467,89402
26.60278,88151
26.61090,81020
26.61903,77740
26.62715,80847
26.63528,84921
26.64340,80654
26.65152,85647
26.65965,81833
26.66777,89439
26.67590,84548
26.68402,82431
26.69213,77369
26.70027,76409
26.70838,80395
26.71650,74734
26.72463,79092
26.73275,79984
26.74088,79961
26.74900,78217
26.75712,77459
26.76525,76775
26.77337,80644
26.78150,83431
26.78962,84093
26.79773,95093
26.80587,85640
26.81398,87563
26.82212,87081
26.83023,82473
26.83835,81441
26.84648,75612
26.85460,77652
26.86272,69297
26.87085,72484
26.87897,73387
26.88710,72467
26.89522,69624
26.90333,66134
26.91147,69818
26.91958,73846
26.92772,70352
26.93583,68635
26.94395,72434
26.95208,74340
26.96020,81917
26.96832,104607
26.97645,146236
26.98457,216628
26.99270,334896
27.00082,499600
27.00893,698547
27.01707,887487
27.02518,1057464
27.03332,1130511
27.04143,1060344
27.04955,905202
27.05768,769712
27.06580,643591
27.07393,520616
27.08205,425938
27.09017,356734
27.09830,300074
27.10642,260033
27.11453,238850
27.12267,228227
27.13078,217536
27.13892,204334
27.14703,186202
27.15515,182631
27.16328,173199
27.17140,182713
27.17953,189509
27.18765,186000
27.19577,186987
27.20390,168635
27.21202,166008
27.22015,147402
27.22827,137011
27.23638,130024
27.24452,130153
27.25263,122851
27.26075,116362
27.26888,112260
27.27700,105217
27.28513,102697
27.29325,104737
27.30137,99874
27.30950,101776
27.31762,97701
27.32575,97993
27.33387,104660
27.34198,98993
27.35012,97198
27.35823,100205
27.36635,101998
27.37448,96988
27.38260,93481
27.39073,100599
27.39885,92014
27.40697,91617
27.41510,83289
27.42322,84960
27.43135,89776
27.43947,81713
27.44758,81382
27.45572,77229
27.46383,77957
27.47197,76276
27.48008,78197
27.48820,81509
27.49633,79098
27.50445,80248
27.51257,82148
27.52070,85959
27.52882,78234
27.53695,82474
27.54507,79055
27.55318,78087
27.56132,79229
27.56943,84337
27.57757,95969
27.58568,103416
27.59380,109510
27.60193,123075
27.61005,119571
27.61817,105216
27.62630,105103
27.63442,90604
27.64255,87089
27.65067,88151
27.65878,85616
27.66692,95996
27.67503,110455
27.68317,116115
27.69128,124953
27.69940,121506
27.70753,117192
27.71565,103177
27.72378,89796
27.73190,82490
27.74002,70504
27.74815,68219
27.75627,66775
27.76438,70654
27.77252,66566
27.78063,65600
27.78877,68835
27.79688,72020
27.80500,69766
27.81313,69421
27.82125,70424
27.82938,66571
27.83750,62545
27.84562,64901
27.85375,66659
27.86187,61063
27.87000,70720
27.87812,60556
27.88623,58498
27.89437,58634
27.90248,60963
27.91060,59107
27.91873,61887
27.92685,58721
27.93498,59946
27.94310,64475
27.95122,58621
27.95935,61180
27.96747,59133
27.97560,58969
27.98372,60762
27.99183,62233
27.99997,70121
28.00808,80625
28.01620,100180
28.02433,133443
28.03245,179191
28.04058,222892
28.04870,267387
28.05682,260582
28.06495,239161
28.07307,197421
28.08120,151256
28.08932,120817
28.09743,97193
28.10557,88811
28.11368,80997
28.12182,73127
28.12993,68288
28.13805,66769
28.14618,60783
28.15430,65343
28.16242,65019
28.17055,68591
28.17867,75602
28.18680,78289
28.19492,84443
28.20303,94871
28.21117,104612
28.21928,108575
28.22742,104493
28.23553,102979
28.24365,91891
28.25178,81246
28.25990,78760
28.26803,63682
28.27615,66299
28.28427,67549
28.29240,69787
28.30052,86893
28.30863,105702
28.31677,129766
28.32488,162171
28.33302,182370
28.34113,208635
28.34925,236741
28.35738,272523
28.36550,288030
28.37363,316984
28.38175,336958
28.38987,366374
28.39800,342572
28.40612,326949
28.41423,323570
28.42237,305820
28.43048,282756
28.43862,268068
28.44673,246932
28.45485,225589
28.46298,212785
28.47110,196053
28.47923,188754
28.48735,176941
28.49547,171895
28.50360,158594
28.51172,159062
28.51985,150271
28.52797,135994
28.53608,121067
28.54422,116536
28.55233,109798
28.56045,108512
28.56858,105353
28.57670,97881
28.58483,100314
28.59295,93673
28.60107,92135
28.60920,98180
28.61732,93709
28.62545,98787
28.63357,97513
28.64168,101321
28.64982,95261
28.65793,98177
28.66607,94552
28.67418,88791
28.68230,84986
28.69043,86241
28.69855,81976
28.70667,81268
28.71480,79903
28.72292,80791
28.73105,81389
28.73917,90332
28.74728,103266
28.75542,117445
28.76353,122146
28.77167,116118
28.77978,100098
28.78790,95081
28.79603,92417
28.80415,92157
28.81227,89260
28.82040,86307
28.82852,84125
28.83665,79751
28.84477,79030
28.85288,82247
28.86102,81989
28.86913,79140
28.87727,86021
28.88538,94279
28.89350,94710
28.90163,101049
28.90975,103310
28.91788,94013
28.92600,90841
28.93412,87319
28.94225,79027
28.95037,82295
28.95848,81940
28.96662,79485
28.97473,77085
28.98287,72709
28.99098,72771
28.99910,67740
29.00723,63596
29.01535,67889
29.02348,61441
29.03160,68930
29.03972,61102
29.04785,62204
29.05597,62515
29.06408,66350
29.07222,62065
29.08033,67732
29.08847,69814
29.09658,66563
29.10470,66291
29.11283,65982
29.12095,62214
29.12908,63564
29.13720,63511
29.14532,60593
29.15345,62900
29.16157,64100
29.16970,67684
29.17782,68869
29.18593,84620
29.19407,93634
29.20218,112573
29.21030,125931
29.21843,132766
29.22655,139093
29.23468,131961
29.24280,129922
29.25092,129202
29.25905,141636
29.26717,150820
29.27530,146805
29.28342,138076
29.29153,115246
29.29967,95007
29.30778,83959
29.31592,72474
29.32403,67730
29.33215,69121
29.34028,63058
29.34840,60407
29.35652,63001
29.36465,60687
29.37277,60929
29.38090,56730
29.38902,59614
29.39713,61167
29.40527,61000
29.41338,66860
29.42152,65234
29.42963,65576
29.43775,66735
29.44588,62594
29.45400,62431
29.46212,66272
29.47025,56488
29.47837,64163
29.48650,60281
29.49462,62126
29.50273,62030
29.51087,65624
29.51898,58314
29.52712,55149
29.53523,61224
29.54335,58916
29.55148,54264
29.55960,58037
29.56773,53653
29.57585,49508
29.58397,54608
29.59210,51295
29.60022,50585
29.60833,51438
29.61647,59092
29.62458,56576
29.63272,49929
29.64083,54898
29.64895,52210
29.65708,53894
29.66520,55763
29.67333,61563
29.68145,61137
29.68957,59721
29.69770,68521
29.70582,65672
29.71395,64076
29.72207,67043
29.73018,63387
29.73832,60737
29.74643,57736
29.75455,59816
29.76268,54279
29.77080,53791
29.77893,51981
29.78705,52261
29.79517,51594
29.80330,54155
29.81142,50185
29.81955,48690
29.82767,50906
29.83578,49154
29.84392,49263
29.85203,50626
29.86015,54632
29.86828,55703
29.87640,69450
29.88453,74567
29.89265,87549
29.90077,93824
29.90890,93440
29.91702,90344
29.92515,82799
29.93327,81406
29.94138,77245
29.94952,82185
29.95763,85182
29.96577,98799
29.97388,111041
29.98200,125402
29.99013,139883
29.99825,150668
30.00637,165170
30.01450,178706
30.02262,174158
30.03075,177324
30.03887,180420
30.04698,174236
30.05512,167891
30.06323,170212
30.07137,166936
30.07948,163350
30.08760,162454
30.09573,155099
30.10385,151594
30.11197,148255
30.12010,137889
30.12822,131545
30.13635,130354
30.14447,124534
30.15258,117334
30.16072,114924
30.16883,117224
30.17697,112437
30.18508,115727
30.19320,117763
30.20133,122654
30.20945,114707
30.21758,111317
30.22570,102792
30.23382,99781
30.24195,91913
30.25007,84231
30.25818,80844
30.26632,74696
30.27443,69551
30.28257,71509
30.29068,68407
30.29880,65381
30.30693,68307
30.31505,70747
30.32318,66424
30.33130,66367
30.33942,70116
30.34755,68287
30.35567,67595
30.36380,71530
30.37192,69914
30.38003,66469
30.38817,65680
30.39628,65919
30.40440,63620
30.41253,57489
30.42065,65697
30.42878,60560
30.43690,60271
30.44502,58616
30.45315,59455
30.46127,58860
30.46940,61922
30.47752,56992
30.48563,60128
30.49377,58561
30.50188,61558
30.51000,55041
30.51813,55040
30.52625,57405
30.53438,54229
30.54250,57040
30.55062,55390
30.55875,59050
30.56687,62780
30.57500,57337
30.58312,57202
30.59123,58848
30.59937,54943
30.60748,57645
30.61562,59924
30.62373,57781
30.63185,57657
30.63998,57148
30.64810,51189
30.65622,49856
30.66435,49199
30.67247,52133
30.68060,51246
30.68872,54695
30.69683,46578
30.70497,50692
30.71308,51230
30.72122,52574
30.72933,53832
30.73745,58564
30.74558,54339
30.75370,56748
30.76183,61209
30.76995,62274
30.77807,70590
30.78620,81620
30.79432,97994
30.80243,107644
30.81057,116087
30.81868,112106
30.82682,98598
30.83493,84398
30.84305,74806
30.85118,67920
30.85930,66349
30.86743,60103
30.87555,63846
30.88367,61075
30.89180,58872
30.89992,60159
30.90803,55147
30.91617,60899
30.92428,54148
30.93242,56820
30.94053,55069
30.94865,60700
30.95678,63479
30.96490,65842
30.97303,63271
30.98115,67498
30.98927,69111
30.99740,66043
31.00552,74395
31.01365,70167
31.02177,71167
31.02988,71142
31.03802,76649
31.04613,76642
31.05425,74041
31.06238,75964
31.07050,75600
31.07863,83284
31.08675,84897
31.09487,93620
31.10300,96385
31.11112,92400
31.11925,94215
31.12737,89566
31.13548,88258
31.14362,86147
31.15173,85624
31.15985,92637
31.16798,89645
31.17610,93161
31.18423,104987
31.19235,130737
31.20047,155221
31.20860,192457
31.21672,227068
31.22485,241485
31.23297,242550
31.24108,212440
31.24922,176412
31.25733,133008
31.26547,110801
31.27358,91447
31.28170,86125
31.28983,79353
31.29795,79685
31.30607,72947
31.31420,74684
31.32232,75645
31.33045,79999
31.33857,76332
31.34668,71207
31.35482,79244
31.36293,73073
31.37107,71703
31.37918,72137
31.38730,69766
31.39543,75750
31.40355,71421
31.41168,71102
31.41980,72402
31.42792,66901
31.43605,68265
31.44417,67015
31.45228,66466
31.46042,64619
31.46853,65855
31.47667,69959
31.48478,67637
31.49290,68301
31.50103,71905
31.50915,70039
31.51728,76802
31.52540,77530
31.53352,84367
31.54165,87680
31.54977,80476
31.55790,75964
31.56602,71982
31.57413,75626
31.58227,67899
31.59038,69093
31.59850,70478
31.60663,63825
31.61475,63552
31.62288,60666
31.63100,64340
31.63912,64485
31.64725,67437
31.65537,68043
31.66350,66813
31.67162,67097
31.67973,67517
31.68787,64622
31.69598,68757
31.70410,60253
31.71223,63142
31.72035,58876
31.72848,58348
31.73660,53360
31.74472,56899
31.75285,56019
31.76097,57996
31.76910,53508
31.77722,55919
31.78533,60976
31.79347,57842
31.80158,60244
31.80972,59758
31.81783,59620
31.82595,58080
31.83408,54119
31.84220,57248
31.85032,57555
31.85845,56370
31.86657,62200
31.87470,61437
31.88282,63422
31.89093,69952
31.89907,77903
31.90718,93881
31.91532,99233
31.92343,107225
31.93155,116662
31.93968,125922
31.94780,129424
31.95592,129270
31.96405,143266
31.97217,142788
31.98030,143765
31.98842,151055
31.99653,159063
32.00467,142103
32.01278,147148
32.02092,135637
32.02903,129598
32.03715,123737
32.04528,121772
32.05340,119287
32.06153,109540
32.06965,107619
32.07777,103306
32.08590,96958
32.09402,95954
32.10213,86769
32.11027,85487
32.11838,80304
32.12652,76684
32.13463,78613
32.14275,75382
32.15088,77705
32.15900,72965
32.16713,71510
32.17525,75513
32.18337,70182
32.19150,69767
32.19962,69551
32.20775,71558
32.21587,72968
32.22398,64469
32.23212,66525
32.24023,65388
32.24835,65854
32.25648,64191
32.26460,63530
32.27273,65788
32.28085,66538
32.28897,67908
32.29710,63693
32.30522,63227
32.31335,66708
32.32147,61690
32.32958,62045
32.33772,61410
32.34583,62781
32.35395,67521
32.36208,64742
32.37020,61399
32.37833,58798
32.38645,58832
32.39457,57180
32.40270,56471
32.41082,57872
32.41895,57263
32.42707,58469
32.43518,59546
32.44332,57236
32.45143,58508
32.45957,55711
32.46768,54027
32.47580,50286
32.48393,55580
32.49205,51689
32.50017,53914
32.50830,55143
32.51642,54027
32.52455,54570
32.53267,53979
32.54078,58507
32.54892,55613
32.55703,53751
32.56517,54963
32.57328,55086
32.58140,55973
32.58953,50113
32.59765,54222
32.60578,57610
32.61390,53979
32.62202,57188
32.63015,63485
32.63827,69520
32.64638,70204
32.65452,85254
32.66263,79868
32.67077,78746
32.67888,64876
32.68700,67049
32.69513,58688
32.70325,65718
32.71138,55116
32.71950,52139
32.72762,61210
32.73575,57096
32.74387,55644
32.75198,54870
32.76012,56123
32.76823,52719
32.77637,56277
32.78448,56606
32.79260,54723
32.80073,52207
32.80885,53350
32.81698,54249
32.82510,51949
32.83322,52715
32.84135,59024
32.84947,56520
32.85760,58830
32.86572,54835
32.87383,60250
32.88197,63910
32.89008,66418
32.89820,72606
32.90633,76364
32.91445,83760
32.92258,74254
32.93070,70250
32.93882,67068
32.94695,59262
32.95507,57204
32.96320,57126
32.97132,60744
32.97943,64444
32.98757,69495
32.99568,79110
33.00380,83328
33.01193,83941
33.02005,74256
33.02818,77285
33.03630,67469
33.04442,65493
33.05255,66154
33.06067,66407
33.06880,74685
33.07692,85354
33.08503,85656
33.09317,95983
33.10128,99985
33.10942,97042
33.11753,97794
33.12565,92747
33.13378,86669
33.14190,78114
33.15002,67143
33.15815,68511
33.16627,66891
33.17440,65996
33.18252,57845
33.19063,57299
33.19877,58994
33.20688,56126
33.21502,63178
33.22313,61788
33.23125,57561
33.23938,55037
33.24750,54964
33.25563,57469
33.26375,58303
33.27187,56320
33.28000,55528
33.28812,66157
33.29623,63126
33.30437,62395
33.31248,63028
33.32062,60194
33.32873,60503
33.33685,62299
33.34498,61775
33.35310,63140
33.36123,63052
33.36935,66991
33.37747,67119
33.38560,60957
33.39372,60792
33.40183,53536
33.40997,55825
33.41808,52003
33.42622,53303
33.43433,56628
33.44245,55910
33.45058,53582
33.45870,51979
33.46683,48103
33.47495,50397
33.48307,51573
33.49120,51469
33.49932,55408
33.50745,52061
33.51557,51897
33.52368,58790
33.53182,55688
33.53993,58666
33.54805,60291
33.55618,63273
33.56430,65706
33.57243,54315
33.58055,57024
33.58867,55674
33.59680,55792
33.60492,50475
33.61305,50099
33.62117,50159
33.62928,50693
33.63742,55456
33.64553,55190
33.65367,58303
33.66178,55899
33.66990,55290
33.67803,55635
33.68615,54401
33.69427,50930
33.70240,48979
33.71052,54426
33.71865,50693
33.72677,53672
33.73488,50190
33.74302,50694
33.75113,44799
33.75927,47836
33.76738,49929
33.77550,49415
33.78363,48271
33.79175,51262
33.79987,47431
33.80800,48090
33.81612,51995
33.82425,55116
33.83237,49667
33.84048,50121
33.84862,49898
33.85673,50159
33.86487,50168
33.87298,54855
33.88110,56594
33.88923,62674
33.89735,62184
33.90548,65183
33.91360,63425
33.92172,61375
33.92985,60908
33.93797,56754
33.94608,54582
33.95422,55876
33.96233,50541
33.97047,54686
33.97858,50664
33.98670,56315
33.99483,54934
34.00295,49493
34.01108,52711
34.01920,51495
34.02732,54104
34.03545,54489
34.04357,55542
34.05170,58328
34.05982,53296
34.06793,51399
34.07607,53075
34.08418,51955
34.09230,56472
34.10043,57312
34.10855,58580
34.11668,63057
34.12480,59440
34.13292,58587
34.14105,57376
34.14917,60471
34.15730,60336
34.16542,57008
34.17353,59139
34.18167,58810
34.18978,56117
34.19790,53998
34.20603,53565
34.21415,54275
34.22228,54872
34.23040,52455
34.23852,57920
34.24665,52460
34.25477,55174
34.26290,54796
34.27102,53574
34.27913,54026
34.28727,55518
34.29538,58502
34.30352,53916
34.31163,54942
34.31975,54275
34.32788,56402
34.33600,53298
34.34412,51288
34.35225,57027
34.36037,58964
34.36850,59441
34.37662,53988
34.38473,56686
34.39287,59979
34.40098,55969
34.40912,52948
34.41723,54905
34.42535,52797
34.43348,53232
34.44160,53946
34.44972,61649
34.45785,55404
34.46597,55383
34.47410,50438
34.48222,55904
34.49033,66718
34.49847,74155
34.50658,81480
34.51472,96557
34.52283,112590
34.53095,124393
34.53908,132640
34.54720,130764
34.55533,135775
34.56345,133007
34.57157,132042
34.57970,118353
34.58782,108959
34.59593,108121
34.60407,98180
34.61218,93203
34.62032,86139
34.62843,81134
34.63655,78226
34.64468,76707
34.65280,76965
34.66093,72160
34.66905,76109
34.67717,67716
34.68530,71927
34.69342,66499
34.70155,69989
34.70967,65829
34.71778,67926
34.72592,66471
34.73403,64750
34.74215,66339
34.75028,67442
34.75840,68542
34.76653,65332
34.77465,65683
34.78277,65741
34.79090,68672
34.79902,68493
34.80715,69827
34.81527,61608
34.82338,64549
34.83152,67292
34.83963,63759
34.84775,66471
34.85588,65091
34.86400,67834
34.87213,67827
34.88025,63509
34.88837,66352
34.89650,66018
34.90462,64358
34.91275,64691
34.92087,62394
34.92898,62751
34.93712,63163
34.94523,64693
34.95337,62770
34.96148,66303
34.96960,72813
34.97773,67771
34.98585,67293
34.99397,66583
35.00210,66512
35.01022,66239
35.01835,63968
35.02647,58951
35.03458,58794
35.04272,61162
35.05083,56358
35.05897,62075
35.06708,55986
35.07520,56256
35.08333,55862
35.09145,56458
35.09958,57758
35.10770,53801
35.11582,53604
35.12395,54667
35.13207,59839
35.14018,57893
35.14832,63909
35.15643,59709
35.16457,59810
35.17268,58374
35.18080,58255
35.18893,59524
35.19705,54358
35.20518,54173
35.21330,56119
35.22142,52872
35.22955,57566
35.23767,52616
35.24578,63024
35.25392,55742
35.26203,55356
35.27017,56116
35.27828,56923
35.28640,54180
35.29453,57259
35.30265,54910
35.31078,53333
35.31890,55272
35.32702,56936
35.33515,55075
35.34327,51036
35.35140,52831
35.35952,54924
35.36763,52199
35.37577,62298
35.38388,66122
35.39200,73881
35.40013,86360
35.40825,104962
35.41638,116705
35.42450,125849
35.43262,138870
35.44075,128827
35.44887,116294
35.45700,102713
35.46512,94165
35.47323,79628
35.48137,67046
35.48948,70598
35.49760,66677
35.50573,63804
35.51385,63518
35.52198,58128
35.53010,62901
35.53822,60546
35.54635,63104
35.55447,58377
35.56260,58183
35.57072,59191
35.57883,57125
35.58697,56019
35.59508,59546
35.60322,57377
35.61133,55470
35.61945,55798
35.62758,60929
35.63570,60666
35.64382,62061
35.65195,57904
35.66007,60692
35.66820,59684
35.67632,65438
35.68443,58706
35.69257,61229
35.70068,59401
35.70882,56987
35.71693,62968
35.72505,60057
35.73318,62851
35.74130,66018
35.74943,66437
35.75755,68065
35.76567,67574
35.77380,65432
35.78192,72533
35.79003,68532
35.79817,62756
35.80628,58710
35.81442,54229
35.82253,56036
35.83065,60894
35.83878,59746
35.84690,62048
35.85503,59445
35.86315,57396
35.87127,59897
35.87940,58161
35.88752,59668
35.89563,58817
35.90377,59130
35.91188,59789
35.92002,57825
35.92813,61365
35.93625,56050
35.94438,58314
35.95250,58312
35.96063,56086
35.96875,53353
35.97687,55417
35.98500,57026
35.99312,61071
36.00125,60687
36.00937,62153
36.01748,62412
36.02562,64723
36.03373,63137
36.04185,63147
36.04998,64437
36.05810,62105
36.06623,59795
36.07435,60856
36.08247,56782
36.09060,60306
36.09872,63716
36.10685,57641
36.11497,58929
36.12308,58077
36.13122,64784
36.13933,65316
36.14747,64113
36.15558,63100
36.16370,62089
36.17183,61342
36.17995,66855
36.18807,59012
36.19620,58954
36.20432,57581
36.21245,55771
36.22057,59279
36.22868,55436
36.23682,60706
36.24493,57169
36.25307,61669
36.26118,61556
36.26930,67156
36.27743,68728
36.28555,71452
36.29367,80321
36.30180,81561
36.30992,82774
36.31805,77242
36.32617,71724
36.33428,64985
36.34242,63970
36.35053,58593
36.35867,62119
36.36678,58998
36.37490,63404
36.38303,61620
36.39115,57821
36.39928,57056
36.40740,63050
36.41552,60038
36.42365,59899
36.43177,62570
36.43988,61799
36.44802,58977
36.45613,60153
36.46427,59418
36.47238,58072
36.48050,58121
36.48863,56571
36.49675,63321
36.50488,58655
36.51300,60344
36.52112,61250
36.52925,64314
36.53737,63133
36.54548,63879
36.55362,61270
36.56173,66716
36.56987,64215
36.57798,65276
36.58610,63363
36.59423,66137
36.60235,66561
36.61048,68716
36.61860,65465
36.62672,68278
36.63485,68952
36.64297,69071
36.65110,69372
36.65922,66914
36.66733,65769
36.67547,65027
36.68358,68375
36.69170,64258
36.69983,67032
36.70795,66797
36.71608,65711
36.72420,62129
36.73232,69217
36.74045,66365
36.74857,67239
36.75670,61894
36.76482,64490
36.77293,66431
36.78107,65857
36.78918,68410
36.79732,67448
36.80543,69740
36.81355,66206
36.82168,71833
36.82980,63578
36.83792,66093
36.84605,66432
36.85417,65293
36.86230,63750
36.87042,64412
36.87853,61212
36.88667,64209
36.89478,63871
36.90292,64644
36.91103,65716
36.91915,66932
36.92728,68038
36.93540,69253
36.94353,73406
36.95165,79275
36.95977,80158
36.96790,87274
36.97602,84415
36.98413,83797
36.99227,81293
37.00038,73545
37.00852,72285
37.01663,75473
37.02475,79167
37.03288,67411
37.04100,66333
37.04913,70217
37.05725,72261
37.06537,68963
37.07350,74998
37.08162,70896
37.08973,69447
37.09787,73324
37.10598,71682
37.11412,69235
37.12223,70591
37.13035,66028
37.13848,64838
37.14660,65818
37.15473,65466
37.16285,67312
37.17097,67359
37.17910,67263
37.18722,69266
37.19535,69273
37.20347,70067
37.21158,66924
37.21972,68339
37.22783,65275
37.23595,70035
37.24408,64620
37.25220,69322
37.26033,66081
37.26845,69030
37.27657,67002
37.28470,66686
37.29282,71779
37.30095,76434
37.30907,95729
37.31718,101201
37.32532,107982
37.33343,111270
37.34155,124549
37.34968,125498
37.35780,114529
37.36593,111578
37.37405,106962
37.38217,103455
37.39030,100333
37.39842,90889
37.40655,97961
37.41467,84628
37.42278,85211
37.43092,85157
37.43903,86507
37.44717,84162
37.45528,88541
37.46340,86001
37.47153,81819
37.47965,77958
37.48777,80434
