C:\MassHunter\GCMS\1\data\JTB-E02\BACandBLUE\JTB-E18-008-11.D Wed May 15 15:31:22 2019
Start of data points
2.09523,59714
2.10335,55821
2.11148,57854
2.11960,55320
2.12772,57217
2.13585,59673
2.14397,56481
2.15210,51461
2.16022,54382
2.16833,53033
2.17647,50863
2.18458,53600
2.19272,52394
2.20083,46587
2.20895,48267
2.21708,46384
2.22520,47105
2.23332,47905
2.24145,46536
2.24957,47255
2.25770,46413
2.26582,120937
2.27393,870337
2.28207,1681357
2.29018,930181
2.29832,513192
2.30643,369852
2.31455,275869
2.32268,230245
2.33080,213182
2.33893,197441
2.34705,184008
2.35517,156014
2.36330,149133
2.37142,137186
2.37953,138864
2.38767,132640
2.39578,122742
2.40392,122642
2.41203,119811
2.42015,117428
2.42828,123693
2.43640,112745
2.44453,112622
2.45265,107207
2.46077,104063
2.46890,103122
2.47702,98443
2.48515,101680
2.49327,124825
2.50138,118920
2.50952,104774
2.51763,104165
2.52575,102310
2.53388,97272
2.54200,98876
2.55013,108735
2.55825,221204
2.56637,292953
2.57450,208212
2.58262,164911
2.59075,139566
2.59887,131604
2.60698,177253
2.61512,251656
2.62323,233606
2.63135,170948
2.63948,142467
2.64760,131698
2.65573,119697
2.66385,113891
2.67197,110906
2.68010,106928
2.68822,101934
2.69635,105868
2.70447,97852
2.71258,97700
2.72072,97354
2.72883,97394
2.73697,100004
2.74508,92149
2.75320,96225
2.76133,87056
2.76945,97293
2.77757,344126
2.78570,1331891
2.79382,1770478
2.80195,1056754
2.81007,613746
2.81818,503445
2.82632,416284
2.83443,365747
2.84257,316412
2.85068,266850
2.85880,226410
2.86693,208984
2.87505,188046
2.88318,175802
2.89130,164617
2.89942,158559
2.90755,153638
2.91567,139316
2.92378,138073
2.93192,135339
2.94003,125385
2.94817,126433
2.95628,123960
2.96440,119239
2.97253,121177
2.98065,108500
2.98878,115997
2.99690,129919
3.00502,132313
3.01315,146966
3.02127,132814
3.02938,118434
3.03752,114238
3.04563,103546
3.05377,99945
3.06188,109102
3.07000,111942
3.07813,169014
3.08625,673215
3.09438,1837936
3.10250,2655917
3.11062,3095943
3.11875,2717116
3.12687,1754749
3.13500,1168304
3.14312,882719
3.15123,700531
3.15937,585459
3.16748,530169
3.17560,518516
3.18373,612021
3.19185,1157382
3.19998,1578248
3.20810,1257671
3.21622,880932
3.22435,708564
3.23247,598566
3.24060,503019
3.24872,450689
3.25683,401850
3.26497,362561
3.27308,330997
3.28120,314421
3.28933,402179
3.29745,844903
3.30558,1850138
3.31370,2879903
3.32182,2932709
3.32995,2284835
3.33807,1716428
3.34620,1395898
3.35432,1172446
3.36243,1027210
3.37057,908710
3.37868,824303
3.38682,757921
3.39493,681700
3.40305,652461
3.41118,608918
3.41930,577093
3.42742,558131
3.43555,541159
3.44367,528819
3.45180,523091
3.45992,482695
3.46803,486335
3.47617,478214
3.48428,487973
3.49242,449571
3.50053,454346
3.50865,435247
3.51678,418662
3.52490,418177
3.53303,424250
3.54115,435547
3.54927,424510
3.55740,410169
3.56552,398549
3.57363,373661
3.58177,393512
3.58988,371652
3.59802,369345
3.60613,353065
3.61425,356990
3.62238,366504
3.63050,403500
3.63863,422385
3.64675,421221
3.65487,427808
3.66300,1029939
3.67112,4625291
3.67923,1.175312E+07
3.68737,1.487573E+07
3.69548,1.115062E+07
3.70362,6664733
3.71173,4643441
3.71985,3669942
3.72798,3122764
3.73610,2672871
3.74423,2370049
3.75235,2119404
3.76047,1951818
3.76860,1769792
3.77672,1650235
3.78485,1560742
3.79297,1444486
3.80108,1443343
3.80922,1753464
3.81733,2284994
3.82545,2357952
3.83358,1933101
3.84170,1537561
3.84983,1354180
3.85795,1242630
3.86607,1148278
3.87420,1074119
3.88232,1019166
3.89045,963713
3.89857,930464
3.90668,889062
3.91482,909707
3.92293,981853
3.93107,1112754
3.93918,1123859
3.94730,1118880
3.95543,1559620
3.96355,2674827
3.97167,3506402
3.97980,2955036
3.98792,1982937
3.99605,1568485
4.00417,2021405
4.01228,3276464
4.02042,4069167
4.02853,3344187
4.03667,2166936
4.04478,1476224
4.05290,1144573
4.06103,990428
4.06915,864519
4.07727,797219
4.08540,756966
4.09352,717700
4.10165,678131
4.10977,645441
4.11788,631045
4.12602,579468
4.13413,578372
4.14227,563785
4.15038,595630
4.15850,582375
4.16663,573902
4.17475,545544
4.18288,559615
4.19100,534351
4.19912,517520
4.20725,723648
4.21537,2116019
4.22348,6327243
4.23162,1.208772E+07
4.23973,1.511465E+07
4.24787,1.309174E+07
4.25598,8440577
4.26410,5171298
4.27223,3659101
4.28035,2744088
4.28848,2188603
4.29660,1810605
4.30472,1532526
4.31285,1337870
4.32097,1215795
4.32908,1137600
4.33722,1057600
4.34533,978692
4.35347,960350
4.36158,1014886
4.36970,1051482
4.37783,1001785
4.38595,903279
4.39408,790094
4.40220,734926
4.41032,670769
4.41845,643454
4.42657,622747
4.43470,592439
4.44282,584294
4.45093,562933
4.45907,541905
4.46718,527193
4.47530,511727
4.48343,502429
4.49155,504338
4.49968,487079
4.50780,478120
4.51592,468667
4.52405,457623
4.53217,460205
4.54030,448120
4.54842,464706
4.55653,465803
4.56467,451548
4.57278,422599
4.58092,412022
4.58903,407566
4.59715,398523
4.60528,395325
4.61340,391080
4.62152,421403
4.62965,554468
4.63777,785323
4.64590,979141
4.65402,945997
4.66213,762294
4.67027,618500
4.67838,535552
4.68652,507733
4.69463,475947
4.70275,436665
4.71088,400546
4.71900,382988
4.72712,382883
4.73525,365338
4.74337,352474
4.75150,350575
4.75962,341172
4.76773,337634
4.77587,337046
4.78398,337967
4.79212,402690
4.80023,555991
4.80835,751077
4.81648,786216
4.82460,666181
4.83273,555842
4.84085,523372
4.84897,524522
4.85710,497246
4.86522,457182
4.87333,412014
4.88147,385148
4.88958,370492
4.89772,359759
4.90583,352450
4.91395,344368
4.92208,333877
4.93020,343182
4.93833,422351
4.94645,646906
4.95457,1132045
4.96270,1733078
4.97082,2061377
4.97895,1953415
4.98707,1598436
4.99518,1230199
5.00332,1008108
5.01143,829405
5.01955,766100
5.02768,727610
5.03580,796426
5.04393,829765
5.05205,841148
5.06017,768565
5.06830,688982
5.07642,637119
5.08455,599065
5.09267,572731
5.10078,541843
5.10892,526714
5.11703,511358
5.12515,503986
5.13328,489072
5.14140,479194
5.14953,498256
5.15765,549328
5.16577,640154
5.17390,680962
5.18202,658936
5.19015,617984
5.19827,597927
5.20638,646285
5.21452,660692
5.22263,651479
5.23077,592427
5.23888,558527
5.24700,508908
5.25513,490576
5.26325,451802
5.27137,428432
5.27950,394777
5.28762,382193
5.29575,392597
5.30387,367233
5.31198,368841
5.32012,358562
5.32823,375318
5.33637,384226
5.34448,387658
5.35260,396450
5.36073,370790
5.36885,368155
5.37697,364387
5.38510,374389
5.39322,389634
5.40135,412771
5.40947,422777
5.41758,409755
5.42572,386585
5.43383,368367
5.44197,359096
5.45008,379370
5.45820,398693
5.46633,406309
5.47445,392638
5.48258,355663
5.49070,341003
5.49882,324402
5.50695,331518
5.51507,319320
5.52318,315748
5.53132,316857
5.53943,314589
5.54757,326312
5.55568,392709
5.56380,532609
5.57193,741049
5.58005,869775
5.58818,830891
5.59630,669491
5.60442,523855
5.61255,439224
5.62067,375033
5.62880,352284
5.63692,348031
5.64503,347885
5.65317,341901
5.66128,312502
5.66940,316659
5.67753,331178
5.68565,338743
5.69378,354679
5.70190,376386
5.71002,358851
5.71815,337586
5.72627,322933
5.73440,317456
5.74252,301016
5.75063,292308
5.75877,289091
5.76688,280881
5.77502,282252
5.78313,268342
5.79125,281017
5.79938,274348
5.80750,268984
5.81562,280107
5.82375,277707
5.83187,271254
5.84000,273311
5.84812,276336
5.85623,270793
5.86437,260465
5.87248,261995
5.88062,263091
5.88873,268186
5.89685,259591
5.90498,253424
5.91310,243677
5.92122,243487
5.92935,234948
5.93747,219610
5.94560,219024
5.95372,228645
5.96183,254062
5.96997,320491
5.97808,440071
5.98622,576271
5.99433,631522
6.00245,576751
6.01058,460803
6.01870,353587
6.02683,291386
6.03495,262000
6.04307,238969
6.05120,233630
6.05932,224377
6.06743,220302
6.07557,221597
6.08368,214903
6.09182,210021
6.09993,210924
6.10805,216977
6.11618,236657
6.12430,270175
6.13243,337839
6.14055,457657
6.14867,565896
6.15680,592400
6.16492,495416
6.17303,384994
6.18117,319244
6.18928,280825
6.19742,270897
6.20553,265167
6.21365,251960
6.22178,242282
6.22990,236310
6.23803,233096
6.24615,230829
6.25427,245413
6.26240,281058
6.27052,284482
6.27865,270787
6.28677,247621
6.29488,222863
6.30302,214458
6.31113,215998
6.31925,231519
6.32738,255922
6.33550,341987
6.34363,402517
6.35175,403771
6.35987,351751
6.36800,288607
6.37612,251526
6.38425,240159
6.39237,232507
6.40048,224882
6.40862,218121
6.41673,210372
6.42485,204097
6.43298,198949
6.44110,204431
6.44923,202900
6.45735,206811
6.46547,203539
6.47360,199335
6.48172,201723
6.48985,206770
6.49797,196964
6.50608,204303
6.51422,202571
6.52233,202642
6.53047,205126
6.53858,206192
6.54670,210829
6.55483,213020
6.56295,254993
6.57107,372784
6.57920,566369
6.58732,691321
6.59545,651382
6.60357,503184
6.61168,361807
6.61982,293323
6.62793,246760
6.63607,245671
6.64418,249708
6.65230,327337
6.66043,541580
6.66855,897705
6.67668,1152761
6.68480,1055093
6.69292,746427
6.70105,503854
6.70917,372269
6.71728,328667
6.72542,289243
6.73353,272743
6.74167,248139
6.74978,233401
6.75790,233332
6.76603,227017
6.77415,226342
6.78228,221100
6.79040,212776
6.79852,206171
6.80665,196947
6.81477,192667
6.82290,184900
6.83102,178972
6.83913,176627
6.84727,181676
6.85538,181620
6.86350,174732
6.87163,158553
6.87975,138586
6.88788,127982
6.89600,114347
6.90412,113567
6.91225,109163
6.92037,109568
6.92850,105786
6.93662,104838
6.94473,97240
6.95287,104893
6.96098,113319
6.96910,127682
6.97723,135187
6.98535,156437
6.99348,149342
7.00160,139200
7.00972,126017
7.01785,115511
7.02597,110340
7.03410,114355
7.04222,121659
7.05033,142227
7.05847,174361
7.06658,209518
7.07472,234403
7.08283,243289
7.09095,210911
7.09908,175708
7.10720,144561
7.11532,132930
7.12345,119000
7.13157,120210
7.13970,130386
7.14782,150245
7.15593,189614
7.16407,237525
7.17218,252934
7.18032,227814
7.18843,194542
7.19655,182780
7.20468,279974
7.21280,656012
7.22092,1371704
7.22905,2088098
7.23717,2319441
7.24530,1877552
7.25342,1233547
7.26153,758377
7.26967,488052
7.27778,309088
7.28592,208311
7.29403,153989
7.30215,137150
7.31028,130227
7.31840,132237
7.32653,136385
7.33465,148862
7.34277,151978
7.35090,141726
7.35902,141680
7.36713,131485
7.37527,115613
7.38338,114251
7.39152,113250
7.39963,111186
7.40775,118539
7.41588,120776
7.42400,103149
7.43213,102747
7.44025,106535
7.44837,111383
7.45650,105673
7.46462,108702
7.47275,108329
7.48087,109045
7.48898,102414
7.49712,94970
7.50523,102967
7.51335,123693
7.52148,182728
7.52960,365690
7.53773,778014
7.54585,1478634
7.55397,2382145
7.56210,3197756
7.57022,3584768
7.57835,3305731
7.58647,2654426
7.59458,1814168
7.60272,1162893
7.61083,731152
7.61895,482022
7.62708,358148
7.63520,279312
7.64333,237708
7.65145,203419
7.65957,179268
7.66770,159502
7.67582,144116
7.68395,128988
7.69207,123362
7.70018,117625
7.70832,115386
7.71643,121202
7.72457,125473
7.73268,116662
7.74080,124116
7.74893,130128
7.75705,145747
7.76517,150206
7.77330,159248
7.78142,162188
7.78955,163338
7.79767,168137
7.80578,174411
7.81392,173249
7.82203,179273
7.83017,168326
7.83828,151670
7.84640,141988
7.85453,135207
7.86265,146287
7.87078,157380
7.87890,175733
7.88702,195793
7.89515,197744
7.90327,189311
7.91138,172850
7.91952,154314
7.92763,145294
7.93577,145468
7.94388,169858
7.95200,180942
7.96013,182712
7.96825,174365
7.97638,151389
7.98450,130199
7.99262,110538
8.00075,103424
8.00887,100170
8.01698,103221
8.02512,100980
8.03323,94591
8.04137,96045
8.04948,96258
8.05760,99588
8.06573,92801
8.07385,92555
8.08198,90561
8.09010,89093
8.09822,89161
8.10635,88933
8.11447,88474
8.12260,92492
8.13072,98858
8.13883,107711
8.14697,133319
8.15508,147865
8.16320,151413
8.17133,133991
8.17945,119649
8.18758,101615
8.19570,92693
8.20382,86728
8.21195,89179
8.22007,86318
8.22820,87821
8.23632,92378
8.24443,89670
8.25257,83849
8.26068,84655
8.26880,81692
8.27693,83227
8.28505,77344
8.29318,81246
8.30130,80715
8.30942,85832
8.31755,98248
8.32567,103667
8.33380,101004
8.34192,103527
8.35003,92526
8.35817,85097
8.36628,78744
8.37442,80328
8.38253,79640
8.39065,80418
8.39878,72604
8.40690,77093
8.41502,76765
8.42315,72726
8.43127,72186
8.43940,73734
8.44752,70188
8.45563,72048
8.46377,74766
8.47188,71609
8.48002,74773
8.48813,69381
8.49625,72972
8.50438,72708
8.51250,81174
8.52063,110989
8.52875,197789
8.53687,356016
8.54500,540231
8.55312,623261
8.56123,551059
8.56937,393620
8.57748,259687
8.58562,159036
8.59373,126348
8.60185,113510
8.60998,111594
8.61810,113618
8.62623,105955
8.63435,101556
8.64247,100447
8.65060,92359
8.65872,89963
8.66683,86264
8.67497,92099
8.68308,86125
8.69122,85268
8.69933,85027
8.70745,92578
8.71558,91082
8.72370,90420
8.73183,88291
8.73995,81314
8.74807,81942
8.75620,99168
8.76432,144656
8.77245,264941
8.78057,457443
8.78868,666177
8.79682,797240
8.80493,739245
8.81305,573078
8.82118,396872
8.82930,294696
8.83743,254821
8.84555,226773
8.85367,232258
8.86180,238287
8.86992,220904
8.87805,206211
8.88617,205229
8.89428,197037
8.90242,196262
8.91053,176499
8.91867,185980
8.92678,187018
8.93490,194837
8.94303,213801
8.95115,222675
8.95927,215523
8.96740,209120
8.97552,208735
8.98365,209520
8.99177,220775
8.99988,213863
9.00802,214955
9.01613,185925
9.02427,172419
9.03238,167591
9.04050,152957
9.04863,145358
9.05675,142006
9.06487,139660
9.07300,143162
9.08112,137081
9.08925,151059
9.09737,165545
9.10548,193929
9.11362,226368
9.12173,267251
9.12987,272917
9.13798,241699
9.14610,207013
9.15423,180919
9.16235,151955
9.17048,148337
9.17860,144111
9.18672,132503
9.19485,136629
9.20297,131264
9.21108,131251
9.21922,132930
9.22733,135526
9.23547,128914
9.24358,133264
9.25170,132693
9.25983,133748
9.26795,131593
9.27608,132890
9.28420,123335
9.29232,121803
9.30045,119392
9.30857,119086
9.31670,113194
9.32482,114089
9.33293,111040
9.34107,113277
9.34918,113011
9.35730,112774
9.36543,112513
9.37355,112829
9.38168,111031
9.38980,117774
9.39792,117105
9.40605,129060
9.41417,147578
9.42230,191158
9.43042,239450
9.43853,295245
9.44667,313986
9.45478,301911
9.46290,261788
9.47103,217998
9.47915,171762
9.48728,144764
9.49540,126628
9.50352,130727
9.51165,137294
9.51977,157654
9.52790,178986
9.53602,195725
9.54413,183104
9.55227,159425
9.56038,140677
9.56852,116796
9.57663,101077
9.58475,93583
9.59288,89464
9.60100,86658
9.60912,75408
9.61725,75586
9.62537,69281
9.63350,73709
9.64162,71334
9.64973,74499
9.65787,66563
9.66598,71269
9.67412,74361
9.68223,71403
9.69035,67692
9.69848,68345
9.70660,66337
9.71472,61989
9.72285,63513
9.73097,64342
9.73910,65378
9.74722,60961
9.75533,60030
9.76347,65131
9.77158,61185
9.77972,56499
9.78783,63163
9.79595,55886
9.80408,56427
9.81220,59244
9.82033,58285
9.82845,59874
9.83657,58657
9.84470,58583
9.85282,59933
9.86093,64366
9.86907,64059
9.87718,71532
9.88532,68566
9.89343,60904
9.90155,61850
9.90968,64151
9.91780,69019
9.92593,81654
9.93405,112980
9.94217,176442
9.95030,262211
9.95842,341060
9.96655,386944
9.97467,362743
9.98278,300101
9.99092,217553
9.99903,156114
10.00715,121594
10.01528,95237
10.02340,87235
10.03153,85397
10.03965,79689
10.04777,76071
10.05590,82848
10.06402,87072
10.07215,95593
10.08027,95850
10.08838,95160
10.09652,93381
10.10463,88904
10.11275,87097
10.12088,81943
10.12900,83848
10.13713,79412
10.14525,81581
10.15337,79488
10.16150,76482
10.16962,71960
10.17775,76882
10.18587,69391
10.19398,72890
10.20212,74174
10.21023,69173
10.21837,66818
10.22648,73673
10.23460,85086
10.24273,91213
10.25085,102090
10.25897,141385
10.26710,267232
10.27522,623481
10.28335,1390609
10.29147,2584293
10.29958,4063028
10.30772,5970037
10.31583,8912805
10.32397,1.31089E+07
10.33208,1.883715E+07
10.34020,2.349333E+07
10.34833,2.471631E+07
10.35645,2.104756E+07
10.36458,1.423598E+07
10.37270,8564849
10.38082,5630417
10.38895,4094772
10.39707,2969462
10.40518,2057737
10.41332,1376304
10.42143,1021332
10.42957,824442
10.43768,752199
10.44580,724038
10.45393,712331
10.46205,711865
10.47018,666941
10.47830,611055
10.48642,553305
10.49455,502708
10.50267,458111
10.51078,431356
10.51892,402261
10.52703,397023
10.53517,395954
10.54328,393405
10.55140,389950
10.55953,360911
10.56765,335920
10.57578,308202
10.58390,305393
10.59202,281933
10.60015,267789
10.60827,259672
10.61640,241202
10.62452,229708
10.63263,225445
10.64077,217936
10.64888,215723
10.65700,211833
10.66513,205236
10.67325,203216
10.68138,205735
10.68950,203300
10.69762,205691
10.70575,212967
10.71387,201662
10.72200,199369
10.73012,186915
10.73823,175832
10.74637,169524
10.75448,168257
10.76260,161104
10.77073,160015
10.77885,154028
10.78698,155965
10.79510,156842
10.80322,158168
10.81135,174557
10.81947,176660
10.82760,178476
10.83572,172887
10.84383,153152
10.85197,137522
10.86008,128694
10.86822,131622
10.87633,123100
10.88445,123772
10.89258,119056
10.90070,126697
10.90882,114736
10.91695,114041
10.92507,116402
10.93320,116636
10.94132,110142
10.94943,103689
10.95757,104863
10.96568,110915
10.97382,113522
10.98193,115031
10.99005,112973
10.99818,124246
11.00630,132343
11.01443,131454
11.02255,131747
11.03067,130819
11.03880,116123
11.04692,109424
11.05503,104018
11.06317,102330
11.07128,105467
11.07942,117391
11.08753,125914
11.09565,123698
11.10378,135130
11.11190,141995
11.12003,124085
11.12815,112728
11.13627,99106
11.14440,88777
11.15252,91983
11.16063,84068
11.16877,83366
11.17688,85253
11.18502,89661
11.19313,93720
11.20125,93098
11.20938,86163
11.21750,92135
11.22563,80058
11.23375,77005
11.24187,70932
11.25000,78415
11.25812,66749
11.26625,66614
11.27437,65895
11.28248,67848
11.29062,72455
11.29873,95222
11.30685,174160
11.31498,383528
11.32310,793553
11.33123,1473061
11.33935,2244327
11.34747,2805624
11.35560,2864048
11.36372,2461712
11.37185,1790323
11.37997,1205089
11.38808,776121
11.39622,576542
11.40433,485808
11.41247,426631
11.42058,392583
11.42870,347348
11.43683,315697
11.44495,280150
11.45307,249709
11.46120,222858
11.46932,218232
11.47745,206301
11.48557,220462
11.49368,247306
11.50182,272338
11.50993,274288
11.51807,272523
11.52618,236272
11.53430,216638
11.54243,193901
11.55055,179281
11.55867,166969
11.56680,169148
11.57492,150767
11.58305,162526
11.59117,163541
11.59928,170194
11.60742,202401
11.61553,225385
11.62367,244794
11.63178,240138
11.63990,212616
11.64803,177780
11.65615,147221
11.66428,124510
11.67240,119742
11.68052,113111
11.68865,123415
11.69677,129352
11.70488,134248
11.71302,138282
11.72113,131340
11.72927,120372
11.73738,109047
11.74550,101310
11.75363,94788
11.76175,92509
11.76988,89991
11.77800,85857
11.78612,83164
11.79425,82819
11.80237,82838
11.81050,83893
11.81862,77133
11.82673,76739
11.83487,76039
11.84298,77252
11.85110,75803
11.85923,76225
11.86735,76019
11.87548,70216
11.88360,73454
11.89172,67985
11.89985,68762
11.90797,72623
11.91610,74193
11.92422,76461
11.93233,79733
11.94047,85159
11.94858,79987
11.95670,75403
11.96483,76117
11.97295,70479
11.98108,75329
11.98920,81828
11.99732,98230
12.00545,125854
12.01357,144590
12.02170,158027
12.02982,142231
12.03793,124249
12.04607,108281
12.05418,101341
12.06232,91880
12.07043,88317
12.07855,88963
12.08668,106273
12.09480,116714
12.10292,148171
12.11105,229446
12.11917,366861
12.12730,571589
12.13542,759176
12.14353,896645
12.15167,866611
12.15978,675312
12.16792,469546
12.17603,299963
12.18415,210369
12.19228,180635
12.20040,168302
12.20853,166410
12.21665,163726
12.22477,161769
12.23290,149141
12.24102,141281
12.24913,128368
12.25727,126057
12.26538,126600
12.27352,119679
12.28163,112004
12.28975,106933
12.29788,106138
12.30600,96351
12.31413,96429
12.32225,95001
12.33037,92857
12.33850,98773
12.34662,95638
12.35473,91449
12.36287,88889
12.37098,85161
12.37912,87086
12.38723,83967
12.39535,87299
12.40348,102371
12.41160,105755
12.41973,122088
12.42785,138079
12.43597,135234
12.44410,137244
12.45222,126211
12.46035,117473
12.46847,115793
12.47658,104096
12.48472,100569
12.49283,102531
12.50095,98310
12.50908,93248
12.51720,92445
12.52533,89658
12.53345,98500
12.54157,113536
12.54970,134915
12.55782,176661
12.56595,209272
12.57407,229306
12.58218,210062
12.59032,179679
12.59843,145258
12.60655,120917
12.61468,115997
12.62280,111753
12.63093,104577
12.63905,106128
12.64717,98978
12.65530,94056
12.66342,90789
12.67155,89771
12.67967,87316
12.68778,83442
12.69592,77689
12.70403,76014
12.71217,76964
12.72028,76741
12.72840,80022
12.73653,88125
12.74465,81331
12.75277,83892
12.76090,82165
12.76902,75478
12.77715,74148
12.78527,69773
12.79338,68300
12.80152,70484
12.80963,67969
12.81777,65493
12.82588,57901
12.83400,62842
12.84213,57712
12.85025,57066
12.85838,58324
12.86650,56063
12.87462,55144
12.88275,55324
12.89087,57204
12.89898,59903
12.90712,54648
12.91523,54422
12.92337,60744
12.93148,51665
12.93960,52639
12.94773,51528
12.95585,54151
12.96398,57041
12.97210,56893
12.98022,58916
12.98835,59030
12.99647,62023
13.00458,63939
13.01272,54842
13.02083,56445
13.02897,59686
13.03708,54687
13.04520,51272
13.05333,56016
13.06145,52396
13.06958,57541
13.07770,54416
13.08582,58717
13.09395,56657
13.10207,57656
13.11020,54701
13.11832,54178
13.12643,52280
13.13457,50372
13.14268,58702
13.15080,49162
13.15893,52524
13.16705,60172
13.17518,58085
13.18330,59460
13.19142,61331
13.19955,61781
13.20767,63479
13.21580,62005
13.22392,63085
13.23203,63770
13.24017,62171
13.24828,60633
13.25642,63899
13.26453,57128
13.27265,59395
13.28078,53038
13.28890,52293
13.29702,50929
13.30515,50694
13.31327,52996
13.32140,49883
13.32952,47151
13.33763,46978
13.34577,49033
13.35388,41973
13.36202,45997
13.37013,45972
13.37825,49680
13.38638,46731
13.39450,46643
13.40262,45812
13.41075,47507
13.41887,47834
13.42700,43717
13.43512,47128
13.44323,46284
13.45137,47388
13.45948,53344
13.46762,58195
13.47573,56209
13.48385,54358
13.49198,55012
13.50010,55993
13.50823,51001
13.51635,54205
13.52447,52672
13.53260,55708
13.54072,49811
13.54883,53779
13.55697,52366
13.56508,55110
13.57322,55693
13.58133,62961
13.58945,65183
13.59758,78470
13.60570,78361
13.61383,84928
13.62195,88046
13.63007,82555
13.63820,78486
13.64632,71370
13.65443,58699
13.66257,56680
13.67068,55373
13.67882,48975
13.68693,52096
13.69505,48684
13.70318,49391
13.71130,49030
13.71943,47925
13.72755,48991
13.73567,56487
13.74380,65375
13.75192,99702
13.76005,164275
13.76817,260951
13.77628,387442
13.78442,476363
13.79253,535793
13.80065,535141
13.80878,522704
13.81690,505207
13.82503,528211
13.83315,567129
13.84127,614998
13.84940,609874
13.85752,532356
13.86565,432557
13.87377,342143
13.88188,276129
13.89002,224218
13.89813,189530
13.90627,159577
13.91438,140388
13.92250,137678
13.93063,126894
13.93875,120923
13.94687,110614
13.95500,105708
13.96312,103451
13.97125,103083
13.97937,108054
13.98748,116368
13.99562,114145
14.00373,119072
14.01187,116736
14.01998,113294
14.02810,106048
14.03623,98271
14.04435,101199
14.05247,100370
14.06060,91941
14.06872,92803
14.07685,91280
14.08497,90820
14.09308,92126
14.10122,88316
14.10933,88334
14.11747,83337
14.12558,81547
14.13370,84315
14.14183,81394
14.14995,97744
14.15808,103363
14.16620,106691
14.17432,114437
14.18245,113236
14.19057,125043
14.19868,163825
14.20682,208863
14.21493,250647
14.22307,261663
14.23118,276090
14.23930,280762
14.24743,289917
14.25555,291916
14.26368,287489
14.27180,270232
14.27992,240193
14.28805,202019
14.29617,174745
14.30430,160781
14.31242,148148
14.32053,142419
14.32867,135636
14.33678,131120
14.34490,127276
14.35303,125972
14.36115,108937
14.36928,104725
14.37740,87810
14.38552,84514
14.39365,83367
14.40177,77659
14.40990,76479
14.41802,83655
14.42613,86871
14.43427,83970
14.44238,81051
14.45050,76293
14.45863,73295
14.46675,68828
14.47488,74421
14.48300,69806
14.49112,70446
14.49925,67721
14.50737,67861
14.51550,70723
14.52362,71770
14.53173,71476
14.53987,70413
14.54798,72036
14.55612,68771
14.56423,68944
14.57235,69122
14.58048,64240
14.58860,59268
14.59672,54734
14.60485,53157
14.61297,53007
14.62110,55417
14.62922,56372
14.63733,52751
14.64547,51482
14.65358,54851
14.66172,53716
14.66983,48185
14.67795,50173
14.68608,49757
14.69420,49995
14.70233,50095
14.71045,49177
14.71857,54951
14.72670,51058
14.73482,54068
14.74293,57023
14.75107,57080
14.75918,55886
14.76732,59510
14.77543,62326
14.78355,70250
14.79168,118008
14.79980,262127
14.80793,673372
14.81605,1576487
14.82417,2928642
14.83230,4406707
14.84042,5152248
14.84853,4959949
14.85667,3834066
14.86478,2594222
14.87292,1612355
14.88103,1006211
14.88915,670588
14.89728,511274
14.90540,426121
14.91353,383359
14.92165,333129
14.92977,310791
14.93790,282825
14.94602,268173
14.95415,246997
14.96227,228471
14.97038,213611
14.97852,197094
14.98663,189734
14.99475,183907
15.00288,168440
15.01100,172020
15.01913,162018
15.02725,159162
15.03537,160353
15.04350,158402
15.05162,149060
15.05975,144470
15.06787,131053
15.07598,131919
15.08412,126857
15.09223,121475
15.10035,119629
15.10848,114052
15.11660,112352
15.12473,116627
15.13285,121641
15.14097,125696
15.14910,131743
15.15722,134646
15.16535,122685
15.17347,103558
15.18158,86702
15.18972,82042
15.19783,76078
15.20597,68707
15.21408,68131
15.22220,67142
15.23033,63280
15.23845,64669
15.24657,60970
15.25470,66516
15.26282,59773
15.27095,61037
15.27907,58686
15.28718,57899
15.29532,57088
15.30343,56786
15.31157,57597
15.31968,54652
15.32780,53937
15.33593,54054
15.34405,50559
15.35218,50577
15.36030,47865
15.36842,47280
15.37655,50004
15.38467,54950
15.39278,52429
15.40092,51477
15.40903,52075
15.41717,50613
15.42528,54442
15.43340,52240
15.44153,48722
15.44965,52023
15.45778,59977
15.46590,72759
15.47402,109275
15.48215,159551
15.49027,249335
15.49838,356211
15.50652,426798
15.51463,444501
15.52277,426554
15.53088,368279
15.53900,295061
15.54713,245748
15.55525,199357
15.56338,172456
15.57150,139859
15.57962,116888
15.58775,103758
15.59587,93009
15.60400,83516
15.61212,78858
15.62023,76036
15.62837,73000
15.63648,71878
15.64460,71790
15.65273,70557
15.66085,65697
15.66898,62451
15.67710,61130
15.68522,58392
15.69335,57438
15.70147,56299
15.70960,52268
15.71772,55368
15.72583,51231
15.73397,57097
15.74208,61231
15.75022,61397
15.75833,78787
15.76645,113006
15.77458,172192
15.78270,247397
15.79082,332555
15.79895,361010
15.80707,339036
15.81520,265885
15.82332,193642
15.83143,144906
15.83957,111821
15.84768,92479
15.85582,84498
15.86393,85462
15.87205,82311
15.88018,81399
15.88830,81296
15.89642,87534
15.90455,79131
15.91267,76325
15.92080,75060
15.92892,70217
15.93703,69601
15.94517,70909
15.95328,66553
15.96142,70841
15.96953,70679
15.97765,75999
15.98578,76290
15.99390,74677
16.00203,82774
16.01015,78150
16.01827,78313
16.02640,82217
16.03452,85341
16.04263,85199
16.05077,81340
16.05888,85140
16.06702,69780
16.07513,66047
16.08325,66207
16.09138,68786
16.09950,59105
16.10763,61890
16.11575,65106
16.12387,62389
16.13200,69534
16.14012,71679
16.14823,75717
16.15637,75867
16.16448,78563
16.17262,76285
16.18073,68564
16.18885,68821
16.19698,63967
16.20510,63921
16.21323,61379
16.22135,64806
16.22947,62492
16.23760,61189
16.24572,59411
16.25385,54527
16.26197,54542
16.27008,59814
16.27822,60529
16.28633,70094
16.29445,72034
16.30258,81400
16.31070,84965
16.31883,81755
16.32695,79103
16.33507,73712
16.34320,70420
16.35132,63817
16.35945,80631
16.36757,82664
16.37568,92966
16.38382,101757
16.39193,97582
16.40007,88674
16.40818,81026
16.41630,72159
16.42443,71769
16.43255,64847
16.44067,70922
16.44880,95580
16.45692,159198
16.46505,300316
16.47317,548028
16.48128,831619
16.48942,1005860
16.49753,993365
16.50567,785885
16.51378,537630
16.52190,342233
16.53003,229955
16.53815,174764
16.54628,138943
16.55440,124796
16.56252,114063
16.57065,106452
16.57877,101338
16.58688,97660
16.59502,99393
16.60313,93618
16.61127,95768
16.61938,97653
16.62750,95226
16.63563,89800
16.64375,88810
16.65188,77671
16.66000,74083
16.66812,71241
16.67625,72222
16.68437,71031
16.69248,71874
16.70062,71157
16.70873,67108
16.71687,61580
16.72498,62292
16.73310,59746
16.74123,59381
16.74935,55644
16.75748,66511
16.76560,69326
16.77372,78090
16.78185,66811
16.78997,63832
16.79810,58462
16.80622,56772
16.81433,55706
16.82247,54906
16.83058,52032
16.83870,53158
16.84683,53899
16.85495,46005
16.86308,46352
16.87120,47829
16.87932,49149
16.88745,46815
16.89557,43818
16.90370,45218
16.91182,44242
16.91993,47800
16.92807,49057
16.93618,48361
16.94430,45304
16.95243,48010
16.96055,47533
16.96868,45428
16.97680,44315
16.98492,46808
16.99305,49203
17.00117,45787
17.00930,50614
17.01742,48489
17.02553,49023
17.03367,53295
17.04178,51122
17.04992,51459
17.05803,55556
17.06615,58336
17.07428,57131
17.08240,59804
17.09052,61138
17.09865,62941
17.10677,71619
17.11490,78607
17.12302,89245
17.13113,88315
17.13927,86624
17.14738,83286
17.15552,78015
17.16363,72035
17.17175,72631
17.17988,62726
17.18800,62754
17.19613,54809
17.20425,54572
17.21237,56913
17.22050,55204
17.22862,49270
17.23673,54461
17.24487,49161
17.25298,51801
17.26112,51769
17.26923,50896
17.27735,49155
17.28548,49786
17.29360,53640
17.30173,46779
17.30985,50133
17.31797,50149
17.32610,52704
17.33422,67881
17.34233,79001
17.35047,86810
17.35858,90492
17.36672,87609
17.37483,82353
17.38295,88783
17.39108,85757
17.39920,82925
17.40733,83741
17.41545,81232
17.42357,84982
17.43170,85455
17.43982,83647
17.44795,81139
17.45607,79602
17.46418,71599
17.47232,65804
17.48043,61081
17.48855,64141
17.49668,57522
17.50480,58523
17.51293,58820
17.52105,53174
17.52917,58081
17.53730,60462
17.54542,53388
17.55355,60878
17.56167,64268
17.56978,83886
17.57792,125983
17.58603,198211
17.59417,307281
17.60228,445060
17.61040,546592
17.61853,598227
17.62665,542725
17.63477,438741
17.64290,333046
17.65102,248470
17.65915,186434
17.66727,165348
17.67538,143606
17.68352,134025
17.69163,123483
17.69977,113696
17.70788,114375
17.71600,102117
17.72413,102614
17.73225,98468
17.74037,97500
17.74850,93556
17.75662,92791
17.76475,86587
17.77287,80723
17.78098,81181
17.78912,73101
17.79723,74061
17.80537,68203
17.81348,68679
17.82160,70349
17.82973,72979
17.83785,75341
17.84598,82369
17.85410,97469
17.86222,109563
17.87035,117712
17.87847,114426
17.88658,107157
17.89472,89332
17.90283,80971
17.91097,73041
17.91908,60955
17.92720,61679
17.93533,58949
17.94345,56949
17.95158,57550
17.95970,58026
17.96782,54139
17.97595,50687
17.98407,48682
17.99218,50164
18.00032,56414
18.00843,55491
18.01657,64577
18.02468,74680
18.03280,95432
18.04093,115878
18.04905,120398
18.05718,109773
18.06530,114139
18.07342,98002
18.08155,92321
18.08967,96644
18.09780,110021
18.10592,117482
18.11403,126243
18.12217,128659
18.13028,129145
18.13840,130464
18.14653,135179
18.15465,127717
18.16278,113662
18.17090,116186
18.17902,101078
18.18715,99753
18.19527,91804
18.20340,93143
18.21152,85206
18.21963,84009
18.22777,74046
18.23588,77022
18.24402,77467
18.25213,71593
18.26025,69018
18.26838,74047
18.27650,67757
18.28462,66317
18.29275,62102
18.30087,58072
18.30900,53966
18.31712,52794
18.32523,51916
18.33337,50840
18.34148,52307
18.34962,52753
18.35773,50485
18.36585,49584
18.37398,50671
18.38210,50140
18.39022,47277
18.39835,49825
18.40647,53498
18.41460,61810
18.42272,71301
18.43083,88789
18.43897,106204
18.44708,131497
18.45522,149403
18.46333,160175
18.47145,183664
18.47958,201063
18.48770,215654
18.49583,216284
18.50395,202810
18.51207,165713
18.52020,129968
18.52832,102638
18.53643,91660
18.54457,78877
18.55268,72154
18.56082,67942
18.56893,67116
18.57705,65115
18.58518,65877
18.59330,72881
18.60143,74357
18.60955,79920
18.61767,88125
18.62580,91087
18.63392,95136
18.64205,93356
18.65017,81105
18.65828,79026
18.66642,75124
18.67453,67862
18.68265,60965
18.69078,57907
18.69890,57653
18.70703,56533
18.71515,54253
18.72327,56557
18.73140,57135
18.73952,57019
18.74765,53392
18.75577,49646
18.76388,53858
18.77202,48177
18.78013,51719
18.78825,52190
18.79638,50535
18.80450,48192
18.81263,50988
18.82075,47852
18.82887,44765
18.83700,50994
18.84512,48574
18.85325,50583
18.86137,53867
18.86948,60066
18.87762,65515
18.88573,69542
18.89387,70672
18.90198,63320
18.91010,64429
18.91823,60216
18.92635,61996
18.93447,59951
18.94260,62813
18.95072,65252
18.95885,72108
18.96697,74868
18.97508,69532
18.98322,67123
18.99133,65363
18.99947,63699
19.00758,58882
19.01570,58492
19.02383,54505
19.03195,58138
19.04008,53247
19.04820,57854
19.05632,61504
19.06445,66452
19.07257,104150
19.08068,184391
19.08882,344015
19.09693,572483
19.10507,869442
19.11318,1043677
19.12130,1005894
19.12943,838522
19.13755,631566
19.14568,416172
19.15380,282374
19.16192,212474
19.17005,170027
19.17817,141940
19.18628,121992
19.19442,115022
19.20253,112984
19.21067,119414
19.21878,126956
19.22690,124338
19.23503,120260
19.24315,120529
19.25128,118308
19.25940,114918
19.26752,118360
19.27565,121157
19.28377,127733
19.29190,136650
19.30002,143007
19.30813,139506
19.31627,141264
19.32438,138778
19.33250,136732
19.34063,138208
19.34875,136992
19.35688,152340
19.36500,161574
19.37312,182030
19.38125,192393
19.38937,190647
19.39750,179145
19.40562,166355
19.41373,148096
19.42187,139752
19.42998,128778
19.43810,127924
19.44623,126842
19.45435,123223
19.46248,121078
19.47060,115606
19.47872,123573
19.48685,123359
19.49497,149002
19.50310,176235
19.51122,222666
19.51933,262959
19.52747,273618
19.53558,267307
19.54372,241480
19.55183,203448
19.55995,182496
19.56808,146292
19.57620,133653
19.58432,123473
19.59245,119698
19.60057,111145
19.60870,103162
19.61682,115219
19.62493,104190
19.63307,110839
19.64118,131875
19.64932,168639
19.65743,229821
19.66555,315114
19.67368,385535
19.68180,446504
19.68993,453036
19.69805,418500
19.70617,394187
19.71430,340653
19.72242,296727
19.73053,252248
19.73867,234503
19.74678,202808
19.75492,184220
19.76303,176850
19.77115,173144
19.77928,168788
19.78740,179862
19.79553,205073
19.80365,217983
19.81177,229432
19.81990,215443
19.82802,200179
19.83613,169847
19.84427,150808
19.85238,135814
19.86052,115295
19.86863,120250
19.87675,128174
19.88488,148550
19.89300,172975
19.90113,207912
19.90925,246673
19.91737,287180
19.92550,306197
19.93362,311354
19.94175,294265
19.94987,292733
19.95798,275836
19.96612,263184
19.97423,250924
19.98235,247071
19.99048,234480
19.99860,229731
20.00673,232056
20.01485,222411
20.02297,222444
20.03110,212484
20.03922,209208
20.04735,204192
20.05547,196575
20.06358,214058
20.07172,240080
20.07983,268977
20.08797,295940
20.09608,299130
20.10420,285026
20.11233,259940
20.12045,223835
20.12857,194562
20.13670,176220
20.14482,189208
20.15295,248413
20.16107,363874
20.16918,556822
20.17732,878506
20.18543,1229972
20.19357,1499965
20.20168,1671535
20.20980,1669365
20.21793,1512318
20.22605,1253151
20.23417,1006188
20.24230,846581
20.25042,831062
20.25855,901200
20.26667,1060079
20.27478,1213238
20.28292,1322278
20.29103,1318767
20.29917,1198608
20.30728,1022654
20.31540,810867
20.32353,639283
20.33165,454534
20.33978,355491
20.34790,275147
20.35602,215628
20.36415,184855
20.37227,165555
20.38038,144169
20.38852,134487
20.39663,125826
20.40477,122050
20.41288,115449
20.42100,114644
20.42913,119570
20.43725,125408
20.44538,137592
20.45350,140528
20.46162,141306
20.46975,140211
20.47787,131214
20.48598,130024
20.49412,109429
20.50223,98628
20.51037,93893
20.51848,88818
20.52660,90533
20.53473,87026
20.54285,87179
20.55098,90038
20.55910,75491
20.56722,79921
20.57535,79381
20.58347,78621
20.59160,82819
20.59972,74411
20.60783,71205
20.61597,78508
20.62408,74865
20.63220,74052
20.64033,80767
20.64845,78039
20.65658,83463
20.66470,80603
20.67282,81915
20.68095,76948
20.68907,73797
20.69720,73794
20.70532,70432
20.71343,69954
20.72157,69244
20.72968,69615
20.73782,68591
20.74593,69200
20.75405,67495
20.76218,70425
20.77030,73914
20.77842,88446
20.78655,109449
20.79467,162467
20.80280,238742
20.81092,360973
20.81903,471006
20.82717,533600
20.83528,497892
20.84342,417350
20.85153,295340
20.85965,211428
20.86778,154467
20.87590,120972
20.88403,106068
20.89215,89725
20.90027,96680
20.90840,100609
20.91652,106676
20.92463,112980
20.93277,119649
20.94088,127116
20.94902,131602
20.95713,122082
20.96525,114185
20.97338,103616
20.98150,94801
20.98963,86538
20.99775,82757
21.00587,75974
21.01400,75831
21.02212,76526
21.03023,79576
21.03837,77216
21.04648,77234
21.05462,73346
21.06273,78637
21.07085,77116
21.07898,71235
21.08710,73934
21.09523,71712
21.10335,68152
21.11147,66274
21.11960,66013
21.12772,75078
21.13585,87716
21.14397,110001
21.15208,152778
21.16022,192508
21.16833,218778
21.17645,228235
21.18458,209179
21.19270,171351
21.20083,140431
21.20895,109440
21.21707,95301
21.22520,90192
21.23332,83212
21.24145,78400
21.24957,82953
21.25768,79029
21.26582,77974
21.27393,77564
21.28205,75228
21.29018,74985
21.29830,70355
21.30643,69160
21.31455,67455
21.32267,66438
21.33080,66387
21.33892,63875
21.34705,69164
21.35517,60642
21.36328,63954
21.37142,66625
21.37953,66207
21.38767,74199
21.39578,74634
21.40390,83736
21.41203,94906
21.42015,98469
21.42827,100252
21.43640,94895
21.44452,92960
21.45265,77981
21.46077,78207
21.46888,80659
21.47702,72616
21.48513,72658
21.49327,68790
21.50138,66600
21.50950,63008
21.51763,62213
21.52575,64032
21.53388,64899
21.54200,62573
21.55012,68967
21.55825,62551
21.56637,65166
21.57448,64171
21.58262,71861
21.59073,74033
21.59887,79207
21.60698,86538
21.61510,85750
21.62323,83265
21.63135,93342
21.63948,104124
21.64760,116298
21.65572,122572
21.66385,122858
21.67197,125026
21.68008,119155
21.68822,112288
21.69633,110376
21.70447,101714
21.71258,89101
21.72070,81071
21.72883,77119
21.73695,73861
21.74508,69738
21.75320,71148
21.76132,66573
21.76945,65994
21.77757,67028
21.78570,68789
21.79382,71374
21.80193,70221
21.81007,72482
21.81818,72244
21.82630,84758
21.83443,89569
21.84255,96211
21.85068,106409
21.85880,102739
21.86692,101034
21.87505,97386
21.88317,83202
21.89130,77910
21.89942,71954
21.90753,72981
21.91567,66026
21.92378,64483
21.93192,65982
21.94003,62869
21.94815,61020
21.95628,60902
21.96440,54422
21.97252,55685
21.98065,53712
21.98877,53656
21.99690,50783
22.00502,49661
22.01313,50395
22.02127,57480
22.02938,54282
22.03752,55955
22.04563,58035
22.05375,56791
22.06188,59674
22.07000,58460
22.07812,64266
22.08625,57721
22.09437,54736
22.10250,54096
22.11062,52909
22.11873,54365
22.12687,52406
22.13498,53345
22.14312,55372
22.15123,53315
22.15935,51235
22.16748,58315
22.17560,53122
22.18373,48571
22.19185,49025
22.19997,50995
22.20810,53103
22.21622,52289
22.22433,57889
22.23247,57541
22.24058,69552
22.24872,61020
22.25683,58491
22.26495,57643
22.27308,60363
22.28120,64173
22.28933,68298
22.29745,72439
22.30557,75748
22.31370,71161
22.32182,67309
22.32993,74336
22.33807,74380
22.34618,72264
22.35432,73799
22.36243,78133
22.37055,77674
22.37868,76949
22.38680,83282
22.39493,97239
22.40305,122448
22.41117,146992
22.41930,181883
22.42742,195520
22.43555,197776
22.44367,176076
22.45178,155982
22.45992,127650
22.46803,114612
22.47615,109036
22.48428,105989
22.49240,116110
22.50053,128171
22.50865,137784
22.51677,142224
22.52490,144686
22.53302,141506
22.54115,138148
22.54927,118759
22.55738,110024
22.56552,95027
22.57363,87478
22.58177,83306
22.58988,74810
22.59800,72403
22.60613,67227
22.61425,66397
22.62237,67595
22.63050,61973
22.63862,58175
22.64675,69786
22.65487,60532
22.66298,66170
22.67112,63126
22.67923,65872
22.68737,62343
22.69548,68677
22.70360,69708
22.71173,72294
22.71985,85150
22.72797,75930
22.73610,77085
22.74422,74111
22.75235,72740
22.76047,68420
22.76858,66071
22.77672,69263
22.78483,65710
22.79297,75058
22.80108,79233
22.80920,84062
22.81733,87680
22.82545,85915
22.83358,87615
22.84170,80877
22.84982,93094
22.85795,102961
22.86607,123578
22.87418,144196
22.88232,166224
22.89043,190137
22.89857,207928
22.90668,235357
22.91480,226293
22.92293,242109
22.93105,241874
22.93918,239387
22.94730,229797
22.95542,215948
22.96355,200779
22.97167,181739
22.97980,172772
22.98792,163058
22.99603,156032
23.00417,144646
23.01228,146924
23.02040,130175
23.02853,131066
23.03665,121417
23.04478,125143
23.05290,128187
23.06102,123456
23.06915,124858
23.07727,123326
23.08540,127891
23.09352,122319
23.10163,123596
23.10977,118558
23.11788,106566
23.12600,108052
23.13413,111967
23.14225,114700
23.15038,104588
23.15850,108135
23.16662,103265
23.17475,106250
23.18287,103404
23.19100,102577
23.19912,101082
23.20723,97662
23.21537,94583
23.22348,95472
23.23162,97989
23.23973,100059
23.24785,101230
23.25598,110085
23.26410,110168
23.27222,113665
23.28035,111212
23.28847,106865
23.29660,106384
23.30472,106147
23.31283,99998
23.32097,98103
23.32908,111190
23.33722,109555
23.34533,126860
23.35345,147217
23.36158,163898
23.36970,185317
23.37782,192028
23.38595,186797
23.39407,176981
23.40220,145548
23.41032,138106
23.41843,123524
23.42657,116453
23.43468,113784
23.44282,111252
23.45093,104050
23.45905,104525
23.46718,99628
23.47530,95235
23.48343,96220
23.49155,96121
23.49967,94372
23.50780,87116
23.51592,96849
23.52403,92281
23.53217,89318
23.54028,101238
23.54842,94255
23.55653,97513
23.56465,112432
23.57278,139529
23.58090,171362
23.58903,240341
23.59715,302869
23.60527,353134
23.61340,380509
23.62152,355049
23.62965,304780
23.63777,247501
23.64588,199678
23.65402,177402
23.66213,168499
23.67025,163581
23.67838,154361
23.68650,152817
23.69463,133489
23.70275,115635
23.71087,104653
23.71900,95014
23.72712,93569
23.73525,95914
23.74337,99375
23.75148,123468
23.75962,205684
23.76773,413373
23.77585,817646
23.78398,1441836
23.79210,2113826
23.80023,2639740
23.80835,2654198
23.81647,2385961
23.82460,1894033
23.83272,1445320
23.84085,1138413
23.84897,872593
23.85708,677228
23.86522,551883
23.87333,472537
23.88147,403617
23.88958,367410
23.89770,345679
23.90583,306360
23.91395,307057
23.92207,286877
23.93020,265443
23.93832,249448
23.94645,228599
23.95457,211613
23.96268,208095
23.97082,191801
23.97893,179827
23.98707,167636
23.99518,165233
24.00330,167796
24.01143,186798
24.01955,219972
24.02768,272879
24.03580,330992
24.04392,352499
24.05205,331579
24.06017,293986
24.06828,231863
24.07642,179449
24.08453,150559
24.09267,135139
24.10078,124857
24.10890,119320
24.11703,117244
24.12515,125370
24.13328,133745
24.14140,147065
24.14952,156732
24.15765,164719
24.16577,167910
24.17388,165627
24.18202,156814
24.19013,162478
24.19827,152832
24.20638,154799
24.21450,153577
24.22263,145303
24.23075,138227
24.23888,124842
24.24700,119504
24.25512,106564
24.26325,104989
24.27137,94068
24.27950,95488
24.28762,86977
24.29573,91539
24.30387,92080
24.31198,94599
24.32010,90526
24.32823,96010
24.33635,89565
24.34448,99063
24.35260,88633
24.36072,82586
24.36885,83333
24.37697,87577
24.38510,96693
24.39322,106008
24.40133,129059
24.40947,143363
24.41758,153153
24.42572,133870
24.43383,117284
24.44195,103322
24.45008,88268
24.45820,82844
24.46632,81413
24.47445,81780
24.48257,85231
24.49070,82144
24.49882,91693
24.50693,101743
24.51507,106661
24.52318,109821
24.53132,113077
24.53943,124475
24.54755,136787
24.55568,139668
24.56380,137544
24.57192,134223
24.58005,124233
24.58817,119439
24.59630,115737
24.60442,114899
24.61253,122321
24.62067,126038
24.62878,133286
24.63692,139840
24.64503,140746
24.65315,138295
24.66128,142944
24.66940,140977
24.67753,150647
24.68565,141953
24.69377,141909
24.70190,139251
24.71002,143741
24.71813,144339
24.72627,143219
24.73438,145184
24.74252,147769
24.75063,145573
24.75875,141575
24.76688,144014
24.77500,154287
24.78313,155960
24.79125,161587
24.79937,163902
24.80750,162816
24.81562,163694
24.82373,161723
24.83187,171159
24.83998,183274
24.84812,214088
24.85623,241340
24.86435,300144
24.87248,381913
24.88060,485043
24.88873,596896
24.89685,649516
24.90497,660251
24.91310,587437
24.92122,470129
24.92935,366914
24.93747,273372
24.94558,211656
24.95372,178277
24.96183,153819
24.96995,152562
24.97808,139313
24.98620,135098
24.99433,134169
25.00245,135603
25.01057,130744
25.01870,132332
25.02682,127640
25.03495,130919
25.04307,127163
25.05118,123070
25.05932,128740
25.06743,123351
25.07557,126859
25.08368,124799
25.09180,137828
25.09993,171939
25.10805,272321
25.11617,494681
25.12430,988526
25.13242,1727917
25.14055,2628687
25.14867,3191036
25.15678,3374668
25.16492,3080461
25.17303,2431968
25.18117,1633466
25.18928,1060213
25.19740,650325
25.20553,428343
25.21365,297082
25.22177,236180
25.22990,214906
25.23802,210750
25.24615,226206
25.25427,251848
25.26238,293260
25.27052,331494
25.27863,364692
25.28677,355020
25.29488,314692
25.30300,275819
25.31113,231310
25.31925,189543
25.32738,167361
25.33550,159261
25.34362,156338
25.35175,141446
25.35987,126900
25.36798,125466
25.37612,120201
25.38423,111097
25.39237,107159
25.40048,108657
25.40860,101961
25.41673,105714
25.42485,102020
25.43298,93889
25.44110,105782
25.44922,95494
25.45735,94352
25.46547,96349
25.47360,92354
25.48172,93988
25.48983,88432
25.49797,93353
25.50608,84077
25.51420,82002
25.52233,78447
25.53045,80809
25.53858,76894
25.54670,77510
25.55482,72441
25.56295,74027
25.57107,71668
25.57920,72596
25.58732,75689
25.59543,68995
25.60357,67305
25.61168,70729
25.61980,68791
25.62793,66547
25.63605,74705
25.64418,77147
25.65230,76219
25.66042,72979
25.66855,71948
25.67667,69733
25.68480,64730
25.69292,68545
25.70103,68242
25.70917,59450
25.71728,67072
25.72542,61626
25.73353,65376
25.74165,63640
25.74978,61249
25.75790,61607
25.76602,60933
25.77415,69782
25.78227,67490
25.79040,73415
25.79852,69468
25.80663,73264
25.81477,70652
25.82288,72213
25.83102,68878
25.83913,74729
25.84725,80012
25.85538,86345
25.86350,100084
25.87162,114398
25.87975,119914
25.88787,126511
25.89600,122161
25.90412,129396
25.91223,126827
25.92037,129261
25.92848,135301
25.93662,135588
25.94473,134759
25.95285,139723
25.96098,139481
25.96910,139497
25.97723,135589
25.98535,143083
25.99347,136656
26.00160,138154
26.00972,140548
26.01783,123546
26.02597,131406
26.03408,133500
26.04222,123385
26.05033,137374
26.05845,132985
26.06658,135059
26.07470,137748
26.08283,142946
26.09095,142294
26.09907,139629
26.10720,140508
26.11532,139530
26.12345,149154
26.13157,144905
26.13968,147828
26.14782,151074
26.15593,155505
26.16405,151147
26.17218,155704
26.18030,149239
26.18843,143980
26.19655,138636
26.20467,134108
26.21280,133579
26.22092,131850
26.22905,128492
26.23717,121859
26.24528,125486
26.25342,121258
26.26153,119805
26.26967,121604
26.27778,116313
26.28590,118380
26.29403,112379
26.30215,117745
26.31027,111870
26.31840,109779
26.32652,113463
26.33465,120245
26.34277,117462
26.35088,128486
26.35902,157140
26.36713,204946
26.37527,279299
26.38338,390690
26.39150,524389
26.39963,632544
26.40775,691662
26.41587,674354
26.42400,573910
26.43212,454391
26.44025,341470
26.44837,263815
26.45648,205766
26.46462,166379
26.47273,145013
26.48087,138763
26.48898,128714
26.49710,123216
26.50523,122585
26.51335,110930
26.52148,110945
26.52960,107909
26.53772,103971
26.54585,102560
26.55397,104358
26.56208,100662
26.57022,99449
26.57833,95885
26.58647,95713
26.59458,95121
26.60270,94030
26.61083,95028
26.61895,92654
26.62708,96353
26.63520,97733
26.64332,88746
26.65145,88146
26.65957,90177
26.66768,89642
26.67582,88800
26.68393,87822
26.69207,87749
26.70018,86697
26.70830,82200
26.71643,80721
26.72455,78808
26.73268,81027
26.74080,73589
26.74892,73889
26.75705,79260
26.76517,78007
26.77330,76171
26.78142,76740
26.78953,72577
26.79767,80797
26.80578,77637
26.81390,77437
26.82203,81559
26.83015,76564
26.83828,76354
26.84640,70273
26.85452,70115
26.86265,71921
26.87077,75897
26.87890,73160
26.88702,68835
26.89513,66550
26.90327,65407
26.91138,66995
26.91952,64369
26.92763,66550
26.93575,64193
26.94388,59688
26.95200,63781
26.96012,66592
26.96825,73898
26.97637,80741
26.98450,106384
26.99262,140308
27.00073,220252
27.00887,312932
27.01698,429402
27.02512,525792
27.03323,592712
27.04135,593353
27.04948,567718
27.05760,492024
27.06572,410380
27.07385,329860
27.08197,285637
27.09010,246370
27.09822,215869
27.10633,190700
27.11447,179311
27.12258,161943
27.13072,158541
27.13883,143827
27.14695,142888
27.15508,136300
27.16320,142032
27.17133,147210
27.17945,163493
27.18757,168440
27.19570,173435
27.20382,172687
27.21193,166899
27.22007,150459
27.22818,135053
27.23632,133263
27.24443,120223
27.25255,106818
27.26068,97511
27.26880,104324
27.27693,95066
27.28505,95086
27.29317,86729
27.30130,93178
27.30942,90704
27.31755,86597
27.32567,84714
27.33378,87776
27.34192,83153
27.35003,82903
27.35815,81048
27.36628,87915
27.37440,86672
27.38253,84547
27.39065,73457
27.39877,77563
27.40690,79536
27.41502,76249
27.42315,78702
27.43127,72954
27.43938,81669
27.44752,73478
27.45563,74062
27.46375,69632
27.47188,65041
27.48000,66029
27.48813,70089
27.49625,63833
27.50437,64135
27.51250,67613
27.52062,69546
27.52875,70967
27.53687,69952
27.54498,70345
27.55312,70267
27.56123,73899
27.56937,76102
27.57748,76876
27.58560,89300
27.59373,93544
27.60185,100168
27.60997,98534
27.61810,93015
27.62622,91484
27.63435,83382
27.64247,76010
27.65058,72962
27.65872,67114
27.66683,70555
27.67497,71658
27.68308,79398
27.69120,78125
27.69933,77294
27.70745,78473
27.71557,71695
27.72370,73206
27.73182,63593
27.73995,62856
27.74807,56585
27.75618,62499
27.76432,59838
27.77243,67167
27.78057,66113
27.78868,71004
27.79680,72062
27.80493,70542
27.81305,70330
27.82118,67155
27.82930,58280
27.83742,65794
27.84555,63786
27.85367,62890
27.86178,62317
27.86992,58046
27.87803,60021
27.88617,58112
27.89428,59456
27.90240,60929
27.91053,61277
27.91865,55634
27.92678,53874
27.93490,58419
27.94302,58652
27.95115,56254
27.95927,59693
27.96740,55108
27.97552,55090
27.98363,57587
27.99177,57685
27.99988,62063
28.00800,65090
28.01613,70052
28.02425,70620
28.03238,89523
28.04050,96850
28.04862,108955
28.05675,110863
28.06487,113254
28.07300,103959
28.08112,92518
28.08923,79809
28.09737,72923
28.10548,66947
28.11360,63772
28.12173,61244
28.12985,58992
28.13798,57574
28.14610,55210
28.15422,57818
28.16235,53921
28.17047,57290
28.17860,53785
28.18672,59720
28.19483,62752
28.20297,75781
28.21108,88866
28.21922,96988
28.22733,99351
28.23545,95687
28.24358,94155
28.25170,86866
28.25982,75379
28.26795,67276
28.27607,66040
28.28420,63901
28.29232,58719
28.30043,68704
28.30857,67049
28.31668,76710
28.32482,89633
28.33293,100120
28.34105,105993
28.34918,122777
28.35730,125764
28.36543,134698
28.37355,159440
28.38167,161222
28.38980,164083
28.39792,169993
28.40603,175942
28.41417,163559
28.42228,157400
28.43042,152908
28.43853,142562
28.44665,131353
28.45478,123368
28.46290,118772
28.47103,109636
28.47915,109647
28.48727,112485
28.49540,104888
28.50352,110828
28.51163,106197
28.51977,110087
28.52788,104438
28.53602,94835
28.54413,89239
28.55225,79656
28.56038,79902
28.56850,74593
28.57663,72897
28.58475,76513
28.59287,72510
28.60100,71299
28.60912,66231
28.61725,73443
28.62537,77461
28.63348,82314
28.64162,82990
28.64973,88018
28.65785,87059
28.66598,91712
28.67410,95815
28.68223,89869
28.69035,88091
28.69847,81591
28.70660,70776
28.71472,73617
28.72285,66090
28.73097,66653
28.73908,63665
28.74722,64379
28.75533,67575
28.76345,74489
28.77158,83161
28.77970,91428
28.78783,88653
28.79595,95009
28.80407,85858
28.81220,83611
28.82032,79517
28.82845,78357
28.83657,73258
28.84468,75971
28.85282,65626
28.86093,66136
28.86907,63026
28.87718,70701
28.88530,69032
28.89343,75982
28.90155,75998
28.90967,77819
28.91780,80029
28.92592,77893
28.93405,74277
28.94217,70003
28.95028,68870
28.95842,65997
28.96653,69827
28.97467,68840
28.98278,70121
28.99090,65069
28.99903,60749
29.00715,56973
29.01528,65134
29.02340,57911
29.03152,52619
29.03965,54362
29.04777,55238
29.05588,55334
29.06402,54781
29.07213,56032
29.08027,59001
29.08838,60468
29.09650,63752
29.10463,60927
29.11275,57301
29.12088,56248
29.12900,56054
29.13712,53124
29.14525,56010
29.15337,57136
29.16148,57984
29.16962,60699
29.17773,62776
29.18587,59097
29.19398,70386
29.20210,75004
29.21023,86048
29.21835,95339
29.22648,97816
29.23460,100446
29.24272,109155
29.25085,115295
29.25897,126132
29.26710,140802
29.27522,151392
29.28333,140935
29.29147,122396
29.29958,103248
29.30770,81954
29.31583,70390
29.32395,65731
29.33208,60252
29.34020,55277
29.34832,58955
29.35645,52394
29.36457,53672
29.37270,50856
29.38082,53102
29.38893,54425
29.39707,56490
29.40518,55276
29.41332,57811
29.42143,55536
29.42955,61701
29.43768,63959
29.44580,60886
29.45392,60167
29.46205,54506
29.47017,56040
29.47830,55938
29.48642,56233
29.49453,61632
29.50267,64112
29.51078,64675
29.51892,67951
29.52703,62992
29.53515,60855
29.54328,59051
29.55140,53649
29.55952,55417
29.56765,56130
29.57577,57630
29.58390,49586
29.59202,50339
29.60013,49672
29.60827,50503
29.61638,53703
29.62452,51771
29.63263,49732
29.64075,55076
29.64888,54928
29.65700,54341
29.66513,53714
29.67325,49303
29.68137,52918
29.68950,55938
29.69762,58167
29.70573,60785
29.71387,60922
29.72198,59343
29.73012,56501
29.73823,57439
29.74635,45201
29.75448,51208
29.76260,47761
29.77073,51650
29.77885,49965
29.78697,46677
29.79510,46785
29.80322,47933
29.81135,48124
29.81947,46702
29.82758,43558
29.83572,46737
29.84383,44001
29.85195,50083
29.86008,49960
29.86820,59173
29.87633,67445
29.88445,91969
29.89257,114012
29.90070,144742
29.90882,151031
29.91695,142253
29.92507,120257
29.93318,100617
29.94132,78190
29.94943,69468
29.95755,63241
29.96568,63169
29.97380,68793
29.98193,68346
29.99005,76782
29.99817,80558
30.00630,86607
30.01442,91585
30.02255,99460
30.03067,103401
30.03878,107068
30.04692,106916
30.05503,104314
30.06317,108116
30.07128,103356
30.07940,111643
30.08753,99597
30.09565,100100
30.10377,98824
30.11190,100135
30.12002,96432
30.12815,91764
30.13627,85565
30.14438,82046
30.15252,85558
30.16063,84918
30.16877,80304
30.17688,82014
30.18500,79964
30.19313,85007
30.20125,83196
30.20937,85813
30.21750,84031
30.22562,80086
30.23375,75218
30.24187,69759
30.24998,67011
30.25812,61614
30.26623,62366
30.27437,64425
30.28248,58832
30.29060,59067
30.29873,58290
30.30685,54473
30.31498,59569
30.32310,53688
30.33122,55421
30.33935,59616
30.34747,59936
30.35558,59348
30.36372,56387
30.37183,55304
30.37997,60086
30.38808,60972
30.39620,54676
30.40433,51725
30.41245,50349
30.42058,52976
30.42870,53487
30.43682,53091
30.44495,50999
30.45307,50817
30.46120,49522
30.46932,48362
30.47743,50591
30.48557,54918
30.49368,47712
30.50180,50894
30.50993,51384
30.51805,52956
30.52618,52092
30.53430,53486
30.54242,48729
30.55055,50139
30.55867,55052
30.56680,50156
30.57492,55161
30.58303,48722
30.59117,54460
30.59928,49411
30.60740,52892
30.61553,48005
30.62365,48078
30.63178,49700
30.63990,49466
30.64802,48296
30.65615,46788
30.66427,42719
30.67240,44546
30.68052,45412
30.68863,45607
30.69677,45706
30.70488,48333
30.71302,49705
30.72113,46594
30.72925,46793
30.73738,53233
30.74550,47801
30.75362,46574
30.76175,47000
30.76987,51228
30.77800,56368
30.78612,68323
30.79423,87363
30.80237,109602
30.81048,127969
30.81862,139626
30.82673,137123
30.83485,118711
30.84298,101423
30.85110,81419
30.85923,66201
30.86735,63323
30.87547,62035
30.88360,64597
30.89172,60160
30.89983,58933
30.90797,56331
30.91608,52786
30.92422,55460
30.93233,50721
30.94045,46663
30.94858,50416
30.95670,47764
30.96483,46730
30.97295,49376
30.98107,49153
30.98920,48938
30.99732,46716
31.00543,48439
31.01357,46890
31.02168,50078
31.02982,53116
31.03793,50191
31.04605,53904
31.05418,54221
31.06230,50736
31.07043,55103
31.07855,56458
31.08667,56982
31.09480,67985
31.10292,76737
31.11105,81533
31.11917,86284
31.12728,77289
31.13542,74099
31.14353,72865
31.15165,66799
31.15978,71168
31.16790,79300
31.17603,80203
31.18415,86032
31.19227,103479
31.20040,124766
31.20852,161669
31.21665,193611
31.22477,214162
31.23288,224089
31.24102,225304
31.24913,192622
31.25725,151264
31.26538,121743
31.27350,96839
31.28163,89215
31.28975,74635
31.29787,71831
31.30600,67450
31.31412,68728
31.32225,68228
31.33037,67649
31.33848,71727
31.34662,71388
31.35473,67435
31.36287,64377
31.37098,66619
31.37910,65554
31.38723,69651
31.39535,61657
31.40347,65715
31.41160,70543
31.41972,64706
31.42785,67657
31.43597,62008
31.44408,63638
31.45222,66365
31.46033,68469
31.46847,62299
31.47658,61891
31.48470,61201
31.49283,65597
31.50095,72011
31.50908,71682
31.51720,75032
31.52532,70341
31.53345,68580
31.54157,66103
31.54968,68289
31.55782,72961
31.56593,64636
31.57407,63427
31.58218,66100
31.59030,65048
31.59843,62366
31.60655,59643
31.61468,60339
31.62280,61144
31.63092,56881
31.63905,58601
31.64717,59951
31.65530,61774
31.66342,59659
31.67153,61374
31.67967,68139
31.68778,63463
31.69590,60299
31.70403,58023
31.71215,57614
31.72028,57868
31.72840,56834
31.73652,54458
31.74465,50263
31.75277,52585
31.76090,54206
31.76902,53283
31.77713,51837
31.78527,56050
31.79338,54792
31.80150,54981
31.80963,57364
31.81775,61683
31.82588,57579
31.83400,57590
31.84212,59045
31.85025,58675
31.85837,64106
31.86650,63167
31.87462,62605
31.88273,63762
31.89087,64418
31.89898,62782
31.90712,63528
31.91523,68025
31.92335,73614
31.93148,75522
31.93960,80626
31.94772,88836
31.95585,88022
31.96397,93277
31.97210,96224
31.98022,101347
31.98833,111324
31.99647,110603
32.00458,113236
32.01272,112886
32.02083,108995
32.02895,99048
32.03708,101897
32.04520,98537
32.05332,98560
32.06145,88431
32.06957,85946
32.07770,93845
32.08582,83509
32.09393,87655
32.10207,81059
32.11018,71974
32.11832,72116
32.12643,65880
32.13455,65234
32.14268,63630
32.15080,65459
32.15893,65235
32.16705,66029
32.17517,64691
32.18330,59413
32.19142,61789
32.19953,63565
32.20767,65495
32.21578,63470
32.22392,59841
32.23203,60190
32.24015,57911
32.24828,64192
32.25640,63193
32.26453,66295
32.27265,63303
32.28077,67701
32.28890,63504
32.29702,65274
32.30515,62275
32.31327,59434
32.32138,57668
32.32952,58629
32.33763,63729
32.34575,61433
32.35388,59438
32.36200,59790
32.37013,61998
32.37825,60970
32.38637,59415
32.39450,56091
32.40262,54910
32.41075,56763
32.41887,56415
32.42698,54077
32.43512,53132
32.44323,52807
32.45135,49994
32.45948,54137
32.46760,51889
32.47573,55056
32.48385,48737
32.49197,49259
32.50010,48436
32.50822,48920
32.51635,52199
32.52447,52841
32.53258,50867
32.54072,53623
32.54883,47086
32.55697,46671
32.56508,51354
32.57320,49546
32.58133,51077
32.58945,52660
32.59757,50352
32.60570,51188
32.61382,49531
32.62195,48474
32.63007,45259
32.63818,50177
32.64632,50013
32.65443,55286
32.66257,54936
32.67068,67989
32.67880,75990
32.68693,70523
32.69505,70292
32.70318,65838
32.71130,62753
32.71942,55881
32.72755,60982
32.73567,61464
32.74378,58493
32.75192,56480
32.76003,54478
32.76817,55977
32.77628,51850
32.78440,48621
32.79253,49755
32.80065,48485
32.80878,50310
32.81690,48518
32.82502,51996
32.83315,52793
32.84127,50957
32.84938,50725
32.85752,52770
32.86563,51658
32.87377,49487
32.88188,54120
32.89000,55097
32.89813,55835
32.90625,59659
32.91438,63055
32.92250,63767
32.93062,61191
32.93875,63499
32.94687,59942
32.95500,54976
32.96312,51379
32.97123,58161
32.97937,59850
32.98748,68362
32.99560,73806
33.00373,86517
33.01185,83085
33.01998,79721
33.02810,79959
33.03622,73124
33.04435,68220
33.05247,63003
33.06060,61968
33.06872,62035
33.07683,70993
33.08497,81555
33.09308,82087
33.10120,86198
33.10933,95688
33.11745,97647
33.12558,97150
33.13370,100199
33.14182,86758
33.14995,82852
33.15807,73624
33.16620,69892
33.17432,63336
33.18243,57348
33.19057,63585
33.19868,56887
33.20682,59488
33.21493,58954
33.22305,57194
33.23118,60503
33.23930,60374
33.24742,55517
33.25555,56876
33.26367,56549
33.27180,55428
33.27992,57438
33.28803,55606
33.29617,55710
33.30428,51531
33.31242,54138
33.32053,58125
33.32865,54968
33.33678,51672
33.34490,60122
33.35303,60957
33.36115,62841
33.36927,67546
33.37740,63299
33.38552,62314
33.39363,59275
33.40177,55744
33.40988,57124
33.41802,52100
33.42613,53727
33.43425,49450
33.44238,51776
33.45050,52365
33.45863,51842
33.46675,53383
33.47487,52784
33.48300,54265
33.49112,53926
33.49923,54789
33.50737,53294
33.51548,56849
33.52362,62375
33.53173,57864
33.53985,59106
33.54798,58015
33.55610,58592
33.56423,59106
33.57235,57737
33.58047,57393
33.58860,56495
33.59672,56509
33.60485,52709
33.61297,55056
33.62108,53624
33.62922,52253
33.63733,56426
33.64545,57809
33.65358,58615
33.66170,59006
33.66983,53456
33.67795,57032
33.68607,56576
33.69420,56418
33.70232,55155
33.71045,49830
33.71857,51833
33.72668,53008
33.73482,54092
33.74293,54973
33.75107,53244
33.75918,52825
33.76730,50537
33.77543,50298
33.78355,51457
33.79167,50046
33.79980,52928
33.80792,48649
33.81605,47528
33.82417,53907
33.83228,53882
33.84042,53972
33.84853,57226
33.85667,57389
33.86478,58463
33.87290,57314
33.88103,56117
33.88915,58217
33.89727,56813
33.90540,53451
33.91352,58128
33.92165,57185
33.92977,58872
33.93788,58192
33.94602,59234
33.95413,63883
33.96227,56962
33.97038,55997
33.97850,55047
33.98663,52473
33.99475,54360
34.00288,52598
34.01100,51148
34.01912,53254
34.02725,51400
34.03537,53444
34.04348,59376
34.05162,50401
34.05973,51974
34.06787,50115
34.07598,56344
34.08410,50768
34.09223,56960
34.10035,51014
34.10848,55403
34.11660,54748
34.12472,53506
34.13285,53510
34.14097,51553
34.14908,55814
34.15722,54580
34.16533,54220
34.17347,55575
34.18158,49878
34.18970,53942
34.19783,56871
34.20595,51214
34.21408,53927
34.22220,55915
34.23032,55876
34.23845,55193
34.24657,52323
34.25470,50578
34.26282,53654
34.27093,52524
34.27907,51886
34.28718,53185
34.29530,52591
34.30343,51864
34.31155,51146
34.31968,54518
34.32780,55773
34.33592,50680
34.34405,52741
34.35217,55520
34.36030,53944
34.36842,52466
34.37653,51330
34.38467,56447
34.39278,53442
34.40092,55736
34.40903,53303
34.41715,53480
34.42528,54811
34.43340,51450
34.44152,49710
34.44965,51762
34.45777,54218
34.46590,56060
34.47402,50814
34.48213,55162
34.49027,51233
34.49838,54401
34.50652,56712
34.51463,58764
34.52275,64579
34.53088,75168
34.53900,79183
34.54712,93046
34.55525,104519
34.56337,108542
34.57150,103782
34.57962,103508
34.58773,98280
34.59587,103219
34.60398,88503
34.61212,82031
34.62023,83293
34.62835,77764
34.63648,71756
34.64460,71896
34.65273,69219
34.66085,68929
34.66897,68249
34.67710,68904
34.68522,64405
34.69333,64556
34.70147,63888
34.70958,62613
34.71772,62939
34.72583,60876
34.73395,64229
34.74208,59257
34.75020,65500
34.75833,66597
34.76645,61684
34.77457,62088
34.78270,60138
34.79082,63596
34.79895,62730
34.80707,57733
34.81518,58159
34.82332,58715
34.83143,58694
34.83955,57477
34.84768,60072
34.85580,58272
34.86393,57877
34.87205,60311
34.88017,54527
34.88830,54444
34.89642,54698
34.90455,60220
34.91267,61170
34.92078,59447
34.92892,60937
34.93703,63103
34.94515,61410
34.95328,64563
34.96140,65616
34.96953,67520
34.97765,65680
34.98577,67940
34.99390,65926
35.00202,67303
35.01015,64916
35.01827,60398
35.02638,62092
35.03452,62758
35.04263,62433
35.05077,64031
35.05888,63321
35.06700,62558
35.07513,60743
35.08325,61557
35.09137,56648
35.09950,56641
35.10762,58906
35.11575,62418
35.12387,57391
35.13198,59054
35.14012,56859
35.14823,61469
35.15637,60029
35.16448,59466
35.17260,63095
35.18073,66744
35.18885,59479
35.19698,58961
35.20510,57629
35.21322,55194
35.22135,59589
35.22947,56545
35.23758,58399
35.24572,57285
35.25383,60286
35.26197,60011
35.27008,62725
35.27820,59219
35.28633,65882
35.29445,60470
35.30258,58250
35.31070,63156
35.31882,57318
35.32695,54673
35.33507,57670
35.34318,58044
35.35132,54255
35.35943,50468
35.36757,57979
35.37568,57594
35.38380,60920
35.39193,58472
35.40005,59742
35.40818,67482
35.41630,65905
35.42442,69241
35.43255,73920
35.44067,72670
35.44880,71572
35.45692,72856
35.46503,72399
35.47317,71972
35.48128,68103
35.48940,66076
35.49753,64627
35.50565,61723
35.51378,64377
35.52190,63565
35.53002,68246
35.53815,61853
35.54627,61651
35.55440,63344
35.56252,63535
35.57063,58476
35.57877,59740
35.58688,64373
35.59500,58180
35.60313,57095
35.61125,62167
35.61938,58734
35.62750,58196
35.63562,56635
35.64375,56107
35.65187,59578
35.66000,54763
35.66812,57960
35.67623,62203
35.68437,60088
35.69248,68508
35.70062,63381
35.70873,64303
35.71685,63075
35.72498,60617
35.73310,61303
35.74122,64204
35.74935,64899
35.75747,67753
35.76560,79355
35.77372,73325
35.78183,73177
35.78997,74121
35.79808,70584
35.80622,67947
35.81433,65062
35.82245,61565
35.83058,59341
35.83870,59987
35.84683,62468
35.85495,59295
35.86307,59776
35.87120,62192
35.87932,59275
35.88743,59111
35.89557,56713
35.90368,56753
35.91182,66386
35.91993,56968
35.92805,59371
35.93618,58980
35.94430,58859
35.95243,59382
35.96055,62870
35.96867,54860
35.97680,60250
35.98492,61025
35.99303,60925
36.00117,61845
36.00928,66096
36.01742,62953
36.02553,73358
36.03365,69348
36.04178,70195
36.04990,67180
36.05803,64769
36.06615,64431
36.07427,64921
36.08240,64581
36.09052,61126
36.09865,65685
36.10677,62023
36.11488,60520
36.12302,63888
36.13113,65686
36.13925,68509
36.14738,67736
36.15550,72812
36.16363,72128
36.17175,68356
36.17987,64166
36.18800,62569
36.19612,68083
36.20425,66451
36.21237,62006
36.22048,61528
36.22862,62442
36.23673,61090
36.24487,60716
36.25298,56757
36.26110,61584
36.26923,61854
36.27735,65244
36.28547,56151
36.29360,65361
36.30172,64592
36.30985,72609
36.31797,72789
36.32608,79177
36.33422,82132
36.34233,77784
36.35047,72096
36.35858,64746
36.36670,65433
36.37483,68069
36.38295,61983
36.39107,62862
36.39920,64609
36.40732,66539
36.41545,68793
36.42357,69179
36.43168,65804
36.43982,66787
36.44793,67774
36.45607,60751
36.46418,62320
36.47230,64473
36.48043,64655
36.48855,57286
36.49668,56045
36.50480,59808
36.51292,59876
36.52105,62983
36.52917,59928
36.53728,63034
36.54542,65579
36.55353,64338
36.56167,58738
36.56978,58568
36.57790,61972
36.58603,62340
36.59415,64262
36.60228,59279
36.61040,63505
36.61852,64529
36.62665,62664
36.63477,64756
36.64288,71686
36.65102,70750
36.65913,66909
36.66727,69813
36.67538,70029
36.68350,71278
36.69163,69852
36.69975,76164
36.70788,67810
36.71600,69519
36.72412,69492
36.73225,73192
36.74037,71176
36.74850,71498
36.75662,70032
36.76473,67970
36.77287,73501
36.78098,69865
36.78910,67303
36.79723,68194
36.80535,73695
36.81348,63415
36.82160,66106
36.82972,66928
36.83785,66679
36.84597,62905
36.85410,72833
36.86222,65670
36.87033,69335
36.87847,68803
36.88658,67982
36.89472,65743
36.90283,64875
36.91095,69241
36.91908,69978
36.92720,69182
36.93532,72794
36.94345,72352
36.95157,77227
36.95970,82149
36.96782,80337
36.97593,84828
36.98407,87254
36.99218,81601
37.00032,81360
37.00843,72785
37.01655,77367
37.02468,71499
37.03280,71809
37.04093,69326
37.04905,69414
37.05717,68158
37.06530,70264
37.07342,72286
37.08153,70685
37.08967,67033
37.09778,72102
37.10592,73611
37.11403,77638
37.12215,73702
37.13028,72789
37.13840,68328
37.14653,74339
37.15465,72987
37.16277,71835
37.17090,70220
37.17902,73609
37.18713,71961
37.19527,74544
37.20338,69526
37.21152,73335
37.21963,72995
37.22775,69103
37.23588,72261
37.24400,64530
37.25213,68388
37.26025,69403
37.26837,67004
37.27650,70276
37.28462,69727
37.29275,68954
37.30087,70615
37.30898,69453
37.31712,72364
37.32523,73949
37.33335,79648
37.34148,92290
37.34960,87617
37.35773,95356
37.36585,104000
37.37397,103774
37.38210,101218
37.39022,96791
37.39835,93256
37.40647,93293
37.41458,90196
37.42272,88762
37.43083,86740
37.43895,87904
37.44708,87877
37.45520,85527
37.46333,85000
37.47145,86340
37.47957,84622
37.48770,86010
