C:\MassHunter\GCMS\1\data\JTB-E02\BACandBLUE\JTB-E18-009-12.D Thu May 16 14:31:14 2019
Start of data points
2.09523,45502
2.10337,49010
2.11148,49708
2.11962,51396
2.12773,45793
2.13585,48163
2.14398,53450
2.15210,58179
2.16023,46478
2.16835,48864
2.17647,47590
2.18460,46775
2.19272,44296
2.20085,46066
2.20897,47525
2.21708,43720
2.22522,41157
2.23333,41353
2.24145,41301
2.24958,38251
2.25770,42426
2.26583,48423
2.27395,226474
2.28207,1101245
2.29020,1080003
2.29832,445773
2.30645,277756
2.31457,220772
2.32268,193156
2.33082,171917
2.33893,181578
2.34707,165110
2.35518,133977
2.36330,128741
2.37143,121099
2.37955,114849
2.38767,110970
2.39580,105580
2.40392,100304
2.41205,100725
2.42017,102641
2.42828,110254
2.43642,98620
2.44453,98029
2.45267,100252
2.46078,99227
2.46890,95248
2.47703,91827
2.48515,86868
2.49327,105697
2.50140,124270
2.50952,108055
2.51765,98054
2.52577,94494
2.53388,89365
2.54202,90081
2.55013,90569
2.55827,105378
2.56638,140878
2.57450,134596
2.58263,108121
2.59075,107063
2.59888,101789
2.60700,105609
2.61512,133450
2.62325,148839
2.63137,125240
2.63948,109164
2.64762,98547
2.65573,93896
2.66387,94953
2.67198,93042
2.68010,87335
2.68823,84123
2.69635,86995
2.70448,85836
2.71260,84759
2.72072,88132
2.72885,85256
2.73697,81501
2.74508,83755
2.75322,81622
2.76133,79746
2.76947,81304
2.77758,103806
2.78570,326679
2.79383,663747
2.80195,531587
2.81008,296071
2.81820,234845
2.82632,211151
2.83445,194114
2.84257,177400
2.85070,150354
2.85882,138979
2.86693,123945
2.87507,120550
2.88318,114754
2.89130,104611
2.89943,108408
2.90755,104837
2.91568,95166
2.92380,101831
2.93192,97972
2.94005,92412
2.94817,91615
2.95630,87791
2.96442,85743
2.97253,89880
2.98067,83412
2.98878,89085
2.99692,83360
3.00503,93154
3.01315,93548
3.02128,87550
3.02940,87178
3.03752,80208
3.04565,82092
3.05377,83156
3.06190,87605
3.07002,89657
3.07813,93469
3.08627,109788
3.09438,232044
3.10252,639392
3.11063,1890147
3.11875,2819948
3.12688,2076523
3.13500,1266841
3.14312,935147
3.15125,751189
3.15937,607864
3.16750,525252
3.17562,483025
3.18373,474450
3.19187,736390
3.19998,1238208
3.20812,1200066
3.21623,826751
3.22435,645769
3.23248,541963
3.24060,457895
3.24873,403964
3.25685,353117
3.26497,333338
3.27310,300434
3.28122,287359
3.28933,381621
3.29747,1091841
3.30558,3134445
3.31372,5466373
3.32183,5678807
3.32995,3995283
3.33808,2435654
3.34620,1636071
3.35433,1276255
3.36245,1017951
3.37057,876759
3.37870,776507
3.38682,685740
3.39495,619540
3.40307,580762
3.41118,540180
3.41932,493611
3.42743,468331
3.43555,467514
3.44368,460323
3.45180,424863
3.45993,406685
3.46805,405822
3.47617,409236
3.48430,398284
3.49242,385650
3.50055,360517
3.50867,344619
3.51678,345682
3.52492,324748
3.53303,333474
3.54115,345610
3.54928,353474
3.55740,326042
3.56553,311450
3.57365,305781
3.58177,307791
3.58990,302137
3.59802,300227
3.60615,288691
3.61427,285059
3.62238,295652
3.63052,312715
3.63863,321644
3.64677,322436
3.65488,315410
3.66300,458243
3.67113,2000503
3.67925,6892331
3.68737,1.136612E+07
3.69550,9740502
3.70362,5648143
3.71175,3562727
3.71987,2747794
3.72798,2250930
3.73612,1928697
3.74423,1701529
3.75237,1510525
3.76048,1382744
3.76860,1281118
3.77673,1170382
3.78485,1106254
3.79297,1041872
3.80110,1014564
3.80922,1220203
3.81735,1793376
3.82547,2185068
3.83358,1821911
3.84172,1354576
3.84983,1135822
3.85797,1009175
3.86608,932701
3.87420,859340
3.88233,805753
3.89045,766758
3.89858,730123
3.90670,689906
3.91482,674796
3.92295,726270
3.93107,839099
3.93918,861948
3.94732,813939
3.95543,834690
3.96357,1104152
3.97168,1445121
3.97980,1397719
3.98793,1084513
3.99605,923181
4.00418,1515681
4.01230,3299880
4.02042,5049006
4.02855,4819454
4.03667,3142439
4.04480,1845298
4.05292,1249112
4.06103,992945
4.06917,827529
4.07728,745086
4.08540,668845
4.09353,629144
4.10165,582381
4.10978,546312
4.11790,514029
4.12602,502855
4.13415,489457
4.14227,487231
4.15040,506071
4.15852,535399
4.16663,489564
4.17477,477149
4.18288,472843
4.19102,444898
4.19913,428924
4.20725,490955
4.21538,1203008
4.22350,4121379
4.23162,9545631
4.23975,1.38822E+07
4.24787,1.330288E+07
4.25600,9278645
4.26412,5772719
4.27223,3933747
4.28037,2963011
4.28848,2295551
4.29662,1860244
4.30473,1544833
4.31285,1307005
4.32098,1159082
4.32910,1052566
4.33722,966451
4.34535,873098
4.35347,834709
4.36160,815211
4.36972,816727
4.37783,785293
4.38597,737522
4.39408,667386
4.40222,608561
4.41033,576483
4.41845,561936
4.42658,525403
4.43470,499673
4.44283,489170
4.45095,481123
4.45907,460860
4.46720,449648
4.47532,429902
4.48343,428510
4.49157,422275
4.49968,411663
4.50782,389657
4.51593,383438
4.52405,386856
4.53218,376388
4.54030,370417
4.54843,373788
4.55655,368287
4.56467,367412
4.57280,361689
4.58092,346552
4.58903,330878
4.59717,327859
4.60528,315945
4.61342,322352
4.62153,336364
4.62965,387916
4.63778,519320
4.64590,666966
4.65403,682247
4.66215,577897
4.67027,468959
4.67840,404852
4.68652,372006
4.69465,356831
4.70277,343130
4.71088,310887
4.71902,314033
4.72713,304973
4.73525,306527
4.74338,301167
4.75150,296962
4.75963,287639
4.76775,280568
4.77587,267841
4.78400,274306
4.79212,340101
4.80025,569209
4.80837,894309
4.81648,1065902
4.82462,897027
4.83273,687353
4.84087,564779
4.84898,531602
4.85710,496468
4.86523,448185
4.87335,404948
4.88147,362373
4.88960,350857
4.89772,320772
4.90585,304756
4.91397,305701
4.92208,298473
4.93022,315246
4.93833,410581
4.94647,796821
4.95458,1661548
4.96270,2769935
4.97083,3408958
4.97895,3104643
4.98707,2215436
4.99520,1477958
5.00332,1034953
5.01145,805273
5.01957,688340
5.02768,620103
5.03582,644182
5.04393,697850
5.05207,704394
5.06018,643661
5.06830,585549
5.07643,516914
5.08455,497727
5.09268,454295
5.10080,445497
5.10892,419406
5.11705,411436
5.12517,398339
5.13328,385333
5.14142,380320
5.14953,390312
5.15767,407874
5.16578,463260
5.17390,501986
5.18203,500980
5.19015,463137
5.19828,446624
5.20640,432240
5.21452,456050
5.22265,446999
5.23077,435016
5.23890,412066
5.24702,393158
5.25513,382979
5.26327,353182
5.27138,326733
5.27950,314379
5.28763,303185
5.29575,295083
5.30388,289336
5.31200,280476
5.32012,277321
5.32825,276994
5.33637,299911
5.34450,304339
5.35262,305950
5.36073,299956
5.36887,287316
5.37698,274521
5.38510,266735
5.39323,287410
5.40135,286687
5.40948,295990
5.41760,295753
5.42572,277704
5.43385,265463
5.44197,264982
5.45010,270627
5.45822,276324
5.46633,278277
5.47447,262322
5.48258,258114
5.49072,252474
5.49883,244510
5.50695,246684
5.51508,243579
5.52320,253765
5.53132,246276
5.53945,244742
5.54757,245066
5.55570,257261
5.56382,300402
5.57193,385061
5.58007,445925
5.58818,438433
5.59632,387746
5.60443,318178
5.61255,287207
5.62068,259301
5.62880,246722
5.63692,248019
5.64505,241912
5.65317,247597
5.66130,242623
5.66942,235300
5.67753,237784
5.68567,260938
5.69378,287180
5.70192,306327
5.71003,281198
5.71815,269277
5.72628,240506
5.73440,237247
5.74253,224402
5.75065,227369
5.75877,220059
5.76690,215534
5.77502,216149
5.78313,217546
5.79127,210329
5.79938,203858
5.80752,208125
5.81563,207533
5.82375,210982
5.83188,196657
5.84000,206848
5.84813,212457
5.85625,210775
5.86437,204380
5.87250,197622
5.88062,197394
5.88875,199488
5.89687,205129
5.90498,183482
5.91312,166973
5.92123,163926
5.92935,156173
5.93748,160017
5.94560,161079
5.95373,168777
5.96185,187458
5.96997,214916
5.97810,243838
5.98622,297311
5.99435,327396
6.00247,324010
6.01058,284193
6.01872,236113
6.02683,198073
6.03495,174341
6.04308,164105
6.05120,155085
6.05933,152906
6.06745,145125
6.07557,146605
6.08370,137952
6.09182,143986
6.09995,148357
6.10807,156257
6.11618,172406
6.12432,198859
6.13243,246063
6.14057,336405
6.14868,448094
6.15680,489728
6.16493,422655
6.17305,313827
6.18117,260380
6.18930,226219
6.19742,204445
6.20555,205304
6.21367,205633
6.22178,195924
6.22992,190399
6.23803,183111
6.24617,178476
6.25428,175281
6.26240,182826
6.27053,188233
6.27865,191620
6.28678,175764
6.29490,171071
6.30302,170868
6.31115,174733
6.31927,177717
6.32738,218284
6.33552,287849
6.34363,356043
6.35177,374423
6.35988,331559
6.36800,264070
6.37613,212947
6.38425,206320
6.39238,197855
6.40050,194503
6.40862,187074
6.41675,183929
6.42487,182602
6.43298,178054
6.44112,181032
6.44923,176455
6.45737,178178
6.46548,181996
6.47360,183013
6.48173,176121
6.48985,182556
6.49798,178819
6.50610,176351
6.51422,175291
6.52235,179777
6.53047,190296
6.53860,184173
6.54672,177143
6.55483,181415
6.56297,195301
6.57108,223257
6.57920,263048
6.58733,314326
6.59545,305088
6.60358,273838
6.61170,233201
6.61982,213639
6.62795,200761
6.63607,192521
6.64420,196025
6.65232,223510
6.66043,309114
6.66857,423278
6.67668,561543
6.68482,567659
6.69293,445818
6.70105,343720
6.70918,277842
6.71730,247651
6.72542,222474
6.73355,207092
6.74167,194418
6.74980,184602
6.75792,175219
6.76603,170205
6.77417,166981
6.78228,163951
6.79042,169933
6.79853,160691
6.80665,159942
6.81478,143400
6.82290,142362
6.83102,140895
6.83915,137780
6.84727,136942
6.85540,142817
6.86352,136979
6.87163,123228
6.87977,113756
6.88788,99585
6.89602,97497
6.90413,89995
6.91225,89804
6.92038,86317
6.92850,85685
6.93663,80918
6.94475,93866
6.95287,80021
6.96100,85357
6.96912,91072
6.97723,112046
6.98537,118670
6.99348,123335
7.00162,106614
7.00973,99535
7.01785,95348
7.02598,88769
7.03410,86931
7.04223,84978
7.05035,80304
7.05847,94775
7.06660,98541
7.07472,100212
7.08283,101815
7.09097,96569
7.09908,92131
7.10722,81496
7.11533,79784
7.12345,77100
7.13158,78523
7.13970,77249
7.14783,100652
7.15595,128391
7.16407,172038
7.17220,196947
7.18032,181578
7.18845,152162
7.19657,136444
7.20468,202699
7.21282,474573
7.22093,1110662
7.22905,1869528
7.23718,2254033
7.24530,1999106
7.25343,1353622
7.26155,814666
7.26967,525564
7.27780,337329
7.28592,215015
7.29405,152523
7.30217,115739
7.31028,101303
7.31842,101407
7.32653,103789
7.33467,106914
7.34278,110061
7.35090,105191
7.35903,102998
7.36715,95421
7.37527,91739
7.38340,88701
7.39152,87852
7.39965,96420
7.40777,85982
7.41588,87646
7.42402,85112
7.43213,84309
7.44027,81130
7.44838,84840
7.45650,80493
7.46463,84651
7.47275,87673
7.48087,78631
7.48900,89212
7.49712,75974
7.50525,75682
7.51337,73963
7.52148,96949
7.52962,134029
7.53773,214565
7.54587,354436
7.55398,534390
7.56210,707650
7.57023,794512
7.57835,763665
7.58648,621375
7.59460,454472
7.60272,315026
7.61085,221752
7.61897,165581
7.62708,132425
7.63522,112507
7.64333,101725
7.65147,100376
7.65958,90821
7.66770,84018
7.67583,80985
7.68395,77160
7.69208,74448
7.70020,69573
7.70832,73583
7.71645,77166
7.72457,80697
7.73270,77066
7.74082,72077
7.74893,77529
7.75707,73156
7.76518,79772
7.77330,78941
7.78143,80585
7.78955,84280
7.79768,91736
7.80580,95206
7.81392,108319
7.82205,105214
7.83017,97045
7.83830,89790
7.84642,79969
7.85453,75901
7.86267,86786
7.87078,89400
7.87890,101890
7.88703,107451
7.89515,115271
7.90328,103898
7.91140,99243
7.91952,92424
7.92765,92625
7.93577,106687
7.94390,113895
7.95202,126253
7.96013,121981
7.96827,120650
7.97638,105740
7.98452,97284
7.99263,81963
8.00075,73266
8.00888,72934
8.01700,67356
8.02512,69158
8.03325,64023
8.04137,67745
8.04950,65431
8.05762,67495
8.06573,61214
8.07387,67109
8.08198,62821
8.09012,61787
8.09823,54016
8.10635,62256
8.11448,60093
8.12260,60504
8.13072,65282
8.13885,70006
8.14697,85793
8.15510,102366
8.16322,96664
8.17133,89226
8.17947,81161
8.18758,69928
8.19572,70910
8.20383,65863
8.21195,62220
8.22008,61381
8.22820,63027
8.23633,59648
8.24445,53837
8.25257,58336
8.26070,59038
8.26882,57853
8.27693,60109
8.28507,55148
8.29318,58719
8.30132,58148
8.30943,60663
8.31755,69715
8.32568,61390
8.33380,65415
8.34193,62616
8.35005,65563
8.35817,61144
8.36630,59314
8.37442,56626
8.38255,53495
8.39067,53447
8.39878,56995
8.40692,55248
8.41503,56133
8.42315,59558
8.43128,54814
8.43940,49850
8.44753,52128
8.45565,52841
8.46377,50269
8.47190,49399
8.48002,48480
8.48815,49365
8.49627,53138
8.50438,47638
8.51252,60873
8.52063,106642
8.52877,234328
8.53688,483620
8.54500,820098
8.55313,1025417
8.56125,934469
8.56937,676632
8.57750,383106
8.58562,213246
8.59375,136605
8.60187,112258
8.60998,105916
8.61812,104829
8.62623,98886
8.63437,94636
8.64248,86709
8.65060,81551
8.65873,76394
8.66685,69666
8.67497,65506
8.68310,66161
8.69122,70729
8.69935,69376
8.70747,69363
8.71558,72603
8.72372,68360
8.73183,66712
8.73997,63158
8.74808,68947
8.75620,92457
8.76433,157342
8.77245,281426
8.78058,523660
8.78870,768397
8.79682,874014
8.80495,752577
8.81307,560161
8.82118,360657
8.82932,229996
8.83743,175585
8.84557,164805
8.85368,159357
8.86180,157392
8.86993,150740
8.87805,144571
8.88618,144056
8.89430,141080
8.90242,127858
8.91055,128614
8.91867,130019
8.92678,136567
8.93492,137920
8.94303,162030
8.95117,164375
8.95928,171461
8.96740,167826
8.97553,154921
8.98365,145866
8.99178,147988
8.99990,144666
9.00802,134981
9.01615,127537
9.02427,121220
9.03240,116066
9.04052,107405
9.04863,102810
9.05677,104335
9.06488,102800
9.07300,104921
9.08113,100038
9.08925,98406
9.09738,105427
9.10550,114593
9.11362,142007
9.12175,147968
9.12987,149160
9.13800,146704
9.14612,130845
9.15423,113478
9.16237,106919
9.17048,101067
9.17862,95513
9.18673,96535
9.19485,96658
9.20298,87082
9.21110,88588
9.21922,92480
9.22735,90355
9.23547,91793
9.24360,94967
9.25172,92552
9.25983,91357
9.26797,86371
9.27608,84754
9.28422,83318
9.29233,85904
9.30045,80865
9.30858,74943
9.31670,80012
9.32482,80874
9.33295,77417
9.34107,75691
9.34920,77785
9.35732,78126
9.36543,74571
9.37357,72002
9.38168,77633
9.38982,82021
9.39793,78684
9.40605,88666
9.41418,94957
9.42230,105160
9.43043,115981
9.43855,121486
9.44667,137525
9.45480,127361
9.46292,113709
9.47103,100002
9.47917,94493
9.48728,88084
9.49542,83646
9.50353,82194
9.51165,87638
9.51978,102330
9.52790,109789
9.53603,114312
9.54415,108839
9.55227,102084
9.56040,89567
9.56852,80886
9.57665,78311
9.58477,85339
9.59288,91478
9.60102,85456
9.60913,82358
9.61725,75616
9.62538,64680
9.63350,55142
9.64163,52409
9.64975,52840
9.65787,50853
9.66600,51217
9.67412,50853
9.68225,46545
9.69037,47044
9.69848,47995
9.70662,44561
9.71473,48330
9.72285,43891
9.73098,44034
9.73910,50116
9.74723,42344
9.75535,44418
9.76347,44003
9.77160,45045
9.77972,45080
9.78785,39918
9.79597,44635
9.80408,41230
9.81222,43125
9.82033,41681
9.82847,39295
9.83658,44570
9.84470,43029
9.85283,42553
9.86095,45836
9.86907,45861
9.87720,47065
9.88532,49807
9.89345,47755
9.90157,46667
9.90968,48918
9.91782,47970
9.92593,54977
9.93407,66197
9.94218,91958
9.95030,118880
9.95843,154812
9.96655,174187
9.97467,159220
9.98280,137804
9.99092,114122
9.99905,93603
10.00717,78106
10.01528,72721
10.02342,63000
10.03153,63076
10.03967,56533
10.04778,58310
10.05590,58293
10.06403,60192
10.07215,62222
10.08028,65772
10.08840,63439
10.09652,62941
10.10465,58682
10.11277,56583
10.12088,53410
10.12902,54141
10.13713,49954
10.14527,55086
10.15338,54161
10.16150,50860
10.16963,50952
10.17775,49936
10.18588,49487
10.19400,48494
10.20212,51930
10.21025,47204
10.21837,50125
10.22650,51521
10.23462,53217
10.24273,60598
10.25087,70192
10.25898,107770
10.26710,227283
10.27523,545555
10.28335,1236582
10.29148,2379065
10.29960,3795224
10.30772,5522299
10.31585,8343825
10.32397,1.262135E+07
10.33210,1.79724E+07
10.34022,2.32766E+07
10.34833,2.524033E+07
10.35647,2.164381E+07
10.36458,1.405803E+07
10.37270,7229235
10.38083,3532999
10.38895,2084637
10.39708,1469673
10.40520,1113188
10.41332,861943
10.42145,712137
10.42957,611665
10.43770,551375
10.44582,520903
10.45393,480373
10.46207,462390
10.47018,424076
10.47832,385543
10.48643,368247
10.49455,347126
10.50268,315498
10.51080,298542
10.51892,283403
10.52705,272987
10.53517,270201
10.54330,260501
10.55142,243765
10.55953,235688
10.56767,227795
10.57578,213725
10.58392,215860
10.59203,209565
10.60015,197639
10.60828,183916
10.61640,179397
10.62453,173940
10.63265,171421
10.64077,163531
10.64890,157177
10.65702,154913
10.66513,148887
10.67327,146747
10.68138,143030
10.68952,143317
10.69763,146463
10.70575,142798
10.71388,142930
10.72200,137579
10.73013,134471
10.73825,131876
10.74637,126707
10.75450,124340
10.76262,117363
10.77073,118681
10.77887,112945
10.78698,111240
10.79512,114045
10.80323,108803
10.81135,109306
10.81948,113325
10.82760,110482
10.83573,109310
10.84385,104361
10.85197,98613
10.86010,93972
10.86822,89560
10.87635,90003
10.88447,90600
10.89258,88956
10.90072,86536
10.90883,82642
10.91695,89615
10.92508,89154
10.93320,87781
10.94133,79139
10.94945,81300
10.95757,85357
10.96570,78153
10.97382,78309
10.98195,82075
10.99007,76257
10.99818,76324
11.00632,79444
11.01443,74520
11.02255,73239
11.03068,77574
11.03880,79385
11.04693,73709
11.05505,70096
11.06317,73031
11.07130,74172
11.07942,79140
11.08755,73024
11.09567,75941
11.10378,74980
11.11192,72606
11.12003,71757
11.12817,62074
11.13628,59880
11.14440,56161
11.15253,50667
11.16065,54087
11.16877,52070
11.17690,57220
11.18502,58189
11.19315,58564
11.20127,62353
11.20938,57231
11.21752,58548
11.22563,51363
11.23377,47155
11.24188,47171
11.25000,45820
11.25813,43081
11.26625,46584
11.27438,48097
11.28250,41599
11.29062,44429
11.29875,51962
11.30687,69461
11.31498,110386
11.32312,187710
11.33123,302796
11.33937,449856
11.34748,552942
11.35560,578327
11.36373,504165
11.37185,386516
11.37998,269834
11.38810,185402
11.39622,148539
11.40435,124324
11.41247,124341
11.42058,113232
11.42872,108749
11.43683,95703
11.44497,89186
11.45308,85138
11.46120,82648
11.46933,76267
11.47745,89348
11.48558,105990
11.49370,135527
11.50182,151237
11.50995,165785
11.51807,151122
11.52620,139363
11.53432,131909
11.54243,122077
11.55057,121569
11.55868,105990
11.56680,101416
11.57493,90173
11.58305,84020
11.59118,87190
11.59930,102734
11.60742,135983
11.61555,177735
11.62367,192866
11.63180,187892
11.63992,162033
11.64803,129664
11.65617,99571
11.66428,89488
11.67242,72964
11.68053,69499
11.68865,65681
11.69678,66512
11.70490,73123
11.71302,66626
11.72115,65443
11.72927,63890
11.73740,61567
11.74552,56116
11.75363,60240
11.76177,55840
11.76988,52660
11.77802,54083
11.78613,57537
11.79425,49821
11.80238,48600
11.81050,47022
11.81862,51391
11.82675,50407
11.83487,52106
11.84300,46806
11.85112,48245
11.85923,47200
11.86737,47975
11.87548,45496
11.88362,45397
11.89173,43428
11.89985,44154
11.90798,49962
11.91610,46972
11.92423,48669
11.93235,58203
11.94047,57196
11.94860,55789
11.95672,50132
11.96483,50018
11.97297,44615
11.98108,46213
11.98922,54608
11.99733,78009
12.00545,87674
12.01358,119131
12.02170,116113
12.02983,109519
12.03795,90808
12.04607,73120
12.05420,68252
12.06232,56106
12.07045,55526
12.07857,59245
12.08668,54135
12.09482,54446
12.10293,57374
12.11105,62142
12.11918,74559
12.12730,93205
12.13543,118062
12.14355,127839
12.15167,125715
12.15980,102747
12.16792,86274
12.17605,69829
12.18417,61402
12.19228,56992
12.20042,57483
12.20853,56895
12.21665,58001
12.22478,55918
12.23290,58543
12.24103,50728
12.24915,52731
12.25727,56804
12.26540,51133
12.27352,53368
12.28165,51716
12.28977,49539
12.29788,47783
12.30602,48545
12.31413,51233
12.32227,44318
12.33038,46009
12.33850,41275
12.34663,47971
12.35475,45483
12.36287,43873
12.37100,44140
12.37912,46249
12.38725,50940
12.39537,52614
12.40348,49169
12.41162,55122
12.41973,71474
12.42787,80168
12.43598,83643
12.44410,81420
12.45223,73502
12.46035,73533
12.46847,64075
12.47660,64818
12.48472,56947
12.49285,58649
12.50097,53194
12.50908,51777
12.51722,51948
12.52533,53870
12.53347,53274
12.54158,64347
12.54970,81487
12.55783,102167
12.56595,114727
12.57408,122138
12.58220,111110
12.59032,98012
12.59845,80884
12.60657,70106
12.61468,64591
12.62282,61942
12.63093,62519
12.63907,61524
12.64718,58571
12.65530,53941
12.66343,46136
12.67155,52450
12.67968,48859
12.68780,52587
12.69592,50777
12.70405,47799
12.71217,43694
12.72030,46086
12.72842,48672
12.73653,49002
12.74467,49757
12.75278,54190
12.76090,51027
12.76903,48838
12.77715,44667
12.78528,44219
12.79340,42349
12.80152,41820
12.80965,41092
12.81777,43910
12.82590,40269
12.83402,36743
12.84213,37428
12.85027,38408
12.85838,40997
12.86650,35271
12.87463,37310
12.88275,38979
12.89088,35263
12.89900,34660
12.90712,36629
12.91525,38338
12.92337,39064
12.93150,35223
12.93962,33436
12.94773,36569
12.95587,35260
12.96398,41694
12.97212,40488
12.98023,49419
12.98835,43425
12.99648,47027
13.00460,44169
13.01272,40997
13.02085,37746
13.02897,41837
13.03710,35618
13.04522,38292
13.05333,38422
13.06147,38079
13.06958,38832
13.07772,36598
13.08583,38009
13.09395,36993
13.10208,39515
13.11020,35732
13.11833,39730
13.12645,38374
13.13457,37352
13.14270,35856
13.15082,40104
13.15893,38221
13.16707,39060
13.17518,38897
13.18332,41703
13.19143,45895
13.19955,41334
13.20768,41512
13.21580,45391
13.22393,44229
13.23205,42919
13.24017,47700
13.24830,40851
13.25642,41527
13.26453,39402
13.27267,39055
13.28078,39177
13.28892,42744
13.29703,37780
13.30515,36079
13.31328,35414
13.32140,36269
13.32953,31562
13.33765,34058
13.34577,34878
13.35390,34770
13.36202,37402
13.37015,34212
13.37827,35861
13.38638,38124
13.39452,35476
13.40263,35056
13.41075,30926
13.41888,34730
13.42700,35384
13.43513,31781
13.44325,33354
13.45137,32364
13.45950,35285
13.46762,34508
13.47575,36392
13.48387,37353
13.49198,34465
13.50012,32654
13.50823,32447
13.51635,37885
13.52448,36935
13.53260,37664
13.54073,38405
13.54885,38863
13.55697,35269
13.56510,40785
13.57322,36974
13.58135,38209
13.58947,42124
13.59758,43104
13.60572,52537
13.61383,56934
13.62197,69639
13.63008,69980
13.63820,68769
13.64633,54750
13.65445,50385
13.66257,40912
13.67070,40576
13.67882,35191
13.68695,33152
13.69507,35045
13.70318,33441
13.71132,32815
13.71943,36455
13.72757,36479
13.73568,34692
13.74380,52393
13.75193,78899
13.76005,138723
13.76818,230402
13.77630,342592
13.78442,432163
13.79255,481204
13.80067,477310
13.80878,422213
13.81692,374030
13.82503,319211
13.83317,309109
13.84128,303547
13.84940,276420
13.85753,241566
13.86565,209875
13.87378,173901
13.88190,145154
13.89002,123592
13.89815,106003
13.90627,93354
13.91438,83786
13.92252,79726
13.93063,77073
13.93877,79818
13.94688,74191
13.95500,68592
13.96313,71957
13.97125,71961
13.97938,76483
13.98750,83797
13.99562,82007
14.00375,83975
14.01187,82093
14.02000,81740
14.02812,75017
14.03623,66185
14.04437,67344
14.05248,64159
14.06060,63648
14.06873,64758
14.07685,62126
14.08498,61095
14.09310,57838
14.10122,57079
14.10935,53714
14.11747,56689
14.12560,52102
14.13372,56595
14.14183,55710
14.14997,61488
14.15808,61910
14.16622,62576
14.17433,62106
14.18245,79457
14.19058,104143
14.19870,144621
14.20682,191249
14.21495,221598
14.22307,233544
14.23120,223103
14.23932,197338
14.24743,188218
14.25557,198300
14.26368,187440
14.27182,177251
14.27993,145662
14.28805,130640
14.29618,117798
14.30430,104521
14.31242,100851
14.32055,89219
14.32867,89331
14.33680,95879
14.34492,79516
14.35303,81779
14.36117,83570
14.36928,70902
14.37742,61770
14.38553,58567
14.39365,56109
14.40178,53932
14.40990,57085
14.41803,58929
14.42615,68540
14.43427,70244
14.44240,62821
14.45052,66604
14.45863,55556
14.46677,50637
14.47488,49625
14.48302,52057
14.49113,49888
14.49925,46471
14.50738,48558
14.51550,48457
14.52363,53371
14.53175,52551
14.53987,53741
14.54800,52281
14.55612,47229
14.56423,45623
14.57237,46863
14.58048,42804
14.58862,43358
14.59673,41293
14.60485,42005
14.61298,41450
14.62110,41226
14.62923,44034
14.63735,39061
14.64547,36312
14.65360,38380
14.66172,38332
14.66985,38354
14.67797,40808
14.68608,37613
14.69422,38463
14.70233,39236
14.71045,37443
14.71858,35767
14.72670,39005
14.73483,38744
14.74295,47752
14.75107,36459
14.75920,44495
14.76732,40732
14.77545,39067
14.78357,51455
14.79168,88883
14.79982,221097
14.80793,575432
14.81607,1325778
14.82418,2555883
14.83230,3783478
14.84043,4354879
14.84855,4123352
14.85667,3189587
14.86480,2087255
14.87292,1329144
14.88105,825612
14.88917,577770
14.89728,420335
14.90542,343549
14.91353,299767
14.92167,258969
14.92978,235143
14.93790,208733
14.94603,205118
14.95415,186460
14.96228,174730
14.97040,159412
14.97852,147518
14.98665,144762
14.99477,140025
15.00288,131706
15.01102,126741
15.01913,124218
15.02727,119958
15.03538,114410
15.04350,109993
15.05163,111037
15.05975,103009
15.06788,106476
15.07600,101897
15.08412,99541
15.09225,86903
15.10037,90230
15.10848,92953
15.11662,86797
15.12473,87920
15.13287,93383
15.14098,103897
15.14910,109690
15.15723,105520
15.16535,94393
15.17348,82688
15.18160,68174
15.18972,61072
15.19785,60781
15.20597,56672
15.21410,48728
15.22222,55961
15.23033,51233
15.23847,50950
15.24658,47014
15.25470,43347
15.26283,40946
15.27095,43970
15.27908,46443
15.28720,42843
15.29532,42526
15.30345,46345
15.31157,40591
15.31970,42604
15.32782,42924
15.33593,42561
15.34407,47489
15.35218,39119
15.36030,37003
15.36843,37316
15.37655,40927
15.38468,45905
15.39280,45816
15.40092,42387
15.40905,39545
15.41717,42148
15.42530,47082
15.43342,43623
15.44153,40097
15.44967,40391
15.45778,44269
15.46592,42154
15.47403,52762
15.48215,60402
15.49028,78911
15.49840,93044
15.50652,108465
15.51465,113624
15.52277,111547
15.53090,118909
15.53902,114215
15.54713,120354
15.55527,116488
15.56338,114489
15.57152,100726
15.57963,74065
15.58775,63735
15.59588,55042
15.60400,49022
15.61213,47030
15.62025,49353
15.62837,48193
15.63650,43350
15.64462,43285
15.65273,42479
15.66087,42196
15.66898,41359
15.67712,42308
15.68523,40706
15.69335,38024
15.70148,38459
15.70960,39068
15.71773,41947
15.72585,41503
15.73397,39004
15.74210,43830
15.75022,46848
15.75833,64281
15.76647,95941
15.77458,163354
15.78272,244025
15.79083,322758
15.79895,348535
15.80708,332356
15.81520,256446
15.82333,180919
15.83145,130198
15.83957,99412
15.84770,80249
15.85582,74568
15.86395,71865
15.87207,65528
15.88018,66960
15.88832,69353
15.89643,67567
15.90455,76805
15.91268,67797
15.92080,65455
15.92893,63026
15.93705,58084
15.94517,57121
15.95330,57245
15.96142,55251
15.96955,54431
15.97767,61736
15.98578,63812
15.99392,61934
16.00203,60447
16.01017,59447
16.01828,60793
16.02640,67076
16.03453,69587
16.04265,66191
16.05077,61616
16.05890,57826
16.06702,52614
16.07515,51197
16.08327,49337
16.09138,41878
16.09952,47489
16.10763,51035
16.11577,44791
16.12388,50243
16.13200,49651
16.14013,52162
16.14825,51115
16.15637,55042
16.16450,49805
16.17262,50768
16.18075,48255
16.18887,46244
16.19698,44294
16.20512,46578
16.21323,47521
16.22137,45491
16.22948,43763
16.23760,44866
16.24573,44402
16.25385,42341
16.26198,43393
16.27010,42495
16.27822,43303
16.28635,44396
16.29447,46297
16.30258,50737
16.31072,50475
16.31883,49148
16.32697,46089
16.33508,45760
16.34320,49222
16.35133,47166
16.35945,57587
16.36758,65051
16.37570,75232
16.38382,80102
16.39195,78374
16.40007,74588
16.40818,67610
16.41632,59910
16.42443,51768
16.43257,57218
16.44068,55781
16.44880,80719
16.45693,138890
16.46505,273130
16.47318,480078
16.48130,740780
16.48942,876673
16.49755,850734
16.50567,682362
16.51380,470876
16.52192,312391
16.53003,198029
16.53817,140853
16.54628,121804
16.55440,104915
16.56253,93774
16.57065,84566
16.57878,82132
16.58690,76986
16.59502,74077
16.60315,76866
16.61127,75941
16.61940,78471
16.62752,79888
16.63563,67647
16.64377,64337
16.65188,59189
16.66002,62240
16.66813,57378
16.67625,59609
16.68438,58576
16.69250,60882
16.70062,56262
16.70875,52788
16.71687,53764
16.72500,50543
16.73312,50714
16.74123,46528
16.74937,48143
16.75748,55457
16.76562,56255
16.77373,56528
16.78185,57587
16.78998,52807
16.79810,50582
16.80622,47614
16.81435,44135
16.82247,45595
16.83060,45371
16.83872,41606
16.84683,49608
16.85497,44431
16.86308,40297
16.87122,41868
16.87933,41919
16.88745,37631
16.89558,38725
16.90370,40723
16.91183,40305
16.91995,39918
16.92807,41342
16.93620,40043
16.94432,41766
16.95243,40492
16.96057,37696
16.96868,38496
16.97682,41795
16.98493,40327
16.99305,38738
17.00118,39567
17.00930,40545
17.01743,38237
17.02555,40188
17.03367,41722
17.04180,42446
17.04992,44910
17.05805,49353
17.06617,46119
17.07428,46034
17.08242,44372
17.09053,48979
17.09865,47797
17.10678,48428
17.11490,51610
17.12303,60054
17.13115,58584
17.13927,59012
17.14740,56262
17.15552,52498
17.16365,50948
17.17177,52334
17.17988,49009
17.18802,45178
17.19613,40245
17.20425,42079
17.21238,38495
17.22050,39917
17.22863,40659
17.23675,39352
17.24487,40923
17.25300,42199
17.26112,40169
17.26925,44385
17.27737,39789
17.28548,40027
17.29362,39259
17.30173,41071
17.30987,38126
17.31798,43074
17.32610,47472
17.33423,51495
17.34235,62082
17.35047,69413
17.35860,71656
17.36672,67477
17.37485,61609
17.38297,60415
17.39108,57400
17.39922,58349
17.40733,54655
17.41547,51840
17.42358,55257
17.43170,53725
17.43983,51399
17.44795,50793
17.45608,51241
17.46420,54308
17.47232,52032
17.48045,45789
17.48857,44519
17.49668,43203
17.50482,41034
17.51293,38890
17.52107,45319
17.52918,41044
17.53730,41720
17.54543,42601
17.55355,45912
17.56168,50935
17.56980,76705
17.57792,113346
17.58605,185478
17.59417,294673
17.60228,406063
17.61042,533490
17.61853,567461
17.62667,541113
17.63478,428031
17.64290,310662
17.65103,226112
17.65915,178814
17.66728,151686
17.67540,128573
17.68352,114691
17.69165,109983
17.69977,98420
17.70790,88954
17.71602,87353
17.72413,83733
17.73227,74581
17.74038,69359
17.74850,70682
17.75663,67818
17.76475,61764
17.77288,62799
17.78100,54788
17.78912,57583
17.79725,60197
17.80537,58887
17.81350,57117
17.82162,70253
17.82973,73375
17.83787,78282
17.84598,79767
17.85410,80998
17.86223,92307
17.87035,86731
17.87848,89340
17.88660,80293
17.89472,70661
17.90285,64220
17.91097,55672
17.91910,54455
17.92722,50908
17.93533,49254
17.94347,52947
17.95158,47331
17.95972,46185
17.96783,45614
17.97595,42826
17.98408,43599
17.99220,47477
18.00032,47404
18.00845,50930
18.01657,55845
18.02470,65203
18.03282,73471
18.04093,87482
18.04907,96025
18.05718,99710
18.06532,93254
18.07343,101841
18.08155,123096
18.08968,156010
18.09780,186386
18.10593,199317
18.11405,189737
18.12217,168051
18.13030,149517
18.13842,128378
18.14653,113024
18.15467,114902
18.16278,106574
18.17092,99958
18.17903,90463
18.18715,87027
18.19528,87602
18.20340,78751
18.21153,72245
18.21965,70919
18.22777,70550
18.23590,66951
18.24402,67477
18.25213,71052
18.26027,66439
18.26838,63212
18.27652,64513
18.28463,61114
18.29275,52832
18.30088,48844
18.30900,48965
18.31713,46099
18.32525,40926
18.33337,44775
18.34150,46431
18.34962,41030
18.35775,41069
18.36587,40683
18.37398,41480
18.38212,40703
18.39023,41973
18.39835,38779
18.40648,45586
18.41460,44829
18.42273,47775
18.43085,49868
18.43897,56873
18.44710,63769
18.45522,81079
18.46335,101464
18.47147,131621
18.47958,175067
18.48772,191938
18.49583,201183
18.50397,172970
18.51208,149676
18.52020,121860
18.52833,91639
18.53645,80769
18.54457,71571
18.55270,66173
18.56082,63879
18.56895,57644
18.57707,51965
18.58518,55785
18.59332,56962
18.60143,57555
18.60957,58142
18.61768,57753
18.62580,55608
18.63393,61215
18.64205,56470
18.65017,52640
18.65830,55849
18.66642,58000
18.67455,69907
18.68267,93395
18.69078,121847
18.69892,133034
18.70703,139380
18.71517,150905
18.72328,162662
18.73140,160201
18.73953,170974
18.74765,169997
18.75578,164937
18.76390,180473
18.77202,172840
18.78015,171056
18.78827,173891
18.79638,177984
18.80452,171704
18.81263,172663
18.82077,171394
18.82888,168437
18.83700,173702
18.84513,173096
18.85325,168471
18.86138,174761
18.86950,164142
18.87762,172240
18.88575,167424
18.89387,163095
18.90198,168358
18.91012,171619
18.91823,168777
18.92637,164756
18.93448,172992
18.94260,176986
18.95073,177432
18.95885,181445
18.96698,178180
18.97510,184074
18.98322,180933
18.99135,172949
18.99947,166062
19.00760,165092
19.01572,161363
19.02383,161033
19.03197,159634
19.04008,155609
19.04820,160119
19.05633,165542
19.06445,194864
19.07258,276800
19.08070,481738
19.08882,814832
19.09695,1336541
19.10507,1843379
19.11320,2126662
19.12132,2020806
19.12943,1663315
19.13757,1187879
19.14568,823247
19.15382,565167
19.16193,417684
19.17005,314207
19.17818,270534
19.18630,246224
19.19442,228172
19.20255,214968
19.21067,197296
19.21880,181635
19.22692,170458
19.23503,172073
19.24317,160257
19.25128,154655
19.25942,150244
19.26753,148732
19.27565,151144
19.28378,146851
19.29190,159517
19.30002,170114
19.30815,160283
19.31627,156336
19.32440,154149
19.33252,146150
19.34063,149463
19.34877,151609
19.35688,156053
19.36502,170900
19.37313,191126
19.38125,204290
19.38938,193150
19.39750,185586
19.40563,163834
19.41375,147301
19.42187,138475
19.43000,132767
19.43812,130863
19.44623,126344
19.45437,120891
19.46248,123342
19.47062,120956
19.47873,124488
19.48685,130057
19.49498,151233
19.50310,175363
19.51123,199415
19.51935,230281
19.52747,238753
19.53560,227967
19.54372,192772
19.55185,165831
19.55997,144604
19.56808,130469
19.57622,119584
19.58433,110593
19.59245,108201
19.60058,110254
19.60870,110024
19.61683,102649
19.62495,101543
19.63307,112871
19.64120,121266
19.64932,142951
19.65745,177254
19.66557,236294
19.67368,294961
19.68182,336027
19.68993,349091
19.69805,329870
19.70618,302936
19.71430,261679
19.72243,232837
19.73055,207623
19.73867,186745
19.74680,172558
19.75492,153600
19.76305,142886
19.77117,130475
19.77928,128088
19.78742,125230
19.79553,136730
19.80367,140361
19.81178,134526
19.81990,131941
19.82803,124739
19.83615,121181
19.84427,107764
19.85240,107102
19.86052,108134
19.86865,114986
19.87677,139885
19.88488,195017
19.89302,254365
19.90113,322765
19.90927,369233
19.91738,412132
19.92550,390751
19.93363,363046
19.94175,320524
19.94987,299237
19.95800,275665
19.96612,251232
19.97425,253527
19.98237,242064
19.99048,236593
19.99862,225792
20.00673,219712
20.01487,214435
20.02298,211095
20.03110,210837
20.03923,190982
20.04735,183236
20.05548,168060
20.06360,149002
20.07172,144180
20.07985,135572
20.08797,128922
20.09608,131708
20.10422,124925
20.11233,119651
20.12047,116339
20.12858,109021
20.13670,103014
20.14483,101714
20.15295,102894
20.16108,110445
20.16920,121898
20.17732,141850
20.18545,162197
20.19357,180357
20.20170,187376
20.20982,178858
20.21793,174458
20.22607,156478
20.23418,147632
20.24230,144881
20.25043,166983
20.25855,201216
20.26668,279309
20.27480,365014
20.28292,450811
20.29105,504198
20.29917,504989
20.30730,452744
20.31542,367964
20.32353,279081
20.33167,237133
20.33978,193902
20.34792,154667
20.35603,136462
20.36415,116098
20.37228,112723
20.38040,103593
20.38852,95626
20.39665,93640
20.40477,92487
20.41290,92510
20.42102,95834
20.42913,96448
20.43727,97952
20.44538,108731
20.45352,115081
20.46163,112732
20.46975,108398
20.47788,106963
20.48600,103798
20.49412,92326
20.50225,82536
20.51037,80256
20.51850,77810
20.52662,76156
20.53473,74421
20.54287,71242
20.55098,76874
20.55912,72904
20.56723,77360
20.57535,72007
20.58348,72955
20.59160,67224
20.59973,70728
20.60785,67838
20.61597,64871
20.62410,64423
20.63222,69116
20.64033,65651
20.64847,65537
20.65658,67706
20.66472,65467
20.67283,70336
20.68095,65581
20.68908,65883
20.69720,61191
20.70533,63144
20.71345,62976
20.72157,61587
20.72970,62568
20.73782,63951
20.74593,61734
20.75407,61615
20.76218,62771
20.77032,66606
20.77843,71172
20.78655,83234
20.79468,101914
20.80280,136405
20.81093,189307
20.81905,246179
20.82717,264848
20.83530,245291
20.84342,208277
20.85155,163993
20.85967,122807
20.86778,103423
20.87592,87506
20.88403,81227
20.89215,76941
20.90028,72557
20.90840,74242
20.91653,71811
20.92465,70521
20.93277,68698
20.94090,72176
20.94902,73387
20.95715,73829
20.96527,66946
20.97338,71522
20.98152,67694
20.98963,63677
20.99777,70320
21.00588,62667
21.01400,64563
21.02213,67822
21.03025,66686
21.03837,65973
21.04650,66516
21.05462,67261
21.06275,68937
21.07087,66357
21.07898,69834
21.08712,67350
21.09523,70233
21.10337,67464
21.11148,62824
21.11960,66235
21.12773,69553
21.13585,75051
21.14397,86496
21.15210,108951
21.16022,129542
21.16835,149100
21.17647,146740
21.18458,136006
21.19272,121978
21.20083,101452
21.20897,86910
21.21708,80164
21.22520,75291
21.23333,67608
21.24145,72498
21.24958,69884
21.25770,67925
21.26582,63168
21.27395,59479
21.28207,62164
21.29018,63395
21.29832,60098
21.30643,57376
21.31457,64907
21.32268,57882
21.33080,53158
21.33893,52574
21.34705,53918
21.35518,54394
21.36330,51912
21.37142,54159
21.37955,54938
21.38767,57886
21.39580,60144
21.40392,62444
21.41203,58329
21.42017,60977
21.42828,62655
21.43640,59587
21.44453,65318
21.45265,56534
21.46078,55855
21.46890,55636
21.47702,49148
21.48515,51802
21.49327,52940
21.50140,53264
21.50952,52981
21.51763,45425
21.52577,47957
21.53388,48491
21.54200,53376
21.55013,47429
21.55825,56100
21.56638,49728
21.57450,49085
21.58262,52406
21.59075,59965
21.59887,65000
21.60700,61498
21.61512,65158
21.62323,65085
21.63137,69976
21.63948,79953
21.64762,92424
21.65573,96885
21.66385,96911
21.67198,94354
21.68010,94951
21.68822,82638
21.69635,78776
21.70447,69304
21.71260,69505
21.72072,65070
21.72883,59299
21.73697,59690
21.74508,58848
21.75322,54309
21.76133,54721
21.76945,50242
21.77758,53401
21.78570,54829
21.79382,53070
21.80195,53612
21.81007,57307
21.81820,56754
21.82632,64600
21.83443,71698
21.84257,80317
21.85068,82506
21.85882,85570
21.86693,81723
21.87505,70622
21.88318,66354
21.89130,62641
21.89943,53141
21.90755,53747
21.91567,52753
21.92380,50236
21.93192,53003
21.94003,50156
21.94817,51101
21.95628,48290
21.96442,49883
21.97253,46308
21.98065,46235
21.98878,42219
21.99690,44401
22.00503,44977
22.01315,44078
22.02127,44988
22.02940,48516
22.03752,48158
22.04565,47810
22.05377,52235
22.06188,51764
22.07002,52464
22.07813,58684
22.08625,70276
22.09438,69188
22.10250,73110
22.11063,76105
22.11875,84950
22.12687,87231
22.13500,89849
22.14312,88011
22.15125,88583
22.15937,88792
22.16748,90041
22.17562,93467
22.18373,88368
22.19185,83533
22.19998,87511
22.20810,90958
22.21623,92021
22.22435,90702
22.23247,91912
22.24060,91246
22.24872,93373
22.25685,90088
22.26497,92545
22.27308,91395
22.28122,92297
22.28933,92514
22.29747,86697
22.30558,87505
22.31370,78920
22.32183,74626
22.32995,73160
22.33807,72712
22.34620,73402
22.35432,69036
22.36245,70404
22.37057,70577
22.37868,61464
22.38682,68222
22.39493,71167
22.40307,87129
22.41118,101761
22.41930,115562
22.42743,125025
22.43555,128383
22.44368,115465
22.45180,99469
22.45992,86730
22.46805,78131
22.47617,68609
22.48428,67912
22.49242,76459
22.50053,79536
22.50867,80131
22.51678,81591
22.52490,78735
22.53303,78282
22.54115,75540
22.54928,66285
22.55740,63684
22.56552,61117
22.57365,52925
22.58177,55947
22.58988,59115
22.59802,59418
22.60613,74773
22.61427,90084
22.62238,109250
22.63050,116330
22.63863,121919
22.64675,127531
22.65488,129354
22.66300,134354
22.67112,137278
22.67925,147117
22.68737,151062
22.69550,166766
22.70362,175403
22.71173,198556
22.71987,201493
22.72798,218775
22.73610,210259
22.74423,203656
22.75235,190060
22.76048,172971
22.76860,167139
22.77672,171943
22.78485,177780
22.79297,185341
22.80110,212766
22.80922,226553
22.81733,236471
22.82547,225737
22.83358,221193
22.84172,201087
22.84983,189436
22.85795,190159
22.86608,170022
22.87420,164731
22.88232,174898
22.89045,187220
22.89857,184862
22.90670,195731
22.91482,196521
22.92293,214547
22.93107,217999
22.93918,216078
22.94732,209684
22.95543,194794
22.96355,182570
22.97168,169014
22.97980,156609
22.98792,145159
22.99605,150005
23.00417,147777
23.01230,147646
23.02042,132187
23.02853,128663
23.03667,134423
23.04478,121053
23.05292,130430
23.06103,128531
23.06915,128161
23.07728,127343
23.08540,122615
23.09353,121441
23.10165,121257
23.10977,117154
23.11790,110601
23.12602,115401
23.13413,116969
23.14227,117637
23.15038,105999
23.15852,111089
23.16663,113508
23.17475,108532
23.18288,109214
23.19100,109770
23.19913,110437
23.20725,110977
23.21537,107871
23.22350,101903
23.23162,101680
23.23973,105887
23.24787,106701
23.25598,108716
23.26412,103446
23.27223,108627
23.28035,116097
23.28848,109601
23.29660,105608
23.30473,102793
23.31285,102838
23.32097,98976
23.32910,101342
23.33722,102029
23.34535,118154
23.35347,130203
23.36158,149912
23.36972,178806
23.37783,182192
23.38595,200612
23.39408,216452
23.40220,230023
23.41033,245629
23.41845,239311
23.42657,252700
23.43470,251852
23.44282,237136
23.45095,229908
23.45907,220427
23.46718,216622
23.47532,201206
23.48343,192802
23.49157,183315
23.49968,179066
23.50780,173793
23.51593,164121
23.52405,160576
23.53217,156738
23.54030,142182
23.54842,151117
23.55655,147717
23.56467,158439
23.57278,166129
23.58092,180946
23.58903,214177
23.59717,254247
23.60528,276490
23.61340,292703
23.62153,279199
23.62965,247699
23.63777,212636
23.64590,186810
23.65402,185698
23.66215,174085
23.67027,180150
23.67838,164470
23.68652,165914
23.69463,147396
23.70277,131809
23.71088,124474
23.71900,114653
23.72713,119590
23.73525,104502
23.74338,108889
23.75150,129667
23.75962,190463
23.76775,328964
23.77587,612761
23.78398,1002428
23.79212,1479517
23.80023,1791311
23.80837,1900018
23.81648,1752000
23.82460,1469219
23.83273,1144482
23.84085,885291
23.84898,691945
23.85710,561560
23.86522,462852
23.87335,390209
23.88147,346304
23.88960,297238
23.89772,282509
23.90583,255787
23.91397,249833
23.92208,232794
23.93020,223662
23.93833,214118
23.94645,197865
23.95458,179829
23.96270,166815
23.97082,160694
23.97895,157020
23.98707,146944
23.99520,136807
24.00332,145569
24.01143,163091
24.01957,200384
24.02768,250723
24.03580,317558
24.04393,330954
24.05205,311958
24.06018,267470
24.06830,200012
24.07642,160489
24.08455,131577
24.09267,118002
24.10080,109596
24.10892,108292
24.11703,99327
24.12517,103370
24.13328,108492
24.14142,108407
24.14953,122124
24.15765,122067
24.16578,126379
24.17390,127651
24.18202,113856
24.19015,119308
24.19827,103467
24.20640,106736
24.21452,107865
24.22263,106486
24.23077,100071
24.23888,93207
24.24702,94867
24.25513,86494
24.26325,85035
24.27138,77823
24.27950,79248
24.28762,76585
24.29575,74174
24.30387,80685
24.31200,77303
24.32012,75119
24.32823,78777
24.33637,89581
24.34448,103840
24.35262,127610
24.36073,147708
24.36885,167619
24.37698,177447
24.38510,193161
24.39323,213090
24.40135,235271
24.40947,253153
24.41760,249316
24.42572,253664
24.43383,245862
24.44197,225646
24.45008,207418
24.45822,211658
24.46633,210045
24.47445,218092
24.48258,209188
24.49070,217261
24.49883,222033
24.50695,225275
24.51507,230502
24.52320,231553
24.53132,241801
24.53945,239211
24.54757,242536
24.55568,225196
24.56382,233645
24.57193,218400
24.58005,214562
24.58818,212277
24.59630,210388
24.60443,204696
24.61255,203659
24.62067,197422
24.62880,185004
24.63692,190033
24.64505,184635
24.65317,178739
24.66128,175276
24.66942,176079
24.67753,175848
24.68567,172204
24.69378,173342
24.70190,172858
24.71003,168958
24.71815,167499
24.72627,167608
24.73440,166190
24.74252,155987
24.75065,162911
24.75877,177339
24.76688,170208
24.77502,170646
24.78313,175718
24.79127,186163
24.79938,183157
24.80750,189095
24.81563,200738
24.82375,198540
24.83187,213832
24.84000,230089
24.84812,243143
24.85625,269116
24.86437,317374
24.87248,392642
24.88062,489090
24.88873,594711
24.89687,622156
24.90498,620950
24.91310,576816
24.92123,491636
24.92935,391298
24.93748,313069
24.94560,261487
24.95372,210196
24.96185,198456
24.96997,192669
24.97808,183393
24.98622,181180
24.99433,185184
25.00247,174311
25.01058,164919
25.01870,167470
25.02683,164946
25.03495,167991
25.04308,156623
25.05120,164856
25.05932,154556
25.06745,154532
25.07557,151539
25.08368,155278
25.09182,159609
25.09993,185462
25.10807,253852
25.11618,436737
25.12430,769981
25.13243,1339647
25.14055,1975905
25.14868,2470431
25.15680,2588477
25.16492,2319910
25.17305,1809711
25.18117,1263553
25.18930,808077
25.19742,523340
25.20553,347150
25.21367,243044
25.22178,196297
25.22990,164266
25.23803,161712
25.24615,184628
25.25428,235211
25.26240,305453
25.27052,396736
25.27865,436190
25.28677,443489
25.29490,410089
25.30302,336178
25.31113,251231
25.31927,187034
25.32738,152584
25.33552,121948
25.34363,104422
25.35175,93661
25.35988,87047
25.36800,88405
25.37612,83212
25.38425,76972
25.39237,73931
25.40050,76422
25.40862,68907
25.41673,65861
25.42487,67851
25.43298,69739
25.44112,66460
25.44923,66722
25.45735,65876
25.46548,68519
25.47360,65983
25.48172,67206
25.48985,68743
25.49797,66245
25.50610,62807
25.51422,64658
25.52233,63708
25.53047,64705
25.53858,56694
25.54672,61863
25.55483,59578
25.56295,60370
25.57108,58277
25.57920,58092
25.58733,56109
25.59545,61637
25.60357,62340
25.61170,68921
25.61982,94615
25.62793,118013
25.63607,151829
25.64418,177091
25.65232,198843
25.66043,212679
25.66855,214950
25.67668,206993
25.68480,204503
25.69293,205548
25.70105,205346
25.70917,207140
25.71730,210662
25.72542,208627
25.73355,205089
25.74167,209663
25.74978,199913
25.75792,214808
25.76603,204335
25.77415,213423
25.78228,208065
25.79040,212472
25.79853,212677
25.80665,205760
25.81477,204177
25.82290,210510
25.83102,201781
25.83915,208467
25.84727,200737
25.85538,209312
25.86352,199846
25.87163,200887
25.87975,198906
25.88788,197912
25.89600,193620
25.90413,183999
25.91225,192171
25.92037,180030
25.92850,183929
25.93662,178056
25.94475,185039
25.95287,175172
25.96098,174421
25.96912,174020
25.97723,173837
25.98537,165430
25.99348,164003
26.00160,160715
26.00973,163847
26.01785,154419
26.02597,156152
26.03410,155267
26.04222,155167
26.05035,152149
26.05847,153080
26.06658,146472
26.07472,154437
26.08283,147336
26.09097,147830
26.09908,149991
26.10720,154910
26.11533,152930
26.12345,149297
26.13157,156589
26.13970,154895
26.14782,154097
26.15595,156125
26.16407,149634
26.17218,152309
26.18032,148561
26.18843,144010
26.19657,138373
26.20468,138607
26.21280,132378
26.22093,137056
26.22905,137854
26.23718,132908
26.24530,131235
26.25342,130387
26.26155,125225
26.26967,129157
26.27778,128161
26.28592,124101
26.29403,120669
26.30217,123863
26.31028,123129
26.31840,121436
26.32653,115253
26.33465,116809
26.34278,117516
26.35090,120841
26.35902,126849
26.36715,126700
26.37527,136530
26.38340,151182
26.39152,167260
26.39963,171245
26.40777,180558
26.41588,172867
26.42400,165561
26.43213,160109
26.44025,142115
26.44838,124714
26.45650,120951
26.46462,119176
26.47275,116977
26.48087,110253
26.48900,111076
26.49712,108542
26.50523,108327
26.51337,109946
26.52148,105421
26.52960,103198
26.53773,97565
26.54585,102152
26.55398,100682
26.56210,99212
26.57022,90316
26.57835,94191
26.58647,90135
26.59460,91603
26.60272,85296
26.61083,87350
26.61897,90027
26.62708,89626
26.63522,90325
26.64333,86263
26.65145,86202
26.65958,85520
26.66770,89390
26.67582,91114
26.68395,95382
26.69207,85322
26.70020,86995
26.70832,79505
26.71643,77082
26.72457,81221
26.73268,75177
26.74082,74510
26.74893,76644
26.75705,71952
26.76518,75637
26.77330,72242
26.78143,73793
26.78955,75729
26.79767,73022
26.80580,75594
26.81392,74920
26.82203,77807
26.83017,72514
26.83828,71601
26.84642,74996
26.85453,65358
26.86265,68289
26.87078,70391
26.87890,65784
26.88703,65730
26.89515,64500
26.90327,65381
26.91140,60979
26.91952,62401
26.92763,63037
26.93577,59278
26.94388,59989
26.95202,63141
26.96013,67607
26.96825,59120
26.97638,73123
26.98450,84777
26.99263,118643
27.00075,159523
27.00887,221263
27.01700,287219
27.02512,339185
27.03325,389215
27.04137,384941
27.04948,368275
27.05762,328694
27.06573,293728
27.07385,243718
27.08198,213404
27.09010,182389
27.09823,160558
27.10635,140812
27.11447,141882
27.12260,131301
27.13072,122809
27.13885,122042
27.14697,115217
27.15508,115155
27.16322,114421
27.17133,115101
27.17945,115769
27.18758,111367
27.19570,120269
27.20383,117141
27.21195,111093
27.22007,99252
27.22820,98732
27.23632,96822
27.24445,91352
27.25257,82605
27.26068,80731
27.26882,77561
27.27693,76928
27.28507,72221
27.29318,76246
27.30130,68608
27.30943,70888
27.31755,67300
27.32567,68158
27.33380,67552
27.34192,66396
27.35005,68897
27.35817,62819
27.36628,66972
27.37442,68892
27.38253,72654
27.39067,70093
27.39878,66452
27.40690,67955
27.41503,63458
27.42315,61959
27.43128,62153
27.43940,59692
27.44752,63480
27.45565,60068
27.46377,66342
27.47188,57256
27.48002,61397
27.48813,57713
27.49627,57582
27.50438,56514
27.51250,58846
27.52063,57384
27.52875,60043
27.53688,61444
27.54500,63070
27.55312,65090
27.56125,65098
27.56937,59475
27.57748,65450
27.58562,74261
27.59373,76076
27.60187,80924
27.60998,81402
27.61810,81687
27.62623,77062
27.63435,70187
27.64248,63998
27.65060,57733
27.65872,60220
27.66685,55275
27.67497,54227
27.68310,57243
27.69122,55034
27.69933,56520
27.70747,55469
27.71558,51575
27.72370,55316
27.73183,52360
27.73995,54495
27.74808,53569
27.75620,55837
27.76432,53759
27.77245,67071
27.78057,74895
27.78870,79007
27.79682,85360
27.80493,83898
27.81307,77164
27.82118,73462
27.82932,65504
27.83743,59501
27.84555,54848
27.85368,58072
27.86180,53123
27.86992,52874
27.87805,50914
27.88617,51882
27.89430,52323
27.90242,48449
27.91053,51184
27.91867,47977
27.92678,46763
27.93492,49088
27.94303,53655
27.95115,47079
27.95928,50239
27.96740,47289
27.97552,47731
27.98365,53231
27.99177,56205
27.99990,50035
28.00802,57560
28.01613,55016
28.02427,57732
28.03238,59583
28.04052,60741
28.04863,60821
28.05675,61390
28.06488,61842
28.07300,58620
28.08113,57544
28.08925,59206
28.09737,53203
28.10550,52404
28.11362,53681
28.12173,47243
28.12987,50958
28.13798,48942
28.14612,45786
28.15423,48051
28.16235,44803
28.17048,45214
28.17860,44595
28.18673,53741
28.19485,55041
28.20297,62432
28.21110,73855
28.21922,72898
28.22735,83470
28.23547,77691
28.24358,78372
28.25172,74325
28.25983,61070
28.26795,58408
28.27608,51226
28.28420,52626
28.29233,49118
28.30045,50223
28.30857,52017
28.31670,57549
28.32482,62415
28.33295,74437
28.34107,75470
28.34918,80578
28.35732,88836
28.36543,100410
28.37355,116778
28.38168,117874
28.38980,133420
28.39793,125212
28.40605,137918
28.41417,137124
28.42230,128976
28.43042,128150
28.43855,121347
28.44667,110215
28.45478,101389
28.46292,98506
28.47103,96096
28.47917,92776
28.48728,88900
28.49540,83525
28.50353,83294
28.51165,83519
28.51977,87612
28.52790,79808
28.53602,76498
28.54415,74645
28.55227,74954
28.56038,66222
28.56852,63259
28.57663,66301
28.58477,62327
28.59288,61571
28.60100,61386
28.60913,63618
28.61725,64551
28.62537,63667
28.63350,68823
28.64162,66961
28.64975,63789
28.65787,70869
28.66598,69123
28.67412,76441
28.68223,72979
28.69037,69364
28.69848,63357
28.70660,59152
28.71473,57991
28.72285,55360
28.73098,60041
28.73910,56743
28.74722,55701
28.75535,61174
28.76347,64500
28.77158,67372
28.77972,75683
28.78783,81682
28.79597,82273
28.80408,72191
28.81220,75840
28.82033,68645
28.82845,67005
28.83658,62513
28.84470,60885
28.85282,59648
28.86095,54564
28.86907,59071
28.87720,58314
28.88532,61584
28.89343,62326
28.90157,69815
28.90968,72234
28.91780,60992
28.92593,66005
28.93405,61126
28.94218,62768
28.95030,58226
28.95842,61781
28.96655,62665
28.97467,59694
28.98280,55409
28.99092,54829
28.99903,55083
29.00717,55816
29.01528,50555
29.02340,51900
29.03153,50326
29.03965,48698
29.04778,53852
29.05590,52352
29.06402,55102
29.07215,53267
29.08027,62829
29.08840,62207
29.09652,61818
29.10463,59976
29.11277,56761
29.12088,55356
29.12902,54707
29.13713,47120
29.14525,50108
29.15338,51022
29.16150,50129
29.16962,50359
29.17775,55486
29.18587,59770
29.19400,61979
29.20212,74909
29.21023,77443
29.21837,85454
29.22648,91397
29.23462,87769
29.24273,83625
29.25085,81859
29.25898,92251
29.26710,97659
29.27523,96510
29.28335,95444
29.29147,84487
29.29960,74907
29.30772,67222
29.31583,59946
29.32397,53274
29.33208,51118
29.34022,50018
29.34833,46700
29.35645,49565
29.36458,41662
29.37270,51137
29.38083,48879
29.38895,45585
29.39707,49598
29.40520,47584
29.41332,49384
29.42143,50513
29.42957,51613
29.43768,51163
29.44582,51164
29.45393,50176
29.46205,50440
29.47018,50329
29.47830,46811
29.48643,50286
29.49455,52943
29.50267,52771
29.51080,55807
29.51892,54665
29.52705,56567
29.53517,52845
29.54328,48784
29.55142,47000
29.55953,45495
29.56765,45957
29.57578,49172
29.58390,48883
29.59203,46676
29.60015,44554
29.60827,44459
29.61640,42288
29.62452,50683
29.63265,49205
29.64077,51534
29.64888,48591
29.65702,47601
29.66513,46796
29.67325,45123
29.68138,43493
29.68950,48317
29.69763,54824
29.70575,47448
29.71387,43498
29.72200,50001
29.73012,48888
29.73825,46102
29.74637,42728
29.75448,43953
29.76262,46002
29.77073,41296
29.77887,42164
29.78698,39391
29.79510,43621
29.80323,40220
29.81135,38694
29.81947,38239
29.82760,40946
29.83572,41234
29.84385,41177
29.85197,41905
29.86008,46674
29.86822,48059
29.87633,64420
29.88447,86675
29.89258,115330
29.90070,152724
29.90883,157611
29.91695,152804
29.92508,126269
29.93320,101194
29.94132,81140
29.94945,61388
29.95757,58687
29.96568,56082
29.97382,58984
29.98193,60903
29.99007,65052
29.99818,69202
30.00630,74345
30.01443,79710
30.02255,81028
30.03068,80693
30.03880,77804
30.04692,82304
30.05505,95950
30.06317,91425
30.07130,86418
30.07942,83616
30.08753,84855
30.09567,86848
30.10378,87047
30.11190,79924
30.12003,86878
30.12815,77211
30.13628,71345
30.14440,72667
30.15252,71607
30.16065,69038
30.16877,72685
30.17690,67729
30.18502,66019
30.19313,67870
30.20127,63737
30.20938,65242
30.21750,57075
30.22563,67369
30.23375,58902
30.24188,56385
30.25000,55444
30.25812,56924
30.26625,55155
30.27437,52796
30.28250,47961
30.29062,56784
30.29873,53306
30.30687,51341
30.31498,49746
30.32312,47060
30.33123,49727
30.33935,48873
30.34748,52916
30.35560,50218
30.36372,53046
30.37185,50638
30.37997,49029
30.38810,47444
30.39622,46372
30.40433,48207
30.41247,46221
30.42058,46725
30.42872,47614
30.43683,49599
30.44495,44081
30.45308,48475
30.46120,43703
30.46932,41890
30.47745,46015
30.48557,48970
30.49370,47257
30.50182,49536
30.50993,46269
30.51807,46331
30.52618,48637
30.53432,44293
30.54243,48395
30.55055,46540
30.55868,45558
30.56680,45159
30.57493,45713
30.58305,46038
30.59117,46004
30.59930,44061
30.60742,43269
30.61553,43256
30.62367,47328
30.63178,42315
30.63992,42182
30.64803,45004
30.65615,42536
30.66428,41698
30.67240,42761
30.68053,47851
30.68865,38496
30.69677,43722
30.70490,41561
30.71302,45322
30.72115,41187
30.72927,44784
30.73738,44373
30.74552,43158
30.75363,41955
30.76175,42626
30.76988,55603
30.77800,62721
30.78613,79291
30.79425,121220
30.80237,171087
30.81050,212715
30.81862,226617
30.82675,216531
30.83487,172645
30.84298,134788
30.85112,101026
30.85923,75588
30.86735,64486
30.87548,57090
30.88360,50922
30.89173,50927
30.89985,50090
30.90797,51939
30.91610,49689
30.92422,51033
30.93235,45042
30.94047,42240
30.94858,43469
30.95672,49816
30.96483,45939
30.97297,49030
30.98108,48632
30.98920,44522
30.99733,46613
31.00545,43145
31.01357,43056
31.02170,42952
31.02982,45422
31.03795,45979
31.04607,47950
31.05418,56828
31.06232,56770
31.07043,55298
31.07857,58533
31.08668,67102
31.09480,67818
31.10293,78204
31.11105,83389
31.11918,81584
31.12730,79959
31.13542,76214
31.14355,68689
31.15167,73119
31.15978,67572
31.16792,70779
31.17603,70479
31.18417,86752
31.19228,94231
31.20040,109298
31.20853,129132
31.21665,160529
31.22478,173257
31.23290,181651
31.24102,165366
31.24915,149338
31.25727,119639
31.26538,109227
31.27352,86834
31.28163,72695
31.28977,70261
31.29788,66392
31.30600,67077
31.31413,66224
31.32225,62814
31.33038,63810
31.33850,66293
31.34662,66716
31.35475,65220
31.36287,64522
31.37100,63437
31.37912,67617
31.38723,67005
31.39537,63082
31.40348,63936
31.41160,64536
31.41973,64050
31.42785,63349
31.43598,62626
31.44410,60224
31.45222,62834
31.46035,66604
31.46847,61953
31.47660,67660
31.48472,67812
31.49283,67321
31.50097,72841
31.50908,72097
31.51720,62301
31.52533,66044
31.53345,61085
31.54158,60967
31.54970,60823
31.55782,62173
31.56595,68576
31.57407,67854
31.58220,65664
31.59032,65616
31.59843,62171
31.60657,61574
31.61468,59151
31.62282,54487
31.63093,56207
31.63905,54918
31.64718,56051
31.65530,55525
31.66342,57501
31.67155,56955
31.67967,58952
31.68780,61338
31.69592,58474
31.70403,53672
31.71217,55686
31.72028,58341
31.72842,53080
31.73653,52571
31.74465,50871
31.75278,49299
31.76090,51791
31.76903,49667
31.77715,50805
31.78527,50910
31.79340,59245
31.80152,52495
31.80963,56658
31.81777,52052
31.82588,54322
31.83402,49234
31.84213,50607
31.85025,48703
31.85838,53964
31.86650,54163
31.87463,51963
31.88275,53665
31.89087,52774
31.89900,55549
31.90712,59854
31.91523,63730
31.92337,62049
31.93148,62654
31.93962,69490
31.94773,69055
31.95585,73606
31.96398,77255
31.97210,79019
31.98023,85522
31.98835,85386
31.99647,89916
32.00460,81546
32.01272,86683
32.02085,84761
32.02897,87224
32.03708,88986
32.04522,81735
32.05333,78179
32.06145,78501
32.06958,77763
32.07770,77119
32.08583,75076
32.09395,69880
32.10207,66120
32.11020,67955
32.11832,63019
32.12645,59511
32.13457,59243
32.14268,60038
32.15082,54382
32.15893,58147
32.16707,55160
32.17518,55971
32.18330,57439
32.19143,56560
32.19955,53716
32.20767,57135
32.21580,56275
32.22392,51850
32.23205,52974
32.24017,54928
32.24828,53058
32.25642,53223
32.26453,59685
32.27267,57986
32.28078,56640
32.28890,53915
32.29703,56479
32.30515,52287
32.31327,51932
32.32140,52999
32.32952,52373
32.33765,49266
32.34577,56832
32.35388,55906
32.36202,49837
32.37013,55101
32.37827,53168
32.38638,46300
32.39450,52037
32.40263,49054
32.41075,50755
32.41888,46891
32.42700,46217
32.43512,48156
32.44325,45888
32.45137,47079
32.45948,47348
32.46762,47415
32.47573,43747
32.48387,45050
32.49198,46743
32.50010,48079
32.50823,45627
32.51635,46129
32.52448,44694
32.53260,43546
32.54072,42277
32.54885,45891
32.55697,51488
32.56508,51888
32.57322,47239
32.58133,49579
32.58947,50107
32.59758,48626
32.60570,48699
32.61383,45409
32.62195,42160
32.63008,45637
32.63820,47327
32.64632,47640
32.65445,49329
32.66257,59017
32.67070,55464
32.67882,57642
32.68693,59363
32.69507,59498
32.70318,54364
32.71130,53698
32.71943,48587
32.72755,48240
32.73568,46370
32.74380,46600
32.75192,46870
32.76005,48483
32.76817,45414
32.77630,46678
32.78442,49101
32.79253,46209
32.80067,43519
32.80878,41236
32.81692,45224
32.82503,43548
32.83315,43938
32.84128,42872
32.84940,45727
32.85752,41963
32.86565,41758
32.87377,41911
32.88190,39200
32.89002,41894
32.89813,45926
32.90627,43076
32.91438,41192
32.92252,46272
32.93063,45074
32.93875,48439
32.94688,48702
32.95500,46407
32.96312,47015
32.97125,52738
32.97937,62571
32.98750,74122
32.99562,87681
33.00373,99284
33.01187,107921
33.01998,103200
33.02812,94955
33.03623,80809
33.04435,70850
33.05248,66234
33.06060,61219
33.06873,59957
33.07685,64884
33.08497,65607
33.09310,69437
33.10122,73290
33.10933,83728
33.11747,86014
33.12558,79267
33.13372,83254
33.14183,77886
33.14995,70930
33.15808,62989
33.16620,60794
33.17433,54907
33.18245,55621
33.19057,52909
33.19870,50830
33.20682,56120
33.21495,58183
33.22307,55885
33.23118,49572
33.23932,51444
33.24743,50679
33.25555,51071
33.26368,45788
33.27180,49515
33.27993,48079
33.28805,46365
33.29617,45660
33.30430,47916
33.31242,45981
33.32055,44003
33.32867,50881
33.33678,43812
33.34492,48605
33.35303,50434
33.36115,50538
33.36928,51087
33.37740,49149
33.38553,52739
33.39365,52966
33.40177,49536
33.40990,45198
33.41802,49352
33.42615,41787
33.43427,47298
33.44238,45565
33.45052,45622
33.45863,44577
33.46677,42183
33.47488,46590
33.48300,44631
33.49113,45987
33.49925,50080
33.50737,49608
33.51550,47810
33.52362,52948
33.53175,49907
33.53987,48793
33.54798,56302
33.55612,52247
33.56423,52485
33.57237,49825
33.58048,53863
33.58860,52459
33.59673,49638
33.60485,44299
33.61298,48757
33.62110,47743
33.62922,45520
33.63735,43790
33.64547,50336
33.65358,51744
33.66172,52073
33.66983,51992
33.67797,50793
33.68608,48381
33.69420,44557
33.70233,47810
33.71045,49307
33.71858,45015
33.72670,45284
33.73482,41997
33.74295,45759
33.75107,45214
33.75918,49251
33.76732,45870
33.77543,44889
33.78357,44197
33.79168,42391
33.79980,44175
33.80793,42934
33.81605,44172
33.82418,44552
33.83230,49646
33.84042,47481
33.84855,46533
33.85667,46525
33.86480,42531
33.87292,46787
33.88103,47097
33.88917,44508
33.89728,51632
33.90540,46505
33.91353,46360
33.92165,45714
33.92978,47135
33.93790,48024
33.94602,46844
33.95415,46541
33.96227,43871
33.97040,43981
33.97852,43524
33.98663,46685
33.99477,46295
34.00288,45276
34.01100,44687
34.01913,46900
34.02725,45482
34.03538,49147
34.04350,45906
34.05162,43066
34.05975,45315
34.06787,49405
34.07600,46027
34.08412,46791
34.09223,45987
34.10037,41077
34.10848,46145
34.11662,46656
34.12473,46781
34.13285,40093
34.14098,47034
34.14910,47426
34.15722,44877
34.16535,48420
34.17347,45596
34.18160,46776
34.18972,49008
34.19783,41686
34.20597,46647
34.21408,46664
34.22222,47037
34.23033,48428
34.23845,46757
34.24658,43827
34.25470,44664
34.26283,45051
34.27095,47350
34.27907,45021
34.28720,51212
34.29532,44954
34.30343,49700
34.31157,45953
34.31968,51608
34.32782,49796
34.33593,45658
34.34405,44793
34.35218,43624
34.36030,51064
34.36843,45441
34.37655,48121
34.38467,45384
34.39280,48811
34.40092,47778
34.40903,47671
34.41717,47906
34.42528,48749
34.43342,48265
34.44153,46340
34.44965,45909
34.45778,46312
34.46590,46370
34.47403,46131
34.48215,48425
34.49027,48657
34.49840,43722
34.50652,45668
34.51465,47356
34.52277,45997
34.53088,56930
34.53902,63834
34.54713,68611
34.55525,74197
34.56338,80561
34.57150,81656
34.57963,80837
34.58775,71488
34.59587,71554
34.60400,75752
34.61212,66121
34.62025,63533
34.62837,65501
34.63648,65353
34.64462,63360
34.65273,58739
34.66087,56527
34.66898,56293
34.67710,55001
34.68523,56262
34.69335,52987
34.70147,55749
34.70960,53019
34.71772,51592
34.72585,53517
34.73397,53879
34.74208,59041
34.75022,56209
34.75833,50933
34.76647,51861
34.77458,50021
34.78270,50657
34.79083,53347
34.79895,53313
34.80707,52331
34.81520,54123
34.82332,52480
34.83145,51000
34.83957,51808
34.84768,53648
34.85582,49811
34.86393,52802
34.87207,48862
34.88018,50722
34.88830,49467
34.89643,50845
34.90455,48775
34.91268,53914
34.92080,53837
34.92892,49987
34.93705,49809
34.94517,50257
34.95328,55078
34.96142,58983
34.96953,59205
34.97767,58083
34.98578,56388
34.99390,58180
35.00203,55299
35.01015,54302
35.01828,53463
35.02640,52255
35.03452,46529
35.04265,47287
35.05077,55643
35.05888,50688
35.06702,50327
35.07513,55487
35.08327,49227
35.09138,51360
35.09950,52516
35.10763,52790
35.11575,49922
35.12388,47914
35.13200,48136
35.14012,51686
35.14825,46478
35.15637,52401
35.16450,51663
35.17262,50303
35.18073,51470
35.18887,52482
35.19698,50222
35.20510,47279
35.21323,45009
35.22135,53022
35.22948,49725
35.23760,52150
35.24572,52104
35.25385,50771
35.26197,50800
35.27010,54791
35.27822,48875
35.28633,53548
35.29447,49830
35.30258,47290
35.31072,46187
35.31883,49107
35.32695,49244
35.33508,51031
35.34320,50834
35.35132,49702
35.35945,44327
35.36757,49956
35.37570,45749
35.38382,46454
35.39193,46634
35.40007,49162
35.40818,49440
35.41632,48123
35.42443,50106
35.43255,52695
35.44068,54755
35.44880,54025
35.45693,55292
35.46505,53813
35.47317,56141
35.48130,52364
35.48942,55095
35.49753,51007
35.50567,53580
35.51378,51925
35.52192,51177
35.53003,54790
35.53815,47188
35.54628,49252
35.55440,52942
35.56253,52259
35.57065,52827
35.57877,49233
35.58690,51429
35.59502,50034
35.60313,46366
35.61127,49014
35.61938,50648
35.62752,47976
35.63563,47723
35.64375,49396
35.65188,50101
35.66000,53143
35.66813,51999
35.67625,51728
35.68437,51420
35.69250,57483
35.70062,49992
35.70875,54172
35.71687,55924
35.72498,51733
35.73312,56576
35.74123,56428
35.74935,53454
35.75748,60282
35.76560,56141
35.77373,66864
35.78185,63577
35.78997,59798
35.79810,63707
35.80622,55014
35.81435,55171
35.82247,52092
35.83058,55621
35.83872,52861
35.84683,52245
35.85495,52740
35.86308,53562
35.87120,50619
35.87933,49100
35.88745,47670
35.89557,50342
35.90370,52258
35.91182,50569
35.91995,51695
35.92807,51950
35.93618,55110
35.94432,48069
35.95243,48983
35.96057,52345
35.96868,49211
35.97680,50318
35.98493,51583
35.99305,48807
36.00117,50405
36.00930,55011
36.01742,57075
36.02555,57275
36.03367,58645
36.04178,60118
36.04992,57112
36.05803,55934
36.06617,57939
36.07428,55092
36.08240,52766
36.09053,53331
36.09865,51662
36.10678,52701
36.11490,53851
36.12302,54112
36.13115,56634
36.13927,55468
36.14738,57347
36.15552,57950
36.16363,54850
36.17177,58288
36.17988,55336
36.18800,56762
36.19613,52833
36.20425,52752
36.21238,52787
36.22050,50384
36.22862,49757
36.23675,52240
36.24487,52861
36.25298,53871
36.26112,51093
36.26923,51517
36.27737,53801
36.28548,51348
36.29360,58963
36.30173,56792
36.30985,59561
36.31798,62139
36.32610,65633
36.33422,65534
36.34235,64838
36.35047,65547
36.35860,56642
36.36672,53635
36.37483,56798
36.38297,57291
36.39108,56366
36.39920,51082
36.40733,59152
36.41545,56766
36.42358,54588
36.43170,54667
36.43982,58357
36.44795,55643
36.45607,56890
36.46420,52270
36.47232,51778
36.48043,58543
36.48857,51674
36.49668,56642
36.50482,57144
36.51293,54840
36.52105,55308
36.52918,55245
36.53730,52223
36.54542,54711
36.55355,52396
36.56167,53221
36.56980,55064
36.57792,56258
36.58603,53020
36.59417,50101
36.60228,49986
36.61042,57413
36.61853,54836
36.62665,52344
36.63478,52918
36.64290,60208
36.65102,55351
36.65915,57985
36.66727,55323
36.67540,58699
36.68352,59751
36.69163,60197
36.69977,56893
36.70788,59623
36.71602,60040
36.72413,61121
36.73225,56611
36.74038,58511
36.74850,60108
36.75663,61882
36.76475,61319
36.77287,59626
36.78100,61202
36.78912,58196
36.79723,58086
36.80537,54921
36.81348,61787
36.82162,58070
36.82973,60046
36.83785,55852
36.84598,55572
36.85410,64924
36.86223,58141
36.87035,58338
36.87847,54875
36.88660,55018
36.89472,55820
36.90283,61782
36.91097,56988
36.91908,58673
36.92722,59712
36.93533,61921
36.94345,67469
36.95158,74207
36.95970,74222
36.96783,83655
36.97595,83174
36.98407,85786
36.99220,79784
37.00032,76760
37.00845,67060
37.01657,64137
37.02468,62745
37.03282,60638
37.04093,63481
37.04905,61159
37.05718,63087
37.06530,61144
37.07343,63447
37.08155,60415
37.08967,60655
37.09780,57263
37.10592,66504
37.11405,62984
37.12217,61618
37.13028,63520
37.13842,60887
37.14653,56133
37.15467,60661
37.16278,58609
37.17090,68352
37.17903,61384
37.18715,62958
37.19527,63852
37.20340,60043
37.21152,62453
37.21965,63676
37.22777,59340
37.23588,64306
37.24402,59124
37.25213,59573
37.26027,57755
37.26838,60277
37.27650,60054
37.28463,60106
37.29275,54343
37.30087,59716
37.30900,63166
37.31712,65523
37.32525,61133
37.33337,63480
37.34148,73069
37.34962,76283
37.35773,85945
37.36587,81729
37.37398,84590
37.38210,81326
37.39023,80810
37.39835,79047
37.40648,72829
37.41460,74321
37.42272,78349
37.43085,79188
37.43897,70950
37.44708,72035
37.45522,75948
37.46333,69979
37.47147,73662
37.47958,71324
37.48770,63204
