Z:\data\JTB-E02\BACandBLUE\JTB-E18-007-08.D Fri Apr 12 11:02:14 2019
Start of data points
2.09518,122146
2.10332,118649
2.11143,129091
2.11957,118659
2.12768,120541
2.13580,125581
2.14393,123610
2.15205,118938
2.16017,119657
2.16830,119287
2.17642,114614
2.18455,118116
2.19267,112635
2.20078,113598
2.20892,118505
2.21703,111928
2.22517,112612
2.23328,112463
2.24140,110558
2.24953,112391
2.25765,123215
2.26578,323817
2.27390,1008874
2.28202,1088917
2.29015,608423
2.29827,422317
2.30638,373742
2.31452,343054
2.32263,308947
2.33077,274886
2.33888,251989
2.34700,234640
2.35513,223944
2.36325,211399
2.37138,208827
2.37950,200320
2.38762,194379
2.39575,185232
2.40387,177221
2.41198,186142
2.42012,186459
2.42823,175669
2.43637,173220
2.44448,174728
2.45260,172506
2.46073,161209
2.46885,169609
2.47698,174172
2.48510,171104
2.49322,177394
2.50135,170696
2.50947,168317
2.51760,167576
2.52572,162638
2.53383,160481
2.54197,169569
2.55008,201619
2.55820,342018
2.56633,394767
2.57445,325240
2.58258,277293
2.59070,265280
2.59882,479133
2.60695,1684973
2.61507,2398861
2.62320,1595869
2.63132,957013
2.63943,674865
2.64757,509267
2.65568,408361
2.66382,350724
2.67193,302866
2.68005,276944
2.68818,262936
2.69630,243006
2.70442,229033
2.71255,207737
2.72067,207264
2.72880,204725
2.73692,195371
2.74503,195044
2.75317,192592
2.76128,176277
2.76942,181506
2.77753,240915
2.78565,380074
2.79378,373669
2.80190,293941
2.81002,264167
2.81815,262555
2.82627,236480
2.83440,219319
2.84252,209476
2.85063,211500
2.85877,189430
2.86688,189964
2.87502,181982
2.88313,177998
2.89125,177574
2.89938,175844
2.90750,170839
2.91563,164812
2.92375,170274
2.93187,168816
2.94000,167261
2.94812,169550
2.95623,192727
2.96437,243765
2.97248,230173
2.98062,206269
2.98873,203628
2.99685,197422
3.00498,200619
3.01310,188164
3.02123,187920
3.02935,178692
3.03747,172495
3.04560,172291
3.05372,173235
3.06183,188477
3.06997,233050
3.07808,972008
3.08622,4698422
3.09433,1.10327E+07
3.10245,1.878987E+07
3.11058,2.36305E+07
3.11870,2.115091E+07
3.12683,1.566096E+07
3.13495,1.187136E+07
3.14307,9436392
3.15120,7630527
3.15932,6277142
3.16745,5305892
3.17557,4489265
3.18368,3973725
3.19182,3847669
3.19993,3557915
3.20805,3037836
3.21618,2608466
3.22430,2308239
3.23243,1990276
3.24055,1790336
3.24867,1616485
3.25680,1464384
3.26492,1333370
3.27305,1228701
3.28117,1158904
3.28928,1290876
3.29742,2045403
3.30553,3562004
3.31367,4761735
3.32178,4797318
3.32990,4087360
3.33803,3353472
3.34615,2907428
3.35427,2553353
3.36240,2276136
3.37052,2068913
3.37865,1883192
3.38677,1706697
3.39488,1581784
3.40302,1477445
3.41113,1380762
3.41927,1285310
3.42738,1233873
3.43550,1144245
3.44363,1096069
3.45175,1022059
3.45987,972234
3.46800,929615
3.47612,878320
3.48425,830643
3.49237,813788
3.50048,782605
3.50862,736821
3.51673,719513
3.52487,686670
3.53298,672379
3.54110,679581
3.54923,642534
3.55735,620858
3.56548,637476
3.57360,699435
3.58172,743877
3.58985,693156
3.59797,616530
3.60608,594184
3.61422,570981
3.62233,574774
3.63047,544897
3.63858,527121
3.64670,509617
3.65483,547518
3.66295,1145389
3.67108,3872445
3.67920,8162837
3.68732,9144531
3.69545,6761732
3.70357,4584004
3.71170,3536089
3.71982,2984280
3.72793,2548801
3.73607,2294437
3.74418,2035238
3.75230,1845813
3.76043,1688931
3.76855,1549138
3.77668,1436481
3.78480,1362169
3.79292,1308053
3.80105,1458786
3.80917,2191213
3.81730,3121716
3.82542,3211606
3.83353,2584642
3.84167,2058183
3.84978,1738275
3.85790,1568329
3.86603,1426948
3.87415,1310984
3.88228,1233970
3.89040,1150772
3.89852,1067058
3.90665,1027848
3.91477,1008509
3.92290,1049380
3.93102,1095111
3.93913,1206625
3.94727,2421490
3.95538,7159891
3.96352,1.56286E+07
3.97163,2.119307E+07
3.97975,1.919908E+07
3.98788,1.369522E+07
3.99600,1.28584E+07
4.00412,2.485919E+07
4.01225,4.54599E+07
4.02037,5.964318E+07
4.02850,5.848411E+07
4.03662,4.359318E+07
4.04473,2.674435E+07
4.05287,1.712694E+07
4.06098,1.208068E+07
4.06912,9250677
4.07723,7351597
4.08535,6002378
4.09348,5067258
4.10160,4308490
4.10972,3763918
4.11785,3319948
4.12597,2948202
4.13410,2704553
4.14222,2447548
4.15033,2294001
4.15847,2120684
4.16658,1984090
4.17472,1938439
4.18283,1851900
4.19095,1731793
4.19908,1579640
4.20720,1706494
4.21533,2914594
4.22345,6489956
4.23157,1.120197E+07
4.23970,1.364409E+07
4.24782,1.207246E+07
4.25593,8561768
4.26407,5943225
4.27218,4377089
4.28032,3381210
4.28843,2758440
4.29655,2290404
4.30468,1927191
4.31280,1688459
4.32093,1507525
4.32905,1364814
4.33717,1281306
4.34530,1188713
4.35342,1126707
4.36155,1105367
4.36967,1094115
4.37778,1076198
4.38592,1005320
4.39403,961504
4.40215,916660
4.41028,854954
4.41840,825590
4.42653,800539
4.43465,765109
4.44277,757959
4.45090,733521
4.45902,720890
4.46715,701875
4.47527,687867
4.48338,680054
4.49152,653943
4.49963,649467
4.50777,632453
4.51588,615297
4.52400,611883
4.53213,600631
4.54025,586499
4.54837,575337
4.55650,561469
4.56462,569010
4.57275,549177
4.58087,531991
4.58898,518370
4.59712,518044
4.60523,505764
4.61337,511298
4.62148,514755
4.62960,567432
4.63773,648456
4.64585,733774
4.65397,729951
4.66210,672584
4.67022,600268
4.67835,570331
4.68647,560963
4.69458,526872
4.70272,510811
4.71083,500959
4.71897,474903
4.72708,463404
4.73520,449062
4.74333,450437
4.75145,434818
4.75958,428022
4.76770,427697
4.77582,420288
4.78395,440942
4.79207,568965
4.80018,876936
4.80832,1202503
4.81643,1306415
4.82457,1116415
4.83268,906733
4.84080,785304
4.84893,755325
4.85705,732569
4.86518,691997
4.87330,636407
4.88142,603223
4.88955,569311
4.89767,532477
4.90578,514868
4.91392,504608
4.92203,485682
4.93017,494181
4.93828,578231
4.94640,931285
4.95453,1702520
4.96265,2741204
4.97078,3511853
4.97890,3505722
4.98702,2915484
4.99515,2283916
5.00327,1840500
5.01140,1537840
5.01952,1341496
5.02763,1225011
5.03577,1181900
5.04388,1156858
5.05200,1121264
5.06013,1030650
5.06825,940728
5.07638,879857
5.08450,838883
5.09262,801978
5.10075,730758
5.10887,721528
5.11700,685126
5.12512,649850
5.13323,630963
5.14137,629035
5.14948,602639
5.15760,614977
5.16573,641071
5.17385,654335
5.18198,638103
5.19010,606612
5.19822,608142
5.20635,595382
5.21447,602848
5.22260,584783
5.23072,561439
5.23883,545781
5.24697,526062
5.25508,503560
5.26322,486943
5.27133,461392
5.27945,447374
5.28758,426945
5.29570,416784
5.30382,420066
5.31195,418289
5.32007,421100
5.32820,430368
5.33632,458451
5.34443,507628
5.35257,499786
5.36068,476754
5.36882,435872
5.37693,428079
5.38505,415824
5.39318,415645
5.40130,419114
5.40943,407313
5.41755,393369
5.42567,390549
5.43380,376264
5.44192,366702
5.45003,368621
5.45817,381140
5.46628,370414
5.47442,358387
5.48253,356547
5.49065,343261
5.49878,329877
5.50690,335022
5.51503,327951
5.52315,335580
5.53127,353418
5.53940,327820
5.54752,332250
5.55565,335636
5.56377,363713
5.57188,397423
5.58002,435395
5.58813,420898
5.59625,405125
5.60438,370287
5.61250,348531
5.62063,332813
5.62875,327645
5.63687,327668
5.64500,317750
5.65312,323993
5.66125,307491
5.66937,302646
5.67748,322849
5.68562,325205
5.69373,345561
5.70185,363110
5.70998,351559
5.71810,336588
5.72623,316201
5.73435,310309
5.74247,309468
5.75060,291416
5.75872,275903
5.76685,290110
5.77497,281763
5.78308,278499
5.79122,288531
5.79933,281483
5.80747,275860
5.81558,268262
5.82370,291170
5.83183,292759
5.83995,314347
5.84807,321213
5.85620,329281
5.86432,299361
5.87245,293256
5.88057,278500
5.88868,266623
5.89682,262270
5.90493,258105
5.91307,231745
5.92118,217879
5.92930,212608
5.93743,219216
5.94555,218939
5.95367,248225
5.96180,269643
5.96992,298197
5.97805,322855
5.98617,347000
5.99428,359579
6.00242,372798
6.01053,384306
6.01867,396141
6.02678,437458
6.03490,432898
6.04303,378503
6.05115,317504
6.05928,284416
6.06740,243930
6.07552,231209
6.08365,222080
6.09177,213375
6.09988,210134
6.10802,212992
6.11613,209793
6.12427,223720
6.13238,252799
6.14050,319389
6.14863,405508
6.15675,425903
6.16488,420763
6.17300,353745
6.18112,313790
6.18925,284102
6.19737,266250
6.20550,260528
6.21362,243876
6.22173,242381
6.22987,243416
6.23798,239298
6.24610,235508
6.25423,235195
6.26235,227917
6.27048,238296
6.27860,231472
6.28672,224608
6.29485,222965
6.30297,220686
6.31110,223072
6.31922,239230
6.32733,298127
6.33547,421698
6.34358,544750
6.35170,574267
6.35983,515307
6.36795,404678
6.37608,340643
6.38420,298372
6.39232,284910
6.40045,274133
6.40857,262962
6.41670,251029
6.42482,247882
6.43293,245817
6.44107,238088
6.44918,228356
6.45732,223078
6.46543,221339
6.47355,221507
6.48168,218530
6.48980,213196
6.49792,214851
6.50605,208992
6.51417,215103
6.52230,214310
6.53042,210362
6.53853,217258
6.54667,211840
6.55478,211697
6.56292,210065
6.57103,224257
6.57915,244862
6.58728,257889
6.59540,254568
6.60353,242821
6.61165,225333
6.61977,202562
6.62790,211068
6.63602,202113
6.64413,211751
6.65227,213590
6.66038,237216
6.66852,286987
6.67663,331617
6.68475,336497
6.69288,292896
6.70100,266647
6.70913,253474
6.71725,239957
6.72537,221652
6.73350,219576
6.74162,209701
6.74973,224216
6.75787,207985
6.76598,196262
6.77412,200154
6.78223,193355
6.79035,197774
6.79848,199937
6.80660,205469
6.81473,218236
6.82285,220471
6.83097,219599
6.83910,216933
6.84722,214120
6.85535,230729
6.86347,273894
6.87158,281055
6.87972,268585
6.88783,226027
6.89595,188933
6.90408,161994
6.91220,147560
6.92033,130722
6.92845,125061
6.93657,129687
6.94470,126360
6.95282,136080
6.96095,132541
6.96907,136545
6.97718,142968
6.98532,146228
6.99343,135444
7.00155,132768
7.00968,130364
7.01780,113591
7.02593,115356
7.03405,123513
7.04217,119178
7.05030,116674
7.05842,115802
7.06655,116307
7.07467,122674
7.08278,113954
7.09092,112129
7.09903,104041
7.10717,107133
7.11528,102870
7.12340,105022
7.13153,106916
7.13965,116768
7.14777,138418
7.15590,192140
7.16402,258138
7.17215,299111
7.18027,298519
7.18838,264490
7.19652,231660
7.20463,209333
7.21277,269127
7.22088,488982
7.22900,1007681
7.23713,1678706
7.24525,1987276
7.25338,1722922
7.26150,1233551
7.26962,742702
7.27775,472283
7.28587,334599
7.29398,240115
7.30212,190731
7.31023,168867
7.31837,160516
7.32648,161708
7.33460,169560
7.34273,167898
7.35085,162431
7.35898,163037
7.36710,153848
7.37522,153527
7.38335,155955
7.39147,153596
7.39958,153628
7.40772,147071
7.41583,145412
7.42397,145003
7.43208,148413
7.44020,140825
7.44833,140590
7.45645,142942
7.46458,136762
7.47270,142714
7.48082,133466
7.48895,139056
7.49707,132763
7.50520,131134
7.51332,132977
7.52143,140961
7.52957,174332
7.53768,240572
7.54580,328189
7.55393,420528
7.56205,497498
7.57018,529706
7.57830,477340
7.58642,402944
7.59455,322724
7.60267,250395
7.61080,203294
7.61892,187419
7.62703,168278
7.63517,156177
7.64328,139669
7.65142,139578
7.65953,139073
7.66765,130000
7.67578,130025
7.68390,125997
7.69202,119217
7.70015,120531
7.70827,123652
7.71640,123528
7.72452,118822
7.73263,121595
7.74077,112769
7.74888,117104
7.75702,119409
7.76513,126235
7.77325,126945
7.78138,129353
7.78950,139766
7.79762,148767
7.80575,154514
7.81387,156250
7.82200,158839
7.83012,149565
7.83823,138360
7.84637,129009
7.85448,132934
7.86262,132107
7.87073,133929
7.87885,133283
7.88698,141863
7.89510,140085
7.90323,135566
7.91135,132330
7.91947,130951
7.92760,126304
7.93572,145228
7.94383,155602
7.95197,174658
7.96008,196305
7.96822,204859
7.97633,211698
7.98445,210551
7.99258,200465
8.00070,177620
8.00883,165078
8.01695,152364
8.02507,149840
8.03320,147315
8.04132,149215
8.04945,148689
8.05757,147622
8.06568,137719
8.07382,136781
8.08193,136238
8.09005,127947
8.09818,132409
8.10630,123735
8.11443,124805
8.12255,122250
8.13067,127815
8.13880,123884
8.14692,128145
8.15505,138785
8.16317,144192
8.17128,133478
8.17942,132511
8.18753,123264
8.19565,121602
8.20378,122165
8.21190,121221
8.22003,115476
8.22815,114820
8.23627,120209
8.24440,116802
8.25252,114760
8.26065,108869
8.26877,117846
8.27688,118275
8.28502,114100
8.29313,106806
8.30127,114002
8.30938,108416
8.31750,120616
8.32563,116157
8.33375,113698
8.34187,114438
8.35000,111274
8.35812,113564
8.36625,120089
8.37437,127410
8.38248,147371
8.39062,166423
8.39873,160552
8.40687,150738
8.41498,134485
8.42310,129018
8.43123,118577
8.43935,112489
8.44747,113796
8.45560,110648
8.46372,109914
8.47185,105719
8.47997,103412
8.48808,104881
8.49622,105278
8.50433,106825
8.51247,120630
8.52058,161804
8.52870,293727
8.53683,717963
8.54495,1412660
8.55308,2273331
8.56120,2691130
8.56932,2387295
8.57745,1665031
8.58557,987235
8.59368,556799
8.60182,393573
8.60993,348722
8.61807,339549
8.62618,320456
8.63430,275826
8.64243,242993
8.65055,220614
8.65868,206068
8.66680,190241
8.67492,181340
8.68305,169752
8.69117,171458
8.69930,166763
8.70742,161017
8.71553,150849
8.72367,148654
8.73178,147076
8.73990,146238
8.74803,139529
8.75615,162713
8.76428,209315
8.77240,375949
8.78052,662330
8.78865,1044624
8.79677,1340410
8.80490,1397892
8.81302,1162486
8.82113,821394
8.82927,565559
8.83738,426339
8.84550,369238
8.85363,343849
8.86175,335345
8.86988,339390
8.87800,322385
8.88612,309230
8.89425,285381
8.90237,274745
8.91050,258192
8.91862,241274
8.92673,236525
8.93487,232828
8.94298,241034
8.95112,251126
8.95923,250433
8.96735,248996
8.97548,230389
8.98360,215557
8.99172,199932
8.99985,191403
9.00797,194254
9.01610,185929
9.02422,180331
9.03233,183105
9.04047,167074
9.04858,158506
9.05672,168721
9.06483,161518
9.07295,159278
9.08108,157151
9.08920,150642
9.09733,151341
9.10545,153912
9.11357,165535
9.12170,169045
9.12982,171321
9.13793,161105
9.14607,163175
9.15418,153035
9.16232,153029
9.17043,148792
9.17855,148322
9.18668,144839
9.19480,153195
9.20293,140726
9.21105,141426
9.21917,147998
9.22730,139715
9.23542,138566
9.24353,138554
9.25167,134123
9.25978,136484
9.26792,127507
9.27603,123962
9.28415,128812
9.29228,119744
9.30040,118644
9.30853,120356
9.31665,119185
9.32477,113025
9.33290,114868
9.34102,110226
9.34915,115646
9.35727,112061
9.36538,115945
9.37352,113517
9.38163,111337
9.38975,110275
9.39788,109433
9.40600,109260
9.41413,123866
9.42225,124705
9.43037,138689
9.43850,152495
9.44662,156506
9.45475,156826
9.46287,151956
9.47098,137851
9.47912,126642
9.48723,114139
9.49535,114494
9.50348,119308
9.51160,114957
9.51973,120705
9.52785,125354
9.53597,137512
9.54410,132928
9.55222,124847
9.56035,122581
9.56847,132601
9.57658,128279
9.58472,138306
9.59283,148464
9.60097,145571
9.60908,128821
9.61720,117555
9.62533,103763
9.63345,95632
9.64157,89113
9.64970,82149
9.65782,81886
9.66595,79226
9.67407,80331
9.68218,77563
9.69032,78457
9.69843,77914
9.70657,76227
9.71468,76467
9.72280,74768
9.73093,75076
9.73905,73623
9.74718,73540
9.75530,75540
9.76342,72876
9.77155,70958
9.77967,69704
9.78778,72097
9.79592,69333
9.80403,69388
9.81217,68478
9.82028,65921
9.82840,64785
9.83653,66534
9.84465,70577
9.85278,68464
9.86090,78729
9.86902,77772
9.87715,81553
9.88527,79157
9.89340,83901
9.90152,71365
9.90963,72251
9.91777,76136
9.92588,72915
9.93400,86015
9.94213,122794
9.95025,167138
9.95838,241186
9.96650,295573
9.97462,292352
9.98275,258386
9.99087,227108
9.99900,188223
10.00712,172366
10.01523,162812
10.02337,156823
10.03148,146302
10.03960,137116
10.04773,125505
10.05585,113246
10.06398,106279
10.07210,109339
10.08022,105462
10.08835,101198
10.09647,111170
10.10460,103647
10.11272,96543
10.12083,97684
10.12897,91699
10.13708,90723
10.14522,92784
10.15333,90789
10.16145,89104
10.16958,86769
10.17770,85477
10.18582,84040
10.19395,85723
10.20207,82520
10.21020,81621
10.21832,81900
10.22643,82550
10.23457,81629
10.24268,82735
10.25082,86077
10.25893,99694
10.26705,142106
10.27518,285776
10.28330,622487
10.29142,1224689
10.29955,1959619
10.30767,2807878
10.31580,3952400
10.32392,5781370
10.33203,8191915
10.34017,1.035734E+07
10.34828,1.086123E+07
10.35642,9126800
10.36453,6605719
10.37265,4581446
10.38078,3323325
10.38890,2634375
10.39703,2115809
10.40515,1602359
10.41327,1228900
10.42140,993907
10.42952,819248
10.43763,738809
10.44577,685717
10.45388,630748
10.46202,609591
10.47013,550174
10.47825,522694
10.48638,490182
10.49450,454174
10.50263,437845
10.51075,412124
10.51887,375071
10.52700,371621
10.53512,358988
10.54325,335388
10.55137,325993
10.55948,311730
10.56762,297673
10.57573,302510
10.58385,284005
10.59198,268472
10.60010,271990
10.60823,253417
10.61635,239288
10.62447,235196
10.63260,227306
10.64072,219708
10.64885,215012
10.65697,201408
10.66508,202037
10.67322,196954
10.68133,189263
10.68945,184144
10.69758,176838
10.70570,184750
10.71383,177029
10.72195,175664
10.73007,174426
10.73820,174450
10.74632,161038
10.75445,160585
10.76257,162903
10.77068,158961
10.77882,152731
10.78693,155608
10.79507,145551
10.80318,146480
10.81130,142378
10.81943,140094
10.82755,137252
10.83567,133904
10.84380,135423
10.85192,128198
10.86005,129221
10.86817,121221
10.87628,119578
10.88442,123665
10.89253,120892
10.90067,111841
10.90878,114775
10.91690,113870
10.92503,112770
10.93315,112147
10.94128,110054
10.94940,104737
10.95752,111352
10.96565,108421
10.97377,116585
10.98188,113649
10.99002,108318
10.99813,103266
11.00627,105725
11.01438,108366
11.02250,98457
11.03063,101580
11.03875,92447
11.04688,100495
11.05500,91144
11.06312,95615
11.07125,93822
11.07937,98404
11.08748,92237
11.09562,97422
11.10373,96509
11.11187,93119
11.11998,97737
11.12810,91892
11.13623,94655
11.14435,91913
11.15248,80954
11.16060,87605
11.16872,87371
11.17685,90319
11.18497,89416
11.19310,90481
11.20122,90725
11.20933,89125
11.21747,84527
11.22558,80833
11.23370,84291
11.24183,81659
11.24995,79723
11.25808,77142
11.26620,74873
11.27432,66521
11.28245,64605
11.29057,67251
11.29870,72326
11.30682,78669
11.31493,94543
11.32307,130337
11.33118,165985
11.33930,221294
11.34743,257842
11.35555,274215
11.36368,261694
11.37180,220682
11.37992,172826
11.38805,141227
11.39617,131650
11.40430,125749
11.41242,120496
11.42053,122460
11.42867,124243
11.43678,113314
11.44492,106247
11.45303,99997
11.46115,100360
11.46928,102768
11.47740,97261
11.48552,107127
11.49365,121751
11.50177,138256
11.50990,154160
11.51802,163547
11.52613,149204
11.53427,139037
11.54238,121830
11.55052,116820
11.55863,111389
11.56675,107902
11.57488,105470
11.58300,92751
11.59113,95262
11.59925,101158
11.60737,111681
11.61550,136555
11.62362,162242
11.63173,175483
11.63987,168529
11.64798,153587
11.65612,136105
11.66423,120966
11.67235,114656
11.68048,105409
11.68860,106730
11.69673,94274
11.70485,93496
11.71297,90517
11.72110,87570
11.72922,89966
11.73733,92436
11.74547,89100
11.75358,87081
11.76172,87076
11.76983,83070
11.77795,84758
11.78608,80956
11.79420,86882
11.80233,82403
11.81045,80727
11.81857,76420
11.82670,84171
11.83482,86431
11.84295,86182
11.85107,88268
11.85918,92905
11.86732,82160
11.87543,75982
11.88355,72366
11.89168,75880
11.89980,80990
11.90793,95473
11.91605,138455
11.92417,194992
11.93230,261043
11.94042,313648
11.94855,307177
11.95667,259465
11.96478,208162
11.97292,189594
11.98103,273205
11.98917,561072
11.99728,1286480
12.00540,2335613
12.01353,3673522
12.02165,4653051
12.02977,4720744
12.03790,4209586
12.04602,3461715
12.05415,2406340
12.06227,1839105
12.07038,1502842
12.07852,1320555
12.08663,1267547
12.09477,1138935
12.10288,1054554
12.11100,977251
12.11913,982484
12.12725,909246
12.13537,900531
12.14350,820893
12.15162,777297
12.15975,747527
12.16787,759173
12.17598,676443
12.18412,663603
12.19223,631742
12.20037,616059
12.20848,624428
12.21660,586374
12.22473,598678
12.23285,542627
12.24098,530398
12.24910,529253
12.25722,505128
12.26535,491907
12.27347,473530
12.28158,459284
12.28972,460700
12.29783,455082
12.30597,443410
12.31408,436391
12.32220,412220
12.33033,406099
12.33845,387410
12.34658,385724
12.35470,392270
12.36282,376070
12.37095,364226
12.37907,369442
12.38720,375501
12.39532,400528
12.40343,406559
12.41157,430630
12.41968,438058
12.42780,426823
12.43593,393533
12.44405,364075
12.45218,354650
12.46030,344016
12.46842,322604
12.47655,316548
12.48467,301109
12.49280,304458
12.50092,309864
12.50903,305597
12.51717,292082
12.52528,287025
12.53340,288217
12.54153,281039
12.54965,290065
12.55778,310230
12.56590,329232
12.57402,356911
12.58215,352649
12.59027,347960
12.59840,308746
12.60652,279216
12.61463,261581
12.62277,252447
12.63088,249692
12.63902,242180
12.64713,237947
12.65525,230064
12.66338,222949
12.67150,203298
12.67962,185521
12.68775,158614
12.69587,138372
12.70400,118011
12.71212,110306
12.72023,103064
12.72837,107993
12.73648,118455
12.74462,113855
12.75273,116824
12.76085,108537
12.76898,103373
12.77710,99617
12.78522,93405
12.79335,95303
12.80147,90400
12.80960,89874
12.81772,88657
12.82583,82849
12.83397,83601
12.84208,80098
12.85022,81185
12.85833,82076
12.86645,78296
12.87458,80264
12.88270,75527
12.89083,76526
12.89895,76762
12.90707,74935
12.91520,82491
12.92332,77909
12.93143,73613
12.93957,76449
12.94768,92126
12.95582,143915
12.96393,313631
12.97205,688669
12.98018,1341832
12.98830,1998870
12.99643,2292082
13.00455,2074573
13.01267,1556904
13.02080,1007735
13.02892,617295
13.03705,414402
13.04517,317225
13.05328,255421
13.06142,218123
13.06953,194340
13.07765,183020
13.08578,161723
13.09390,154367
13.10203,145896
13.11015,135026
13.11827,123795
13.12640,122138
13.13452,112692
13.14265,108157
13.15077,107535
13.15888,103601
13.16702,101524
13.17513,100018
13.18325,102604
13.19138,101446
13.19950,100172
13.20763,100400
13.21575,96559
13.22387,102775
13.23200,98675
13.24012,92867
13.24825,91557
13.25637,90736
13.26448,90641
13.27262,87317
13.28073,85231
13.28887,82656
13.29698,80427
13.30510,80481
13.31323,72772
13.32135,76411
13.32947,75629
13.33760,74992
13.34572,76947
13.35385,74018
13.36197,71434
13.37008,71229
13.37822,74167
13.38633,73010
13.39447,67832
13.40258,71371
13.41070,66698
13.41883,71545
13.42695,66404
13.43508,67298
13.44320,69184
13.45132,64810
13.45945,64301
13.46757,69304
13.47568,64982
13.48382,71611
13.49193,67219
13.50007,63640
13.50818,64200
13.51630,67385
13.52443,63053
13.53255,67494
13.54068,64879
13.54880,65910
13.55692,63058
13.56505,64923
13.57317,63875
13.58128,63218
13.58942,62545
13.59753,67000
13.60567,68157
13.61378,70137
13.62190,69837
13.63003,72487
13.63815,72957
13.64628,69717
13.65440,70156
13.66252,70772
13.67065,63850
13.67877,65278
13.68690,61188
13.69502,60159
13.70313,62911
13.71127,61149
13.71938,61277
13.72750,60462
13.73563,66475
13.74375,103786
13.75188,189373
13.76000,413474
13.76812,845300
13.77625,1513439
13.78437,2078939
13.79250,2456089
13.80062,2458535
13.80873,2177448
13.81687,1625680
13.82498,1288814
13.83310,1064084
13.84123,927449
13.84935,858424
13.85748,773343
13.86560,738270
13.87372,689911
13.88185,629170
13.88997,577916
13.89810,534224
13.90622,503806
13.91433,494792
13.92247,454339
13.93058,443609
13.93872,418976
13.94683,427354
13.95495,460419
13.96308,601118
13.97120,814505
13.97932,1214113
13.98745,1498767
13.99557,1678337
14.00370,1682772
14.01182,1502712
14.01993,1228023
14.02807,1006846
14.03618,836917
14.04432,747882
14.05243,670569
14.06055,654809
14.06868,596613
14.07680,581368
14.08493,550464
14.09305,527769
14.10117,511997
14.10930,495473
14.11742,462110
14.12553,491382
14.13367,510288
14.14178,563103
14.14992,641701
14.15803,717669
14.16615,798778
14.17428,769310
14.18240,760224
14.19053,702982
14.19865,694450
14.20677,743775
14.21490,783934
14.22302,824830
14.23113,808663
14.23927,730054
14.24738,654698
14.25552,587326
14.26363,532552
14.27175,482508
14.27988,438952
14.28800,401497
14.29613,364176
14.30425,337927
14.31237,330787
14.32050,314524
14.32862,298002
14.33675,306258
14.34487,285896
14.35298,283404
14.36112,278939
14.36923,255620
14.37735,247072
14.38548,231367
14.39360,225955
14.40173,201745
14.40985,208004
14.41797,194075
14.42610,202112
14.43422,198549
14.44235,196354
14.45047,171828
14.45858,161264
14.46672,150829
14.47483,141774
14.48297,134352
14.49108,139014
14.49920,136392
14.50733,145197
14.51545,152493
14.52357,183593
14.53170,200887
14.53982,221155
14.54795,226495
14.55607,219733
14.56418,184748
14.57232,170358
14.58043,158453
14.58857,139921
14.59668,134624
14.60480,125650
14.61293,121060
14.62105,110666
14.62917,107463
14.63730,106175
14.64542,106732
14.65355,99998
14.66167,103199
14.66978,94822
14.67792,92272
14.68603,96104
14.69417,88606
14.70228,93852
14.71040,89661
14.71853,84428
14.72665,86965
14.73478,90321
14.74290,96204
14.75102,98154
14.75915,102654
14.76727,106101
14.77538,103462
14.78352,106922
14.79163,117105
14.79977,167844
14.80788,318735
14.81600,717321
14.82413,1407343
14.83225,2339224
14.84038,3093086
14.84850,3298347
14.85662,2952936
14.86475,2316695
14.87287,1650223
14.88098,1189229
14.88912,876547
14.89723,695770
14.90537,581032
14.91348,510256
14.92160,441434
14.92973,411180
14.93785,360830
14.94598,349355
14.95410,317981
14.96222,291418
14.97035,280087
14.97847,258232
14.98660,240442
14.99472,238453
15.00283,226540
15.01097,214689
15.01908,198760
15.02720,196540
15.03533,182557
15.04345,183533
15.05158,177065
15.05970,162776
15.06782,160614
15.07595,152824
15.08407,153338
15.09220,153362
15.10032,133944
15.10843,141024
15.11657,134269
15.12468,135074
15.13282,132053
15.14093,139965
15.14905,146685
15.15718,132377
15.16530,132643
15.17342,114166
15.18155,106226
15.18967,102941
15.19780,98255
15.20592,92122
15.21403,85129
15.22217,78565
15.23028,79297
15.23842,78343
15.24653,75085
15.25465,76471
15.26278,76866
15.27090,74320
15.27903,75040
15.28715,69600
15.29527,70414
15.30340,72441
15.31152,78258
15.31963,71744
15.32777,70337
15.33588,75333
15.34402,69913
15.35213,72839
15.36025,73480
15.36838,70780
15.37650,69609
15.38463,75615
15.39275,66224
15.40087,68617
15.40900,63110
15.41712,68101
15.42523,66695
15.43337,72035
15.44148,65672
15.44962,62438
15.45773,65773
15.46585,63388
15.47398,70224
15.48210,71302
15.49023,75852
15.49835,80282
15.50647,96106
15.51460,94369
15.52272,89939
15.53085,88782
15.53897,88576
15.54708,86472
15.55522,86113
15.56333,79668
15.57145,74466
15.57958,76381
15.58770,70190
15.59583,68132
15.60395,70425
15.61207,66445
15.62020,69645
15.62832,67525
15.63645,65688
15.64457,71407
15.65268,70988
15.66082,68376
15.66893,65961
15.67705,66956
15.68518,64303
15.69330,66879
15.70143,63720
15.70955,61300
15.71767,61654
15.72580,64105
15.73392,60612
15.74205,58351
15.75017,64942
15.75828,70660
15.76642,87766
15.77453,126713
15.78267,191497
15.79078,261634
15.79890,323084
15.80703,340003
15.81515,329678
15.82327,282590
15.83140,235466
15.83952,186537
15.84765,162239
15.85577,138333
15.86388,131286
15.87202,118595
15.88013,117038
15.88827,111536
15.89638,108508
15.90450,100895
15.91263,99808
15.92075,97226
15.92888,95957
15.93700,92217
15.94512,93788
15.95325,95938
15.96137,122796
15.96948,148804
15.97762,179995
15.98573,210668
15.99387,224508
16.00198,229420
16.01010,224709
16.01823,210736
16.02635,194465
16.03448,197073
16.04260,185170
16.05072,175384
16.05885,165400
16.06697,151534
16.07508,137904
16.08322,126024
16.09133,119134
16.09947,119250
16.10758,104524
16.11570,101747
16.12383,102262
16.13195,103299
16.14008,99529
16.14820,99362
16.15632,95060
16.16445,96250
16.17257,96187
16.18070,93168
16.18882,89216
16.19693,85115
16.20507,86791
16.21318,83245
16.22130,84113
16.22943,82439
16.23755,85301
16.24568,82296
16.25380,85680
16.26192,77819
16.27005,74292
16.27817,76043
16.28630,79803
16.29442,79458
16.30253,74959
16.31067,78334
16.31878,72556
16.32692,73120
16.33503,74259
16.34315,70589
16.35128,76749
16.35940,83518
16.36752,111374
16.37565,134907
16.38377,184066
16.39190,221780
16.40002,247731
16.40813,252589
16.41627,229962
16.42438,196180
16.43252,164786
16.44063,143726
16.44875,128589
16.45688,137987
16.46500,162884
16.47312,226078
16.48125,370455
16.48937,553969
16.49750,700826
16.50562,761723
16.51373,682509
16.52187,530609
16.52998,384064
16.53812,297319
16.54623,247809
16.55435,200859
16.56248,174015
16.57060,168757
16.57873,148172
16.58685,134666
16.59497,127469
16.60310,132910
16.61122,124537
16.61933,122836
16.62747,123162
16.63558,116782
16.64372,113102
16.65183,111182
16.65995,103069
16.66808,94993
16.67620,101848
16.68433,90802
16.69245,88261
16.70057,87963
16.70870,94332
16.71682,87396
16.72493,82506
16.73307,75682
16.74118,70477
16.74932,74575
16.75743,71885
16.76555,69801
16.77368,76069
16.78180,82459
16.78993,79258
16.79805,74279
16.80617,76694
16.81430,74566
16.82242,67272
16.83055,66257
16.83867,65703
16.84678,66233
16.85492,67321
16.86303,62927
16.87115,71850
16.87928,66110
16.88740,64286
16.89553,66870
16.90365,64260
16.91177,66670
16.91990,63667
16.92802,60952
16.93615,61087
16.94427,60336
16.95238,63007
16.96052,63059
16.96863,57037
16.97677,62892
16.98488,57001
16.99300,57309
17.00113,58981
17.00925,62482
17.01737,59373
17.02550,59358
17.03362,58303
17.04175,58584
17.04987,62937
17.05798,67448
17.06612,71949
17.07423,67539
17.08237,66891
17.09048,69141
17.09860,66899
17.10673,67120
17.11485,65169
17.12297,67208
17.13110,67123
17.13922,72221
17.14735,71059
17.15547,73947
17.16358,67013
17.17172,66268
17.17983,66980
17.18797,67472
17.19608,65608
17.20420,65292
17.21233,62822
17.22045,65881
17.22858,62554
17.23670,57614
17.24482,59924
17.25295,62821
17.26107,60782
17.26918,64510
17.27732,59677
17.28543,59995
17.29357,62855
17.30168,62703
17.30980,62858
17.31793,80625
17.32605,85285
17.33418,98261
17.34230,120661
17.35042,127508
17.35855,133092
17.36667,130249
17.37480,122493
17.38292,114207
17.39103,106340
17.39917,100021
17.40728,94149
17.41540,99848
17.42353,86406
17.43165,84720
17.43978,87543
17.44790,87381
17.45602,81704
17.46415,81960
17.47227,79123
17.48040,80213
17.48852,75731
17.49663,74609
17.50477,71543
17.51288,71534
17.52100,69266
17.52913,69264
17.53725,71900
17.54538,67781
17.55350,70175
17.56162,63325
17.56975,75148
17.57787,73128
17.58600,81385
17.59412,105324
17.60223,140995
17.61037,197223
17.61848,265746
17.62662,369154
17.63473,625661
17.64285,4352830
17.65098,1.971334E+07
17.65910,2.692583E+07
17.66722,2.638984E+07
17.67535,2.553148E+07
17.68347,2.440526E+07
17.69160,2.274147E+07
17.69972,2.130832E+07
17.70783,2.031033E+07
17.71597,1.958698E+07
17.72408,1.778897E+07
17.73222,1.665522E+07
17.74033,1.54355E+07
17.74845,1.428222E+07
17.75658,1.31524E+07
17.76470,1.228759E+07
17.77283,1.150138E+07
17.78095,1.072333E+07
17.78907,9842443
17.79720,9394546
17.80532,8717644
17.81343,8214438
17.82157,7662613
17.82968,7250242
17.83782,6920219
17.84593,6512556
17.85405,6151130
17.86218,5809895
17.87030,5586064
17.87843,5342270
17.88655,5072142
17.89467,4767610
17.90280,4529309
17.91092,4317397
17.91903,4140991
17.92717,3984574
17.93528,3728049
17.94342,3606249
17.95153,3492523
17.95965,3323691
17.96778,3222310
17.97590,3155929
17.98403,2974608
17.99215,2839333
18.00027,2718822
18.00840,2661542
18.01652,2568244
18.02465,2514102
18.03277,2425122
18.04088,2331232
18.04902,2263405
18.05713,2251740
18.06525,2188158
18.07338,2284793
18.08150,2428338
18.08963,2755101
18.09775,3083047
18.10587,3313493
18.11400,3413584
18.12212,3287820
18.13025,2986859
18.13837,2691232
18.14648,2490188
18.15462,2296635
18.16273,2210426
18.17085,2066745
18.17898,1930351
18.18710,1866894
18.19523,1779717
18.20335,1708623
18.21147,1641513
18.21960,1576715
18.22772,1503591
18.23585,1418989
18.24397,1388123
18.25208,1332141
18.26022,1281850
18.26833,1253222
18.27647,1213533
18.28458,1140062
18.29270,1089175
18.30083,1046426
18.30895,1006399
18.31707,968943
18.32520,951530
18.33332,933486
18.34145,889724
18.34957,875716
18.35768,855140
18.36582,833585
18.37393,820805
18.38207,799297
18.39018,793880
18.39830,773722
18.40643,747021
18.41455,750897
18.42268,737875
18.43080,713448
18.43892,710667
18.44705,704385
18.45517,709352
18.46328,700648
18.47142,722970
18.47953,759391
18.48767,800122
18.49578,810654
18.50390,770998
18.51203,757532
18.52015,717806
18.52828,671957
18.53640,648103
18.54452,606800
18.55265,595697
18.56077,568745
18.56888,563487
18.57702,546404
18.58513,554319
18.59327,542302
18.60138,533312
18.60950,521480
18.61763,513513
18.62575,502875
18.63388,499893
18.64200,499900
18.65012,485512
18.65825,479760
18.66637,469847
18.67450,463303
18.68262,450747
18.69073,443603
18.69887,444180
18.70698,438895
18.71510,427373
18.72323,424992
18.73135,418188
18.73948,403980
18.74760,407487
18.75572,401530
18.76385,396460
18.77197,386195
18.78010,396261
18.78822,377189
18.79633,377480
18.80447,373398
18.81258,362529
18.82072,363388
18.82883,370108
18.83695,361544
18.84508,369571
18.85320,363928
18.86132,352063
18.86945,351838
18.87757,340255
18.88570,330497
18.89382,332553
18.90193,339302
18.91007,335031
18.91818,333839
18.92632,331333
18.93443,338122
18.94255,344591
18.95068,362310
18.95880,385928
18.96692,408563
18.97505,406523
18.98317,415804
18.99130,403103
18.99942,373498
19.00753,355711
19.01567,334688
19.02378,327363
19.03192,323405
19.04003,319733
19.04815,306728
19.05628,302002
19.06440,309635
19.07253,293704
19.08065,309757
19.08877,335761
19.09690,333514
19.10502,363754
19.11313,404835
19.12127,409020
19.12938,385393
19.13752,371563
19.14563,350585
19.15375,339729
19.16188,321179
19.17000,316635
19.17813,310239
19.18625,300875
19.19437,293033
19.20250,280185
19.21062,277886
19.21873,280800
19.22687,267389
19.23498,254409
19.24312,260512
19.25123,249545
19.25935,249705
19.26748,242876
19.27560,239034
19.28373,236866
19.29185,243885
19.29997,243773
19.30810,249780
19.31622,251104
19.32435,249324
19.33247,244771
19.34058,242621
19.34872,251116
19.35683,259073
19.36495,276626
19.37308,313488
19.38120,336647
19.38933,346127
19.39745,347281
19.40557,321989
19.41370,301018
19.42182,285775
19.42995,267823
19.43807,258577
19.44618,244665
19.45432,250981
19.46243,246474
19.47057,250646
19.47868,256078
19.48680,282288
19.49493,309450
19.50305,338839
19.51117,373861
19.51930,407403
19.52742,436402
19.53555,412841
19.54367,366840
19.55178,327239
19.55992,284901
19.56803,256738
19.57617,236190
19.58428,224576
19.59240,218032
19.60053,216640
19.60865,219711
19.61678,213987
19.62490,212945
19.63302,225766
19.64115,236763
19.64927,272153
19.65738,318209
19.66552,399042
19.67363,487715
19.68177,549944
19.68988,561130
19.69800,526773
19.70613,477506
19.71425,419869
19.72238,374300
19.73050,322783
19.73862,298516
19.74675,282657
19.75487,264196
19.76298,254396
19.77112,234035
19.77923,222511
19.78737,222025
19.79548,219678
19.80360,214750
19.81173,207944
19.81985,213054
19.82798,207465
19.83610,203641
19.84422,204810
19.85235,204749
19.86047,238061
19.86860,309696
19.87672,497787
19.88483,870773
19.89297,1444318
19.90108,2061915
19.90920,2610249
19.91733,2917392
19.92545,2837079
19.93358,2461212
19.94170,2051925
19.94982,1720818
19.95795,1443095
19.96607,1237291
19.97420,1125819
19.98232,1041608
19.99043,970856
19.99857,899173
20.00668,851414
20.01480,799297
20.02293,766177
20.03105,699616
20.03918,673043
20.04730,605608
20.05542,558161
20.06355,479141
20.07167,423815
20.07980,366813
20.08792,332482
20.09603,310343
20.10417,289102
20.11228,278402
20.12042,261461
20.12853,262858
20.13665,240552
20.14478,240123
20.15290,230044
20.16102,238342
20.16915,244553
20.17727,247117
20.18540,250444
20.19352,276238
20.20163,285898
20.20977,304450
20.21788,298303
20.22602,289338
20.23413,293074
20.24225,285897
20.25038,289745
20.25850,295620
20.26662,348318
20.27475,401403
20.28287,471008
20.29100,502167
20.29912,541080
20.30723,515122
20.31537,459043
20.32348,398312
20.33162,340928
20.33973,301759
20.34785,264402
20.35598,234974
20.36410,214094
20.37223,204112
20.38035,195813
20.38847,186476
20.39660,182494
20.40472,190072
20.41283,184895
20.42097,191439
20.42908,190682
20.43722,200440
20.44533,206332
20.45345,212531
20.46158,217995
20.46970,216228
20.47783,209147
20.48595,199637
20.49407,196396
20.50220,182884
20.51032,166333
20.51845,160766
20.52657,165236
20.53468,159065
20.54282,158045
20.55093,150352
20.55905,148847
20.56718,157831
20.57530,146171
20.58343,151404
20.59155,147578
20.59967,146966
20.60780,141923
20.61592,135298
20.62405,138515
20.63217,134587
20.64028,132726
20.64842,132985
20.65653,132243
20.66467,135204
20.67278,128631
20.68090,128606
20.68903,134263
20.69715,124777
20.70527,126798
20.71340,133889
20.72152,130123
20.72965,125003
20.73777,122205
20.74588,125334
20.75402,126972
20.76213,131562
20.77027,123486
20.77838,129632
20.78650,137950
20.79463,141362
20.80275,161080
20.81087,187354
20.81900,216008
20.82712,245285
20.83525,246821
20.84337,235409
20.85148,201359
20.85962,182720
20.86773,162755
20.87587,152568
20.88398,143890
20.89210,139312
20.90023,132360
20.90835,126910
20.91648,127497
20.92460,127407
20.93272,125199
20.94085,128783
20.94897,130873
20.95708,130800
20.96522,128783
20.97333,127116
20.98147,130620
20.98958,115873
20.99770,122891
21.00583,116655
21.01395,121344
21.02208,115339
21.03020,119917
21.03832,116403
21.04645,121673
21.05457,120500
21.06268,124325
21.07082,124472
21.07893,127373
21.08707,132089
21.09518,133572
21.10330,132796
21.11143,124464
21.11955,125512
21.12768,121811
21.13580,125178
21.14392,122596
21.15205,120797
21.16017,133653
21.16830,137755
21.17642,137294
21.18453,148509
21.19267,138006
21.20078,135667
21.20890,128991
21.21703,125836
21.22515,125895
21.23328,120308
21.24140,125146
21.24952,111323
21.25765,114511
21.26577,106396
21.27390,108910
21.28202,111459
21.29013,107896
21.29827,110368
21.30638,104291
21.31452,109402
21.32263,107853
21.33075,103221
21.33888,104800
21.34700,104542
21.35512,101782
21.36325,103582
21.37137,102544
21.37950,105956
21.38762,107564
21.39573,114405
21.40387,115350
21.41198,127121
21.42012,132928
21.42823,136262
21.43635,136518
21.44448,134726
21.45260,129725
21.46072,123133
21.46885,122504
21.47697,119831
21.48510,115652
21.49322,115740
21.50133,112530
21.50947,110117
21.51758,110065
21.52572,108384
21.53383,112069
21.54195,116860
21.55008,113585
21.55820,114139
21.56633,109793
21.57445,108723
21.58257,106194
21.59070,107607
21.59882,104713
21.60693,114168
21.61507,116596
21.62318,123887
21.63132,130068
21.63943,150401
21.64755,156006
21.65568,154748
21.66380,160248
21.67193,160185
21.68005,151748
21.68817,142427
21.69630,132789
21.70442,121905
21.71255,119196
21.72067,117501
21.72878,111051
21.73692,108108
21.74503,108418
21.75315,106092
21.76128,112361
21.76940,102048
21.77753,101856
21.78565,108331
21.79377,106506
21.80190,109101
21.81002,121227
21.81815,120318
21.82627,125801
21.83438,139493
21.84252,151262
21.85063,156985
21.85875,155346
21.86688,138480
21.87500,127480
21.88313,121895
21.89125,110496
21.89937,103655
21.90750,100991
21.91562,96773
21.92375,93175
21.93187,90613
21.93998,90856
21.94812,92168
21.95623,89582
21.96437,86795
21.97248,86824
21.98060,81887
21.98873,77659
21.99685,84263
22.00497,83623
22.01310,81101
22.02122,76466
22.02935,85062
22.03747,85486
22.04558,81919
22.05372,82665
22.06183,79343
22.06997,79605
22.07808,79029
22.08620,80088
22.09433,80152
22.10245,73217
22.11057,80567
22.11870,78936
22.12682,82465
22.13495,78427
22.14307,84446
22.15118,81112
22.15932,78068
22.16743,82645
22.17557,80770
22.18368,83409
22.19180,83841
22.19993,82328
22.20805,83423
22.21618,82154
22.22430,83034
22.23242,89523
22.24055,89006
22.24867,92145
22.25678,89093
22.26492,86311
22.27303,86932
22.28117,80366
22.28928,81060
22.29740,85404
22.30553,85270
22.31365,86070
22.32178,83977
22.32990,96030
22.33802,93472
22.34615,88369
22.35427,89660
22.36240,86036
22.37052,79515
22.37863,80073
22.38677,79151
22.39488,86239
22.40300,94036
22.41113,101519
22.41925,123340
22.42738,137893
22.43550,148773
22.44362,154578
22.45175,149243
22.45987,153616
22.46800,140702
22.47612,134421
22.48423,136338
22.49237,132052
22.50048,132147
22.50860,134129
22.51673,124799
22.52485,125360
22.53298,128744
22.54110,126783
22.54922,133956
22.55735,123047
22.56547,120314
22.57360,120182
22.58172,116929
22.58983,111728
22.59797,108726
22.60608,105042
22.61422,107544
22.62233,103570
22.63045,104709
22.63858,101904
22.64670,105303
22.65482,102708
22.66295,100190
22.67107,100142
22.67920,105783
22.68732,106219
22.69543,100994
22.70357,102995
22.71168,103851
22.71982,103360
22.72793,103068
22.73605,99428
22.74418,99262
22.75230,103340
22.76043,93961
22.76855,97928
22.77667,88681
22.78480,91635
22.79292,94472
22.80103,91275
22.80917,97843
22.81728,100395
22.82542,110607
22.83353,105219
22.84165,107879
22.84978,103915
22.85790,99812
22.86603,104525
22.87415,100933
22.88227,103938
22.89040,107873
22.89852,110411
22.90663,120815
22.91477,138284
22.92288,160275
22.93102,179441
22.93913,187175
22.94725,185248
22.95538,175859
22.96350,163185
22.97163,144311
22.97975,129224
22.98787,118544
22.99600,120586
23.00412,113270
23.01225,109557
23.02037,107273
23.02848,110644
23.03662,117814
23.04473,117694
23.05285,118852
23.06098,120533
23.06910,121360
23.07723,123867
23.08535,120919
23.09347,123572
23.10160,121657
23.10972,126721
23.11785,125638
23.12597,120331
23.13408,129023
23.14222,125903
23.15033,127110
23.15847,127435
23.16658,117137
23.17470,116447
23.18283,131899
23.19095,127357
23.19907,122793
23.20720,124027
23.21532,119983
23.22345,121122
23.23157,122956
23.23968,128635
23.24782,125855
23.25593,127304
23.26407,127736
23.27218,128915
23.28030,128919
23.28843,130805
23.29655,131767
23.30467,122932
23.31280,129987
23.32092,119110
23.32905,118072
23.33717,125092
23.34528,138164
23.35342,144883
23.36153,164308
23.36967,196814
23.37778,239513
23.38590,283999
23.39403,338378
23.40215,394520
23.41028,431957
23.41840,495355
23.42652,527104
23.43465,520444
23.44277,545866
23.45088,531079
23.45902,529187
23.46713,526959
23.47527,490508
23.48338,462810
23.49150,450136
23.49963,418053
23.50775,397136
23.51588,360977
23.52400,351665
23.53212,320670
23.54025,304929
23.54837,290287
23.55648,271054
23.56462,272872
23.57273,270337
23.58087,264925
23.58898,272690
23.59710,293229
23.60523,316086
23.61335,322365
23.62148,319531
23.62960,308067
23.63772,275437
23.64585,258645
23.65397,236849
23.66210,225702
23.67022,213389
23.67833,205585
23.68647,194714
23.69458,185042
23.70270,178418
23.71083,175321
23.71895,165376
23.72708,157250
23.73520,160586
23.74332,161652
23.75145,208546
23.75957,324268
23.76770,598756
23.77582,1209419
23.78393,2170187
23.79207,3272888
23.80018,3919814
23.80832,3978684
23.81643,3543883
23.82455,2869578
23.83268,2212893
23.84080,1645789
23.84892,1225207
23.85705,941516
23.86517,754588
23.87330,651968
23.88142,572465
23.88953,508856
23.89767,454291
23.90578,426929
23.91392,400595
23.92203,376133
23.93015,348255
23.93828,330609
23.94640,315795
23.95452,289700
23.96265,284024
23.97077,269502
23.97890,261341
23.98702,251112
23.99513,265191
24.00327,316980
24.01138,470211
24.01952,867705
24.02763,1414326
24.03575,2140271
24.04388,2656464
24.05200,2679741
24.06013,2180096
24.06825,1531081
24.07637,995329
24.08450,624160
24.09262,396712
24.10073,286976
24.10887,247812
24.11698,217393
24.12512,203509
24.13323,197877
24.14135,193057
24.14948,192085
24.15760,194775
24.16573,188313
24.17385,178701
24.18197,170960
24.19010,166587
24.19822,153004
24.20635,157474
24.21447,156136
24.22258,157390
24.23072,170718
24.23883,154765
24.24695,150410
24.25508,145646
24.26320,141042
24.27133,135314
24.27945,131520
24.28757,127285
24.29570,123313
24.30382,124630
24.31195,121329
24.32007,122901
24.32818,131416
24.33632,125107
24.34443,124637
24.35255,118450
24.36068,117046
24.36880,115661
24.37693,118624
24.38505,132096
24.39317,154455
24.40130,171122
24.40942,195620
24.41755,213334
24.42567,207820
24.43378,191322
24.44192,166607
24.45003,138763
24.45817,122067
24.46628,118581
24.47440,116262
24.48253,121016
24.49065,128294
24.49877,129863
24.50690,136860
24.51502,141321
24.52315,139473
24.53127,140875
24.53938,142659
24.54752,134456
24.55563,121310
24.56377,123359
24.57188,121923
24.58000,119419
24.58813,111510
24.59625,109070
24.60437,107621
24.61250,111437
24.62062,110607
24.62875,104876
24.63687,104825
24.64498,102265
24.65312,109259
24.66123,102673
24.66937,103933
24.67748,104678
24.68560,104785
24.69373,103705
24.70185,105264
24.70998,119144
24.71810,130886
24.72622,144403
24.73435,147455
24.74247,152246
24.75058,154638
24.75872,154844
24.76683,160502
24.77497,163009
24.78308,167917
24.79120,168593
24.79933,174595
24.80745,165557
24.81558,171224
24.82370,173294
24.83182,179087
24.83995,174976
24.84807,196868
24.85620,218397
24.86432,253068
24.87243,299499
24.88057,363393
24.88868,468705
24.89680,549161
24.90493,570456
24.91305,570323
24.92118,492335
24.92930,401144
24.93742,342721
24.94555,266001
24.95367,222639
24.96180,204751
24.96992,194732
24.97803,182884
24.98617,183506
24.99428,177227
25.00242,176423
25.01053,175194
25.01865,172342
25.02678,169024
25.03490,177170
25.04302,172739
25.05115,162334
25.05927,163961
25.06740,171981
25.07552,164550
25.08363,172355
25.09177,173230
25.09988,182660
25.10802,208731
25.11613,276366
25.12425,432893
25.13238,677021
25.14050,1036355
25.14862,1376958
25.15675,1640775
25.16487,1643764
25.17300,1501407
25.18112,1158838
25.18923,840805
25.19737,582264
25.20548,427664
25.21362,328026
25.22173,257384
25.22985,231471
25.23798,208755
25.24610,219967
25.25423,223736
25.26235,237326
25.27047,252559
25.27860,263279
25.28672,269547
25.29483,247912
25.30297,228649
25.31108,208259
25.31922,188652
25.32733,181458
25.33545,167156
25.34358,167326
25.35170,164386
25.35983,163254
25.36795,152348
25.37607,151909
25.38420,150215
25.39232,153394
25.40043,142231
25.40857,141936
25.41668,148342
25.42482,138993
25.43293,135130
25.44105,134468
25.44918,140830
25.45730,137145
25.46543,136968
25.47355,133117
25.48167,139177
25.48980,144804
25.49792,148134
25.50605,136897
25.51417,138374
25.52228,132452
25.53042,128860
25.53853,129583
25.54665,120945
25.55478,122771
25.56290,123580
25.57103,120996
25.57915,120677
25.58727,124918
25.59540,121713
25.60352,118029
25.61165,121284
25.61977,112124
25.62788,113955
25.63602,112154
25.64413,107302
25.65227,99455
25.66038,102627
25.66850,101176
25.67663,108572
25.68475,98183
25.69287,94005
25.70100,86705
25.70912,91681
25.71725,88714
25.72537,93881
25.73348,88643
25.74162,87285
25.74973,90257
25.75787,92960
25.76598,100642
25.77410,123608
25.78223,164500
25.79035,205445
25.79847,215768
25.80660,214129
25.81472,178208
25.82285,154695
25.83097,131133
25.83908,119328
25.84722,122145
25.85533,121063
25.86347,127333
25.87158,123476
25.87970,120877
25.88783,109841
25.89595,99361
25.90408,88511
25.91220,89541
25.92032,81465
25.92845,83770
25.93657,83583
25.94468,82867
25.95282,81862
25.96093,78293
25.96907,81336
25.97718,80879
25.98530,76111
25.99343,74873
26.00155,74236
26.00968,79146
26.01780,78574
26.02592,88569
26.03405,97686
26.04217,112422
26.05030,119090
26.05842,119649
26.06653,126764
26.07467,126677
26.08278,134570
26.09090,138956
26.09903,140832
26.10715,143148
26.11528,142370
26.12340,146882
26.13152,148159
26.13965,140632
26.14777,149299
26.15590,146599
26.16402,142470
26.17213,144567
26.18027,143062
26.18838,139910
26.19650,142019
26.20463,142831
26.21275,139483
26.22088,136462
26.22900,142151
26.23712,141470
26.24525,135137
26.25337,138252
26.26150,140549
26.26962,141120
26.27773,138647
26.28587,146685
26.29398,134837
26.30212,136344
26.31023,131237
26.31835,127363
26.32648,133350
26.33460,126377
26.34272,125732
26.35085,128123
26.35897,128561
26.36710,128096
26.37522,130533
26.38333,130301
26.39147,138249
26.39958,137626
26.40772,141226
26.41583,139429
26.42395,137097
26.43208,136523
26.44020,134635
26.44832,133970
26.45645,130952
26.46457,128710
26.47270,135579
26.48082,136914
26.48893,129937
26.49707,128030
26.50518,126228
26.51332,128573
26.52143,114263
26.52955,120205
26.53768,117218
26.54580,110379
26.55393,114184
26.56205,112913
26.57017,110400
26.57830,109590
26.58642,111450
26.59453,110796
26.60267,118285
26.61078,103818
26.61892,111354
26.62703,105654
26.63515,103460
26.64328,105116
26.65140,103438
26.65953,111963
26.66765,106667
26.67577,108057
26.68390,112065
26.69202,109583
26.70015,104280
26.70827,102137
26.71638,99384
26.72452,101997
26.73263,101220
26.74075,94581
26.74888,102227
26.75700,102923
26.76513,101842
26.77325,95399
26.78137,94269
26.78950,100205
26.79762,99945
26.80575,102046
26.81387,102020
26.82198,103828
26.83012,102650
26.83823,93380
26.84635,99154
26.85448,94908
26.86260,96881
26.87073,95858
26.87885,96401
26.88697,91412
26.89510,99348
26.90322,91327
26.91135,89463
26.91947,88741
26.92758,91042
26.93572,91023
26.94383,91936
26.95197,91332
26.96008,94402
26.96820,103478
26.97633,103044
26.98445,123326
26.99257,166345
27.00070,222809
27.00882,306729
27.01695,413226
27.02507,496013
27.03318,574040
27.04132,582769
27.04943,541753
27.05757,478289
27.06568,398202
27.07380,334647
27.08193,286069
27.09005,243830
27.09818,212552
27.10630,191306
27.11442,169709
27.12255,163587
27.13067,156374
27.13878,151826
27.14692,148024
27.15503,143264
27.16317,140839
27.17128,136617
27.17940,133242
27.18753,128685
27.19565,131054
27.20378,131665
27.21190,122342
27.22002,118628
27.22815,121420
27.23627,118256
27.24438,121301
27.25252,110521
27.26063,114691
27.26877,109369
27.27688,107808
27.28500,99815
27.29313,101913
27.30125,99552
27.30938,97028
27.31750,93608
27.32562,91918
27.33375,95039
27.34187,95322
27.35000,89975
27.35812,87886
27.36623,93197
27.37437,90657
27.38248,93071
27.39060,91565
27.39873,91556
27.40685,86011
27.41498,91465
27.42310,83218
27.43122,84127
27.43935,80169
27.44747,82847
27.45560,89474
27.46372,80582
27.47183,77749
27.47997,81293
27.48808,79153
27.49620,81003
27.50433,79583
27.51245,81508
27.52058,79692
27.52870,76699
27.53682,78895
27.54495,81243
27.55307,77760
27.56120,77961
27.56932,77946
27.57743,88995
27.58557,85837
27.59368,89423
27.60182,101682
27.60993,100557
27.61805,90607
27.62618,90596
27.63430,91397
27.64242,84138
27.65055,76423
27.65867,75751
27.66680,74055
27.67492,76487
27.68303,75213
27.69117,74151
27.69928,74311
27.70742,73118
27.71553,70537
27.72365,67973
27.73178,68242
27.73990,68830
27.74803,74150
27.75615,68053
27.76427,68144
27.77240,67100
27.78052,68533
27.78863,68730
27.79677,73433
27.80488,72486
27.81302,70514
27.82113,69658
27.82925,73645
27.83738,67469
27.84550,69764
27.85363,67895
27.86175,74983
27.86987,66649
27.87800,65760
27.88612,67882
27.89423,69028
27.90237,66491
27.91048,64372
27.91862,68555
27.92673,69246
27.93485,62265
27.94298,62325
27.95110,69104
27.95923,62917
27.96735,60464
27.97547,69104
27.98360,63495
27.99172,64073
27.99985,65149
28.00797,66579
28.01608,67420
28.02422,68884
28.03233,64151
28.04045,65541
28.04858,67237
28.05670,71551
28.06483,69815
28.07295,71226
28.08107,68846
28.08920,73351
28.09732,78021
28.10545,77739
28.11357,78474
28.12168,76718
28.12982,78996
28.13793,67984
28.14607,67711
28.15418,62236
28.16230,63945
28.17043,70890
28.17855,65439
28.18667,69728
28.19480,78401
28.20292,77736
28.21105,82358
28.21917,99491
28.22728,102907
28.23542,103803
28.24353,101578
28.25167,95584
28.25978,83910
28.26790,75065
28.27603,74763
28.28415,73737
28.29227,70362
28.30040,70529
28.30852,69674
28.31665,69624
28.32477,71265
28.33288,74287
28.34102,77710
28.34913,84263
28.35727,89208
28.36538,94680
28.37350,105306
28.38163,104745
28.38975,114444
28.39788,111774
28.40600,113299
28.41412,112417
28.42225,115097
28.43037,116062
28.43848,107267
28.44662,100331
28.45473,101378
28.46287,89395
28.47098,85800
28.47910,89637
28.48723,85644
28.49535,82304
28.50348,85241
28.51160,82214
28.51972,86510
28.52785,81689
28.53597,80179
28.54410,75991
28.55222,78006
28.56033,74108
28.56847,78784
28.57658,77994
28.58470,81755
28.59283,78499
28.60095,81277
28.60908,82986
28.61720,91425
28.62532,80965
28.63345,85155
28.64157,85111
28.64970,90277
28.65782,90636
28.66593,87491
28.67407,93689
28.68218,82363
28.69030,83535
28.69843,82670
28.70655,82065
28.71468,76805
28.72280,82513
28.73092,82259
28.73905,78701
28.74717,76417
28.75530,81310
28.76342,84711
28.77153,91202
28.77967,108583
28.78778,111016
28.79592,108744
28.80403,113771
28.81215,96257
28.82028,95047
28.82840,91882
28.83652,84066
28.84465,77450
28.85277,77071
28.86090,80887
28.86902,73145
28.87713,72718
28.88527,73237
28.89338,77510
28.90152,78927
28.90963,75889
28.91775,77690
28.92588,72417
28.93400,79919
28.94212,77351
28.95025,75284
28.95837,79285
28.96650,78406
28.97462,82613
28.98273,75349
28.99087,78564
28.99898,72525
29.00712,74116
29.01523,68347
29.02335,67000
29.03148,70465
29.03960,71728
29.04773,67242
29.05585,66945
29.06397,69113
29.07210,70571
29.08022,75357
29.08833,66507
29.09647,66304
29.10458,71356
29.11272,70862
29.12083,69157
29.12895,66214
29.13708,65326
29.14520,63576
29.15333,62151
29.16145,67306
29.16957,60948
29.17770,70988
29.18582,66832
29.19395,66886
29.20207,73919
29.21018,75650
29.21832,82591
29.22643,86202
29.23455,88795
29.24268,86036
29.25080,86165
29.25893,98212
29.26705,92704
29.27517,99368
29.28330,91413
29.29142,96386
29.29955,87345
29.30767,83721
29.31578,78919
29.32392,73727
29.33203,69997
29.34015,67625
29.34828,66546
29.35640,69641
29.36453,66783
29.37265,64092
29.38077,68830
29.38890,61567
29.39702,66116
29.40515,66869
29.41327,68679
29.42138,65140
29.42952,63573
29.43763,63339
29.44577,69200
29.45388,71436
29.46200,63575
29.47013,61938
29.47825,63703
29.48637,68749
29.49450,73747
29.50262,77117
29.51075,72895
29.51887,70446
29.52698,74185
29.53512,68221
29.54323,70074
29.55137,64372
29.55948,68553
29.56760,64741
29.57573,67498
29.58385,66172
29.59198,68290
29.60010,64337
29.60822,65344
29.61635,67378
29.62447,60274
29.63258,60060
29.64072,63486
29.64883,63549
29.65697,57697
29.66508,61908
29.67320,64005
29.68133,62954
29.68945,63199
29.69758,64616
29.70570,63148
29.71382,63068
29.72195,61603
29.73007,66466
29.73818,62429
29.74632,59778
29.75443,58906
29.76257,61162
29.77068,60067
29.77880,56506
29.78693,57311
29.79505,55562
29.80318,54340
29.81130,54580
29.81942,57687
29.82755,57382
29.83567,56812
29.84380,56400
29.85192,57239
29.86003,54771
29.86817,57780
29.87628,63315
29.88440,69418
29.89253,74582
29.90065,83017
29.90878,87434
29.91690,90885
29.92502,86014
29.93315,75287
29.94127,69389
29.94940,68069
29.95752,67237
29.96563,67166
29.97377,60595
29.98188,63282
29.99000,67702
29.99813,67111
30.00625,70881
30.01438,74451
30.02250,77298
30.03062,80336
30.03875,80190
30.04687,86280
30.05500,90549
30.06312,84489
30.07123,87802
30.07937,87429
30.08748,81444
30.09562,84057
30.10373,81326
30.11185,78195
30.11998,74692
30.12810,80302
30.13622,79470
30.14435,79163
30.15247,77369
30.16060,75282
30.16872,73695
30.17683,76614
30.18497,77154
30.19308,72972
30.20122,75461
30.20933,69767
30.21745,73232
30.22558,69103
30.23370,65817
30.24183,77760
30.24995,69194
30.25807,65242
30.26620,66132
30.27432,61364
30.28243,67381
30.29057,57850
30.29868,62611
30.30682,61381
30.31493,61718
30.32305,59990
30.33118,62064
30.33930,65433
30.34743,61318
30.35555,61107
30.36367,60215
30.37180,61110
30.37992,60814
30.38805,63158
30.39617,65369
30.40428,61372
30.41242,60878
30.42053,61482
30.42865,56420
30.43678,57413
30.44490,58649
30.45303,61926
30.46115,62452
30.46927,58240
30.47740,61847
30.48552,60655
30.49365,61411
30.50177,64189
30.50988,60820
30.51802,59855
30.52613,64840
30.53425,58029
30.54238,60167
30.55050,57044
30.55863,60638
30.56675,59698
30.57487,57544
30.58300,57712
30.59112,59784
30.59925,62767
30.60737,58400
30.61548,65895
30.62362,53160
30.63173,59714
30.63987,55303
30.64798,59887
30.65610,60305
30.66423,60339
30.67235,58255
30.68047,58111
30.68860,53071
30.69672,62696
30.70485,55977
30.71297,56354
30.72108,55436
30.72922,56546
30.73733,61473
30.74547,59619
30.75358,55956
30.76170,61117
30.76983,58920
30.77795,58094
30.78607,64450
30.79420,68407
30.80232,75335
30.81045,85080
30.81857,85835
30.82668,91552
30.83482,85242
30.84293,82115
30.85107,69242
30.85918,68988
30.86730,64127
30.87543,54515
30.88355,63853
30.89168,64680
30.89980,58961
30.90792,58399
30.91605,54204
30.92417,58045
30.93228,55995
30.94042,56459
30.94853,58146
30.95667,50978
30.96478,53069
30.97290,58719
30.98103,55744
30.98915,56604
30.99728,57813
31.00540,59649
31.01352,57852
31.02165,57418
31.02977,56839
31.03790,59658
31.04602,55502
31.05413,58888
31.06227,58386
31.07038,59045
31.07850,54862
31.08663,66131
31.09475,65700
31.10288,78974
31.11100,75517
31.11912,75126
31.12725,75118
31.13537,73908
31.14350,64687
31.15162,63304
31.15973,63250
31.16787,65076
31.17598,68379
31.18410,69056
31.19223,75985
31.20035,84709
31.20848,107487
31.21660,123867
31.22472,139755
31.23285,153468
31.24097,149492
31.24910,134004
31.25722,127075
31.26533,102679
31.27347,86515
31.28158,75211
31.28972,76096
31.29783,62964
31.30595,62904
31.31408,63651
31.32220,60106
31.33032,59940
31.33845,59509
31.34657,60067
31.35470,65109
31.36282,66746
31.37093,59184
31.37907,60264
31.38718,59725
31.39532,58654
31.40343,58721
31.41155,61441
31.41968,60719
31.42780,65300
31.43593,61522
31.44405,63455
31.45217,54854
31.46030,63727
31.46842,60054
31.47653,61047
31.48467,61406
31.49278,60149
31.50092,64566
31.50903,66174
31.51715,60458
31.52528,64346
31.53340,66660
31.54153,67511
31.54965,65427
31.55777,69809
31.56590,62931
31.57402,64291
31.58213,60745
31.59027,63420
31.59838,67301
31.60652,67547
31.61463,64351
31.62275,62503
31.63088,62949
31.63900,62988
31.64713,66009
31.65525,64648
31.66337,64001
31.67150,61803
31.67962,66387
31.68775,64721
31.69587,67600
31.70398,63916
31.71212,62859
31.72023,62741
31.72835,57752
31.73648,68170
31.74460,57718
31.75273,60579
31.76085,64227
31.76897,59947
31.77710,63355
31.78522,62826
31.79335,64489
31.80147,63733
31.80958,63909
31.81772,64968
31.82583,61251
31.83395,61481
31.84208,62902
31.85020,62248
31.85833,61599
31.86645,63804
31.87457,57420
31.88270,60455
31.89082,63257
31.89895,63938
31.90707,63521
31.91518,67418
31.92332,64667
31.93143,69453
31.93957,68940
31.94768,79199
31.95580,76488
31.96393,76341
31.97205,77882
31.98017,83041
31.98830,85953
31.99642,83806
32.00455,89843
32.01267,87978
32.02078,81433
32.02892,81831
32.03703,85475
32.04517,84057
32.05328,72827
32.06140,77665
32.06953,75555
32.07765,75343
32.08578,81264
32.09390,72937
32.10202,75550
32.11015,76821
32.11827,69269
32.12638,73741
32.13452,68212
32.14263,71052
32.15077,68241
32.15888,66179
32.16700,63803
32.17513,64765
32.18325,64187
32.19138,63528
32.19950,66357
32.20762,66315
32.21575,66682
32.22387,57684
32.23198,60742
32.24012,67410
32.24823,70040
32.25637,72723
32.26448,79232
32.27260,78140
32.28073,77266
32.28885,81018
32.29698,83687
32.30510,66388
32.31322,67283
32.32135,65812
32.32947,64937
32.33760,62639
32.34572,64657
32.35383,61100
32.36197,59629
32.37008,57790
32.37820,63292
32.38633,64658
32.39445,61160
32.40258,60481
32.41070,59383
32.41882,59125
32.42695,63080
32.43507,60562
32.44320,59980
32.45132,57809
32.45943,59429
32.46757,59556
32.47568,58617
32.48382,57674
32.49193,61249
32.50005,55765
32.50818,51302
32.51630,61359
32.52442,54082
32.53255,56931
32.54067,59599
32.54880,57300
32.55692,60424
32.56503,56594
32.57317,60806
32.58128,62371
32.58942,61627
32.59753,63180
32.60565,57603
32.61378,56475
32.62190,57574
32.63002,56938
32.63815,59231
32.64627,58327
32.65440,62323
32.66252,67385
32.67063,72984
32.67877,78880
32.68688,79462
32.69502,79453
32.70313,75857
32.71125,74990
32.71938,72643
32.72750,66412
32.73563,66849
32.74375,64682
32.75187,62798
32.76000,61198
32.76812,60298
32.77623,59901
32.78437,59872
32.79248,57752
32.80062,56536
32.80873,54117
32.81685,63387
32.82498,55172
32.83310,57129
32.84123,55034
32.84935,56642
32.85747,57767
32.86560,58868
32.87372,59259
32.88183,58632
32.88997,54058
32.89808,54592
32.90622,59883
32.91433,54299
32.92245,55964
32.93058,55437
32.93870,59245
32.94683,55586
32.95495,56536
32.96307,55412
32.97120,52238
32.97932,56981
32.98745,59381
32.99557,65425
33.00368,64514
33.01182,69426
33.01993,64665
33.02805,65030
33.03618,64132
33.04430,65161
33.05243,62417
33.06055,59219
33.06867,61252
33.07680,63873
33.08492,61151
33.09305,71656
33.10117,72721
33.10928,78810
33.11742,81542
33.12553,84629
33.13367,84678
33.14178,84054
33.14990,73079
33.15803,68631
33.16615,63808
33.17427,63781
33.18240,60600
33.19052,65561
33.19865,64807
33.20677,67075
33.21488,64197
33.22302,64345
33.23113,64368
33.23927,61400
33.24738,58501
33.25550,56801
33.26363,59024
33.27175,57512
33.27987,59277
33.28800,57809
33.29612,55624
33.30425,58293
33.31237,56397
33.32048,52816
33.32862,58440
33.33673,55655
33.34487,58961
33.35298,58568
33.36110,57867
33.36923,60827
33.37735,60585
33.38548,59727
33.39360,63594
33.40172,59742
33.40985,64034
33.41797,64034
33.42608,65677
33.43422,73573
33.44233,73799
33.45047,68056
33.45858,68951
33.46670,61197
33.47483,60051
33.48295,61301
33.49108,58774
33.49920,62710
33.50732,56861
33.51545,56632
33.52357,60476
33.53170,59309
33.53982,57575
33.54793,66810
33.55607,66151
33.56418,66849
33.57230,72019
33.58043,67570
33.58855,63045
33.59668,60935
33.60480,63308
33.61292,62755
33.62105,59095
33.62917,64097
33.63730,59118
33.64542,59839
33.65353,62900
33.66167,62506
33.66978,63482
33.67790,68289
33.68603,61338
33.69415,60475
33.70228,63816
33.71040,61410
33.71852,65072
33.72665,62960
33.73477,67641
33.74290,70808
33.75102,74407
33.75913,72978
33.76727,69771
33.77538,77700
33.78352,68745
33.79163,66461
33.79975,63406
33.80788,60727
33.81600,56444
33.82412,61317
33.83225,65479
33.84037,64186
33.84850,63818
33.85662,63651
33.86473,68677
33.87287,70262
33.88098,72721
33.88912,78150
33.89723,71095
33.90535,72011
33.91348,76582
33.92160,78990
33.92973,78466
33.93785,74880
33.94597,72638
33.95410,69189
33.96222,71140
33.97033,63995
33.97847,63096
33.98658,64171
33.99472,62312
34.00283,60567
34.01095,57218
34.01908,59300
34.02720,62136
34.03533,67045
34.04345,62813
34.05157,63603
34.05970,59788
34.06782,66859
34.07593,58435
34.08407,64167
34.09218,64278
34.10032,62457
34.10843,58499
34.11655,57850
34.12468,56452
34.13280,59809
34.14093,56747
34.14905,61778
34.15717,58563
34.16530,58635
34.17342,59424
34.18155,62556
34.18967,71970
34.19778,69826
34.20592,70564
34.21403,65940
34.22215,69893
34.23028,67394
34.23840,69591
34.24653,61373
34.25465,62906
34.26277,61322
34.27090,58077
34.27902,61667
34.28715,57484
34.29527,55889
34.30338,63858
34.31152,60975
34.31963,55457
34.32775,55959
34.33588,59780
34.34400,60998
34.35213,62408
34.36025,57704
34.36837,56672
34.37650,58271
34.38462,64097
34.39275,57485
34.40087,58034
34.40898,60680
34.41712,62242
34.42523,56584
34.43337,62437
34.44148,57020
34.44960,55702
34.45773,56648
34.46585,62394
34.47397,60510
34.48210,60063
34.49022,59207
34.49835,56728
34.50647,58622
34.51458,56179
34.52272,61076
34.53083,61464
34.53897,72226
34.54708,69523
34.55520,76377
34.56333,76866
34.57145,88122
34.57958,84830
34.58770,80743
34.59582,80457
34.60395,77799
34.61207,79913
34.62018,85936
34.62832,80114
34.63643,81357
34.64457,75391
34.65268,82658
34.66080,76128
34.66893,74730
34.67705,74333
34.68518,69923
34.69330,69864
34.70142,67917
34.70955,74300
34.71767,64260
34.72578,66515
34.73392,71232
34.74203,68846
34.75017,60407
34.75828,65442
34.76640,62630
34.77453,67906
34.78265,64392
34.79078,65468
34.79890,65341
34.80702,65321
34.81515,61542
34.82327,64835
34.83140,68327
34.83952,68590
34.84763,67457
34.85577,66492
34.86388,65435
34.87200,63378
34.88013,58674
34.88825,63263
34.89638,62103
34.90450,63920
34.91262,64067
34.92075,67722
34.92887,66818
34.93700,65177
34.94512,66316
34.95323,67748
34.96137,72430
34.96948,76358
34.97762,70033
34.98573,69768
34.99385,69768
35.00198,71674
35.01010,76868
35.01822,73178
35.02635,73289
35.03447,79812
35.04260,79924
35.05072,77542
35.05883,76195
35.06697,76263
35.07508,78353
35.08322,75160
35.09133,74568
35.09945,67448
35.10758,70070
35.11570,65946
35.12382,62421
35.13195,66211
35.14007,65503
35.14820,61033
35.15632,63662
35.16443,67155
35.17257,67392
35.18068,66064
35.18882,70728
35.19693,66099
35.20505,61832
35.21318,69587
35.22130,66851
35.22943,64825
35.23755,61195
35.24567,70204
35.25380,67188
35.26192,67421
35.27003,68733
35.27817,71120
35.28628,71089
35.29442,67007
35.30253,72612
35.31065,67862
35.31878,73491
35.32690,62846
35.33503,62854
35.34315,61257
35.35127,67442
35.35940,69872
35.36752,70359
35.37563,71709
35.38377,71812
35.39188,75154
35.40002,87409
35.40813,90638
35.41625,92739
35.42438,95272
35.43250,96068
35.44063,93604
35.44875,93848
35.45687,91155
35.46500,81513
35.47312,76709
35.48125,72193
35.48937,74749
35.49748,71446
35.50562,71193
35.51373,63411
35.52185,68549
35.52998,67618
35.53810,70329
35.54623,73817
35.55435,63968
35.56247,68364
35.57060,70000
35.57872,69740
35.58685,69221
35.59497,70019
35.60308,66005
35.61122,67180
35.61933,67735
35.62747,61352
35.63558,65552
35.64370,61767
35.65183,62743
35.65995,65902
35.66807,65959
35.67620,67131
35.68432,70182
35.69245,72501
35.70057,80076
35.70868,75057
35.71682,76728
35.72493,73546
35.73307,72927
35.74118,77479
35.74930,78017
35.75743,73859
35.76555,76337
35.77368,74448
35.78180,76449
35.78992,81640
35.79805,77045
35.80617,68664
35.81428,72793
35.82242,66874
35.83053,71969
35.83867,69135
35.84678,66420
35.85490,68615
35.86303,65563
35.87115,69796
35.87928,72652
35.88740,72153
35.89552,74424
35.90365,73614
35.91177,70642
35.91988,63227
35.92802,65376
35.93613,69144
35.94427,67690
35.95238,69379
35.96050,61481
35.96863,69605
35.97675,67210
35.98488,66825
35.99300,67546
36.00112,70149
36.00925,68082
36.01737,65507
36.02550,75090
36.03362,69417
36.04173,67322
36.04987,68380
36.05798,70762
36.06610,67242
36.07423,68058
36.08235,69308
36.09048,66253
36.09860,67172
36.10672,63915
36.11485,67720
36.12297,67358
36.13110,71018
36.13922,63802
36.14733,66156
36.15547,65160
36.16358,65320
36.17170,68075
36.17983,63354
36.18795,69150
36.19608,65172
36.20420,65060
36.21232,63709
36.22045,67519
36.22857,67714
36.23670,62945
36.24482,69577
36.25293,69349
36.26107,73840
36.26918,73015
36.27732,70812
36.28543,71048
36.29355,77462
36.30168,80132
36.30980,80436
36.31792,83191
36.32605,79167
36.33417,77925
36.34230,81318
36.35042,78431
36.35853,73732
36.36667,67897
36.37478,72371
36.38292,70612
36.39103,69972
36.39915,71352
36.40728,72738
36.41540,71634
36.42353,70310
36.43165,68672
36.43977,74161
36.44790,75341
36.45602,81590
36.46413,81308
36.47227,86667
36.48038,81253
36.48852,79648
36.49663,77133
36.50475,78603
36.51288,89165
36.52100,87190
36.52913,89554
36.53725,82787
36.54537,83028
36.55350,78398
36.56162,72241
36.56973,75000
36.57787,77091
36.58598,63111
36.59412,69065
36.60223,64102
36.61035,68493
36.61848,66584
36.62660,76936
36.63473,81210
36.64285,84082
36.65097,82262
36.65910,89474
36.66722,81904
36.67535,82895
36.68347,84135
36.69158,77163
36.69972,81112
36.70783,75596
36.71595,72214
36.72408,77032
36.73220,73738
36.74033,71795
36.74845,76034
36.75657,69782
36.76470,69041
36.77282,70405
36.78095,73614
36.78907,72528
36.79718,70685
36.80532,69063
36.81343,68189
36.82157,70824
36.82968,67560
36.83780,71717
36.84593,69631
36.85405,68346
36.86217,68405
36.87030,69536
36.87842,76371
36.88655,74788
36.89467,74053
36.90278,70666
36.91092,74536
36.91903,77740
36.92717,72705
36.93528,69204
36.94340,69948
36.95153,73133
36.95965,73512
36.96777,74622
36.97590,72224
36.98402,76150
36.99215,78198
37.00027,73736
37.00838,77820
37.01652,75110
37.02463,71756
37.03277,74338
37.04088,77821
37.04900,76356
37.05713,72182
37.06525,74424
37.07338,76350
37.08150,79498
37.08962,75793
37.09775,73070
37.10587,86517
37.11398,83943
37.12212,88064
37.13023,90826
37.13837,88077
37.14648,87424
37.15460,86059
37.16273,83371
37.17085,81636
37.17898,81315
37.18710,78672
37.19522,76040
37.20335,76842
37.21147,76588
37.21958,74981
37.22772,74737
37.23583,77858
37.24397,72700
37.25208,73234
37.26020,70405
37.26833,72691
37.27645,71021
37.28458,77197
37.29270,80206
37.30082,71307
37.30895,76735
37.31707,83266
37.32520,76446
37.33332,76449
37.34143,81664
37.34957,84680
37.35768,82788
37.36580,86795
37.37393,84954
37.38205,89721
37.39018,90767
37.39830,91116
37.40642,84904
37.41455,79647
37.42267,84271
37.43080,85374
37.43892,80537
37.44703,75789
37.45517,88189
37.46328,79204
37.47142,77010
37.47953,79152
37.48765,84437
