C:\MassHunter\GCMS\1\data\JTB-E02\BACandBLUE\JTB-E18-019-11.D Fri Jul 05 13:30:35 2019
Start of data points
2.09530	47536
2.10343	47777
2.11155	46951
2.11967	45015
2.12780	42811
2.13592	51327
2.14405	46111
2.15217	47106
2.16028	49987
2.16842	44190
2.17653	45754
2.18467	46543
2.19278	41688
2.20090	41881
2.20903	45649
2.21715	40807
2.22527	38999
2.23340	43956
2.24152	42034
2.24965	41049
2.25777	40954
2.26588	155647
2.27402	641725
2.28213	995852
2.29027	657268
2.29838	342930
2.30650	245511
2.31463	200705
2.32275	177560
2.33088	158508
2.33900	139770
2.34712	127634
2.35525	115293
2.36337	112299
2.37148	104200
2.37962	106606
2.38773	102569
2.39587	99625
2.40398	95408
2.41210	87412
2.42023	92705
2.42835	94412
2.43648	85914
2.44460	92974
2.45272	90782
2.46085	84157
2.46897	83261
2.47708	81543
2.48522	90914
2.49333	122057
2.50147	121266
2.50958	98386
2.51770	92299
2.52583	92522
2.53395	89372
2.54208	85501
2.55020	100148
2.55832	139063
2.56645	154284
2.57457	134502
2.58270	110002
2.59082	98819
2.59893	155466
2.60707	553429
2.61518	1032049
2.62330	826861
2.63143	460483
2.63955	305177
2.64768	230470
2.65580	191994
2.66392	165697
2.67205	151520
2.68017	136666
2.68830	125123
2.69642	116553
2.70453	107685
2.71267	114177
2.72078	104137
2.72892	98786
2.73703	96276
2.74515	93662
2.75328	99433
2.76140	94933
2.76952	93411
2.77765	121107
2.78577	193857
2.79390	209115
2.80202	164670
2.81013	134987
2.81827	136134
2.82638	131879
2.83452	120628
2.84263	112725
2.85075	109351
2.85888	96592
2.86700	95614
2.87512	90021
2.88325	90732
2.89137	88888
2.89950	91131
2.90762	81759
2.91573	82728
2.92387	83934
2.93198	79561
2.94012	73108
2.94823	78787
2.95635	85563
2.96448	99098
2.97260	96399
2.98073	89611
2.98885	87307
2.99697	89187
3.00510	84072
3.01322	80431
3.02133	77181
3.02947	77163
3.03758	78767
3.04572	75169
3.05383	72591
3.06195	80575
3.07008	90494
3.07820	290226
3.08633	1412681
3.09445	3371944
3.10257	4784462
3.11070	5672834
3.11882	4954529
3.12695	3242642
3.13507	2163975
3.14318	1620861
3.15132	1276287
3.15943	1050922
3.16755	905308
3.17568	821702
3.18380	903442
3.19193	1257988
3.20005	1502930
3.20817	1204276
3.21630	904391
3.22442	720995
3.23255	633858
3.24067	555704
3.24878	498963
3.25692	442472
3.26503	412173
3.27315	383792
3.28128	429382
3.28940	938129
3.29753	2754038
3.30565	5734675
3.31377	7238104
3.32190	6009993
3.33002	4085044
3.33815	2705875
3.34627	2028047
3.35438	1592332
3.36252	1334570
3.37063	1147247
3.37877	999049
3.38688	884052
3.39500	795452
3.40313	713515
3.41125	674702
3.41937	616296
3.42750	595854
3.43562	562076
3.44375	529620
3.45187	511387
3.45998	483657
3.46812	494707
3.47623	493893
3.48437	470200
3.49248	447615
3.50060	421956
3.50873	408841
3.51685	388534
3.52497	379647
3.53310	383585
3.54122	385851
3.54935	372740
3.55747	366973
3.56558	371960
3.57372	411100
3.58183	427182
3.58997	389528
3.59808	355781
3.60620	354901
3.61433	353584
3.62245	346863
3.63058	356692
3.63870	340851
3.64682	328720
3.65495	345976
3.66307	645758
3.67118	1927006
3.67932	3941053
3.68743	4428503
3.69557	3106471
3.70368	1949197
3.71180	1411371
3.71993	1153817
3.72805	990050
3.73618	885074
3.74430	782148
3.75242	721361
3.76055	673589
3.76867	630019
3.77680	605005
3.78492	587159
3.79303	564785
3.80117	708236
3.80928	1171744
3.81740	1761875
3.82553	1746080
3.83365	1318228
3.84178	974431
3.84990	804737
3.85802	716257
3.86615	657557
3.87427	603261
3.88240	559726
3.89052	534672
3.89863	500564
3.90677	490185
3.91488	506846
3.92300	614345
3.93113	691614
3.93925	740506
3.94738	1233827
3.95550	3278454
3.96362	6739419
3.97175	8471165
3.97987	6825223
3.98800	4533641
3.99612	5658278
4.00423	1.420561E+07
4.01237	2.740773E+07
4.02048	3.35506E+07
4.02862	2.753958E+07
4.03673	1.635343E+07
4.04485	8926311
4.05298	5762158
4.06110	4216918
4.06922	3297335
4.07735	2687924
4.08547	2247312
4.09360	1972322
4.10172	1714683
4.10983	1518344
4.11797	1393767
4.12608	1267321
4.13422	1209475
4.14233	1185222
4.15045	1165409
4.15858	1118842
4.16670	1026592
4.17483	974234
4.18295	903823
4.19107	852068
4.19920	862142
4.20732	1292515
4.21543	3483937
4.22357	8441127
4.23168	1.380704E+07
4.23982	1.584678E+07
4.24793	1.35833E+07
4.25605	8992797
4.26418	5809744
4.27230	4138017
4.28043	3231535
4.28855	2576653
4.29667	2166092
4.30480	1861568
4.31292	1651923
4.32103	1453971
4.32917	1340276
4.33728	1243837
4.34542	1182390
4.35353	1130533
4.36165	1089025
4.36978	1037459
4.37790	977520
4.38603	916639
4.39415	857947
4.40227	820870
4.41040	783203
4.41852	750998
4.42665	727155
4.43477	684991
4.44288	663205
4.45102	655062
4.45913	635315
4.46725	623668
4.47538	604014
4.48350	578215
4.49163	564270
4.49975	547671
4.50787	539883
4.51600	519245
4.52412	510003
4.53225	499767
4.54037	485852
4.54848	476457
4.55662	479989
4.56473	455180
4.57285	448986
4.58098	436350
4.58910	430700
4.59723	425105
4.60535	419883
4.61347	411756
4.62160	433766
4.62972	525300
4.63785	657588
4.64597	742482
4.65408	696349
4.66222	582172
4.67033	503081
4.67847	455339
4.68658	430588
4.69470	414185
4.70283	396773
4.71095	376255
4.71907	366616
4.72720	361933
4.73532	355196
4.74345	352282
4.75157	342672
4.75968	334903
4.76782	327875
4.77593	322943
4.78407	341711
4.79218	417070
4.80030	581619
4.80843	742859
4.81655	724849
4.82468	617115
4.83280	530841
4.84092	498670
4.84905	477571
4.85717	454394
4.86528	420415
4.87342	404103
4.88153	378572
4.88967	362910
4.89778	348202
4.90590	338289
4.91403	330296
4.92215	353319
4.93028	483050
4.93840	998670
4.94652	2259645
4.95465	3937409
4.96277	5141998
4.97090	4950723
4.97902	3874246
4.98713	2670367
4.99527	1839205
5.00338	1343706
5.01150	1087478
5.01963	948979
5.02775	985365
5.03588	1193770
5.04400	1369636
5.05212	1320375
5.06025	1112880
5.06837	921596
5.07650	780962
5.08462	716197
5.09273	651650
5.10087	602811
5.10898	578351
5.11710	550237
5.12523	532445
5.13335	508527
5.14148	500739
5.14960	499020
5.15772	497571
5.16585	519715
5.17397	530893
5.18210	512682
5.19022	490138
5.19833	476459
5.20647	483468
5.21458	481485
5.22272	472975
5.23083	461949
5.23895	447429
5.24708	439436
5.25520	401625
5.26332	378439
5.27145	359711
5.27957	347381
5.28770	345981
5.29582	336366
5.30393	331601
5.31207	334965
5.32018	331955
5.32832	335602
5.33643	362190
5.34455	388791
5.35268	370194
5.36080	341020
5.36892	325304
5.37705	313500
5.38517	325531
5.39330	324285
5.40142	317956
5.40953	318347
5.41767	304340
5.42578	303415
5.43392	295539
5.44203	299737
5.45015	302696
5.45828	302474
5.46640	297032
5.47453	278472
5.48265	263651
5.49077	270549
5.49890	269221
5.50702	279289
5.51513	284351
5.52327	282361
5.53138	278498
5.53952	274096
5.54763	261110
5.55575	262582
5.56388	269960
5.57200	286859
5.58013	277710
5.58825	274151
5.59637	268341
5.60450	261168
5.61262	250583
5.62075	252604
5.62887	261424
5.63698	263611
5.64512	272001
5.65323	269031
5.66135	263947
5.66948	258355
5.67760	276148
5.68573	303305
5.69385	335027
5.70197	331724
5.71010	312047
5.71822	287475
5.72635	261444
5.73447	252390
5.74258	245319
5.75072	241546
5.75883	233777
5.76695	227381
5.77508	215376
5.78320	224613
5.79133	219030
5.79945	219371
5.80757	215676
5.81570	219058
5.82382	219818
5.83195	224115
5.84007	217239
5.84818	227136
5.85632	226831
5.86443	217209
5.87257	211714
5.88068	205117
5.88880	204276
5.89693	206473
5.90505	186966
5.91317	171268
5.92130	159049
5.92942	151578
5.93755	153492
5.94567	163397
5.95378	186209
5.96192	200263
5.97003	232302
5.97817	262514
5.98628	297911
5.99440	303470
6.00253	288200
6.01065	252915
6.01878	229365
6.02690	211665
6.03502	203442
6.04315	189095
6.05127	169201
6.05938	162512
6.06752	155759
6.07563	151678
6.08377	151929
6.09188	156160
6.10000	156587
6.10813	150579
6.11625	158105
6.12438	191812
6.13250	254804
6.14062	377745
6.14875	452810
6.15687	439472
6.16498	363340
6.17312	290225
6.18123	244448
6.18937	213048
6.19748	207228
6.20560	193464
6.21373	197457
6.22185	189654
6.22998	193722
6.23810	185863
6.24622	183184
6.25435	180677
6.26247	182152
6.27060	182991
6.27872	188072
6.28683	188930
6.29497	179693
6.30308	186209
6.31120	194944
6.31933	205731
6.32745	212267
6.33558	240072
6.34370	248699
6.35182	229679
6.35995	224969
6.36807	209781
6.37620	217547
6.38432	201598
6.39243	195517
6.40057	197848
6.40868	201241
6.41680	191924
6.42493	192712
6.43305	185273
6.44118	185183
6.44930	193446
6.45742	184855
6.46555	182077
6.47367	184453
6.48180	191405
6.48992	192054
6.49803	191344
6.50617	191867
6.51428	192540
6.52242	193913
6.53053	192274
6.53865	194194
6.54678	195621
6.55490	196674
6.56302	194853
6.57115	206257
6.57927	213507
6.58740	221731
6.59552	221073
6.60363	207341
6.61177	207377
6.61988	197257
6.62802	210642
6.63613	208851
6.64425	208428
6.65238	222831
6.66050	255411
6.66863	308501
6.67675	331136
6.68487	312219
6.69300	268006
6.70112	248766
6.70923	232707
6.71737	231310
6.72548	218161
6.73362	226390
6.74173	224542
6.74985	199833
6.75798	183449
6.76610	167867
6.77423	163126
6.78235	152463
6.79047	148036
6.79860	147594
6.80672	142671
6.81483	135577
6.82297	134893
6.83108	144071
6.83922	136358
6.84733	154042
6.85545	169359
6.86358	193549
6.87170	186069
6.87983	165640
6.88795	130207
6.89607	111242
6.90420	103674
6.91232	93986
6.92045	89180
6.92857	88457
6.93668	85334
6.94482	88631
6.95293	86708
6.96105	87867
6.96918	97752
6.97730	116558
6.98543	114374
6.99355	109389
7.00167	105248
7.00980	94713
7.01792	91910
7.02605	85731
7.03417	85363
7.04228	78297
7.05042	82311
7.05853	80896
7.06667	82419
7.07478	79569
7.08290	87377
7.09103	80423
7.09915	75853
7.10727	76433
7.11540	69221
7.12352	73798
7.13165	77403
7.13977	91822
7.14788	128277
7.15602	173673
7.16413	228711
7.17227	237879
7.18038	201529
7.18850	170716
7.19663	128302
7.20475	124529
7.21287	190984
7.22100	425714
7.22912	870253
7.23725	1345211
7.24537	1442928
7.25348	1155503
7.26162	752183
7.26973	472743
7.27787	346005
7.28598	249837
7.29410	186943
7.30223	134059
7.31035	114476
7.31848	114164
7.32660	107081
7.33472	107030
7.34285	106448
7.35097	99576
7.35908	95108
7.36722	88130
7.37533	90707
7.38347	93883
7.39158	94027
7.39970	100329
7.40783	93845
7.41595	88592
7.42408	85321
7.43220	92290
7.44032	84699
7.44845	86452
7.45657	86485
7.46470	82001
7.47282	79053
7.48093	74072
7.48907	76662
7.49718	71719
7.50530	71428
7.51343	75256
7.52155	84632
7.52968	112061
7.53780	135445
7.54592	170713
7.55405	204107
7.56217	211608
7.57030	202197
7.57842	164158
7.58653	134515
7.59467	106843
7.60278	93909
7.61090	86398
7.61903	80061
7.62715	80300
7.63528	72245
7.64340	73396
7.65152	76575
7.65965	68878
7.66777	67566
7.67590	64766
7.68402	69147
7.69213	66469
7.70027	69530
7.70838	63679
7.71652	63684
7.72463	66870
7.73275	66947
7.74088	67702
7.74900	68691
7.75712	69585
7.76525	72708
7.77337	68270
7.78150	72378
7.78962	73168
7.79773	80176
7.80587	79786
7.81398	84082
7.82212	76515
7.83023	75576
7.83835	65914
7.84648	66269
7.85460	63517
7.86272	63130
7.87085	65381
7.87897	70830
7.88710	70999
7.89522	73334
7.90333	67454
7.91147	67246
7.91958	71544
7.92772	81889
7.93583	97313
7.94395	107180
7.95208	113240
7.96020	109852
7.96833	97122
7.97645	79093
7.98457	79469
7.99270	72280
8.00082	66695
8.00893	67032
8.01707	61160
8.02518	59084
8.03332	62581
8.04143	60728
8.04955	59473
8.05768	61384
8.06580	61428
8.07393	56662
8.08205	59856
8.09017	54620
8.09830	54571
8.10642	60203
8.11455	56992
8.12267	58209
8.13078	68091
8.13892	75875
8.14703	90090
8.15515	94729
8.16328	96929
8.17140	77768
8.17953	71865
8.18765	64271
8.19577	57559
8.20390	55780
8.21202	58699
8.22015	59985
8.22827	58755
8.23638	55115
8.24452	56250
8.25263	57070
8.26075	52941
8.26888	55526
8.27700	52389
8.28513	53055
8.29325	56950
8.30137	57362
8.30950	57362
8.31762	58567
8.32575	58727
8.33387	62721
8.34198	56792
8.35012	57564
8.35823	58738
8.36637	59746
8.37448	57704
8.38260	56945
8.39073	62741
8.39885	58862
8.40697	51089
8.41510	51365
8.42322	49953
8.43135	52445
8.43947	52392
8.44758	50589
8.45572	50106
8.46383	49277
8.47197	48101
8.48008	53776
8.48820	51183
8.49633	50626
8.50445	52696
8.51258	52157
8.52070	69235
8.52882	106993
8.53695	187809
8.54507	299288
8.55318	370402
8.56132	362168
8.56943	278812
8.57757	180976
8.58568	123064
8.59380	106312
8.60193	111957
8.61005	110539
8.61818	103671
8.62630	94530
8.63442	79009
8.64255	71126
8.65067	68587
8.65878	66152
8.66692	66776
8.67503	65785
8.68317	60460
8.69128	61277
8.69940	62920
8.70753	60356
8.71565	64597
8.72378	59659
8.73190	63892
8.74002	83560
8.74815	158522
8.75627	363351
8.76440	728214
8.77252	1224255
8.78063	1558193
8.78877	1530733
8.79688	1177655
8.80500	758570
8.81313	467597
8.82125	304776
8.82938	226219
8.83750	204511
8.84562	200036
8.85375	201410
8.86187	195405
8.87000	180938
8.87812	170622
8.88623	157345
8.89437	145698
8.90248	140045
8.91060	132731
8.91873	138825
8.92685	137700
8.93498	152116
8.94310	147007
8.95122	149563
8.95935	147557
8.96747	145044
8.97560	138389
8.98372	130097
8.99183	126097
8.99997	116887
9.00808	116499
9.01622	111723
9.02433	104543
9.03245	103321
9.04058	99446
9.04870	99211
9.05682	95747
9.06495	96201
9.07307	100093
9.08120	97947
9.08932	98755
9.09743	113542
9.10557	114876
9.11368	123026
9.12182	124559
9.12993	128526
9.13805	110427
9.14618	106461
9.15430	100297
9.16243	94992
9.17055	96606
9.17867	90120
9.18680	86338
9.19492	87665
9.20303	80933
9.21117	85751
9.21928	84348
9.22742	82371
9.23553	82717
9.24365	84702
9.25178	82996
9.25990	85514
9.26803	77835
9.27615	77245
9.28427	84951
9.29240	82299
9.30052	76223
9.30863	73998
9.31677	71871
9.32488	76327
9.33302	73760
9.34113	69028
9.34925	76895
9.35738	71698
9.36550	67508
9.37363	72470
9.38175	69459
9.38987	68546
9.39800	73607
9.40612	76639
9.41425	85663
9.42237	87518
9.43048	98737
9.43862	102410
9.44673	101834
9.45485	97945
9.46298	94245
9.47110	80627
9.47923	77483
9.48735	75488
9.49547	70852
9.50360	79339
9.51172	85832
9.51985	92419
9.52797	95029
9.53608	98429
9.54422	84408
9.55233	80924
9.56047	66989
9.56858	65392
9.57670	65516
9.58483	59360
9.59295	64093
9.60107	59885
9.60920	59702
9.61732	52998
9.62545	49004
9.63357	47046
9.64168	49137
9.64982	49971
9.65793	47197
9.66607	47862
9.67418	50048
9.68230	51495
9.69043	48594
9.69855	47076
9.70667	48533
9.71480	48621
9.72292	44265
9.73105	42867
9.73917	43653
9.74728	42968
9.75542	40948
9.76353	42979
9.77167	46974
9.77978	42508
9.78790	39630
9.79603	43957
9.80415	43857
9.81228	43355
9.82040	44449
9.82852	42895
9.83665	41029
9.84477	40934
9.85288	43848
9.86102	46675
9.86913	45921
9.87727	52314
9.88538	51856
9.89350	49910
9.90163	44401
9.90975	48947
9.91788	49499
9.92600	57590
9.93412	77785
9.94225	111325
9.95037	148462
9.95848	178000
9.96662	178128
9.97473	168151
9.98287	134322
9.99098	112621
9.99910	95071
10.00723	84770
10.01535	74364
10.02348	65279
10.03160	64762
10.03972	60441
10.04785	59007
10.05597	52338
10.06410	54386
10.07222	58000
10.08033	57888
10.08847	57212
10.09658	57325
10.10470	59386
10.11283	55763
10.12095	58206
10.12908	56574
10.13720	56260
10.14532	53080
10.15345	52935
10.16157	53550
10.16970	53579
10.17782	51080
10.18593	46908
10.19407	51500
10.20218	50614
10.21032	49629
10.21843	51149
10.22655	52609
10.23468	53838
10.24280	59034
10.25092	64774
10.25905	88523
10.26717	167055
10.27530	377576
10.28342	804555
10.29153	1395339
10.29967	2037544
10.30778	2854942
10.31592	4215579
10.32403	6045364
10.33215	7869572
10.34028	8449749
10.34840	7441311
10.35653	5330174
10.36465	3667364
10.37277	2590074
10.38090	1942439
10.38902	1399993
10.39713	1016362
10.40527	749822
10.41338	552125
10.42152	450077
10.42963	396210
10.43775	363331
10.44588	333173
10.45400	310070
10.46213	293238
10.47025	269419
10.47837	256773
10.48650	242428
10.49462	221990
10.50273	217579
10.51087	206280
10.51898	206804
10.52712	188258
10.53523	184514
10.54335	171655
10.55148	172503
10.55960	171096
10.56773	167797
10.57585	162943
10.58397	157140
10.59210	150563
10.60022	143534
10.60835	137003
10.61647	131595
10.62458	129944
10.63272	127122
10.64083	118473
10.64895	121973
10.65708	115224
10.66520	115744
10.67333	113389
10.68145	110110
10.68957	105813
10.69770	105761
10.70582	102295
10.71395	104719
10.72207	105981
10.73018	103580
10.73832	99262
10.74643	103046
10.75455	98542
10.76268	98781
10.77080	97219
10.77893	89429
10.78705	84839
10.79517	86512
10.80330	82724
10.81142	86387
10.81955	90401
10.82767	83846
10.83578	81649
10.84392	82546
10.85203	74187
10.86017	74607
10.86828	79025
10.87640	74541
10.88453	72783
10.89265	76300
10.90077	71588
10.90890	73739
10.91702	70702
10.92515	71347
10.93327	70728
10.94138	73674
10.94952	65285
10.95763	71125
10.96577	69543
10.97388	71561
10.98200	69897
10.99013	75772
10.99825	73049
11.00638	70509
11.01450	64393
11.02262	67405
11.03075	61673
11.03887	61999
11.04698	60530
11.05512	59222
11.06323	60275
11.07137	71748
11.07948	67825
11.08760	68160
11.09573	71890
11.10385	65656
11.11198	62304
11.12010	62699
11.12822	56471
11.13635	55629
11.14447	50446
11.15258	51737
11.16072	58179
11.16883	57065
11.17697	59863
11.18508	60934
11.19320	59667
11.20133	61061
11.20945	60127
11.21758	56467
11.22570	52707
11.23382	54292
11.24195	51529
11.25007	52684
11.25820	48795
11.26632	47851
11.27443	44129
11.28257	49570
11.29068	47185
11.29880	58976
11.30693	67215
11.31505	90273
11.32318	133145
11.33130	182774
11.33942	227460
11.34755	258736
11.35567	238238
11.36380	199051
11.37192	148862
11.38003	117129
11.38817	94265
11.39628	82102
11.40442	75305
11.41253	74221
11.42065	73356
11.42878	76365
11.43690	72512
11.44502	70861
11.45315	65339
11.46127	65541
11.46940	65947
11.47752	73512
11.48563	85804
11.49377	100698
11.50188	106177
11.51002	112886
11.51813	106951
11.52625	95196
11.53438	86613
11.54250	79713
11.55062	80007
11.55875	72591
11.56687	69243
11.57500	67500
11.58312	66304
11.59123	73705
11.59937	84869
11.60748	101692
11.61562	125728
11.62373	133447
11.63185	128451
11.63998	108588
11.64810	84802
11.65623	74385
11.66435	69542
11.67247	70162
11.68060	68632
11.68872	69378
11.69683	69576
11.70497	66630
11.71308	74779
11.72122	68544
11.72933	65671
11.73745	66313
11.74558	59354
11.75370	58706
11.76183	55588
11.76995	53302
11.77807	52169
11.78620	60141
11.79432	53851
11.80243	55288
11.81057	57569
11.81868	59809
11.82682	54628
11.83493	56523
11.84305	59605
11.85118	52499
11.85930	59447
11.86743	53206
11.87555	50668
11.88367	49556
11.89180	49784
11.89992	49480
11.90805	53538
11.91617	53747
11.92428	56286
11.93242	58969
11.94053	61462
11.94865	54374
11.95678	56044
11.96490	58399
11.97303	75833
11.98115	138809
11.98927	266776
11.99740	471856
12.00552	722838
12.01365	842195
12.02177	819081
12.02988	682217
12.03802	474916
12.04613	310301
12.05427	213387
12.06238	164332
12.07050	143643
12.07863	126334
12.08675	118802
12.09487	119254
12.10300	114700
12.11112	111803
12.11925	102279
12.12737	100482
12.13548	98555
12.14362	97164
12.15173	91898
12.15987	87997
12.16798	87987
12.17610	79962
12.18423	80037
12.19235	79091
12.20047	75564
12.20860	79604
12.21672	83141
12.22485	71338
12.23297	77047
12.24108	71197
12.24922	70344
12.25733	72662
12.26547	69898
12.27358	68797
12.28170	70654
12.28983	68468
12.29795	64978
12.30608	73344
12.31420	64668
12.32232	65628
12.33045	65578
12.33857	60485
12.34668	59382
12.35482	62333
12.36293	61929
12.37107	58457
12.37918	60915
12.38730	62204
12.39543	68457
12.40355	70372
12.41168	81753
12.41980	86127
12.42792	99166
12.43605	95191
12.44417	90760
12.45230	83174
12.46042	77329
12.46853	74395
12.47667	66820
12.48478	66983
12.49290	63094
12.50103	59356
12.50915	61582
12.51728	60167
12.52540	68458
12.53352	96263
12.54165	162772
12.54977	300142
12.55790	475658
12.56602	628283
12.57413	637318
12.58227	529787
12.59038	367855
12.59850	236398
12.60663	160708
12.61475	127769
12.62288	110513
12.63100	97209
12.63912	95811
12.64725	83653
12.65537	84568
12.66350	79823
12.67162	72492
12.67973	70553
12.68787	70407
12.69598	71802
12.70412	64751
12.71223	63712
12.72035	66348
12.72848	70970
12.73660	76604
12.74472	78924
12.75285	71227
12.76097	66592
12.76910	64848
12.77722	61506
12.78533	57933
12.79347	55700
12.80158	54134
12.80972	49735
12.81783	52470
12.82595	51126
12.83408	45754
12.84220	47392
12.85033	48078
12.85845	46931
12.86657	52274
12.87470	44305
12.88282	49904
12.89093	47646
12.89907	51049
12.90718	47463
12.91532	48307
12.92343	46262
12.93155	44182
12.93968	44992
12.94780	57735
12.95593	83690
12.96405	135538
12.97217	211758
12.98030	298797
12.98842	329389
12.99653	296833
13.00467	226411
13.01278	165632
13.02092	118508
13.02903	91097
13.03715	83215
13.04528	76403
13.05340	79393
13.06153	90804
13.06965	89041
13.07777	87728
13.08590	86672
13.09402	80342
13.10215	73299
13.11027	63859
13.11838	59793
13.12652	61432
13.13463	64072
13.14275	61536
13.15088	62987
13.15900	60647
13.16713	56619
13.17525	59411
13.18337	59083
13.19150	55910
13.19962	57499
13.20775	58431
13.21587	59230
13.22398	59348
13.23212	59067
13.24023	54897
13.24835	54491
13.25648	56585
13.26460	52392
13.27273	50243
13.28085	46425
13.28897	46255
13.29710	45990
13.30522	46706
13.31335	47768
13.32147	42860
13.32958	46185
13.33772	45071
13.34583	44220
13.35397	42214
13.36208	45242
13.37020	43123
13.37833	46592
13.38645	42496
13.39457	43290
13.40270	41870
13.41082	41285
13.41895	38094
13.42707	41440
13.43518	39688
13.44332	38198
13.45143	42270
13.45957	41075
13.46768	42421
13.47580	42121
13.48393	42461
13.49205	44793
13.50018	46773
13.50830	44836
13.51642	43243
13.52455	44889
13.53267	46358
13.54078	43713
13.54892	46785
13.55703	42848
13.56517	43435
13.57328	46475
13.58140	45543
13.58953	50379
13.59765	61726
13.60578	83312
13.61390	112806
13.62202	148963
13.63015	154086
13.63827	137722
13.64638	108596
13.65452	87599
13.66263	63291
13.67077	53608
13.67888	51498
13.68700	49367
13.69513	50556
13.70325	49706
13.71138	48666
13.71950	50037
13.72762	65969
13.73575	131807
13.74387	304088
13.75200	759938
13.76012	1616321
13.76823	2740462
13.77637	3750703
13.78448	4163955
13.79260	3693137
13.80073	2694737
13.80885	1742594
13.81698	1125419
13.82510	812029
13.83322	660180
13.84135	598352
13.84947	528707
13.85760	476548
13.86572	408594
13.87383	372394
13.88197	323058
13.89008	301997
13.89822	272968
13.90633	258939
13.91445	241058
13.92258	224007
13.93070	220946
13.93882	214397
13.94695	214326
13.95507	226521
13.96320	247086
13.97132	288980
13.97943	323051
13.98757	342124
13.99568	316052
14.00382	283498
14.01193	236492
14.02005	211960
14.02818	193580
14.03630	177699
14.04442	168087
14.05255	166020
14.06067	162546
14.06880	162314
14.07692	160673
14.08503	150626
14.09317	143483
14.10128	142981
14.10942	148980
14.11753	136341
14.12565	149841
14.13378	158187
14.14190	184154
14.15003	207162
14.15815	222525
14.16627	233119
14.17440	267272
14.18252	344686
14.19063	436394
14.19877	521810
14.20688	533581
14.21502	469280
14.22313	376151
14.23125	283255
14.23938	240224
14.24750	212543
14.25563	203975
14.26375	181722
14.27187	163258
14.28000	145662
14.28812	136378
14.29623	121778
14.30437	118216
14.31248	107028
14.32062	105992
14.32873	106874
14.33685	98364
14.34498	96731
14.35310	90192
14.36123	81741
14.36935	80377
14.37747	72998
14.38560	82003
14.39372	105821
14.40185	162296
14.40997	249299
14.41808	353257
14.42622	412302
14.43433	410041
14.44245	328215
14.45058	240173
14.45870	169423
14.46683	133955
14.47495	108658
14.48307	96906
14.49120	93698
14.49932	91114
14.50745	92106
14.51557	94912
14.52368	98221
14.53182	103019
14.53993	95173
14.54807	88008
14.55618	81487
14.56430	77835
14.57243	72031
14.58055	70550
14.58867	63206
14.59680	64344
14.60492	65808
14.61305	58674
14.62117	62622
14.62928	59951
14.63742	62731
14.64553	57644
14.65367	60667
14.66178	59792
14.66990	56628
14.67803	57176
14.68615	56249
14.69427	56373
14.70240	59078
14.71052	58061
14.71865	56328
14.72677	58651
14.73488	60292
14.74302	61891
14.75113	63283
14.75927	65379
14.76738	70404
14.77550	63216
14.78363	75318
14.79175	106764
14.79988	216666
14.80800	485802
14.81612	966231
14.82425	1649786
14.83237	2133285
14.84048	2213064
14.84862	1893020
14.85673	1375674
14.86487	868836
14.87298	548224
14.88110	372108
14.88923	284508
14.89735	234052
14.90548	189895
14.91360	170877
14.92172	154546
14.92985	143679
14.93797	132781
14.94610	133052
14.95422	127679
14.96233	126230
14.97047	131526
14.97858	130680
14.98670	123634
14.99483	122967
15.00295	111461
15.01108	104685
15.01920	99137
15.02732	96182
15.03545	90762
15.04357	87587
15.05170	85886
15.05982	84810
15.06793	83166
15.07607	76686
15.08418	79163
15.09230	74670
15.10043	69748
15.10855	71618
15.11668	68471
15.12480	76192
15.13292	75339
15.14105	84331
15.14917	83515
15.15730	83161
15.16542	76235
15.17353	69736
15.18167	61430
15.18978	61876
15.19792	57505
15.20603	56022
15.21415	53181
15.22228	58444
15.23040	53726
15.23852	53459
15.24665	51154
15.25477	51054
15.26290	50218
15.27102	49058
15.27913	48700
15.28727	48600
15.29538	43406
15.30352	45934
15.31163	47132
15.31975	45229
15.32788	43678
15.33600	43811
15.34412	42754
15.35225	44242
15.36037	49725
15.36850	42546
15.37662	46358
15.38473	53910
15.39287	54162
15.40098	58796
15.40912	65474
15.41723	63029
15.42535	73680
15.43348	61667
15.44160	60621
15.44973	56228
15.45785	49124
15.46597	50556
15.47410	53159
15.48222	64500
15.49033	71384
15.49847	81333
15.50658	88174
15.51472	87984
15.52283	89964
15.53095	85179
15.53908	87001
15.54720	86681
15.55533	84984
15.56345	78919
15.57157	68906
15.57970	60364
15.58782	55581
15.59595	48879
15.60407	49375
15.61218	46988
15.62032	50043
15.62843	46074
15.63655	45393
15.64468	45591
15.65280	49897
15.66093	44613
15.66905	42492
15.67717	44050
15.68530	41165
15.69342	44456
15.70155	43086
15.70967	41037
15.71778	44944
15.72592	44954
15.73403	46665
15.74217	48198
15.75028	53019
15.75840	67804
15.76653	103615
15.77465	156401
15.78277	216754
15.79090	247160
15.79902	258373
15.80715	229675
15.81527	181049
15.82338	126358
15.83152	98464
15.83963	82336
15.84777	69637
15.85588	70754
15.86400	65491
15.87213	61665
15.88025	60088
15.88837	59386
15.89650	59384
15.90462	58789
15.91275	55133
15.92087	55080
15.92898	53795
15.93712	61970
15.94523	74705
15.95337	97420
15.96148	137876
15.96960	177406
15.97773	206312
15.98585	233752
15.99398	209096
16.00210	181222
16.01022	149621
16.01835	127614
16.02647	112429
16.03458	102575
16.04272	97099
16.05083	86417
16.05897	79580
16.06708	78624
16.07520	64611
16.08333	60724
16.09145	58614
16.09958	60702
16.10770	56812
16.11582	54586
16.12395	58564
16.13207	57574
16.14018	65194
16.14832	62864
16.15643	57939
16.16457	61100
16.17268	54333
16.18080	57958
16.18893	54110
16.19705	54631
16.20518	52694
16.21330	54659
16.22142	57713
16.22955	53338
16.23767	58682
16.24580	53288
16.25392	53361
16.26203	60064
16.27017	54064
16.27828	52039
16.28640	53136
16.29453	55258
16.30265	55944
16.31078	55181
16.31890	53290
16.32702	59852
16.33515	56795
16.34327	60483
16.35140	83312
16.35952	127602
16.36763	171754
16.37577	206020
16.38388	231528
16.39202	213903
16.40013	189584
16.40825	145893
16.41638	105927
16.42450	92263
16.43262	82149
16.44075	77289
16.44887	87590
16.45700	116524
16.46512	180971
16.47323	260673
16.48137	336807
16.48948	366864
16.49762	328975
16.50573	248328
16.51385	185430
16.52198	133369
16.53010	102416
16.53822	83020
16.54635	80566
16.55447	74453
16.56260	71279
16.57072	67897
16.57883	70810
16.58697	73797
16.59508	82759
16.60322	96674
16.61133	109287
16.61945	113645
16.62758	111872
16.63570	100757
16.64383	94956
16.65195	78473
16.66007	70515
16.66820	64960
16.67632	58623
16.68443	61948
16.69257	53947
16.70068	60176
16.70882	57366
16.71693	60947
16.72505	51537
16.73318	49766
16.74130	49558
16.74943	46660
16.75755	53085
16.76567	51341
16.77380	56905
16.78192	54517
16.79005	52111
16.79817	52670
16.80628	47512
16.81442	47012
16.82253	45918
16.83065	42850
16.83878	45738
16.84690	44356
16.85503	45041
16.86315	42071
16.87127	42898
16.87940	42317
16.88752	42319
16.89565	42172
16.90377	42848
16.91188	42474
16.92002	43965
16.92813	40146
16.93625	39586
16.94438	44847
16.95250	41129
16.96063	40077
16.96875	37746
16.97687	43495
16.98500	41763
16.99312	43830
17.00125	41247
17.00937	42613
17.01748	48828
17.02562	44208
17.03373	47257
17.04187	49010
17.04998	54901
17.05810	54294
17.06623	57683
17.07435	57119
17.08247	57877
17.09060	61727
17.09872	64711
17.10685	71751
17.11497	79683
17.12308	86038
17.13122	81966
17.13933	82623
17.14747	72197
17.15558	65254
17.16370	64877
17.17183	61347
17.17995	53409
17.18807	50815
17.19620	49450
17.20432	46350
17.21245	47377
17.22057	42122
17.22868	42528
17.23682	48286
17.24493	41646
17.25307	45101
17.26118	41770
17.26930	42369
17.27743	43116
17.28555	42585
17.29368	44507
17.30180	40992
17.30992	46562
17.31805	52026
17.32617	58349
17.33428	66497
17.34242	69996
17.35053	70526
17.35867	75339
17.36678	80626
17.37490	74270
17.38303	67334
17.39115	63548
17.39928	61033
17.40740	59008
17.41552	53820
17.42365	53919
17.43177	54298
17.43990	49401
17.44802	55689
17.45613	52498
17.46427	51927
17.47238	45783
17.48050	42997
17.48863	46260
17.49675	45004
17.50488	46181
17.51300	43805
17.52112	41147
17.52925	44026
17.53737	47282
17.54550	45215
17.55362	51142
17.56173	65526
17.56987	103263
17.57798	171211
17.58610	286461
17.59423	444035
17.60235	645064
17.61048	758208
17.61860	776162
17.62672	684103
17.63485	549235
17.64297	429355
17.65110	343240
17.65922	308585
17.66733	300558
17.67547	274950
17.68358	243127
17.69172	205920
17.69983	175604
17.70795	141386
17.71608	119014
17.72420	108201
17.73232	96506
17.74045	95561
17.74857	87564
17.75670	80354
17.76482	82418
17.77293	83121
17.78107	85262
17.78918	102013
17.79732	146773
17.80543	232809
17.81355	398869
17.82168	593507
17.82980	736202
17.83793	752143
17.84605	657092
17.85417	515878
17.86230	372048
17.87042	270558
17.87853	216596
17.88667	172708
17.89478	150980
17.90292	135601
17.91103	119855
17.91915	109583
17.92728	103947
17.93540	97765
17.94353	93599
17.95165	89874
17.95977	82352
17.96790	82194
17.97602	82003
17.98413	80992
17.99227	74608
18.00038	76842
18.00852	79294
18.01663	80656
18.02475	80625
18.03288	93551
18.04100	100789
18.04913	125385
18.05725	189963
18.06537	375939
18.07350	743655
18.08162	1289960
18.08975	1836550
18.09787	2190349
18.10598	2192531
18.11412	1786397
18.12223	1331102
18.13035	968293
18.13848	763909
18.14660	735954
18.15473	786601
18.16285	811876
18.17097	836425
18.17910	818487
18.18722	789444
18.19535	754267
18.20347	738462
18.21158	735425
18.21972	708004
18.22783	687072
18.23595	667799
18.24408	662792
18.25220	649506
18.26033	619658
18.26845	614565
18.27657	581783
18.28470	557947
18.29282	542804
18.30095	522135
18.30907	499314
18.31718	470216
18.32532	470808
18.33343	463423
18.34157	464617
18.34968	454463
18.35780	441614
18.36593	452589
18.37405	445895
18.38217	441802
18.39030	470226
18.39842	510912
18.40655	563743
18.41467	628204
18.42278	675500
18.43092	687997
18.43903	664189
18.44717	621643
18.45528	583140
18.46340	596575
18.47153	631021
18.47965	675243
18.48778	698587
18.49590	666329
18.50402	589287
18.51215	540827
18.52027	472061
18.52838	425875
18.53652	399173
18.54463	384130
18.55277	365768
18.56088	352760
18.56900	352469
18.57713	350630
18.58525	339741
18.59338	331877
18.60150	340634
18.60962	326771
18.61775	318750
18.62587	316749
18.63398	314259
18.64212	311729
18.65023	304855
18.65837	306538
18.66648	281727
18.67460	293320
18.68273	282926
18.69085	275727
18.69898	274636
18.70710	279401
18.71522	275721
18.72335	268547
18.73147	269773
18.73960	253841
18.74772	249240
18.75583	253663
18.76397	249642
18.77208	238879
18.78020	239854
18.78833	240487
18.79645	242314
18.80458	242847
18.81270	231147
18.82082	231381
18.82895	237500
18.83707	229878
18.84520	231307
18.85332	217417
18.86143	217540
18.86957	218257
18.87768	216819
18.88582	211631
18.89393	204178
18.90205	208554
18.91018	203302
18.91830	212220
18.92642	210407
18.93455	206942
18.94267	206198
18.95080	204066
18.95892	210045
18.96703	211472
18.97517	213348
18.98328	208782
18.99142	191986
18.99953	192317
19.00765	191961
19.01578	182459
19.02390	186154
19.03202	184683
19.04015	185314
19.04827	176162
19.05640	176530
19.06452	184732
19.07263	189352
19.08077	202217
19.08888	236353
19.09702	276202
19.10513	296154
19.11325	311071
19.12138	299783
19.12950	263672
19.13763	234853
19.14575	221096
19.15387	209051
19.16200	196462
19.17012	181304
19.17823	178607
19.18637	169076
19.19448	169776
19.20262	164814
19.21073	168714
19.21885	156161
19.22698	157936
19.23510	154545
19.24323	152753
19.25135	149381
19.25947	147901
19.26760	151354
19.27572	155801
19.28385	156829
19.29197	161236
19.30008	165424
19.30822	160411
19.31633	161341
19.32445	160324
19.33258	155070
19.34070	155301
19.34883	167126
19.35695	184805
19.36507	205065
19.37320	226261
19.38132	237828
19.38945	228426
19.39757	210132
19.40568	182961
19.41382	164922
19.42193	145669
19.43005	144180
19.43818	142691
19.44630	133365
19.45443	132568
19.46255	140673
19.47067	151601
19.47880	181199
19.48692	238731
19.49505	288972
19.50317	320164
19.51128	337340
19.51942	285938
19.52753	232505
19.53567	191705
19.54378	151858
19.55190	140323
19.56003	136511
19.56815	124705
19.57627	122428
19.58440	119670
19.59252	113368
19.60065	118127
19.60877	112672
19.61688	110888
19.62502	111428
19.63313	116770
19.64127	125727
19.64938	149685
19.65750	177840
19.66563	218217
19.67375	248804
19.68187	262956
19.69000	268538
19.69812	245222
19.70625	234411
19.71437	207160
19.72248	188486
19.73062	172284
19.73873	157293
19.74687	144155
19.75498	145164
19.76310	132355
19.77123	130959
19.77935	127863
19.78748	132662
19.79560	134112
19.80372	133471
19.81185	133280
19.81997	122351
19.82808	124094
19.83622	119969
19.84433	122912
19.85247	177696
19.86058	332538
19.86870	737643
19.87683	1541961
19.88495	2808829
19.89308	4281271
19.90120	5459666
19.90932	5736694
19.91745	5100156
19.92557	4018452
19.93370	2746963
19.94182	1917530
19.94993	1376919
19.95807	1120852
19.96618	919820
19.97430	846993
19.98243	764075
19.99055	715879
19.99868	658859
20.00680	611446
20.01492	581989
20.02305	543983
20.03117	518178
20.03930	467863
20.04742	418411
20.05553	350315
20.06367	293704
20.07178	247212
20.07990	220186
20.08803	193257
20.09615	183803
20.10428	170073
20.11240	159893
20.12052	151951
20.12865	148664
20.13677	139911
20.14490	141028
20.15302	137956
20.16113	134596
20.16927	140300
20.17738	146064
20.18552	156866
20.19363	160437
20.20175	155923
20.20988	159074
20.21800	150061
20.22612	142186
20.23425	139793
20.24237	144571
20.25050	151186
20.25862	169666
20.26673	196282
20.27487	220939
20.28298	246412
20.29112	242641
20.29923	224661
20.30735	211574
20.31548	181924
20.32360	161495
20.33173	149222
20.33985	134045
20.34797	118471
20.35610	109289
20.36422	97732
20.37233	90324
20.38047	88296
20.38858	86758
20.39672	86096
20.40483	86398
20.41295	82791
20.42108	93607
20.42920	87395
20.43733	90298
20.44545	97906
20.45357	103441
20.46170	106976
20.46982	115051
20.47793	108135
20.48607	110264
20.49418	96086
20.50232	96781
20.51043	87859
20.51855	87321
20.52668	82414
20.53480	80553
20.54293	82863
20.55105	78936
20.55917	79164
20.56730	78941
20.57542	79256
20.58355	71822
20.59167	69579
20.59978	66899
20.60792	71519
20.61603	69381
20.62415	69470
20.63228	76035
20.64040	71997
20.64853	71284
20.65665	78067
20.66477	72559
20.67290	71942
20.68102	72643
20.68915	70714
20.69727	73350
20.70538	64694
20.71352	71035
20.72163	66526
20.72975	66275
20.73788	67183
20.74600	68903
20.75413	72079
20.76225	71941
20.77037	75633
20.77850	74093
20.78662	94160
20.79475	121851
20.80287	156113
20.81098	203708
20.81912	238968
20.82723	247437
20.83537	217466
20.84348	177738
20.85160	138274
20.85973	112566
20.86785	93854
20.87597	84513
20.88410	79796
20.89222	78624
20.90035	78291
20.90847	73372
20.91658	72009
20.92472	73785
20.93283	73677
20.94097	73544
20.94908	68755
20.95720	74280
20.96533	66031
20.97345	68248
20.98158	61090
20.98970	60982
20.99782	60362
21.00595	64060
21.01407	66089
21.02218	64082
21.03032	63407
21.03843	69820
21.04657	67743
21.05468	64854
21.06280	66435
21.07093	65647
21.07905	65374
21.08718	66323
21.09530	62269
21.10342	57783
21.11155	59078
21.11967	61379
21.12780	63863
21.13592	66124
21.14403	72965
21.15217	78300
21.16028	88568
21.16840	83868
21.17653	82221
21.18465	76918
21.19278	73161
21.20090	74008
21.20902	69680
21.21715	61662
21.22527	68728
21.23340	63905
21.24152	61903
21.24963	60438
21.25777	63703
21.26588	62222
21.27400	58187
21.28213	60828
21.29025	61957
21.29838	57614
21.30650	57446
21.31462	58088
21.32275	59356
21.33087	60651
21.33900	54932
21.34712	58686
21.35523	58445
21.36337	56265
21.37148	60730
21.37962	64605
21.38773	67770
21.39585	80927
21.40398	84294
21.41210	95688
21.42022	96573
21.42835	94716
21.43647	85390
21.44460	77546
21.45272	73061
21.46083	66734
21.46897	67720
21.47708	64864
21.48522	65783
21.49333	64129
21.50145	61076
21.50958	60042
21.51770	57957
21.52582	62135
21.53395	57838
21.54207	56976
21.55020	59878
21.55832	58256
21.56643	64646
21.57457	60728
21.58268	63260
21.59082	68847
21.59893	77241
21.60705	80111
21.61518	77368
21.62330	86686
21.63143	90459
21.63955	84225
21.64767	93134
21.65580	86593
21.66392	86645
21.67203	87036
21.68017	87773
21.68828	84954
21.69642	83606
21.70453	77046
21.71265	72354
21.72078	67605
21.72890	62877
21.73703	69378
21.74515	63191
21.75327	66800
21.76140	62727
21.76952	61428
21.77765	64668
21.78577	58484
21.79388	66062
21.80202	65403
21.81013	67860
21.81825	70345
21.82638	71987
21.83450	74561
21.84263	75628
21.85075	76086
21.85887	72685
21.86700	67804
21.87512	58432
21.88325	58960
21.89137	54360
21.89948	58132
21.90762	57897
21.91573	55987
21.92385	58530
21.93198	52882
21.94010	52554
21.94823	51354
21.95635	52268
21.96447	50526
21.97260	49146
21.98072	47895
21.98885	45667
21.99697	46012
22.00508	53333
22.01322	48354
22.02133	45269
22.02947	48625
22.03758	51170
22.04570	52170
22.05383	50362
22.06195	48752
22.07007	49402
22.07820	53637
22.08632	43435
22.09445	47296
22.10257	50037
22.11068	50382
22.11882	50597
22.12693	44276
22.13507	49082
22.14318	48527
22.15130	50368
22.15943	48827
22.16755	45161
22.17568	42846
22.18380	47336
22.19192	47030
22.20005	46573
22.20817	46886
22.21628	52287
22.22442	50625
22.23253	52372
22.24067	54492
22.24878	52017
22.25690	48324
22.26503	47241
22.27315	52351
22.28128	49551
22.28940	51469
22.29752	56568
22.30565	57751
22.31377	52790
22.32188	52973
22.33002	57460
22.33813	57075
22.34627	54990
22.35438	54056
22.36250	53769
22.37063	52761
22.37875	56166
22.38688	55212
22.39500	60483
22.40312	75718
22.41125	93463
22.41937	99499
22.42750	106003
22.43562	100092
22.44373	92572
22.45187	83735
22.45998	79212
22.46810	76019
22.47623	75049
22.48435	89672
22.49248	97815
22.50060	100281
22.50872	100951
22.51685	97264
22.52497	92749
22.53310	86363
22.54122	81161
22.54933	75736
22.55747	74515
22.56558	69386
22.57370	63907
22.58183	65857
22.58995	57747
22.59808	55365
22.60620	52431
22.61432	57665
22.62245	59922
22.63057	56564
22.63870	54573
22.64682	57661
22.65493	57687
22.66307	61567
22.67118	60749
22.67932	61552
22.68743	58813
22.69555	64967
22.70368	66582
22.71180	66164
22.71992	73523
22.72805	72365
22.73617	63924
22.74430	65363
22.75242	62362
22.76053	55704
22.76867	58122
22.77678	58567
22.78492	65694
22.79303	73177
22.80115	83012
22.80928	99120
22.81740	98897
22.82553	98046
22.83365	84808
22.84177	76882
22.84990	66351
22.85802	65577
22.86613	68310
22.87427	66335
22.88238	68561
22.89052	75943
22.89863	95424
22.90675	114472
22.91488	157608
22.92300	165751
22.93113	187251
22.93925	170549
22.94737	155657
22.95550	125208
22.96362	103214
22.97173	92294
22.97987	79761
22.98798	74311
22.99612	75514
23.00423	80365
23.01235	76467
23.02048	71737
23.02860	75165
23.03673	75128
23.04485	79560
23.05297	75470
23.06110	79826
23.06922	77048
23.07735	78179
23.08547	80360
23.09358	79815
23.10172	74737
23.10983	78032
23.11795	76992
23.12608	74518
23.13420	74632
23.14233	73424
23.15045	74136
23.15857	74181
23.16670	79401
23.17482	80008
23.18295	80416
23.19107	74730
23.19918	78106
23.20732	75219
23.21543	77126
23.22357	71551
23.23168	77826
23.23980	73724
23.24793	77819
23.25605	83289
23.26417	82407
23.27230	83274
23.28042	84914
23.28855	82095
23.29667	80763
23.30478	79625
23.31292	80818
23.32103	79060
23.32917	89871
23.33728	97932
23.34540	115653
23.35353	154774
23.36165	222800
23.36977	328557
23.37790	444267
23.38602	601001
23.39415	731088
23.40227	831789
23.41038	929346
23.41852	957785
23.42663	978994
23.43477	982353
23.44288	921016
23.45100	884435
23.45913	844123
23.46725	782369
23.47538	726969
23.48350	664400
23.49162	622400
23.49975	550766
23.50787	521829
23.51598	481865
23.52412	443974
23.53223	400737
23.54037	381574
23.54848	341715
23.55660	327869
23.56473	315837
23.57285	303832
23.58098	294477
23.58910	308673
23.59722	321414
23.60535	318022
23.61347	314624
23.62158	287950
23.62972	270643
23.63783	251538
23.64597	248532
23.65408	256584
23.66220	249268
23.67033	258392
23.67845	255495
23.68658	226504
23.69470	203531
23.70282	192488
23.71095	169160
23.71907	159600
23.72720	147069
23.73532	152272
23.74343	167363
23.75157	208925
23.75968	332544
23.76780	554835
23.77593	917466
23.78405	1430606
23.79218	1904844
23.80030	2091852
23.80842	2011369
23.81655	1707523
23.82467	1402802
23.83280	1099195
23.84092	877617
23.84903	712298
23.85717	571131
23.86528	482947
23.87342	428184
23.88153	379909
23.88965	343306
23.89778	313510
23.90590	303879
23.91402	275578
23.92215	259198
23.93027	243778
23.93840	234959
23.94652	216188
23.95463	207511
23.96277	190928
23.97088	180424
23.97902	176149
23.98713	175130
23.99525	186106
24.00338	236233
24.01150	331916
24.01962	518464
24.02775	736364
24.03587	902529
24.04400	939102
24.05212	769575
24.06023	562544
24.06837	391449
24.07648	272249
24.08462	210115
24.09273	155657
24.10085	149562
24.10898	132360
24.11710	132727
24.12523	130994
24.13335	127048
24.14147	127852
24.14960	119476
24.15772	124919
24.16583	118972
24.17397	120398
24.18208	116776
24.19022	113220
24.19833	114696
24.20645	109417
24.21458	116794
24.22270	108628
24.23083	103567
24.23895	105235
24.24707	98370
24.25520	93626
24.26332	90849
24.27145	89128
24.27957	89341
24.28768	90309
24.29582	85619
24.30393	91388
24.31205	84789
24.32018	77869
24.32830	80185
24.33643	81230
24.34455	81069
24.35267	81516
24.36080	89699
24.36892	102188
24.37705	121943
24.38517	149756
24.39328	159295
24.40142	157566
24.40953	135576
24.41765	110434
24.42578	98942
24.43390	84887
24.44203	79001
24.45015	85136
24.45827	88033
24.46640	112595
24.47452	148298
24.48265	161559
24.49077	194243
24.49888	215994
24.50702	237192
24.51513	241198
24.52327	254627
24.53138	259971
24.53950	274118
24.54763	289664
24.55575	306743
24.56387	297374
24.57200	298822
24.58012	296430
24.58825	283901
24.59637	272498
24.60448	270378
24.61262	265983
24.62073	251659
24.62887	251034
24.63698	252903
24.64510	249537
24.65323	246753
24.66135	247450
24.66948	242389
24.67760	252062
24.68572	234694
24.69385	230294
24.70197	231150
24.71008	224055
24.71822	222557
24.72633	221746
24.73447	223123
24.74258	228268
24.75070	219268
24.75883	220474
24.76695	215751
24.77508	221911
24.78320	217404
24.79132	217562
24.79945	209717
24.80757	210625
24.81568	205676
24.82382	202157
24.83193	220428
24.84007	228197
24.84818	255881
24.85630	289092
24.86443	344924
24.87255	411136
24.88068	495610
24.88880	562709
24.89692	564228
24.90505	551323
24.91317	455891
24.92130	362715
24.92942	261334
24.93753	194618
24.94567	150264
24.95378	125260
24.96190	110651
24.97003	97315
24.97815	95973
24.98628	94735
24.99440	91981
25.00252	82087
25.01065	80216
25.01877	77339
25.02690	74132
25.03502	77113
25.04313	85329
25.05127	72403
25.05938	75033
25.06750	73452
25.07563	76731
25.08375	78475
25.09188	88563
25.10000	122394
25.10812	205958
25.11625	404807
25.12437	757602
25.13250	1303695
25.14062	1869470
25.14873	2209873
25.15687	2213261
25.16498	1832268
25.17312	1314988
25.18123	838606
25.18935	528406
25.19748	318883
25.20560	218841
25.21372	155427
25.22185	125109
25.22997	121029
25.23810	128094
25.24622	140383
25.25433	164978
25.26247	197582
25.27058	229251
25.27872	251598
25.28683	230031
25.29495	217732
25.30308	202911
25.31120	211435
25.31933	240313
25.32745	288517
25.33557	329419
25.34370	335318
25.35182	347737
25.35993	365452
25.36807	350877
25.37618	364349
25.38432	365933
25.39243	369834
25.40055	369527
25.40868	378089
25.41680	367701
25.42493	364700
25.43305	370186
25.44117	358383
25.44930	361937
25.45742	363094
25.46553	364867
25.47367	358874
25.48178	357805
25.48992	353140
25.49803	346528
25.50615	352427
25.51428	345608
25.52240	339154
25.53053	334283
25.53865	334216
25.54677	320166
25.55490	318756
25.56302	319829
25.57115	321496
25.57927	312581
25.58738	317488
25.59552	302592
25.60363	315848
25.61175	303986
25.61988	294803
25.62800	305361
25.63613	298538
25.64425	303310
25.65237	295989
25.66050	289628
25.66862	299509
25.67675	285655
25.68487	278407
25.69298	260872
25.70112	261802
25.70923	262238
25.71737	266038
25.72548	256588
25.73360	258641
25.74173	248046
25.74985	256160
25.75797	254858
25.76610	246857
25.77422	249257
25.78235	246370
25.79047	237131
25.79858	242009
25.80672	238553
25.81483	244853
25.82297	236988
25.83108	243244
25.83920	248753
25.84733	252424
25.85545	251286
25.86357	252415
25.87170	245944
25.87982	226340
25.88795	213757
25.89607	215261
25.90418	202545
25.91232	199563
25.92043	185688
25.92857	194310
25.93668	189287
25.94480	189747
25.95293	184132
25.96105	187739
25.96918	178212
25.97730	170570
25.98542	181227
25.99355	169663
26.00167	162694
26.00978	173537
26.01792	162525
26.02603	159994
26.03417	159654
26.04228	158892
26.05040	156085
26.05853	165278
26.06665	158547
26.07478	156438
26.08290	151034
26.09102	156199
26.09915	156440
26.10727	148966
26.11538	144888
26.12352	150937
26.13163	151025
26.13977	147244
26.14788	148307
26.15600	146533
26.16413	143190
26.17225	144590
26.18038	150732
26.18850	137389
26.19662	138311
26.20475	133864
26.21287	132764
26.22100	128045
26.22912	129103
26.23723	126754
26.24537	127208
26.25348	131663
26.26160	124879
26.26973	124368
26.27785	121300
26.28598	120210
26.29410	115491
26.30222	116367
26.31035	113074
26.31847	106860
26.32660	103301
26.33472	110261
26.34283	108767
26.35097	110446
26.35908	109066
26.36722	109572
26.37533	111310
26.38345	112330
26.39158	111478
26.39970	108673
26.40782	110177
26.41595	109422
26.42407	111520
26.43220	106151
26.44032	107417
26.44843	104915
26.45657	100838
26.46468	106873
26.47282	103232
26.48093	104147
26.48905	97122
26.49718	95307
26.50530	93151
26.51343	86671
26.52155	95062
26.52967	87523
26.53780	90313
26.54592	79717
26.55403	84315
26.56217	83240
26.57028	83624
26.57842	80988
26.58653	84973
26.59465	83364
26.60278	80714
26.61090	83724
26.61903	73063
26.62715	74482
26.63527	75989
26.64340	83389
26.65152	77997
26.65963	80167
26.66777	84941
26.67588	92562
26.68402	83735
26.69213	79777
26.70025	76042
26.70838	80812
26.71650	73985
26.72463	72786
26.73275	70947
26.74087	70000
26.74900	71318
26.75712	69573
26.76525	69273
26.77337	71060
26.78148	74369
26.78962	72633
26.79773	75904
26.80585	76758
26.81398	77280
26.82210	77550
26.83023	72970
26.83835	72936
26.84647	69164
26.85460	71047
26.86272	70342
26.87085	60558
26.87897	64071
26.88708	65231
26.89522	62075
26.90333	64697
26.91145	61322
26.91958	62838
26.92770	64463
26.93583	62231
26.94395	64488
26.95207	62978
26.96020	65573
26.96832	74075
26.97645	85146
26.98457	112008
26.99268	159500
27.00082	207293
27.00893	277010
27.01707	343145
27.02518	403526
27.03330	439724
27.04143	418401
27.04955	396182
27.05767	343867
27.06580	302605
27.07392	261962
27.08205	225705
27.09017	188223
27.09828	172810
27.10642	156570
27.11453	144290
27.12267	140942
27.13078	133756
27.13890	129031
27.14703	123309
27.15515	118690
27.16328	115482
27.17140	110852
27.17952	108985
27.18765	103925
27.19577	108806
27.20388	105241
27.21202	99818
27.22013	95971
27.22827	92375
27.23638	88541
27.24450	93932
27.25263	87011
27.26075	82981
27.26888	85266
27.27700	84614
27.28512	79869
27.29325	77475
27.30137	75212
27.30948	74383
27.31762	65919
27.32573	69828
27.33387	73127
27.34198	67701
27.35010	67684
27.35823	68390
27.36635	70351
27.37448	67160
27.38260	70078
27.39072	66684
27.39885	65544
27.40697	65831
27.41510	64257
27.42322	61264
27.43133	62242
27.43947	58178
27.44758	61612
27.45570	61249
27.46383	60741
27.47195	57754
27.48008	57380
27.48820	61183
27.49632	65438
27.50445	59018
27.51257	63875
27.52070	60821
27.52882	62800
27.53693	61946
27.54507	61342
27.55318	59503
27.56132	62004
27.56943	64096
27.57755	66795
27.58568	68264
27.59380	72197
27.60192	82020
27.61005	80165
27.61817	76378
27.62630	68615
27.63442	63902
27.64253	58909
27.65067	64818
27.65878	55121
27.66692	53886
27.67503	61365
27.68315	58398
27.69128	60880
27.69940	60057
27.70752	58392
27.71565	55806
27.72377	55268
27.73190	52076
27.74002	53274
27.74813	54954
27.75627	50844
27.76438	54819
27.77252	55725
27.78063	54533
27.78875	52268
27.79688	51385
27.80500	52856
27.81313	53922
27.82125	54228
27.82937	51648
27.83750	52081
27.84562	53582
27.85373	54419
27.86187	50549
27.86998	47169
27.87812	52993
27.88623	49954
27.89435	48720
27.90248	49394
27.91060	48934
27.91873	44875
27.92685	50197
27.93497	49862
27.94310	46753
27.95122	46850
27.95933	44310
27.96747	51774
27.97558	50988
27.98372	48379
27.99183	46392
27.99995	47659
28.00808	52535
28.01620	53513
28.02433	59624
28.03245	60379
28.04057	62802
28.04870	71478
28.05682	68002
28.06495	66605
28.07307	67927
28.08118	61695
28.08932	58832
28.09743	58531
28.10555	56081
28.11368	53211
28.12180	51008
28.12993	52126
28.13805	49691
28.14617	48790
28.15430	45092
28.16242	44943
28.17055	51196
28.17867	49781
28.18678	55550
28.19492	63560
28.20303	66171
28.21117	75387
28.21928	75748
28.22740	75277
28.23553	74711
28.24365	68977
28.25177	68338
28.25990	59847
28.26802	55696
28.27615	49520
28.28427	52070
28.29238	51944
28.30052	55874
28.30863	61971
28.31677	65040
28.32488	74848
28.33300	85308
28.34113	96214
28.34925	116220
28.35737	127080
28.36550	138244
28.37362	150573
28.38175	161887
28.38987	163247
28.39798	173921
28.40612	170084
28.41423	158062
28.42237	158801
28.43048	156231
28.43860	145507
28.44673	141705
28.45485	127975
28.46298	117803
28.47110	116480
28.47922	102858
28.48735	99003
28.49547	97799
28.50358	100228
28.51172	94779
28.51983	83100
28.52797	84177
28.53608	82305
28.54420	78069
28.55233	79726
28.56045	76036
28.56858	74561
28.57670	73214
28.58482	74247
28.59295	70023
28.60107	67668
28.60920	65661
28.61732	64916
28.62543	66393
28.63357	65983
28.64168	64406
28.64980	70616
28.65793	68174
28.66605	66909
28.67418	64886
28.68230	69000
28.69042	64373
28.69855	62677
28.70667	64806
28.71480	61875
28.72292	56825
28.73103	63988
28.73917	64573
28.74728	80650
28.75540	84932
28.76353	86196
28.77165	87928
28.77978	82541
28.78790	70668
28.79602	71228
28.80415	67581
28.81227	68190
28.82040	67540
28.82852	66130
28.83663	62017
28.84477	63345
28.85288	57767
28.86102	58723
28.86913	61083
28.87725	64772
28.88538	64797
28.89350	74873
28.90162	71003
28.90975	75549
28.91787	70818
28.92600	64369
28.93412	61258
28.94223	62291
28.95037	58094
28.95848	61762
28.96662	60353
28.97473	61320
28.98285	52222
28.99098	52298
28.99910	52356
29.00723	55159
29.01535	50638
29.02347	52782
29.03160	51190
29.03972	49135
29.04783	51171
29.05597	47238
29.06408	54635
29.07222	47781
29.08033	50819
29.08845	53014
29.09658	53222
29.10470	50510
29.11283	49251
29.12095	53680
29.12907	51326
29.13720	50291
29.14532	51252
29.15343	51843
29.16157	51392
29.16968	51840
29.17782	55196
29.18593	61740
29.19405	71522
29.20218	81401
29.21030	96846
29.21843	99253
29.22655	97165
29.23467	87841
29.24280	95706
29.25092	95261
29.25905	96148
29.26717	94668
29.27528	94806
29.28342	92615
29.29153	83905
29.29965	69973
29.30778	61822
29.31590	53818
29.32403	56365
29.33215	48340
29.34027	47886
29.34840	45636
29.35652	46336
29.36465	45144
29.37277	50023
29.38088	45245
29.38902	50237
29.39713	48806
29.40525	49631
29.41338	47517
29.42150	50694
29.42963	48599
29.43775	51447
29.44587	51963
29.45400	49438
29.46212	48448
29.47025	46379
29.47837	47182
29.48648	54179
29.49462	46876
29.50273	47529
29.51087	47670
29.51898	47789
29.52710	47891
29.53523	48129
29.54335	44496
29.55147	45379
29.55960	44905
29.56772	44026
29.57585	46695
29.58397	44476
29.59208	39475
29.60022	44513
29.60833	43005
29.61647	41588
29.62458	44421
29.63270	44713
29.64083	45952
29.64895	45142
29.65708	49312
29.66520	44617
29.67332	47558
29.68145	43540
29.68957	49603
29.69768	52019
29.70582	47352
29.71393	47603
29.72207	50202
29.73018	48893
29.73830	47655
29.74643	45974
29.75455	43584
29.76268	43672
29.77080	44954
29.77892	40378
29.78705	43769
29.79517	40574
29.80328	40989
29.81142	38930
29.81953	40872
29.82767	42846
29.83578	40836
29.84390	42050
29.85203	41611
29.86015	46012
29.86828	49040
29.87640	55935
29.88452	65805
29.89265	74584
29.90077	83877
29.90890	82372
29.91702	77686
29.92513	72144
29.93327	62696
29.94138	58679
29.94950	56574
29.95763	56420
29.96575	60366
29.97388	67154
29.98200	68501
29.99012	74221
29.99825	81924
30.00637	84556
30.01450	87816
30.02262	88876
30.03073	91920
30.03887	93726
30.04698	91596
30.05512	95978
30.06323	100248
30.07135	96136
30.07948	94172
30.08760	92631
30.09572	99318
30.10385	92338
30.11197	90091
30.12010	89988
30.12822	86988
30.13633	85438
30.14447	81798
30.15258	78447
30.16072	74296
30.16883	72471
30.17695	73463
30.18508	76636
30.19320	75257
30.20132	69416
30.20945	71657
30.21757	64687
30.22570	61301
30.23382	58955
30.24193	61652
30.25007	57670
30.25818	59340
30.26632	61285
30.27443	55603
30.28255	59169
30.29068	58032
30.29880	52295
30.30693	56708
30.31505	54427
30.32317	51438
30.33130	52933
30.33942	53986
30.34753	51750
30.35567	53248
30.36378	51044
30.37192	51724
30.38003	50906
30.38815	47479
30.39628	44543
30.40440	50753
30.41253	48043
30.42065	44204
30.42877	51532
30.43690	45650
30.44502	47294
30.45313	48435
30.46127	47571
30.46938	45499
30.47752	43763
30.48563	47718
30.49375	47414
30.50188	42341
30.51000	46420
30.51813	45933
30.52625	46394
30.53437	42870
30.54250	46930
30.55062	43224
30.55875	43977
30.56687	43452
30.57498	44995
30.58312	49693
30.59123	47549
30.59935	42588
30.60748	48136
30.61560	47332
30.62373	41818
30.63185	44979
30.63997	44566
30.64810	42947
30.65622	42845
30.66435	42081
30.67247	43111
30.68058	45075
30.68872	43279
30.69683	44701
30.70497	43011
30.71308	39757
30.72120	46440
30.72933	47021
30.73745	49906
30.74557	54734
30.75370	62301
30.76182	65911
30.76995	76385
30.77807	84128
30.78618	93828
30.79432	117952
30.80243	131490
30.81057	147504
30.81868	151786
30.82680	134722
30.83493	127596
30.84305	116152
30.85117	103632
30.85930	99030
30.86742	94615
30.87555	90698
30.88367	94295
30.89178	91733
30.89992	91328
30.90803	91023
30.91617	90522
30.92428	92591
30.93240	92696
30.94053	90318
30.94865	90498
30.95678	92984
30.96490	91645
30.97302	92112
30.98115	91492
30.98927	98592
30.99738	87015
31.00552	93781
31.01363	90303
31.02177	91234
31.02988	90151
31.03800	90944
31.04613	90846
31.05425	93338
31.06238	90615
31.07050	97091
31.07862	96936
31.08675	99030
31.09487	103862
31.10300	113887
31.11112	108652
31.11923	107879
31.12737	106247
31.13548	101028
31.14360	93837
31.15173	97026
31.15985	92887
31.16798	93939
31.17610	99200
31.18422	102842
31.19235	121437
31.20047	138947
31.20860	164368
31.21672	188702
31.22483	208410
31.23297	209208
31.24108	189186
31.24920	165116
31.25733	142749
31.26545	116137
31.27358	102343
31.28170	90559
31.28982	80431
31.29795	86952
31.30607	85008
31.31420	85155
31.32232	84643
31.33043	80076
31.33857	82975
31.34668	81777
31.35482	81314
31.36293	78453
31.37105	81981
31.37918	80180
31.38730	82500
31.39542	82639
31.40355	77372
31.41167	81254
31.41980	75269
31.42792	73529
31.43603	68630
31.44417	72123
31.45228	67625
31.46042	65905
31.46853	66347
31.47665	66742
31.48478	64242
31.49290	71962
31.50102	68014
31.50915	67170
31.51727	66599
31.52540	67627
31.53352	65267
31.54163	66021
31.54977	65576
31.55788	65739
31.56602	66030
31.57413	62766
31.58225	63262
31.59038	61565
31.59850	59600
31.60663	63965
31.61475	60987
31.62287	63495
31.63100	62430
31.63912	61833
31.64723	62907
31.65537	65785
31.66348	63415
31.67162	69218
31.67973	60889
31.68785	66428
31.69598	63939
31.70410	63725
31.71223	62886
31.72035	64463
31.72847	57771
31.73660	58963
31.74472	59260
31.75285	54713
31.76097	60800
31.76908	54647
31.77722	53083
31.78533	55813
31.79345	56171
31.80158	59565
31.80970	59587
31.81783	57430
31.82595	58494
31.83407	57456
31.84220	52861
31.85032	57569
31.85845	57022
31.86657	58739
31.87468	60877
31.88282	60911
31.89093	67297
31.89907	65382
31.90718	74016
31.91530	76131
31.92343	85614
31.93155	89392
31.93967	87510
31.94780	89244
31.95592	91426
31.96405	94070
31.97217	92772
31.98028	97629
31.98842	96330
31.99653	98971
32.00467	98425
32.01278	93559
32.02090	89369
32.02903	89872
32.03715	90291
32.04527	86871
32.05340	85227
32.06152	86581
32.06965	83108
32.07777	78753
32.08588	80147
32.09402	72194
32.10213	73456
32.11027	69106
32.11838	61255
32.12650	69988
32.13463	60155
32.14275	61947
32.15088	60462
32.15900	58027
32.16712	63274
32.17525	63301
32.18337	59151
32.19148	55945
32.19962	56858
32.20773	58571
32.21587	58738
32.22398	56362
32.23210	58091
32.24023	53087
32.24835	57173
32.25648	61194
32.26460	58564
32.27272	57348
32.28085	56578
32.28897	57974
32.29708	55573
32.30522	56601
32.31333	54834
32.32147	50962
32.32958	51948
32.33770	50020
32.34583	52036
32.35395	57362
32.36208	54641
32.37020	52902
32.37832	50934
32.38645	49829
32.39457	51481
32.40270	46936
32.41082	48568
32.41893	51820
32.42707	50153
32.43518	51188
32.44330	46105
32.45143	49424
32.45955	50190
32.46768	48219
32.47580	48954
32.48392	46539
32.49205	48315
32.50017	48024
32.50830	48982
32.51642	45115
32.52453	46062
32.53267	48076
32.54078	46160
32.54892	47932
32.55703	50474
32.56515	48831
32.57328	47531
32.58140	46577
32.58952	46646
32.59765	46893
32.60577	48232
32.61390	45230
32.62202	47057
32.63013	49802
32.63827	55636
32.64638	58987
32.65452	65492
32.66263	65751
32.67075	64797
32.67888	63594
32.68700	57430
32.69512	51393
32.70325	54767
32.71137	51269
32.71950	47450
32.72762	49498
32.73573	50168
32.74387	50420
32.75198	47147
32.76012	47167
32.76823	47985
32.77635	47042
32.78448	46759
32.79260	43374
32.80073	43636
32.80885	46080
32.81697	43007
32.82510	43074
32.83322	43445
32.84133	40977
32.84947	43431
32.85758	46508
32.86572	45410
32.87383	46279
32.88195	42666
32.89008	49166
32.89820	51682
32.90633	48896
32.91445	51201
32.92257	47024
32.93070	46755
32.93882	45578
32.94695	43991
32.95507	48974
32.96318	46793
32.97132	48129
32.97943	51395
32.98755	57434
32.99568	57320
33.00380	66297
33.01193	65667
33.02005	65033
33.02817	57622
33.03630	53961
33.04442	52899
33.05255	52148
33.06067	51548
33.06878	56340
33.07692	56474
33.08503	54820
33.09315	56652
33.10128	61314
33.10940	64457
33.11753	64887
33.12565	65345
33.13377	63392
33.14190	61200
33.15002	57507
33.15815	51325
33.16627	47111
33.17438	52823
33.18252	48260
33.19063	49339
33.19877	51105
33.20688	48245
33.21500	51798
33.22313	44224
33.23125	49004
33.23937	47638
33.24750	45505
33.25562	44916
33.26375	44560
33.27187	45957
33.27998	43249
33.28812	47804
33.29623	45795
33.30437	44214
33.31248	43473
33.32060	43408
33.32873	42838
33.33685	42078
33.34497	46673
33.35310	48663
33.36122	49807
33.36935	49115
33.37747	44590
33.38558	48077
33.39372	47858
33.40183	47195
33.40997	46219
33.41808	45225
33.42620	41075
33.43433	45241
33.44245	43199
33.45058	44139
33.45870	43600
33.46682	43806
33.47495	44344
33.48307	40434
33.49118	44505
33.49932	49465
33.50743	43647
33.51557	44781
33.52368	48861
33.53180	46654
33.53993	54510
33.54805	53579
33.55618	58830
33.56430	54771
33.57242	52857
33.58055	51320
33.58867	45388
33.59680	46315
33.60492	43213
33.61303	46889
33.62117	44198
33.62928	47349
33.63740	49584
33.64553	51361
33.65365	49188
33.66178	52347
33.66990	48992
33.67802	49045
33.68615	44900
33.69427	42596
33.70240	41250
33.71052	44002
33.71863	42512
33.72677	42586
33.73488	43238
33.74300	46129
33.75113	41077
33.75925	45971
33.76738	43443
33.77550	42559
33.78362	46398
33.79175	40759
33.79987	43303
33.80800	40431
33.81612	42774
33.82423	45002
33.83237	43553
33.84048	43051
33.84862	45105
33.85673	44768
33.86485	45246
33.87298	44510
33.88110	48373
33.88922	45416
33.89735	46368
33.90547	51507
33.91360	46463
33.92172	48419
33.92983	43004
33.93797	42816
33.94608	41266
33.95422	39811
33.96233	45678
33.97045	43567
33.97858	42385
33.98670	42598
33.99483	44427
34.00295	44126
34.01107	42325
34.01920	41788
34.02732	44612
34.03543	43317
34.04357	46896
34.05168	44415
34.05982	46286
34.06793	44010
34.07605	43312
34.08418	47401
34.09230	50365
34.10043	42700
34.10855	41751
34.11667	47433
34.12480	44250
34.13292	47350
34.14103	48900
34.14917	43912
34.15728	45664
34.16542	45595
34.17353	45117
34.18165	47216
34.18978	46589
34.19790	48336
34.20603	46117
34.21415	50824
34.22227	44789
34.23040	47813
34.23852	45721
34.24665	47572
34.25477	45151
34.26288	48906
34.27102	49378
34.27913	43454
34.28725	48750
34.29538	45814
34.30350	47307
34.31163	42170
34.31975	44319
34.32787	43310
34.33600	43024
34.34412	41127
34.35225	44690
34.36037	45960
34.36848	46363
34.37662	42605
34.38473	43797
34.39287	43194
34.40098	46282
34.40910	46489
34.41723	46267
34.42535	46575
34.43347	46488
34.44160	45237
34.44972	45945
34.45785	43722
34.46597	44221
34.47408	41478
34.48222	44589
34.49033	46064
34.49847	48644
34.50658	54941
34.51470	55732
34.52283	63154
34.53095	75798
34.53907	74744
34.54720	79690
34.55532	83474
34.56345	83020
34.57157	79936
34.57968	79880
34.58782	73679
34.59593	69841
34.60407	68565
34.61218	66614
34.62030	60818
34.62843	62268
34.63655	61014
34.64468	60041
34.65280	52542
34.66092	55389
34.66905	56510
34.67717	50237
34.68528	54371
34.69342	50185
34.70153	53817
34.70967	50422
34.71778	50449
34.72590	49839
34.73403	52516
34.74215	51249
34.75028	48552
34.75840	48646
34.76652	51263
34.77465	50853
34.78277	45607
34.79088	48352
34.79902	52507
34.80713	51112
34.81527	53084
34.82338	52911
34.83150	54409
34.83963	51735
34.84775	52589
34.85588	53037
34.86400	55582
34.87212	49418
34.88025	48322
34.88837	51023
34.89650	51784
34.90462	49448
34.91273	52128
34.92087	51906
34.92898	50898
34.93710	50025
34.94523	55288
34.95335	52626
34.96148	58501
34.96960	57922
34.97772	59009
34.98585	58486
34.99397	56942
35.00210	53327
35.01022	56196
35.01833	50406
35.02647	51938
35.03458	49665
35.04272	49014
35.05083	48896
35.05895	45094
35.06708	48537
35.07520	46678
35.08332	47872
35.09145	45443
35.09957	45313
35.10770	46967
35.11582	43530
35.12393	46988
35.13207	49788
35.14018	50150
35.14832	49948
35.15643	49632
35.16455	48622
35.17268	47351
35.18080	46195
35.18892	52048
35.19705	50566
35.20517	46563
35.21330	47345
35.22142	48805
35.22953	47012
35.23767	45911
35.24578	48195
35.25392	47009
35.26203	44664
35.27015	47113
35.27828	47502
35.28640	52037
35.29453	44325
35.30265	48007
35.31077	45991
35.31890	49319
35.32702	41801
35.33513	47691
35.34327	43482
35.35138	47371
35.35952	48615
35.36763	41176
35.37575	46569
35.38388	44653
35.39200	47918
35.40013	50728
35.40825	47309
35.41637	51737
35.42450	52035
35.43262	52859
35.44075	52499
35.44887	51365
35.45698	49622
35.46512	47633
35.47323	50148
35.48135	53630
35.48948	48646
35.49760	50541
35.50573	50513
35.51385	50854
35.52197	48076
35.53010	47734
35.53822	48157
35.54635	44562
35.55447	46883
35.56258	46888
35.57072	48542
35.57883	47669
35.58695	48149
35.59508	46285
35.60320	48249
35.61133	52905
35.61945	48093
35.62757	48056
35.63570	48522
35.64382	47754
35.65195	46982
35.66007	49664
35.66818	51389
35.67632	49382
35.68443	47539
35.69257	50970
35.70068	47132
35.70880	51760
35.71693	49260
35.72505	50144
35.73317	50197
35.74130	53101
35.74942	51977
35.75755	51080
35.76567	54026
35.77378	55079
35.78192	53966
35.79003	55470
35.79817	47599
35.80628	46423
35.81440	48193
35.82253	48703
35.83065	53012
35.83877	45991
35.84690	47755
35.85502	49362
35.86315	47048
35.87127	52529
35.87938	47816
35.88752	46749
35.89563	43909
35.90377	41589
35.91188	46011
35.92000	47733
35.92813	46160
35.93625	46952
35.94438	44557
35.95250	46919
35.96062	48617
35.96875	46441
35.97687	45392
35.98498	52286
35.99312	47070
36.00123	49947
36.00937	55615
36.01748	49553
36.02560	54504
36.03373	52790
36.04185	50332
36.04998	48570
36.05810	54579
36.06622	57052
36.07435	45257
36.08247	45919
36.09060	49856
36.09872	48256
36.10683	53033
36.11497	49581
36.12308	51413
36.13120	50938
36.13933	50849
36.14745	50727
36.15558	51035
36.16370	50040
36.17182	47123
36.17995	47049
36.18807	48324
36.19620	49065
36.20432	49593
36.21243	49200
36.22057	49372
36.22868	44680
36.23682	47826
36.24493	50727
36.25305	47604
36.26118	48777
36.26930	48092
36.27742	55050
36.28555	59702
36.29367	62815
36.30180	65538
36.30992	68378
36.31803	64394
36.32617	62617
36.33428	66904
36.34242	65243
36.35053	65207
36.35865	66699
36.36678	71441
36.37490	65711
36.38302	64838
36.39115	69091
36.39927	72298
36.40740	74727
36.41552	67344
36.42363	74384
36.43177	71113
36.43988	72328
36.44802	72596
36.45613	70919
36.46425	74352
36.47238	70188
36.48050	70237
36.48863	65631
36.49675	73842
36.50487	71342
36.51300	70084
36.52112	73508
36.52923	69811
36.53737	73660
36.54548	73236
36.55362	72075
36.56173	73194
36.56985	70338
36.57798	71968
36.58610	68451
36.59423	66851
36.60235	66486
36.61047	71358
36.61860	68618
36.62672	75768
36.63483	74285
36.64297	71298
36.65108	71345
36.65922	72625
36.66733	72282
36.67545	76254
36.68358	69297
36.69170	68020
36.69983	70226
36.70795	72371
36.71607	73519
36.72420	70119
36.73232	67710
36.74045	68812
36.74857	68063
36.75668	72055
36.76482	66346
36.77293	65338
36.78105	66445
36.78918	64435
36.79730	68654
36.80543	68270
36.81355	67976
36.82167	65181
36.82980	64662
36.83792	62258
36.84605	63379
36.85417	64911
36.86228	70128
36.87042	62170
36.87853	65452
36.88667	59897
36.89478	60732
36.90290	64011
36.91103	63890
36.91915	63517
36.92727	61913
36.93540	65851
36.94352	73516
36.95165	70585
36.95977	80254
36.96788	82417
36.97602	79810
36.98413	73660
36.99227	72844
37.00038	70462
37.00850	64771
37.01663	64966
37.02475	66530
37.03287	68779
37.04100	65724
37.04912	65241
37.05725	65881
37.06537	68424
37.07348	64387
37.08162	63950
37.08973	65708
37.09787	67514
37.10598	61550
37.11410	65297
37.12223	61655
37.13035	65101
37.13848	60965
37.14660	62190
37.15472	60653
37.16285	61649
37.17097	62765
37.17908	63101
37.18722	61749
37.19533	66561
37.20347	62668
37.21158	59206
37.21970	63807
37.22783	58635
37.23595	61425
37.24408	60534
37.25220	55486
37.26032	61652
37.26845	59945
37.27657	61730
37.28470	59050
37.29282	61300
37.30093	63882
37.30907	65110
37.31718	72345
37.32530	76021
37.33343	80931
37.34155	89605
37.34968	88996
37.35780	85613
37.36592	85805
37.37405	84487
37.38217	83562
37.39030	81702
37.39842	77410
37.40653	75925
37.41467	75378
37.42278	73499
37.43090	70271
37.43903	68797
37.44715	74111
37.45528	68486
37.46340	69880
37.47152	68948
37.47965	69505
37.48777	67241
