Z:\data\JTB-E02\BACandBLUE\JTB-E02-205-16.D Sun Mar 10 16:02:28 2019
Start of data points
2.09533	63813
2.10347	64732
2.11158	63807
2.11970	62553
2.12783	61066
2.13595	60707
2.14408	62035
2.15220	62351
2.16032	66835
2.16845	60627
2.17657	60602
2.18470	56542
2.19282	51229
2.20093	57048
2.20907	57558
2.21718	51488
2.22532	55950
2.23343	57616
2.24155	55496
2.24968	51241
2.25780	62071
2.26592	250304
2.27405	1035954
2.28217	1480952
2.29030	849935
2.29842	450460
2.30653	339103
2.31467	290144
2.32278	257851
2.33092	234759
2.33903	223354
2.34715	199806
2.35528	185696
2.36340	175745
2.37153	160771
2.37965	152182
2.38777	143536
2.39590	141977
2.40402	142528
2.41213	141791
2.42027	146642
2.42838	133798
2.43652	127718
2.44463	133727
2.45275	125137
2.46088	123957
2.46900	116098
2.47713	114257
2.48525	117032
2.49337	130762
2.50150	122578
2.50962	117823
2.51773	106887
2.52587	110871
2.53398	112784
2.54212	109087
2.55023	121173
2.55835	152734
2.56648	185777
2.57460	155625
2.58273	133183
2.59085	129054
2.59897	198187
2.60710	634113
2.61522	1174110
2.62335	914828
2.63147	507386
2.63958	342054
2.64772	266277
2.65583	213414
2.66395	179732
2.67208	157021
2.68020	152705
2.68833	134279
2.69645	128965
2.70457	126082
2.71270	116012
2.72082	110242
2.72895	114013
2.73707	107657
2.74518	113703
2.75332	108266
2.76143	106962
2.76955	108349
2.77768	241123
2.78580	588446
2.79393	697780
2.80205	456775
2.81017	305606
2.81830	262751
2.82642	241432
2.83455	194836
2.84267	178784
2.85078	161794
2.85892	149453
2.86703	145379
2.87517	141894
2.88328	136208
2.89140	129289
2.89953	124597
2.90765	108117
2.91577	108310
2.92390	109017
2.93202	106951
2.94015	104994
2.94827	102393
2.95638	100940
2.96452	112511
2.97263	111701
2.98077	109718
2.98888	102218
2.99700	103118
3.00513	111705
3.01325	114062
3.02138	114787
3.02950	105526
3.03762	101698
3.04575	97504
3.05387	93381
3.06198	102695
3.07012	109092
3.07823	293473
3.08637	1316309
3.09448	3338004
3.10260	5227770
3.11073	6773510
3.11885	6362237
3.12698	4298859
3.13510	2914552
3.14322	2242186
3.15135	1764675
3.15947	1422150
3.16758	1185294
3.17572	1045833
3.18383	1080816
3.19197	1537205
3.20008	1855746
3.20820	1553428
3.21633	1172482
3.22445	960770
3.23258	815899
3.24070	719425
3.24882	630640
3.25695	549317
3.26507	485204
3.27320	451555
3.28132	445665
3.28943	619444
3.29757	1464849
3.30568	3279132
3.31380	4835165
3.32193	4669897
3.33005	3436650
3.33818	2336761
3.34630	1720731
3.35442	1354025
3.36255	1122072
3.37067	956139
3.37880	835943
3.38692	743195
3.39503	674994
3.40317	619755
3.41128	563227
3.41942	526715
3.42753	500138
3.43565	487344
3.44378	459179
3.45190	432733
3.46002	407736
3.46815	416219
3.47627	420130
3.48440	418477
3.49252	392487
3.50063	367146
3.50877	346113
3.51688	346610
3.52502	326971
3.53313	335673
3.54125	346005
3.54938	324429
3.55750	306408
3.56562	294011
3.57375	300672
3.58187	294866
3.59000	279317
3.59812	270282
3.60623	270160
3.61437	265738
3.62248	270080
3.63062	262842
3.63873	261026
3.64685	246633
3.65498	294337
3.66310	946458
3.67123	3972847
3.67935	9329354
3.68747	1.14365E+07
3.69560	8541763
3.70372	5271844
3.71183	3709678
3.71997	3017482
3.72808	2580058
3.73622	2217489
3.74433	1978514
3.75245	1762464
3.76058	1616572
3.76870	1465732
3.77683	1347800
3.78495	1238433
3.79307	1211114
3.80120	1367797
3.80932	2174256
3.81745	3402030
3.82557	3691184
3.83368	2906549
3.84182	2125130
3.84993	1723945
3.85805	1513556
3.86618	1326470
3.87430	1213708
3.88243	1116417
3.89055	1044346
3.89867	973044
3.90680	912021
3.91492	909451
3.92305	961582
3.93117	1053091
3.93928	1083753
3.94742	1273122
3.95553	2403727
3.96365	4519702
3.97178	6031707
3.97990	5160728
3.98803	3528421
3.99615	3419865
4.00427	7259519
4.01240	1.477828E+07
4.02052	1.96976E+07
4.02865	1.673998E+07
4.03677	9948058
4.04488	5648815
4.05302	3657885
4.06113	2685638
4.06927	2072103
4.07738	1676970
4.08550	1426327
4.09363	1249805
4.10175	1116066
4.10987	996734
4.11800	921222
4.12612	826047
4.13425	782430
4.14237	753158
4.15048	761136
4.15862	756803
4.16673	700703
4.17487	691843
4.18298	679298
4.19110	629892
4.19923	590064
4.20735	794390
4.21548	2286252
4.22360	6710477
4.23172	1.326083E+07
4.23985	1.776916E+07
4.24797	1.75613E+07
4.25608	1.290893E+07
4.26422	8016990
4.27233	5306014
4.28047	3805623
4.28858	2854300
4.29670	2232296
4.30483	1780644
4.31295	1450515
4.32108	1232318
4.32920	1070491
4.33732	958904
4.34545	866015
4.35357	809721
4.36168	774382
4.36982	754816
4.37793	724512
4.38607	660351
4.39418	588335
4.40230	553571
4.41043	519054
4.41855	481079
4.42668	454348
4.43480	450975
4.44292	418777
4.45105	412793
4.45917	408626
4.46730	381793
4.47542	378327
4.48353	362021
4.49167	345975
4.49978	354454
4.50790	345498
4.51603	337773
4.52415	335855
4.53228	328191
4.54040	323858
4.54852	332742
4.55665	326993
4.56477	328932
4.57290	308002
4.58102	292624
4.58913	288709
4.59727	291498
4.60538	281660
4.61350	274582
4.62163	298554
4.62975	389459
4.63788	527214
4.64600	638958
4.65412	610331
4.66225	510867
4.67037	419397
4.67850	369927
4.68662	339569
4.69473	318289
4.70287	294458
4.71098	275832
4.71912	269036
4.72723	276202
4.73535	265406
4.74348	258198
4.75160	252248
4.75972	235277
4.76785	246722
4.77597	245770
4.78410	322026
4.79222	743786
4.80033	1827146
4.80847	3141973
4.81658	3451382
4.82472	2761504
4.83283	1886911
4.84095	1421009
4.84908	1226654
4.85720	1066774
4.86533	928645
4.87345	801611
4.88157	730597
4.88970	656492
4.89782	613107
4.90593	581144
4.91407	544282
4.92218	518057
4.93032	508708
4.93843	558008
4.94655	816561
4.95468	1479937
4.96280	2349306
4.97093	2939831
4.97905	2862503
4.98717	2311392
4.99530	1676492
5.00342	1224308
5.01153	981966
5.01967	826689
5.02778	778766
5.03592	806474
5.04403	869505
5.05215	849985
5.06028	770393
5.06840	663421
5.07653	609334
5.08465	559383
5.09277	519030
5.10090	499034
5.10902	472099
5.11715	459001
5.12527	430657
5.13338	419904
5.14152	401691
5.14963	417032
5.15775	450509
5.16588	489656
5.17400	527367
5.18213	501425
5.19025	458606
5.19837	447363
5.20650	460643
5.21462	469480
5.22275	452415
5.23087	443600
5.23898	427252
5.24712	398161
5.25523	375215
5.26337	354659
5.27148	313598
5.27960	288518
5.28773	289062
5.29585	283715
5.30397	267593
5.31210	263595
5.32022	263566
5.32835	272794
5.33647	309503
5.34458	326276
5.35272	328198
5.36083	305850
5.36897	267373
5.37708	261840
5.38520	259202
5.39333	262998
5.40145	268287
5.40957	258757
5.41770	247424
5.42582	246851
5.43395	240817
5.44207	237880
5.45018	239417
5.45832	238892
5.46643	245242
5.47457	232676
5.48268	216517
5.49080	220648
5.49893	207660
5.50705	203060
5.51518	217003
5.52330	223611
5.53142	217943
5.53955	206951
5.54767	211989
5.55578	223577
5.56392	270535
5.57203	321970
5.58017	373250
5.58828	387308
5.59640	354426
5.60453	306046
5.61265	259812
5.62078	241997
5.62890	221924
5.63702	232521
5.64515	215530
5.65327	208465
5.66138	208487
5.66952	209642
5.67763	228940
5.68577	261234
5.69388	304024
5.70200	339325
5.71013	319768
5.71825	280186
5.72638	240745
5.73450	218134
5.74262	209514
5.75075	190683
5.75887	187080
5.76700	184600
5.77512	181268
5.78323	182690
5.79137	167903
5.79948	169118
5.80760	175406
5.81573	165887
5.82385	165280
5.83198	166252
5.84010	162831
5.84822	161977
5.85635	163545
5.86447	165898
5.87260	161384
5.88072	160063
5.88883	159358
5.89697	152092
5.90508	145976
5.91322	145246
5.92133	145518
5.92945	129411
5.93758	142732
5.94570	144366
5.95382	160518
5.96195	190243
5.97007	235481
5.97820	286105
5.98632	346571
5.99443	398778
6.00257	375321
6.01068	328847
6.01882	283634
6.02693	219590
6.03505	194255
6.04318	166751
6.05130	151773
6.05942	150625
6.06755	138230
6.07567	145571
6.08380	138494
6.09192	141259
6.10003	139545
6.10817	135494
6.11628	147716
6.12442	168619
6.13253	233456
6.14065	343536
6.14878	467081
6.15690	484816
6.16503	400802
6.17315	322006
6.18127	250302
6.18940	215278
6.19752	200937
6.20563	194698
6.21377	185259
6.22188	181854
6.23002	175250
6.23813	177291
6.24625	180564
6.25438	176427
6.26250	183235
6.27063	185300
6.27875	184334
6.28687	177664
6.29500	172187
6.30312	171032
6.31125	168299
6.31937	176328
6.32748	199926
6.33562	225573
6.34373	263758
6.35185	270019
6.35998	238325
6.36810	215734
6.37623	200671
6.38435	199590
6.39247	187939
6.40060	191695
6.40872	182911
6.41685	182909
6.42497	180808
6.43308	190045
6.44122	185547
6.44933	180175
6.45745	185969
6.46558	190693
6.47370	187144
6.48183	183060
6.48995	191730
6.49807	195477
6.50620	201104
6.51432	195191
6.52245	198936
6.53057	190939
6.53868	195768
6.54682	193178
6.55493	196553
6.56307	211810
6.57118	223145
6.57930	256659
6.58743	285712
6.59555	274082
6.60367	261607
6.61180	227376
6.61992	213400
6.62805	212053
6.63617	206639
6.64428	219695
6.65242	256909
6.66053	358054
6.66867	521354
6.67678	640236
6.68490	594014
6.69303	453065
6.70115	342882
6.70928	291018
6.71740	225048
6.72552	197652
6.73365	178982
6.74177	165457
6.74988	160844
6.75802	154254
6.76613	146749
6.77427	136640
6.78238	141664
6.79050	134099
6.79863	134291
6.80675	121955
6.81488	126802
6.82300	126477
6.83112	116873
6.83925	129271
6.84737	129087
6.85548	138250
6.86362	150487
6.87173	145611
6.87987	134085
6.88798	125076
6.89610	112458
6.90423	105862
6.91235	93454
6.92048	91019
6.92860	94715
6.93672	90611
6.94485	92139
6.95297	90718
6.96110	95747
6.96922	112845
6.97733	144513
6.98547	170564
6.99358	169955
7.00170	156069
7.00983	128214
7.01795	107141
7.02608	106011
7.03420	98636
7.04232	88608
7.05045	98322
7.05857	91727
7.06670	90892
7.07482	99096
7.08293	95034
7.09107	90710
7.09918	90414
7.10730	82378
7.11543	78136
7.12355	74764
7.13168	82745
7.13980	93351
7.14792	108304
7.15605	143170
7.16417	186967
7.17230	196803
7.18042	198692
7.18853	163687
7.19667	165223
7.20478	301709
7.21292	792049
7.22103	1619301
7.22915	2570505
7.23728	2902591
7.24540	2312676
7.25352	1467013
7.26165	814469
7.26977	449806
7.27790	270857
7.28602	170632
7.29413	126347
7.30227	109549
7.31038	108711
7.31852	107178
7.32663	110011
7.33475	111320
7.34288	114013
7.35100	107545
7.35913	103745
7.36725	101079
7.37537	95098
7.38350	90021
7.39162	97586
7.39973	90417
7.40787	89626
7.41598	95404
7.42412	101134
7.43223	93848
7.44035	86544
7.44848	94912
7.45660	91415
7.46473	86079
7.47285	88351
7.48097	87092
7.48910	79965
7.49722	80597
7.50533	78141
7.51347	81298
7.52158	86731
7.52972	105445
7.53783	158543
7.54595	243630
7.55408	375490
7.56220	497471
7.57033	568810
7.57845	552282
7.58657	456302
7.59470	352562
7.60282	258602
7.61095	184695
7.61907	157031
7.62718	122869
7.63532	107117
7.64343	99235
7.65155	93395
7.65968	78674
7.66780	79558
7.67593	84897
7.68405	78056
7.69217	71132
7.70030	79219
7.70842	77449
7.71655	75009
7.72467	70578
7.73278	72495
7.74092	73451
7.74903	70931
7.75717	70892
7.76528	72723
7.77340	80425
7.78153	75229
7.78965	76116
7.79777	79849
7.80590	87947
7.81402	93636
7.82215	98311
7.83027	88997
7.83838	85090
7.84652	76306
7.85463	76234
7.86277	75541
7.87088	84450
7.87900	100544
7.88713	121286
7.89525	136432
7.90337	138122
7.91150	127593
7.91962	116627
7.92775	138452
7.93587	190245
7.94398	277031
7.95212	342037
7.96023	334269
7.96837	293178
7.97648	211340
7.98460	151057
7.99273	115661
8.00085	94935
8.00898	87670
8.01710	77703
8.02522	75490
8.03335	70728
8.04147	73419
8.04958	72078
8.05772	71292
8.06583	67112
8.07397	68751
8.08208	70450
8.09020	59557
8.09833	61173
8.10645	58134
8.11458	64250
8.12270	64794
8.13082	67620
8.13895	85961
8.14707	87122
8.15518	99949
8.16332	102701
8.17143	96563
8.17957	83575
8.18768	82066
8.19580	71309
8.20393	67734
8.21205	68393
8.22018	67744
8.22830	65019
8.23642	68171
8.24455	63202
8.25267	67617
8.26080	63205
8.26892	61902
8.27703	61339
8.28517	59123
8.29328	58370
8.30140	60352
8.30953	60322
8.31765	67370
8.32578	71521
8.33390	70982
8.34202	68078
8.35015	65773
8.35827	66677
8.36640	60974
8.37452	70078
8.38263	64601
8.39077	63658
8.39888	66025
8.40702	62447
8.41513	61243
8.42325	61234
8.43138	59892
8.43950	59568
8.44762	61433
8.45575	57205
8.46387	61585
8.47200	64834
8.48012	60317
8.48823	57617
8.49637	58002
8.50448	63116
8.51262	79128
8.52073	147734
8.52885	360509
8.53698	775468
8.54510	1341412
8.55323	1672590
8.56135	1577134
8.56947	1138885
8.57760	643162
8.58572	347463
8.59383	216062
8.60197	175690
8.61008	153157
8.61822	149514
8.62633	132317
8.63445	130694
8.64258	120527
8.65070	112793
8.65883	100861
8.66695	94440
8.67507	96145
8.68320	95417
8.69132	90695
8.69943	87459
8.70757	90454
8.71568	85572
8.72382	85465
8.73193	83376
8.74005	80218
8.74818	76678
8.75630	79034
8.76443	91056
8.77255	139565
8.78067	226291
8.78880	380303
8.79692	503945
8.80505	565068
8.81317	512632
8.82128	399844
8.82942	286339
8.83753	219922
8.84565	189031
8.85378	177602
8.86190	170225
8.87003	158097
8.87815	152702
8.88627	146834
8.89440	137089
8.90252	131720
8.91065	123415
8.91877	129949
8.92688	125885
8.93502	134839
8.94313	156809
8.95125	171056
8.95938	164388
8.96750	148591
8.97563	139282
8.98375	135048
8.99187	129212
9.00000	128848
9.00812	125225
9.01625	112327
9.02437	108870
9.03248	97011
9.04062	98044
9.04873	96633
9.05687	87685
9.06498	87498
9.07310	91302
9.08123	86871
9.08935	88959
9.09747	90887
9.10560	106719
9.11372	114711
9.12185	124601
9.12997	127834
9.13808	121704
9.14622	103808
9.15433	102697
9.16247	101023
9.17058	89097
9.17870	88683
9.18683	83487
9.19495	89874
9.20308	79480
9.21120	79343
9.21932	77780
9.22745	79074
9.23557	78016
9.24368	82469
9.25182	82409
9.25993	88311
9.26807	81712
9.27618	83623
9.28430	72469
9.29243	75863
9.30055	76188
9.30868	71315
9.31680	76196
9.32492	73382
9.33305	73829
9.34117	70413
9.34928	70962
9.35742	66088
9.36553	70661
9.37367	73762
9.38178	74447
9.38990	75179
9.39803	73121
9.40615	80948
9.41428	73050
9.42240	87251
9.43052	92920
9.43865	105987
9.44677	116628
9.45490	112354
9.46302	112052
9.47113	101802
9.47927	85676
9.48738	84505
9.49550	68128
9.50363	70418
9.51175	80296
9.51988	87816
9.52800	98021
9.53612	102364
9.54425	97763
9.55237	96787
9.56050	90766
9.56862	91701
9.57673	104419
9.58487	128956
9.59298	155492
9.60112	173502
9.60923	157808
9.61735	139363
9.62548	104928
9.63360	79121
9.64172	67245
9.64985	60227
9.65797	56244
9.66610	56428
9.67422	55534
9.68233	56890
9.69047	57071
9.69858	57679
9.70672	57241
9.71483	55431
9.72295	52043
9.73108	54692
9.73920	55821
9.74732	54962
9.75545	54595
9.76357	49988
9.77170	50798
9.77982	48784
9.78793	51561
9.79607	47972
9.80418	49157
9.81232	50145
9.82043	50822
9.82855	49078
9.83668	49449
9.84480	49302
9.85293	51558
9.86105	51082
9.86917	54705
9.87730	55001
9.88542	53886
9.89353	49117
9.90167	48804
9.90978	46725
9.91792	47547
9.92603	49781
9.93415	50629
9.94228	61333
9.95040	69157
9.95853	79524
9.96665	90020
9.97477	84357
9.98290	78316
9.99102	69314
9.99913	65261
10.00727	69071
10.01538	69669
10.02352	67417
10.03163	63700
10.03975	67092
10.04788	63896
10.05600	58632
10.06413	60754
10.07225	58159
10.08037	54859
10.08850	61270
10.09662	56899
10.10475	59170
10.11287	60660
10.12098	55791
10.12912	57360
10.13723	55108
10.14535	52777
10.15348	51048
10.16160	53352
10.16973	50392
10.17785	50284
10.18597	47730
10.19410	52610
10.20222	47879
10.21035	51293
10.21847	48029
10.22658	49752
10.23472	55124
10.24283	56026
10.25097	63429
10.25908	95137
10.26720	203112
10.27533	516264
10.28345	1246619
10.29157	2440039
10.29970	4031779
10.30782	6020500
10.31595	8891037
10.32407	1.340332E+07
10.33218	2.010098E+07
10.34032	2.667073E+07
10.34843	3.063859E+07
10.35657	2.888078E+07
10.36468	2.068575E+07
10.37280	1.093249E+07
10.38093	4799483
10.38905	2253635
10.39717	1403217
10.40530	1022937
10.41342	789937
10.42155	646106
10.42967	557989
10.43778	493358
10.44592	442093
10.45403	398080
10.46217	377479
10.47028	350688
10.47840	324498
10.48653	302242
10.49465	282564
10.50278	270090
10.51090	246363
10.51902	242788
10.52715	230421
10.53527	241781
10.54338	245214
10.55152	235286
10.55963	228050
10.56777	218486
10.57588	200715
10.58400	195886
10.59213	179836
10.60025	170210
10.60838	160202
10.61650	152715
10.62462	149201
10.63275	142530
10.64087	131344
10.64900	136779
10.65712	129532
10.66523	128685
10.67337	130993
10.68148	130390
10.68960	122262
10.69773	121198
10.70585	122913
10.71398	120740
10.72210	112834
10.73022	114726
10.73835	111185
10.74647	110794
10.75460	110618
10.76272	111645
10.77083	102015
10.77897	98278
10.78708	97392
10.79520	97792
10.80333	91926
10.81145	91365
10.81958	101041
10.82770	96496
10.83582	87744
10.84395	88653
10.85207	90338
10.86020	83222
10.86832	79430
10.87643	88946
10.88457	80447
10.89268	78221
10.90082	78583
10.90893	79060
10.91705	74012
10.92518	73930
10.93330	76624
10.94142	75254
10.94955	72732
10.95767	73510
10.96580	69593
10.97392	72633
10.98203	76856
10.99017	72756
10.99828	71637
11.00642	80852
11.01453	71315
11.02265	72579
11.03078	66473
11.03890	64462
11.04702	68382
11.05515	64963
11.06327	69599
11.07140	63392
11.07952	70369
11.08763	69722
11.09577	66433
11.10388	67004
11.11202	71768
11.12013	58645
11.12825	61573
11.13638	58528
11.14450	51433
11.15263	51687
11.16075	50560
11.16887	51588
11.17700	57293
11.18512	55229
11.19323	59385
11.20137	56686
11.20948	56786
11.21762	57869
11.22573	56486
11.23385	57959
11.24198	48456
11.25010	50369
11.25823	50138
11.26635	44061
11.27447	44502
11.28260	52734
11.29072	44089
11.29885	50086
11.30697	57052
11.31508	77452
11.32322	115231
11.33133	181595
11.33945	257309
11.34758	324423
11.35570	348540
11.36383	331501
11.37195	254604
11.38007	202804
11.38820	144782
11.39632	121980
11.40445	109094
11.41257	105638
11.42068	95908
11.42882	86962
11.43693	84348
11.44505	76233
11.45318	73680
11.46130	73237
11.46943	80766
11.47755	79181
11.48567	103498
11.49380	134949
11.50192	160938
11.51005	184762
11.51817	179042
11.52628	165199
11.53442	146022
11.54253	133897
11.55067	131761
11.55878	125458
11.56690	107810
11.57503	93591
11.58315	87104
11.59127	87971
11.59940	93315
11.60752	118650
11.61565	150754
11.62377	176204
11.63188	177856
11.64002	170858
11.64813	138041
11.65627	109169
11.66438	86806
11.67250	73735
11.68063	75400
11.68875	66208
11.69688	64621
11.70500	66117
11.71312	67177
11.72125	67071
11.72937	65554
11.73748	62830
11.74562	65231
11.75373	60605
11.76187	61201
11.76998	54165
11.77810	56563
11.78623	51409
11.79435	48227
11.80248	52989
11.81060	54261
11.81872	48243
11.82685	49138
11.83497	52118
11.84308	49911
11.85122	51483
11.85933	52825
11.86747	52207
11.87558	47260
11.88370	48665
11.89183	52085
11.89995	44726
11.90808	44690
11.91620	49519
11.92432	53995
11.93245	53635
11.94057	52907
11.94870	52442
11.95682	52151
11.96493	48941
11.97307	51779
11.98118	50071
11.98930	52749
11.99743	57550
12.00555	70699
12.01368	82431
12.02180	90857
12.02992	89141
12.03805	80495
12.04617	68764
12.05430	55751
12.06242	53634
12.07053	49129
12.07867	47947
12.08678	48207
12.09492	49682
12.10303	53510
12.11115	52304
12.11928	57524
12.12740	64181
12.13552	69881
12.14365	70431
12.15177	66874
12.15990	68391
12.16802	57872
12.17613	54378
12.18427	48056
12.19238	46794
12.20052	49060
12.20863	46154
12.21675	46819
12.22488	47649
12.23300	47304
12.24112	46582
12.24925	45865
12.25737	48347
12.26550	48921
12.27362	47906
12.28173	46110
12.28987	45305
12.29798	40522
12.30612	43260
12.31423	46065
12.32235	43321
12.33048	44959
12.33860	39523
12.34673	42801
12.35485	42800
12.36297	44904
12.37110	40989
12.37922	42874
12.38733	43638
12.39547	43707
12.40358	55266
12.41172	63520
12.41983	80170
12.42795	99100
12.43608	103431
12.44420	101878
12.45233	91765
12.46045	84226
12.46857	69233
12.47670	62340
12.48482	55907
12.49293	51214
12.50107	53522
12.50918	45070
12.51732	47700
12.52543	51820
12.53355	76407
12.54168	119125
12.54980	233627
12.55793	426892
12.56605	653439
12.57417	762653
12.58230	716506
12.59042	535919
12.59855	365358
12.60667	219207
12.61478	139885
12.62292	102332
12.63103	90630
12.63915	79669
12.64728	77954
12.65540	69799
12.66353	65908
12.67165	71171
12.67977	61152
12.68790	59264
12.69602	57355
12.70415	56039
12.71227	58598
12.72038	58356
12.72852	66159
12.73663	73543
12.74477	81049
12.75288	79120
12.76100	74519
12.76913	68473
12.77725	60242
12.78537	52017
12.79350	53357
12.80162	48493
12.80975	49395
12.81787	43202
12.82598	43336
12.83412	46516
12.84223	42247
12.85037	45149
12.85848	44652
12.86660	43104
12.87473	39815
12.88285	42808
12.89097	40754
12.89910	37699
12.90722	39627
12.91535	42023
12.92347	41965
12.93158	39190
12.93972	41438
12.94783	35716
12.95597	39382
12.96408	38249
12.97220	41006
12.98033	44860
12.98845	48354
12.99658	42275
13.00470	46264
13.01282	41708
13.02095	40665
13.02907	42485
13.03718	41195
13.04532	43474
13.05343	41051
13.06157	41042
13.06968	41135
13.07780	45104
13.08593	40053
13.09405	43226
13.10218	46407
13.11030	41844
13.11842	40358
13.12655	41274
13.13467	41201
13.14280	38530
13.15092	40666
13.15903	41729
13.16717	36351
13.17528	40218
13.18340	46576
13.19153	42631
13.19965	47751
13.20778	46098
13.21590	49823
13.22402	50433
13.23215	54736
13.24027	54680
13.24840	48150
13.25652	50305
13.26463	46095
13.27277	42510
13.28088	40208
13.28900	43274
13.29713	42772
13.30525	48055
13.31338	37865
13.32150	36135
13.32962	35724
13.33775	37039
13.34587	38868
13.35400	40178
13.36212	36694
13.37023	35018
13.37837	36102
13.38648	35918
13.39462	34392
13.40273	33829
13.41085	35886
13.41898	34375
13.42710	36387
13.43522	36769
13.44335	35301
13.45147	34565
13.45960	35259
13.46772	32887
13.47583	35877
13.48397	37256
13.49208	39566
13.50022	40301
13.50833	40025
13.51645	39291
13.52458	38511
13.53270	42613
13.54082	37751
13.54895	36867
13.55707	37303
13.56520	39171
13.57332	39690
13.58143	38248
13.58957	39802
13.59768	46101
13.60582	42595
13.61393	45841
13.62205	55863
13.63018	61334
13.63830	59559
13.64643	54224
13.65455	44199
13.66267	45970
13.67080	40929
13.67892	38115
13.68703	34710
13.69517	36623
13.70328	34943
13.71142	38656
13.71953	34333
13.72765	37818
13.73578	38778
13.74390	45841
13.75203	52183
13.76015	68077
13.76827	97713
13.77640	128691
13.78452	170271
13.79265	207643
13.80077	215034
13.80888	219522
13.81702	202895
13.82513	217888
13.83325	224542
13.84138	230523
13.84950	222677
13.85763	199467
13.86575	181039
13.87387	157829
13.88200	127717
13.89012	96262
13.89825	87338
13.90637	77758
13.91448	68672
13.92262	66395
13.93073	57693
13.93887	59657
13.94698	56202
13.95510	66649
13.96323	74222
13.97135	114121
13.97947	133394
13.98760	167861
13.99572	196834
14.00385	171831
14.01197	148541
14.02008	115025
14.02822	98474
14.03633	85797
14.04447	77622
14.05258	70738
14.06070	64404
14.06883	61192
14.07695	68608
14.08507	58032
14.09320	60481
14.10132	57166
14.10945	53263
14.11757	57035
14.12568	52151
14.13382	47986
14.14193	50303
14.15007	53421
14.15818	56805
14.16630	60520
14.17443	56681
14.18255	58357
14.19068	60979
14.19880	65069
14.20692	88700
14.21505	113973
14.22317	147886
14.23128	157297
14.23942	159807
14.24753	156333
14.25567	154764
14.26378	162772
14.27190	140608
14.28003	129400
14.28815	117651
14.29628	99267
14.30440	82763
14.31252	80173
14.32065	72850
14.32877	72103
14.33688	68669
14.34502	72833
14.35313	64263
14.36127	68748
14.36938	68325
14.37750	62238
14.38563	55076
14.39375	54221
14.40188	61275
14.41000	60478
14.41812	68086
14.42625	76193
14.43437	79092
14.44250	72733
14.45062	65855
14.45873	61843
14.46687	57543
14.47498	53440
14.48310	50000
14.49123	51492
14.49935	51449
14.50748	47393
14.51560	52992
14.52372	50240
14.53185	50660
14.53997	44457
14.54810	50967
14.55622	45390
14.56433	48506
14.57247	45125
14.58058	46342
14.58872	47791
14.59683	43530
14.60495	44812
14.61308	42005
14.62120	40243
14.62932	39841
14.63745	40829
14.64557	39741
14.65370	37962
14.66182	45521
14.66993	41658
14.67807	37384
14.68618	34253
14.69432	39006
14.70243	38267
14.71055	35553
14.71868	40559
14.72680	37030
14.73492	43780
14.74305	41884
14.75117	40697
14.75930	37791
14.76742	45324
14.77553	49089
14.78367	48231
14.79178	73230
14.79992	139361
14.80803	353429
14.81615	903133
14.82428	1947722
14.83240	3207325
14.84053	4233528
14.84865	4412996
14.85677	3775333
14.86490	2776147
14.87302	1718639
14.88113	1054212
14.88927	675105
14.89738	513555
14.90552	421094
14.91363	355786
14.92175	314449
14.92988	279753
14.93800	249735
14.94613	231856
14.95425	205344
14.96237	198062
14.97050	183088
14.97862	182841
14.98675	170819
14.99487	156379
15.00298	154698
15.01112	144632
15.01923	135732
15.02735	132338
15.03548	130274
15.04360	120487
15.05173	111757
15.05985	110967
15.06797	102482
15.07610	101763
15.08422	107625
15.09235	98577
15.10047	91384
15.10858	95651
15.11672	94038
15.12483	99264
15.13295	100357
15.14108	103100
15.14920	116155
15.15733	111531
15.16545	106712
15.17357	93707
15.18170	78757
15.18982	70315
15.19795	61280
15.20607	60723
15.21418	51412
15.22232	60317
15.23043	48249
15.23857	50848
15.24668	49288
15.25480	49712
15.26293	47929
15.27105	47122
15.27917	48064
15.28730	41466
15.29542	47123
15.30355	41995
15.31167	42731
15.31978	45905
15.32792	46524
15.33603	40707
15.34417	42567
15.35228	44817
15.36040	43660
15.36853	46804
15.37665	44519
15.38477	50288
15.39290	42983
15.40102	45059
15.40915	42002
15.41727	43988
15.42538	43471
15.43352	45324
15.44163	44173
15.44977	38398
15.45788	43990
15.46600	45545
15.47413	45810
15.48225	53473
15.49038	59792
15.49850	72276
15.50662	77409
15.51475	99653
15.52287	92980
15.53098	86056
15.53912	81086
15.54723	75894
15.55537	72644
15.56348	70451
15.57160	63894
15.57973	49241
15.58785	52599
15.59598	46899
15.60410	46452
15.61222	48475
15.62035	43623
15.62847	42611
15.63660	45453
15.64472	42119
15.65283	45002
15.66097	49439
15.66908	43127
15.67720	43840
15.68533	43012
15.69345	37371
15.70158	42706
15.70970	39453
15.71782	40092
15.72595	40310
15.73407	38105
15.74220	40161
15.75032	47620
15.75843	54894
15.76657	77595
15.77468	122310
15.78280	194904
15.79093	271529
15.79905	336837
15.80718	341902
15.81530	265563
15.82342	210459
15.83155	150850
15.83967	112111
15.84780	85909
15.85592	75574
15.86403	73201
15.87217	68108
15.88028	65739
15.88842	65010
15.89653	66630
15.90465	61017
15.91278	54994
15.92090	56701
15.92902	58523
15.93715	52438
15.94527	54997
15.95340	55736
15.96152	60984
15.96963	61529
15.97777	66821
15.98588	75232
15.99402	77425
16.00213	79897
16.01025	84040
16.01838	85465
16.02650	89350
16.03463	95363
16.04275	92651
16.05087	88744
16.05900	76385
16.06712	69775
16.07523	60694
16.08337	59967
16.09148	54874
16.09962	47898
16.10773	48823
16.11585	49207
16.12398	48935
16.13210	52748
16.14023	47318
16.14835	54720
16.15647	54593
16.16460	55681
16.17272	53761
16.18083	50284
16.18897	48811
16.19708	50960
16.20522	45144
16.21333	45549
16.22145	46226
16.22958	49190
16.23770	47331
16.24583	49433
16.25395	45567
16.26207	43019
16.27020	43347
16.27832	47257
16.28645	48275
16.29457	54951
16.30268	47463
16.31082	51162
16.31893	49957
16.32705	49100
16.33518	46579
16.34330	46252
16.35143	58994
16.35955	58932
16.36767	66891
16.37580	82220
16.38392	88396
16.39205	97237
16.40017	86656
16.40828	79444
16.41642	66029
16.42453	63115
16.43267	58146
16.44078	56534
16.44890	70621
16.45703	101417
16.46515	191483
16.47327	347219
16.48140	604640
16.48952	800388
16.49765	881794
16.50577	757174
16.51388	570445
16.52202	375836
16.53013	246511
16.53827	164663
16.54638	130553
16.55450	109633
16.56263	106881
16.57075	98645
16.57887	90750
16.58700	88917
16.59512	93882
16.60325	82897
16.61137	84405
16.61948	87687
16.62762	86715
16.63573	87251
16.64387	80291
16.65198	76827
16.66010	72403
16.66823	65371
16.67635	61098
16.68448	60332
16.69260	59190
16.70072	55950
16.70885	55289
16.71697	52119
16.72508	50925
16.73322	46970
16.74133	49564
16.74947	51099
16.75758	52593
16.76570	56517
16.77383	62491
16.78195	62463
16.79008	62332
16.79820	56601
16.80632	49803
16.81445	46500
16.82257	47196
16.83068	48807
16.83882	52108
16.84693	44668
16.85507	43264
16.86318	45987
16.87130	43379
16.87943	46525
16.88755	43134
16.89568	38914
16.90380	36017
16.91192	40026
16.92005	40874
16.92817	42974
16.93630	41175
16.94442	36909
16.95253	39951
16.96067	36809
16.96878	43009
16.97690	44902
16.98503	42317
16.99315	37661
17.00128	38894
17.00940	47624
17.01752	38764
17.02565	41989
17.03377	40010
17.04190	43768
17.05002	46878
17.05813	58328
17.06627	51408
17.07438	52242
17.08252	52054
17.09063	51931
17.09875	47331
17.10688	45642
17.11500	44130
17.12312	46135
17.13125	48724
17.13937	45287
17.14750	44226
17.15562	42225
17.16373	46526
17.17187	45404
17.17998	46535
17.18812	41242
17.19623	42835
17.20435	41013
17.21248	38139
17.22060	38393
17.22872	41147
17.23685	39540
17.24497	40076
17.25310	39468
17.26122	43522
17.26933	44648
17.27747	40527
17.28558	37020
17.29372	41402
17.30183	39967
17.30995	42775
17.31808	40869
17.32620	43194
17.33433	48276
17.34245	47750
17.35057	50278
17.35870	52711
17.36682	50311
17.37493	56365
17.38307	53321
17.39118	51803
17.39932	50575
17.40743	50159
17.41555	47724
17.42368	50231
17.43180	48229
17.43993	47286
17.44805	46901
17.45617	43814
17.46430	45631
17.47242	45301
17.48055	43472
17.48867	45232
17.49678	41612
17.50492	41192
17.51303	39798
17.52115	45043
17.52928	42627
17.53740	43273
17.54553	47621
17.55365	48819
17.56177	52420
17.56990	67234
17.57802	101164
17.58615	157064
17.59427	251961
17.60238	381752
17.61052	529558
17.61863	607269
17.62675	575965
17.63488	501891
17.64300	386606
17.65113	299580
17.65925	271502
17.66737	265069
17.67550	278061
17.68362	267800
17.69175	250955
17.69987	205206
17.70798	161298
17.71612	132447
17.72423	107863
17.73237	96923
17.74048	86896
17.74860	79580
17.75673	74089
17.76485	74621
17.77297	74576
17.78110	70379
17.78922	64098
17.79735	61766
17.80547	64020
17.81358	69761
17.82172	71364
17.82983	77790
17.83797	81327
17.84608	86079
17.85420	81356
17.86233	85612
17.87045	85192
17.87857	80949
17.88670	78409
17.89482	73687
17.90295	64333
17.91107	59283
17.91918	58882
17.92732	53075
17.93543	50478
17.94357	47109
17.95168	49355
17.95980	46460
17.96793	44747
17.97605	48729
17.98418	48282
17.99230	44421
18.00042	47431
18.00855	46272
18.01667	50877
18.02478	54809
18.03292	66381
18.04103	78343
18.04917	88063
18.05728	91631
18.06540	86778
18.07353	105242
18.08165	135916
18.08978	192550
18.09790	248398
18.10602	284189
18.11415	290896
18.12227	259915
18.13040	222167
18.13852	192361
18.14663	170298
18.15477	151624
18.16288	138810
18.17100	127063
18.17913	121622
18.18725	116446
18.19538	111376
18.20350	102403
18.21162	96293
18.21975	84840
18.22787	80900
18.23600	85950
18.24412	79318
18.25223	80551
18.26037	75277
18.26848	74811
18.27662	72640
18.28473	66501
18.29285	59733
18.30098	56983
18.30910	50031
18.31722	48870
18.32535	49005
18.33347	45952
18.34160	49013
18.34972	42870
18.35783	44844
18.36597	42781
18.37408	41540
18.38222	45557
18.39033	42454
18.39845	45127
18.40658	42986
18.41470	44648
18.42282	50201
18.43095	47830
18.43907	53414
18.44720	58124
18.45532	68120
18.46343	92286
18.47157	122405
18.47968	164074
18.48782	191791
18.49593	220783
18.50405	205021
18.51218	174804
18.52030	136596
18.52843	106083
18.53655	84464
18.54467	74100
18.55280	70251
18.56092	53895
18.56903	56187
18.57717	52417
18.58528	48603
18.59342	54561
18.60153	54028
18.60965	58278
18.61778	54463
18.62590	55830
18.63403	52714
18.64215	55158
18.65027	54097
18.65840	53602
18.66652	51307
18.67463	53752
18.68277	48680
18.69088	58622
18.69902	78434
18.70713	114647
18.71525	157113
18.72338	178617
18.73150	200914
18.73963	209137
18.74775	219124
18.75587	232228
18.76400	237238
18.77212	226328
18.78025	232754
18.78837	225018
18.79648	229431
18.80462	249705
18.81273	244178
18.82085	228411
18.82898	237135
18.83710	235646
18.84523	235967
18.85335	236624
18.86147	230017
18.86960	230590
18.87772	234488
18.88585	228517
18.89397	234430
18.90208	225047
18.91022	226678
18.91833	217959
18.92647	243071
18.93458	233199
18.94270	235362
18.95083	243309
18.95895	244111
18.96707	242033
18.97520	245812
18.98332	239212
18.99145	243883
18.99957	244911
19.00768	228348
19.01582	226129
19.02393	216868
19.03207	208593
19.04018	215003
19.04830	210372
19.05643	206036
19.06455	203230
19.07267	202819
19.08080	210769
19.08892	228135
19.09705	258643
19.10517	310096
19.11328	373370
19.12142	418475
19.12953	457651
19.13767	480124
19.14578	471582
19.15390	452686
19.16203	435870
19.17015	430804
19.17828	409746
19.18640	401737
19.19452	389819
19.20265	384752
19.21077	363751
19.21888	354570
19.22702	317186
19.23513	294898
19.24327	267684
19.25138	244355
19.25950	233891
19.26763	209013
19.27575	209491
19.28388	215350
19.29200	220690
19.30012	242326
19.30825	245890
19.31637	240210
19.32450	234244
19.33262	219042
19.34073	215885
19.34887	217813
19.35698	209044
19.36510	228602
19.37323	236997
19.38135	249829
19.38948	265914
19.39760	245282
19.40572	225379
19.41385	212679
19.42197	187478
19.43010	183268
19.43822	184174
19.44633	179690
19.45447	176078
19.46258	171675
19.47070	169148
19.47883	159432
19.48695	172739
19.49508	173709
19.50320	171514
19.51132	185211
19.51945	209068
19.52757	222838
19.53570	237728
19.54382	225046
19.55193	209238
19.56007	189615
19.56818	176543
19.57632	162197
19.58443	163671
19.59255	149809
19.60068	150671
19.60880	137653
19.61692	132210
19.62505	140616
19.63317	142892
19.64130	155707
19.64942	187421
19.65753	234443
19.66567	321868
19.67378	388756
19.68192	471055
19.69003	483771
19.69815	466583
19.70628	412702
19.71440	353179
19.72252	293277
19.73065	251220
19.73877	231201
19.74690	198550
19.75502	195510
19.76313	176333
19.77127	164760
19.77938	158310
19.78752	157672
19.79563	160785
19.80375	161735
19.81188	164604
19.82000	171869
19.82813	160743
19.83625	156704
19.84437	146204
19.85250	145342
19.86062	152937
19.86873	208914
19.87687	350448
19.88498	628642
19.89312	1057732
19.90123	1574190
19.90935	2127805
19.91748	2517352
19.92560	2564026
19.93373	2448542
19.94185	2184318
19.94997	1946293
19.95810	1759102
19.96622	1641456
19.97435	1535791
19.98247	1410302
19.99058	1382762
19.99872	1340957
20.00683	1257143
20.01495	1198866
20.02308	1124162
20.03120	1068146
20.03933	998855
20.04745	923400
20.05557	771036
20.06370	670094
20.07182	524924
20.07995	420858
20.08807	350574
20.09618	311849
20.10432	284760
20.11243	268701
20.12055	260044
20.12868	248108
20.13680	231867
20.14493	240212
20.15305	236754
20.16117	246138
20.16930	248150
20.17742	264151
20.18555	274592
20.19367	290084
20.20178	292875
20.20992	293125
20.21803	294057
20.22617	259738
20.23428	252159
20.24240	241580
20.25053	237820
20.25865	261294
20.26677	307113
20.27490	385047
20.28302	473305
20.29115	548924
20.29927	588877
20.30738	554844
20.31552	509991
20.32363	426093
20.33177	346236
20.33988	272225
20.34800	225919
20.35613	199043
20.36425	165832
20.37238	149234
20.38050	128998
20.38862	123390
20.39675	117585
20.40487	114143
20.41298	110934
20.42112	118144
20.42923	114266
20.43737	123182
20.44548	137706
20.45360	146324
20.46173	152767
20.46985	151648
20.47798	149530
20.48610	146882
20.49422	127296
20.50235	119274
20.51047	113710
20.51858	105106
20.52672	101747
20.53483	96551
20.54297	97517
20.55108	100411
20.55920	96649
20.56733	101433
20.57545	106004
20.58358	92442
20.59170	95482
20.59982	85108
20.60795	96926
20.61607	92133
20.62420	88009
20.63232	88653
20.64043	87880
20.64857	93123
20.65668	87831
20.66480	80158
20.67293	82732
20.68105	83468
20.68918	84571
20.69730	85374
20.70542	87169
20.71355	82117
20.72167	80549
20.72980	80465
20.73792	77552
20.74603	81092
20.75417	82260
20.76228	82479
20.77040	79302
20.77853	92184
20.78665	94249
20.79478	108889
20.80290	140580
20.81102	167838
20.81915	210775
20.82727	252347
20.83540	248874
20.84352	244990
20.85163	197599
20.85977	156303
20.86788	122847
20.87602	102246
20.88413	101529
20.89225	91891
20.90038	90040
20.90850	88641
20.91662	82261
20.92475	84071
20.93287	84110
20.94100	81120
20.94912	83998
20.95723	81359
20.96537	82259
20.97348	83159
20.98162	81146
20.98973	74130
20.99785	84603
21.00598	76358
21.01410	76427
21.02223	73619
21.03035	71869
21.03847	72457
21.04660	75762
21.05472	77083
21.06283	76681
21.07097	76747
21.07908	75404
21.08722	73781
21.09533	72972
21.10345	70345
21.11158	67790
21.11970	69929
21.12783	70741
21.13595	78304
21.14407	81559
21.15220	93759
21.16032	104995
21.16843	112680
21.17657	115567
21.18468	111508
21.19282	104102
21.20093	98814
21.20905	85978
21.21718	86634
21.22530	78309
21.23343	74284
21.24155	78262
21.24967	73184
21.25780	76257
21.26592	72944
21.27405	71034
21.28217	74671
21.29028	70478
21.29842	68414
21.30653	75693
21.31465	66174
21.32278	66896
21.33090	67012
21.33903	70877
21.34715	69954
21.35527	64503
21.36340	61657
21.37152	65753
21.37965	62774
21.38777	64506
21.39588	60731
21.40402	63454
21.41213	69286
21.42027	72542
21.42838	75562
21.43650	78375
21.44463	76728
21.45275	78385
21.46087	68857
21.46900	72414
21.47712	66989
21.48525	64449
21.49337	65269
21.50148	64262
21.50962	65236
21.51773	67459
21.52587	58174
21.53398	58861
21.54210	61699
21.55023	57638
21.55835	55386
21.56647	57962
21.57460	55125
21.58272	58797
21.59085	65769
21.59897	69723
21.60708	69063
21.61522	70604
21.62333	73422
21.63147	72827
21.63958	78294
21.64770	89130
21.65583	94001
21.66395	99194
21.67208	113034
21.68020	107047
21.68832	98115
21.69645	92417
21.70457	82849
21.71268	84337
21.72082	70468
21.72893	65173
21.73707	66247
21.74518	64283
21.75330	59718
21.76143	60750
21.76955	59901
21.77768	56653
21.78580	61694
21.79392	62445
21.80205	56505
21.81017	58805
21.81830	55914
21.82642	63017
21.83453	69283
21.84267	78397
21.85078	80436
21.85890	97427
21.86703	100262
21.87515	91790
21.88328	90686
21.89140	79352
21.89952	71908
21.90765	62516
21.91577	62861
21.92390	58840
21.93202	55163
21.94013	55527
21.94827	54356
21.95638	54180
21.96450	55299
21.97263	51151
21.98075	48161
21.98888	48949
21.99700	43753
22.00512	42323
22.01325	44300
22.02137	45069
22.02950	49456
22.03762	49658
22.04573	48822
22.05387	50449
22.06198	50073
22.07012	50398
22.07823	49172
22.08635	48497
22.09448	49300
22.10260	47799
22.11072	51995
22.11885	45661
22.12697	44351
22.13510	45966
22.14322	44557
22.15133	45498
22.15947	47745
22.16758	49088
22.17572	48458
22.18383	48179
22.19195	46041
22.20008	47415
22.20820	48725
22.21632	46269
22.22445	46771
22.23257	52198
22.24070	52893
22.24882	57076
22.25693	53197
22.26507	55037
22.27318	59342
22.28132	71794
22.28943	79701
22.29755	83024
22.30568	106595
22.31380	114233
22.32193	145213
22.33005	184273
22.33817	221757
22.34630	235273
22.35442	255693
22.36253	229635
22.37067	205499
22.37878	163314
22.38692	155744
22.39503	147211
22.40315	152537
22.41128	160311
22.41940	171165
22.42753	185948
22.43565	188291
22.44377	173594
22.45190	153588
22.46002	146691
22.46815	136611
22.47627	126779
22.48438	121189
22.49252	121845
22.50063	127958
22.50875	128623
22.51688	129729
22.52500	123035
22.53313	122545
22.54125	120193
22.54937	115411
22.55750	110182
22.56562	104125
22.57375	106597
22.58187	102304
22.58998	97611
22.59812	97690
22.60623	100248
22.61435	92004
22.62248	90392
22.63060	88915
22.63873	94533
22.64685	89103
22.65497	91853
22.66310	88552
22.67122	88378
22.67935	96254
22.68747	104744
22.69558	99417
22.70372	103896
22.71183	105496
22.71997	112615
22.72808	105220
22.73620	102935
22.74433	98575
22.75245	83726
22.76057	78506
22.76870	79393
22.77682	67419
22.78495	73192
22.79307	74007
22.80118	79063
22.80932	93842
22.81743	99631
22.82557	108448
22.83368	93335
22.84180	88576
22.84993	84762
22.85805	76312
22.86618	79606
22.87430	73959
22.88242	75668
22.89055	80497
22.89867	82793
22.90678	91697
22.91492	103890
22.92303	116900
22.93117	138484
22.93928	158004
22.94740	165977
22.95553	155089
22.96365	143092
22.97178	133217
22.97990	109154
22.98802	101487
22.99615	90935
23.00427	91067
23.01238	91549
23.02052	94355
23.02863	104775
23.03677	119674
23.04488	123008
23.05300	125908
23.06113	134737
23.06925	134495
23.07738	137163
23.08550	147918
23.09362	136667
23.10175	140127
23.10987	133564
23.11800	145391
23.12612	135736
23.13423	136689
23.14237	138617
23.15048	138588
23.15860	137366
23.16673	137012
23.17485	139379
23.18298	134588
23.19110	130436
23.19922	130217
23.20735	133701
23.21547	128975
23.22360	132192
23.23172	138011
23.23983	139920
23.24797	143768
23.25608	160241
23.26420	170311
23.27233	178092
23.28045	177392
23.28858	167171
23.29670	158931
23.30482	151189
23.31295	140618
23.32107	133191
23.32920	130117
23.33732	137827
23.34543	149669
23.35357	157760
23.36168	170022
23.36982	202320
23.37793	258972
23.38605	301014
23.39418	352088
23.40230	412175
23.41042	449588
23.41855	484126
23.42667	526062
23.43480	537283
23.44292	533107
23.45103	505225
23.45917	493132
23.46728	471993
23.47542	441553
23.48353	409561
23.49165	383729
23.49978	362546
23.50790	332904
23.51603	315994
23.52415	302577
23.53227	282272
23.54040	256488
23.54852	239439
23.55663	244471
23.56477	228062
23.57288	217960
23.58102	221387
23.58913	228341
23.59725	233356
23.60538	251834
23.61350	253231
23.62163	252749
23.62975	250723
23.63787	263085
23.64600	302028
23.65412	407050
23.66225	556193
23.67037	694015
23.67848	771425
23.68662	735938
23.69473	651884
23.70285	501596
23.71098	390235
23.71910	320244
23.72723	252273
23.73535	220081
23.74347	193979
23.75160	185193
23.75972	200935
23.76785	299256
23.77597	520500
23.78408	960104
23.79222	1528709
23.80033	2083003
23.80845	2328114
23.81658	2273240
23.82470	1922072
23.83283	1587508
23.84095	1193481
23.84907	918844
23.85720	694511
23.86532	564856
23.87345	495912
23.88157	443598
23.88968	377306
23.89782	343048
23.90593	309396
23.91407	296547
23.92218	284489
23.93030	277826
23.93843	249593
23.94655	242247
23.95467	226004
23.96280	208898
23.97092	212827
23.97905	200127
23.98717	204887
23.99528	182882
24.00342	182113
24.01153	199226
24.01967	234138
24.02778	292234
24.03590	366802
24.04403	444887
24.05215	446751
24.06027	406269
24.06840	332432
24.07652	261696
24.08465	209837
24.09277	188890
24.10088	172620
24.10902	138660
24.11713	138061
24.12527	142088
24.13338	132689
24.14150	135581
24.14963	141171
24.15775	136140
24.16588	139302
24.17400	132206
24.18212	130157
24.19025	121903
24.19837	114525
24.20648	120708
24.21462	110961
24.22273	113571
24.23087	113284
24.23898	115283
24.24710	107180
24.25523	107266
24.26335	95078
24.27148	95088
24.27960	93230
24.28772	92254
24.29585	93278
24.30397	92893
24.31210	86096
24.32022	96638
24.32833	84761
24.33647	91744
24.34458	86116
24.35270	86277
24.36083	77264
24.36895	78160
24.37708	80104
24.38520	83252
24.39332	83637
24.40145	93513
24.40957	99736
24.41770	98177
24.42582	103640
24.43393	100451
24.44207	92708
24.45018	87507
24.45830	79226
24.46643	77937
24.47455	71511
24.48268	69805
24.49080	71913
24.49892	73048
24.50705	75653
24.51517	77595
24.52330	92868
24.53142	100401
24.53953	98261
24.54767	103201
24.55578	111821
24.56392	107118
24.57203	99978
24.58015	93283
24.58828	91147
24.59640	89189
24.60452	78681
24.61265	76418
24.62077	75440
24.62890	76974
24.63702	71704
24.64513	72775
24.65327	71685
24.66138	69195
24.66952	67411
24.67763	71438
24.68575	70184
24.69388	70895
24.70200	79449
24.71013	93955
24.71825	120458
24.72637	155365
24.73450	177652
24.74262	188137
24.75073	197859
24.75887	202044
24.76698	214263
24.77512	214915
24.78323	216050
24.79135	224943
24.79948	217688
24.80760	229131
24.81573	240662
24.82385	232920
24.83197	233204
24.84010	252490
24.84822	262480
24.85633	292238
24.86447	312967
24.87258	370238
24.88072	452844
24.88883	548281
24.89695	640346
24.90508	679063
24.91320	651339
24.92133	597829
24.92945	502343
24.93757	398806
24.94570	327058
24.95382	291604
24.96195	259915
24.97007	248280
24.97818	235734
24.98632	236233
24.99443	241163
25.00255	222482
25.01068	229212
25.01880	224843
25.02693	220911
25.03505	215822
25.04317	212052
25.05130	203864
25.05942	205453
25.06755	212517
25.07567	204804
25.08378	201983
25.09192	202936
25.10003	207812
25.10815	240440
25.11628	326829
25.12440	525992
25.13253	917750
25.14065	1505271
25.14877	2093289
25.15690	2476303
25.16502	2435840
25.17315	2129113
25.18127	1627485
25.18938	1099903
25.19752	712044
25.20563	492085
25.21377	340128
25.22188	271500
25.23000	232802
25.23813	224964
25.24625	220603
25.25437	221345
25.26250	220096
25.27062	222258
25.27875	219197
25.28687	214339
25.29498	188711
25.30312	172843
25.31123	144706
25.31937	136058
25.32748	114570
25.33560	105990
25.34373	96482
25.35185	93357
25.35998	93550
25.36810	81723
25.37622	79133
25.38435	75394
25.39247	79509
25.40058	74966
25.40872	75732
25.41683	71115
25.42497	70156
25.43308	67666
25.44120	76329
25.44933	75461
25.45745	68174
25.46558	68409
25.47370	70477
25.48182	73392
25.48995	63688
25.49807	70279
25.50618	72932
25.51432	68319
25.52243	67272
25.53057	68207
25.53868	63460
25.54680	62026
25.55493	58847
25.56305	61766
25.57118	62405
25.57930	61233
25.58742	58166
25.59555	59928
25.60367	65502
25.61180	59534
25.61992	62538
25.62803	58515
25.63617	68081
25.64428	76910
25.65240	84894
25.66053	107649
25.66865	140904
25.67678	196361
25.68490	254052
25.69302	284384
25.70115	308775
25.70927	312651
25.71740	309336
25.72552	331642
25.73363	331626
25.74177	325695
25.74988	327138
25.75802	342086
25.76613	352732
25.77425	335782
25.78238	333666
25.79050	325589
25.79862	325224
25.80675	350750
25.81487	330882
25.82300	325323
25.83112	329607
25.83923	323942
25.84737	331015
25.85548	325865
25.86362	320209
25.87173	311552
25.87985	311135
25.88798	310752
25.89610	305168
25.90422	292086
25.91235	289955
25.92047	296694
25.92860	294534
25.93672	289343
25.94483	280665
25.95297	289046
25.96108	279884
25.96922	271709
25.97733	271739
25.98545	264206
25.99358	273190
26.00170	265356
26.00983	263584
26.01795	259559
26.02607	260304
26.03420	243563
26.04232	249605
26.05043	256335
26.05857	254766
26.06668	259284
26.07482	241551
26.08293	238399
26.09105	240769
26.09918	241689
26.10730	242069
26.11543	237622
26.12355	237575
26.13167	230581
26.13980	236288
26.14792	236375
26.15605	234985
26.16417	233007
26.17228	244921
26.18042	232177
26.18853	228849
26.19665	220386
26.20478	218394
26.21290	211451
26.22103	208431
26.22915	203636
26.23727	203407
26.24540	210953
26.25352	201762
26.26165	188482
26.26977	197034
26.27788	194671
26.28602	188243
26.29413	186284
26.30225	180620
26.31038	182124
26.31850	176699
26.32663	174852
26.33475	177602
26.34287	176332
26.35100	174238
26.35912	176055
26.36725	178464
26.37537	178586
26.38348	181316
26.39162	191502
26.39973	191324
26.40787	203895
26.41598	196963
26.42410	189574
26.43223	193728
26.44035	178662
26.44847	165082
26.45660	165759
26.46472	149931
26.47285	161977
26.48097	158860
26.48908	157164
26.49722	152334
26.50533	151012
26.51347	148631
26.52158	143850
26.52970	147526
26.53783	139150
26.54595	137496
26.55407	133106
26.56220	135998
26.57032	130082
26.57845	131460
26.58657	135999
26.59468	128663
26.60282	135745
26.61093	127654
26.61907	131197
26.62718	123874
26.63530	122503
26.64343	130582
26.65155	130056
26.65968	128353
26.66780	134779
26.67592	132214
26.68405	129195
26.69217	128102
26.70028	131468
26.70842	122741
26.71653	127288
26.72467	123455
26.73278	118648
26.74090	117640
26.74903	112047
26.75715	111395
26.76528	109147
26.77340	106215
26.78152	104559
26.78965	112166
26.79777	105506
26.80590	107065
26.81402	104316
26.82213	109258
26.83027	105048
26.83838	102633
26.84650	103132
26.85463	105583
26.86275	98693
26.87088	106747
26.87900	94769
26.88712	94401
26.89525	94385
26.90337	95273
26.91150	86331
26.91962	88446
26.92773	80688
26.93587	87770
26.94398	87325
26.95210	83364
26.96023	83405
26.96835	93589
26.97648	96817
26.98460	113462
26.99272	145184
27.00085	215980
27.00897	319274
27.01710	418642
27.02522	579447
27.03333	684001
27.04147	738452
27.04958	683393
27.05772	610662
27.06583	521346
27.07395	420303
27.08208	350030
27.09020	291184
27.09832	257124
27.10645	211889
27.11457	196731
27.12270	185855
27.13082	169406
27.13893	161189
27.14707	153852
27.15518	148997
27.16332	143447
27.17143	148239
27.17955	136118
27.18768	137785
27.19580	131681
27.20393	132205
27.21205	128595
27.22017	126678
27.22830	114024
27.23642	112216
27.24453	104954
27.25267	102869
27.26078	101751
27.26892	100532
27.27703	91598
27.28515	92150
27.29328	88594
27.30140	86960
27.30953	88273
27.31765	88739
27.32577	81031
27.33390	83288
27.34202	86346
27.35013	78627
27.35827	79956
27.36638	83663
27.37452	85957
27.38263	83395
27.39075	85374
27.39888	89372
27.40700	83020
27.41513	81018
27.42325	80536
27.43137	79488
27.43950	74967
27.44762	78906
27.45575	73663
27.46387	75469
27.47198	71271
27.48012	70435
27.48823	69901
27.49635	71830
27.50448	74030
27.51260	74977
27.52073	76307
27.52885	72438
27.53697	71427
27.54510	66275
27.55322	71462
27.56135	71142
27.56947	65095
27.57758	73417
27.58572	78616
27.59383	77346
27.60195	82739
27.61008	92053
27.61820	87088
27.62633	94209
27.63445	78770
27.64257	77524
27.65070	69592
27.65882	67660
27.66695	71270
27.67507	64014
27.68318	70490
27.69132	63343
27.69943	64759
27.70757	63751
27.71568	59087
27.72380	61181
27.73193	57155
27.74005	57107
27.74817	57003
27.75630	58207
27.76442	57949
27.77255	57302
27.78067	63024
27.78878	59203
27.79692	58428
27.80503	63426
27.81317	66044
27.82128	64633
27.82940	66345
27.83753	69149
27.84565	61918
27.85378	65692
27.86190	64065
27.87002	60439
27.87815	55480
27.88627	62946
27.89438	58405
27.90252	59218
27.91063	57201
27.91877	57572
27.92688	60961
27.93500	56275
27.94313	58415
27.95125	56201
27.95938	55918
27.96750	53201
27.97562	54950
27.98375	61609
27.99187	56119
28.00000	56226
28.00812	57936
28.01623	58578
28.02437	59156
28.03248	55456
28.04060	57388
28.04873	60216
28.05685	60514
28.06498	63180
28.07310	58478
28.08122	61669
28.08935	59060
28.09747	62341
28.10560	57206
28.11372	54555
28.12183	55045
28.12997	58525
28.13808	53353
28.14620	53840
28.15433	56873
28.16245	50420
28.17058	55669
28.17870	48342
28.18682	51097
28.19495	60992
28.20307	63552
28.21120	72253
28.21932	77114
28.22743	81641
28.23557	90293
28.24368	90867
28.25182	78486
28.25993	79165
28.26805	71980
28.27618	69526
28.28430	60568
28.29242	59469
28.30055	60351
28.30867	56700
28.31680	58058
28.32492	65249
28.33303	66050
28.34117	78715
28.34928	90876
28.35742	106368
28.36553	126108
28.37365	141936
28.38178	149100
28.38990	159131
28.39802	171838
28.40615	156638
28.41427	161485
28.42240	150880
28.43052	146369
28.43863	141515
28.44677	128165
28.45488	117312
28.46302	107411
28.47113	102931
28.47925	100432
28.48738	91609
28.49550	92381
28.50363	86870
28.51175	79375
28.51987	86403
28.52800	82538
28.53612	78441
28.54423	83571
28.55237	73604
28.56048	72871
28.56862	69768
28.57673	71096
28.58485	70744
28.59298	75356
28.60110	64780
28.60923	62659
28.61735	67927
28.62547	64255
28.63360	70680
28.64172	68392
28.64985	69186
28.65797	72994
28.66608	71913
28.67422	67076
28.68233	71748
28.69045	70703
28.69858	72448
28.70670	69113
28.71483	69692
28.72295	64429
28.73107	64288
28.73920	64732
28.74732	62741
28.75545	60611
28.76357	65055
28.77168	66529
28.77982	67481
28.78793	73214
28.79605	72285
28.80418	82621
28.81230	77634
28.82043	78039
28.82855	71811
28.83667	71655
28.84480	66334
28.85292	69468
28.86105	66190
28.86917	68440
28.87728	66011
28.88542	70300
28.89353	67990
28.90167	75978
28.90978	75832
28.91790	73081
28.92603	70119
28.93415	70868
28.94227	67257
28.95040	77227
28.95852	74383
28.96665	75212
28.97477	83503
28.98288	82920
28.99102	74861
28.99913	63517
29.00727	63182
29.01538	66789
29.02350	61205
29.03163	59922
29.03975	66532
29.04788	60867
29.05600	57763
29.06412	57873
29.07225	57178
29.08037	61892
29.08848	59389
29.09662	58760
29.10473	56884
29.11287	60893
29.12098	59919
29.12910	62484
29.13723	59061
29.14535	57729
29.15348	56652
29.16160	55377
29.16972	57920
29.17785	61125
29.18597	68119
29.19408	68267
29.20222	74988
29.21033	86076
29.21847	105693
29.22658	109134
29.23470	103870
29.24283	98664
29.25095	88694
29.25908	77902
29.26720	72751
29.27532	67208
29.28345	63741
29.29157	57300
29.29970	58834
29.30782	57105
29.31593	60650
29.32407	60906
29.33218	54596
29.34030	57146
29.34843	53258
29.35655	56281
29.36468	52484
29.37280	58113
29.38092	54351
29.38905	56092
29.39717	56757
29.40530	55925
29.41342	60192
29.42153	73482
29.42967	70499
29.43778	78216
29.44590	84617
29.45403	77661
29.46215	72124
29.47028	64776
29.47840	61003
29.48652	58183
29.49465	57334
29.50277	59694
29.51090	61831
29.51902	65608
29.52713	62572
29.53527	64984
29.54338	56593
29.55152	57865
29.55963	60045
29.56775	56352
29.57588	56753
29.58400	54027
29.59212	56924
29.60025	50811
29.60837	52793
29.61650	53896
29.62462	53225
29.63273	54000
29.64087	55764
29.64898	54962
29.65712	50613
29.66523	56445
29.67335	54939
29.68148	52841
29.68960	57138
29.69773	49259
29.70585	62773
29.71397	57292
29.72210	58943
29.73022	50907
29.73833	56463
29.74647	53451
29.75458	53545
29.76272	52164
29.77083	54129
29.77895	49224
29.78708	48565
29.79520	44454
29.80333	46460
29.81145	50458
29.81957	46252
29.82770	42390
29.83582	47667
29.84393	50832
29.85207	57589
29.86018	55075
29.86832	92484
29.87643	176538
29.88455	334580
29.89268	590224
29.90080	899238
29.90893	1132253
29.91705	1214286
29.92517	1052610
29.93330	760499
29.94142	475697
29.94955	268513
29.95767	171858
29.96578	113874
29.97392	93617
29.98203	87408
29.99015	86827
29.99828	89673
30.00640	92502
30.01453	96370
30.02265	102558
30.03077	104342
30.03890	105823
30.04702	112570
30.05515	114241
30.06327	113966
30.07138	107523
30.07952	105123
30.08763	107678
30.09577	102539
30.10388	102280
30.11200	101572
30.12013	95286
30.12825	97576
30.13637	101093
30.14450	86851
30.15262	84781
30.16075	81060
30.16887	79115
30.17698	84686
30.18512	75632
30.19323	70069
30.20137	70815
30.20948	72684
30.21760	72922
30.22573	72360
30.23385	71148
30.24197	68069
30.25010	65306
30.25822	63625
30.26635	59343
30.27447	59227
30.28258	64634
30.29072	58189
30.29883	62030
30.30697	67121
30.31508	59299
30.32320	64419
30.33133	60326
30.33945	57429
30.34758	56348
30.35570	57659
30.36382	60912
30.37195	65639
30.38007	57479
30.38818	61136
30.39632	58988
30.40443	60900
30.41257	60588
30.42068	54966
30.42880	55907
30.43693	59730
30.44505	61299
30.45318	57094
30.46130	62624
30.46942	61039
30.47755	59719
30.48567	59096
30.49380	59328
30.50192	59608
30.51003	58582
30.51817	59020
30.52628	56485
30.53440	62680
30.54253	59882
30.55065	60676
30.55878	60516
30.56690	60408
30.57502	57393
30.58315	61694
30.59127	63846
30.59940	60061
30.60752	59548
30.61563	58769
30.62377	57376
30.63188	58229
30.64000	57107
30.64813	60456
30.65625	59329
30.66438	55011
30.67250	58007
30.68062	56652
30.68875	56084
30.69687	56903
30.70500	54796
30.71312	58478
30.72123	57574
30.72937	57766
30.73748	57913
30.74562	57345
30.75373	52879
30.76185	56193
30.76998	56504
30.77810	64983
30.78622	84672
30.79435	107511
30.80247	153608
30.81060	188306
30.81872	226554
30.82683	232266
30.83497	215929
30.84308	174506
30.85122	129900
30.85933	95754
30.86745	82569
30.87558	66041
30.88370	62589
30.89182	59064
30.89995	57813
30.90807	54989
30.91620	61278
30.92432	54342
30.93243	56096
30.94057	54948
30.94868	61473
30.95682	57770
30.96493	56865
30.97305	56206
30.98118	54584
30.98930	54221
30.99743	56240
31.00555	54472
31.01367	56627
31.02180	55756
31.02992	58126
31.03803	67166
31.04617	57722
31.05428	62617
31.06242	62382
31.07053	68900
31.07865	70013
31.08678	80112
31.09490	102870
31.10303	136150
31.11115	172988
31.11927	206829
31.12740	198487
31.13552	179881
31.14365	132119
31.15177	108086
31.15988	86819
31.16802	69472
31.17613	73214
31.18425	65286
31.19238	62979
31.20050	74282
31.20863	81196
31.21675	93106
31.22487	104736
31.23300	116983
31.24112	111184
31.24925	104445
31.25737	87947
31.26548	82253
31.27362	63832
31.28173	60237
31.28985	56626
31.29798	59183
31.30610	52242
31.31423	50515
31.32235	53578
31.33047	56269
31.33860	61453
31.34672	64651
31.35485	68778
31.36297	74525
31.37108	81778
31.37922	86498
31.38733	91917
31.39547	93984
31.40358	97213
31.41170	95184
31.41983	92278
31.42795	95073
31.43607	87088
31.44420	86609
31.45232	81723
31.46045	81765
31.46857	82412
31.47668	85336
31.48482	81958
31.49293	82007
31.50107	80981
31.50918	80797
31.51730	84056
31.52543	83312
31.53355	80993
31.54168	78856
31.54980	79316
31.55792	76645
31.56605	81800
31.57417	75390
31.58228	76323
31.59042	78133
31.59853	81445
31.60667	78829
31.61478	75613
31.62290	80264
31.63103	77309
31.63915	77525
31.64728	82677
31.65540	80449
31.66352	79038
31.67165	85484
31.67977	81058
31.68788	82367
31.69602	81967
31.70413	83147
31.71227	81934
31.72038	72713
31.72850	71863
31.73663	77164
31.74475	77318
31.75288	75511
31.76100	67486
31.76912	66199
31.77725	65961
31.78537	68754
31.79350	70084
31.80162	72303
31.80973	70136
31.81787	70908
31.82598	69467
31.83410	73585
31.84223	66191
31.85035	70297
31.85848	74417
31.86660	75777
31.87472	83726
31.88285	80031
31.89097	77186
31.89910	78240
31.90722	80414
31.91533	79699
31.92347	87934
31.93158	93090
31.93970	97257
31.94783	93542
31.95595	90773
31.96408	87551
31.97220	91752
31.98032	88080
31.98845	93511
31.99657	104871
32.00470	101011
32.01282	96229
32.02093	93785
32.02907	96572
32.03718	91533
32.04532	92154
32.05343	85538
32.06155	87929
32.06968	85949
32.07780	82301
32.08592	91419
32.09405	76295
32.10217	83191
32.11030	74694
32.11842	70505
32.12653	66246
32.13467	66624
32.14278	69524
32.15092	63475
32.15903	59640
32.16715	64037
32.17528	61194
32.18340	59984
32.19153	60407
32.19965	65241
32.20777	62623
32.21590	62262
32.22402	62246
32.23213	62958
32.24027	61710
32.24838	61768
32.25652	60659
32.26463	64360
32.27275	73810
32.28088	66843
32.28900	65229
32.29713	63064
32.30525	62039
32.31337	64557
32.32150	61939
32.32962	65225
32.33773	66971
32.34587	81341
32.35398	86379
32.36212	93794
32.37023	100357
32.37835	96576
32.38648	100018
32.39460	78967
32.40273	74870
32.41085	66309
32.41897	68950
32.42710	55612
32.43522	54421
32.44335	60883
32.45147	55970
32.45958	58126
32.46772	54950
32.47583	53642
32.48395	57004
32.49208	56642
32.50020	53886
32.50833	58527
32.51645	55853
32.52457	62434
32.53270	53169
32.54082	50310
32.54895	58649
32.55707	50271
32.56518	52204
32.57332	53851
32.58143	52949
32.58957	54676
32.59768	54899
32.60580	56395
32.61393	59444
32.62205	46790
32.63017	53539
32.63830	53155
32.64642	45528
32.65455	49504
32.66267	53374
32.67078	60741
32.67892	60888
32.68703	62088
32.69517	61369
32.70328	59919
32.71140	59983
32.71953	59298
32.72765	53950
32.73577	54007
32.74390	56747
32.75202	55550
32.76015	51801
32.76827	51877
32.77638	50325
32.78452	52700
32.79263	51973
32.80077	52179
32.80888	50059
32.81700	49251
32.82513	51468
32.83325	47862
32.84138	51048
32.84950	53537
32.85762	48683
32.86575	52446
32.87387	50202
32.88198	50999
32.89012	47387
32.89823	48213
32.90637	52355
32.91448	54893
32.92260	51521
32.93073	50662
32.93885	53840
32.94698	55810
32.95510	48188
32.96322	47077
32.97135	51203
32.97947	56454
32.98758	54843
32.99572	68641
33.00383	64794
33.01197	68519
33.02008	73949
33.02820	66099
33.03633	65932
33.04445	60556
33.05258	60571
33.06070	59136
33.06882	60078
33.07695	60112
33.08507	70100
33.09320	71627
33.10132	80911
33.10943	101571
33.11757	120112
33.12568	131668
33.13380	141147
33.14193	129252
33.15005	114146
33.15818	95615
33.16630	70722
33.17442	63765
33.18255	59149
33.19067	55529
33.19880	55228
33.20692	54608
33.21503	56895
33.22317	54745
33.23128	56119
33.23942	52406
33.24753	53314
33.25565	51301
33.26378	49244
33.27190	51721
33.28002	53028
33.28815	55227
33.29627	49305
33.30440	50235
33.31252	52790
33.32063	51632
33.32877	49066
33.33688	50364
33.34502	47161
33.35313	53181
33.36125	51179
33.36938	49312
33.37750	53548
33.38563	55295
33.39375	50579
33.40187	51108
33.41000	55019
33.41812	50992
33.42623	47593
33.43437	48572
33.44248	48173
33.45062	44199
33.45873	50956
33.46685	45729
33.47498	45363
33.48310	48326
33.49123	48112
33.49935	48133
33.50747	51925
33.51560	51058
33.52372	50308
33.53183	51348
33.53997	54693
33.54808	51921
33.55622	54349
33.56433	60909
33.57245	59997
33.58058	56535
33.58870	59820
33.59683	55538
33.60495	52388
33.61307	45988
33.62120	50574
33.62932	49552
33.63745	50185
33.64557	52358
33.65368	52057
33.66182	54771
33.66993	56482
33.67805	52176
33.68618	49815
33.69430	52782
33.70243	53376
33.71055	52631
33.71867	48596
33.72680	44531
33.73492	44761
33.74305	49830
33.75117	47426
33.75928	48673
33.76742	49754
33.77553	49371
33.78365	48464
33.79178	47871
33.79990	46740
33.80803	49169
33.81615	44577
33.82427	47219
33.83240	50585
33.84052	51662
33.84865	49298
33.85677	52033
33.86488	51489
33.87302	53409
33.88113	53959
33.88927	56936
33.89738	54113
33.90550	52025
33.91363	47661
33.92175	47879
33.92987	50342
33.93800	54703
33.94612	49319
33.95425	50913
33.96237	50101
33.97048	53447
33.97862	47078
33.98673	47220
33.99487	51092
34.00298	48337
34.01110	47031
34.01923	45988
34.02735	51296
34.03548	49835
34.04360	51297
34.05172	48346
34.05985	54336
34.06797	49609
34.07608	51102
34.08422	46288
34.09233	58953
34.10047	45908
34.10858	46949
34.11670	48647
34.12483	50343
34.13295	48868
34.14108	48675
34.14920	50291
34.15732	51225
34.16545	49389
34.17357	46114
34.18168	51433
34.18982	47038
34.19793	51384
34.20607	47445
34.21418	49192
34.22230	54908
34.23043	48571
34.23855	45253
34.24668	48049
34.25480	50893
34.26292	47796
34.27105	44907
34.27917	46949
34.28730	46503
34.29542	43987
34.30353	45215
34.31167	46345
34.31978	47796
34.32790	47497
34.33603	46747
34.34415	46775
34.35228	53518
34.36040	46975
34.36852	45210
34.37665	53255
34.38477	48507
34.39290	51526
34.40102	50002
34.40913	49510
34.41727	50034
34.42538	47828
34.43352	46205
34.44163	49891
34.44975	46891
34.45788	47323
34.46600	45339
34.47412	47737
34.48225	54448
34.49037	47959
34.49850	51501
34.50662	49463
34.51473	49431
34.52287	52239
34.53098	51659
34.53912	52045
34.54723	60989
34.55535	58699
34.56348	61012
34.57160	66587
34.57972	63746
34.58785	66773
34.59597	68038
34.60410	66117
34.61222	63698
34.62033	63199
34.62847	59039
34.63658	58504
34.64472	62311
34.65283	58586
34.66095	54454
34.66908	56197
34.67720	57281
34.68533	54394
34.69345	54950
34.70157	49737
34.70970	52854
34.71782	53070
34.72593	56153
34.73407	52969
34.74218	53381
34.75032	56023
34.75843	57246
34.76655	57177
34.77468	51159
34.78280	60685
34.79093	56007
34.79905	55642
34.80717	50011
34.81530	52889
34.82342	50858
34.83153	53935
34.83967	51096
34.84778	48734
34.85592	49850
34.86403	50690
34.87215	51333
34.88028	51545
34.88840	47121
34.89653	52189
34.90465	50426
34.91277	48558
34.92090	51667
34.92902	49573
34.93715	58634
34.94527	69983
34.95338	88928
34.96152	128410
34.96963	207523
34.97775	271453
34.98588	369173
34.99400	374169
35.00213	344049
35.01025	258527
35.01837	169722
35.02650	113064
35.03462	83824
35.04275	71861
35.05087	65132
35.05898	61463
35.06712	63193
35.07523	62214
35.08337	61172
35.09148	58857
35.09960	61212
35.10773	57564
35.11585	55126
35.12397	54544
35.13210	52294
35.14022	58859
35.14835	56843
35.15647	54572
35.16458	61609
35.17272	61960
35.18083	56492
35.18897	54331
35.19708	54579
35.20520	59244
35.21333	50430
35.22145	50653
35.22957	54821
35.23770	58075
35.24582	54139
35.25395	56102
35.26207	57500
35.27018	57018
35.27832	62629
35.28643	59696
35.29457	61179
35.30268	65472
35.31080	54483
35.31893	57548
35.32705	58870
35.33518	57227
35.34330	56056
35.35142	57600
35.35955	56477
35.36767	61846
35.37578	60877
35.38392	56177
35.39203	54601
35.40017	53967
35.40828	57231
35.41640	54545
35.42453	57529
35.43265	56587
35.44078	52612
35.44890	55260
35.45702	59283
35.46515	59004
35.47327	58289
35.48140	62262
35.48952	55473
35.49763	63064
35.50577	58678
35.51388	62000
35.52200	58000
35.53013	59898
35.53825	60815
35.54638	55512
35.55450	58117
35.56262	60098
35.57075	54155
35.57887	56833
35.58700	59171
35.59512	59371
35.60323	56130
35.61137	57520
35.61948	58156
35.62760	54427
35.63573	54394
35.64385	55550
35.65198	53353
35.66010	54711
35.66822	53179
35.67635	52206
35.68447	59722
35.69260	52574
35.70072	52782
35.70883	53500
35.71697	58343
35.72508	55338
35.73322	57179
35.74133	57179
35.74945	56530
35.75758	57076
35.76570	55068
35.77382	62596
35.78195	59116
35.79007	59312
35.79820	59913
35.80632	57345
35.81443	55695
35.82257	53717
35.83068	55432
35.83882	53209
35.84693	50033
35.85505	53442
35.86318	55661
35.87130	57147
35.87943	52206
35.88755	56724
35.89567	54673
35.90380	52010
35.91192	63551
35.92003	58070
35.92817	53777
35.93628	55677
35.94442	54574
35.95253	49330
35.96065	53764
35.96878	47593
35.97690	48980
35.98503	52290
35.99315	49664
36.00127	53480
36.00940	58454
36.01752	59915
36.02563	57571
36.03377	57771
36.04188	56226
36.05002	55805
36.05813	58510
36.06625	57235
36.07438	58187
36.08250	56474
36.09063	60631
36.09875	57361
36.10687	55830
36.11500	49291
36.12312	52779
36.13125	54429
36.13937	51220
36.14748	55041
36.15562	60466
36.16373	56233
36.17185	57116
36.17998	55515
36.18810	54626
36.19623	54265
36.20435	55426
36.21247	55924
36.22060	52612
36.22872	57729
36.23685	54325
36.24497	53856
36.25308	54880
36.26122	55592
36.26933	53329
36.27745	54226
36.28558	56920
36.29370	55247
36.30183	55566
36.30995	56513
36.31807	58128
36.32620	63013
36.33432	61584
36.34245	58158
36.35057	59623
36.35868	51250
36.36682	58180
36.37493	59756
36.38307	53748
36.39118	53599
36.39930	56712
36.40743	55763
36.41555	55626
36.42367	60660
36.43180	55752
36.43992	58923
36.44805	57711
36.45617	57828
36.46428	58718
36.47242	59320
36.48053	52610
36.48867	56385
36.49678	60186
36.50490	57995
36.51303	55293
36.52115	68636
36.52928	56868
36.53740	58065
36.54552	54781
36.55365	56066
36.56177	57584
36.56988	57416
36.57802	54218
36.58613	58925
36.59427	58482
36.60238	49107
36.61050	62105
36.61863	57384
36.62675	58822
36.63488	55422
36.64300	59268
36.65112	55281
36.65925	57270
36.66737	54478
36.67548	55911
36.68362	57941
36.69173	62547
36.69987	63103
36.70798	53577
36.71610	55543
36.72423	51408
36.73235	55089
36.74048	62017
36.74860	57058
36.75672	55176
36.76485	59320
36.77297	62697
36.78110	57802
36.78922	56718
36.79733	61417
36.80547	56375
36.81358	59755
36.82170	64430
36.82983	64165
36.83795	68269
36.84608	66662
36.85420	73433
36.86232	72514
36.87045	72442
36.87857	74512
36.88670	73558
36.89482	65142
36.90293	67792
36.91107	71647
36.91918	69522
36.92732	71040
36.93543	77003
36.94355	76673
36.95168	79855
36.95980	90324
36.96792	82436
36.97605	90042
36.98417	92638
36.99230	93009
37.00042	81356
37.00853	77534
37.01667	72587
37.02478	78458
37.03292	70742
37.04103	75077
37.04915	67870
37.05728	80037
37.06540	72481
37.07352	73656
37.08165	72179
37.08977	72537
37.09790	75727
37.10602	76394
37.11413	73887
37.12227	69877
37.13038	73734
37.13852	71430
37.14663	73815
37.15475	71916
37.16288	68188
37.17100	72483
37.17913	68854
37.18725	73210
37.19537	71469
37.20350	71708
37.21162	69573
37.21973	73018
37.22787	71466
37.23598	77907
37.24412	73985
37.25223	69330
37.26035	72892
37.26848	69445
37.27660	77992
37.28473	68145
37.29285	65070
37.30097	68015
37.30910	69996
37.31722	69341
37.32533	65011
37.33347	69943
37.34158	71748
37.34972	72892
37.35783	74916
37.36595	76852
37.37408	83019
37.38220	78481
37.39033	81372
37.39845	71382
37.40657	77070
37.41470	72133
37.42282	71672
37.43095	72260
37.43907	70840
37.44718	76196
37.45532	72244
37.46343	66364
37.47155	69222
37.47968	68621
37.48780	72797
