Z:\data\JTB-E02\BACandBLUE\JTB-E02-193-06.D Wed Dec 19 08:04:52 2018
Start of data points
2.09520	46511
2.10332	50815
2.11145	54210
2.11957	47405
2.12768	47914
2.13582	56222
2.14393	57734
2.15207	57343
2.16018	56082
2.16830	62961
2.17643	60196
2.18455	61083
2.19268	54574
2.20080	60430
2.20892	57356
2.21705	53926
2.22517	54665
2.23328	54572
2.24142	55650
2.24953	51362
2.25767	77163
2.26578	612269
2.27390	2094519
2.28203	2912867
2.29015	1998810
2.29828	1008709
2.30640	668893
2.31452	548607
2.32265	498186
2.33077	416184
2.33888	389083
2.34702	331248
2.35513	298580
2.36327	272006
2.37138	256492
2.37950	245588
2.38763	239231
2.39575	222184
2.40388	224976
2.41200	234461
2.42012	275136
2.42825	277309
2.43637	225738
2.44450	213969
2.45262	188604
2.46073	180281
2.46887	160337
2.47698	152064
2.48510	149825
2.49323	153369
2.50135	148681
2.50948	141505
2.51760	147961
2.52572	141594
2.53385	135308
2.54197	139616
2.55010	161531
2.55822	170197
2.56633	160761
2.57447	140456
2.58258	133073
2.59072	125278
2.59883	123494
2.60695	134685
2.61508	143662
2.62320	151867
2.63132	137649
2.63945	133714
2.64757	127769
2.65570	118686
2.66382	121326
2.67193	118723
2.68007	111265
2.68818	116680
2.69632	114142
2.70443	118373
2.71255	112249
2.72068	106853
2.72880	100754
2.73692	110079
2.74505	105537
2.75317	104353
2.76130	103955
2.76942	100304
2.77753	103439
2.78567	104883
2.79378	108268
2.80192	112218
2.81003	111721
2.81815	110375
2.82628	105225
2.83440	97303
2.84253	105823
2.85065	100079
2.85877	97303
2.86690	98234
2.87502	103931
2.88313	101005
2.89127	103804
2.89938	102580
2.90752	103476
2.91563	92177
2.92375	93334
2.93188	93069
2.94000	86111
2.94813	96106
2.95625	92745
2.96437	94710
2.97250	92252
2.98062	96294
2.98873	92942
2.99687	93595
3.00498	91483
3.01312	95346
3.02123	90077
3.02935	91319
3.03748	89579
3.04560	83237
3.05373	83980
3.06185	87747
3.06997	86643
3.07810	85237
3.08622	89197
3.09435	86967
3.10247	99574
3.11058	113239
3.11872	125108
3.12683	109257
3.13495	98591
3.14308	99309
3.15120	95852
3.15933	88063
3.16745	88490
3.17557	91517
3.18370	88085
3.19182	86782
3.19995	87148
3.20807	84626
3.21618	85473
3.22432	86463
3.23243	86872
3.24057	89676
3.24868	78666
3.25680	86293
3.26493	83930
3.27305	86210
3.28117	98012
3.28930	237800
3.29742	1041710
3.30555	3460060
3.31367	6943495
3.32178	8554721
3.32992	7599923
3.33803	5743175
3.34617	4262989
3.35428	3332040
3.36240	2697178
3.37053	2235913
3.37865	1932547
3.38678	1709141
3.39490	1486877
3.40302	1343139
3.41115	1211986
3.41927	1105672
3.42738	1016489
3.43552	954891
3.44363	884811
3.45177	838809
3.45988	783583
3.46800	748366
3.47613	713625
3.48425	688047
3.49238	651651
3.50050	614830
3.50862	589311
3.51675	568726
3.52487	554755
3.53298	521915
3.54112	505712
3.54923	486358
3.55737	482322
3.56548	457590
3.57360	441732
3.58173	429152
3.58985	425669
3.59798	417426
3.60610	399586
3.61422	394436
3.62235	381176
3.63047	388314
3.63860	362955
3.64672	360303
3.65483	352716
3.66297	336548
3.67108	335052
3.67920	334556
3.68733	346956
3.69545	364733
3.70358	358193
3.71170	349158
3.71982	331462
3.72795	341405
3.73607	326084
3.74420	326061
3.75232	317055
3.76043	316058
3.76857	304394
3.77668	309310
3.78480	301434
3.79293	304199
3.80105	300810
3.80918	297008
3.81730	297212
3.82542	300137
3.83355	293026
3.84167	284567
3.84980	270809
3.85792	278973
3.86603	262565
3.87417	265911
3.88228	265826
3.89042	265224
3.89853	259621
3.90665	258259
3.91478	250710
3.92290	251815
3.93102	254391
3.93915	252636
3.94727	243211
3.95540	252922
3.96352	236712
3.97163	245364
3.97977	245018
3.98788	242512
3.99602	233087
4.00413	234435
4.01225	228272
4.02038	235527
4.02850	228869
4.03663	229968
4.04475	220219
4.05287	228926
4.06100	214861
4.06912	227517
4.07723	217831
4.08537	212562
4.09348	211172
4.10162	208648
4.10973	215029
4.11785	217106
4.12598	223051
4.13410	213418
4.14223	223670
4.15035	253208
4.15847	265394
4.16660	249789
4.17472	224965
4.18283	222463
4.19097	203835
4.19908	209774
4.20722	208158
4.21533	206910
4.22345	209095
4.23158	258722
4.23970	304375
4.24783	321739
4.25595	298623
4.26407	281987
4.27220	255231
4.28032	247660
4.28845	233368
4.29657	226501
4.30468	217768
4.31282	222675
4.32093	218500
4.32905	223136
4.33718	228346
4.34530	227785
4.35343	206143
4.36155	214377
4.36967	205452
4.37780	203855
4.38592	206118
4.39405	202889
4.40217	211606
4.41028	196228
4.41842	193680
4.42653	193281
4.43467	188507
4.44278	190992
4.45090	182884
4.45903	183662
4.46715	186284
4.47527	180842
4.48340	187735
4.49152	185693
4.49965	184736
4.50777	191505
4.51588	179667
4.52402	181906
4.53213	184595
4.54027	185570
4.54838	178916
4.55650	177998
4.56463	181949
4.57275	181328
4.58087	177524
4.58900	172787
4.59712	168932
4.60525	170796
4.61337	177150
4.62148	172066
4.62962	169248
4.63773	168356
4.64587	174737
4.65398	171559
4.66210	170165
4.67023	167894
4.67835	165952
4.68648	170728
4.69460	168456
4.70272	169226
4.71085	164033
4.71897	158716
4.72708	162378
4.73522	165680
4.74333	151302
4.75147	162002
4.75958	166403
4.76770	158425
4.77583	155081
4.78395	156491
4.79208	161935
4.80020	153794
4.80832	167048
4.81645	162620
4.82457	164319
4.83268	155622
4.84082	153723
4.84893	165703
4.85707	154364
4.86518	165065
4.87330	165676
4.88143	163627
4.88955	157250
4.89768	156749
4.90580	152298
4.91392	156160
4.92205	156141
4.93017	166821
4.93830	190175
4.94642	310352
4.95453	704924
4.96267	1500265
4.97078	2528303
4.97890	3158212
4.98703	3079347
4.99515	2567688
5.00328	1956671
5.01140	1512258
5.01952	1254106
5.02765	1063835
5.03577	924316
5.04390	839912
5.05202	769678
5.06013	722158
5.06827	674832
5.07638	629031
5.08452	600961
5.09263	580379
5.10075	547401
5.10888	523094
5.11700	503287
5.12512	472026
5.13325	454213
5.14137	446955
5.14950	432728
5.15762	416879
5.16573	415538
5.17387	414825
5.18198	400875
5.19012	400528
5.19823	388523
5.20635	378481
5.21448	370238
5.22260	364830
5.23072	351784
5.23885	360074
5.24697	364265
5.25510	358553
5.26322	350809
5.27133	326210
5.27947	320755
5.28758	309128
5.29572	306077
5.30383	302470
5.31195	305604
5.32008	287901
5.32820	284784
5.33633	285132
5.34445	280144
5.35257	270012
5.36070	278827
5.36882	278748
5.37693	268167
5.38507	275071
5.39318	267964
5.40132	268241
5.40943	260032
5.41755	265829
5.42568	249835
5.43380	247801
5.44193	244138
5.45005	240080
5.45817	248434
5.46630	248771
5.47442	240835
5.48255	242092
5.49067	239269
5.49878	240331
5.50692	233653
5.51503	229258
5.52315	232334
5.53128	227611
5.53940	226857
5.54753	225989
5.55565	221480
5.56377	222404
5.57190	220297
5.58002	223930
5.58815	221783
5.59627	222572
5.60438	229587
5.61252	218753
5.62063	222850
5.62875	241027
5.63688	233522
5.64500	242590
5.65313	234190
5.66125	228626
5.66937	222603
5.67750	223806
5.68562	240082
5.69375	253179
5.70187	278348
5.70998	276916
5.71812	259199
5.72623	243099
5.73437	229654
5.74248	216970
5.75060	209975
5.75873	200184
5.76685	204444
5.77497	202135
5.78310	197978
5.79122	198301
5.79935	204743
5.80747	195294
5.81558	195290
5.82372	193230
5.83183	190604
5.83997	195673
5.84808	191310
5.85620	191708
5.86433	188307
5.87245	193934
5.88058	187400
5.88870	188247
5.89682	191375
5.90495	190229
5.91307	184169
5.92118	154925
5.92932	147086
5.93743	150706
5.94557	150381
5.95368	137175
5.96180	141273
5.96993	151786
5.97805	160320
5.98618	174746
5.99430	175306
6.00242	176745
6.01055	162360
6.01867	150126
6.02678	145473
6.03492	151040
6.04303	146730
6.05117	144935
6.05928	138941
6.06740	143310
6.07553	142906
6.08365	139692
6.09178	140628
6.09990	143804
6.10802	132410
6.11615	135733
6.12427	134236
6.13240	139561
6.14052	136745
6.14863	137758
6.15677	143972
6.16488	144542
6.17300	140279
6.18113	143223
6.18925	138100
6.19738	144372
6.20550	144846
6.21362	138288
6.22175	142762
6.22987	145424
6.23800	147317
6.24612	156883
6.25423	144818
6.26237	151210
6.27048	149858
6.27860	156729
6.28673	145948
6.29485	157226
6.30298	159581
6.31110	156776
6.31922	158317
6.32735	163743
6.33547	166232
6.34360	168160
6.35172	166490
6.35983	172410
6.36797	167999
6.37608	173512
6.38422	180201
6.39233	177769
6.40045	182264
6.40858	176644
6.41670	181923
6.42482	188846
6.43295	183674
6.44107	183619
6.44920	191393
6.45732	198017
6.46543	198389
6.47357	195295
6.48168	201301
6.48982	196585
6.49793	201444
6.50605	188346
6.51418	159144
6.52230	156680
6.53043	147069
6.53855	144458
6.54667	150457
6.55480	135876
6.56292	140712
6.57103	133391
6.57917	136600
6.58728	133967
6.59542	137177
6.60353	131985
6.61165	136562
6.61978	135147
6.62790	134148
6.63603	139495
6.64415	133661
6.65227	130840
6.66040	127069
6.66852	131625
6.67663	122693
6.68477	126844
6.69288	126806
6.70102	120783
6.70913	126548
6.71725	128380
6.72538	128571
6.73350	123570
6.74163	116697
6.74975	123093
6.75787	121401
6.76600	120184
6.77412	122174
6.78225	119941
6.79037	115024
6.79848	113128
6.80662	111937
6.81473	113984
6.82285	110771
6.83098	115222
6.83910	111278
6.84723	111955
6.85535	121001
6.86347	101615
6.87160	96876
6.87972	89862
6.88785	83447
6.89597	86209
6.90408	82628
6.91222	82390
6.92033	79249
6.92847	77945
6.93658	77783
6.94470	77032
6.95283	77979
6.96095	69148
6.96907	70423
6.97720	71384
6.98532	72780
6.99345	76860
7.00157	65077
7.00968	73970
7.01782	69054
7.02593	70797
7.03407	76831
7.04218	76422
7.05030	75171
7.05843	76972
7.06655	75566
7.07467	70757
7.08280	73730
7.09092	64425
7.09905	72457
7.10717	67050
7.11528	69585
7.12342	73426
7.13153	73352
7.13967	69203
7.14778	68552
7.15590	68215
7.16403	78873
7.17215	81538
7.18028	81711
7.18840	83424
7.19652	78065
7.20465	80543
7.21277	75740
7.22088	70315
7.22902	71370
7.23713	78079
7.24527	73836
7.25338	73885
7.26150	72282
7.26963	73560
7.27775	72397
7.28588	68987
7.29400	65513
7.30212	67473
7.31025	70683
7.31837	72239
7.32648	68858
7.33462	68665
7.34273	65881
7.35087	67289
7.35898	67006
7.36710	66572
7.37523	63932
7.38335	66492
7.39148	66299
7.39960	65053
7.40772	68989
7.41585	68556
7.42397	71026
7.43210	72107
7.44022	70399
7.44833	72407
7.45647	72456
7.46458	73063
7.47270	73215
7.48083	77200
7.48895	77123
7.49708	70431
7.50520	71054
7.51332	71612
7.52145	69933
7.52957	70733
7.53770	70569
7.54582	65558
7.55393	68416
7.56207	72848
7.57018	67367
7.57832	69958
7.58643	68817
7.59455	68110
7.60268	65585
7.61080	68643
7.61892	66042
7.62705	72218
7.63517	70753
7.64330	68838
7.65142	68994
7.65953	66503
7.66767	68645
7.67578	64543
7.68392	65713
7.69203	70441
7.70015	71750
7.70828	66360
7.71640	68955
7.72452	67307
7.73265	64144
7.74077	60283
7.74890	64182
7.75702	62345
7.76513	65565
7.77327	60689
7.78138	60699
7.78952	58318
7.79763	60291
7.80575	62571
7.81388	64070
7.82200	61928
7.83013	67081
7.83825	62983
7.84637	60610
7.85450	56585
7.86262	60466
7.87073	59146
7.87887	56551
7.88698	59034
7.89512	57707
7.90323	56926
7.91135	52491
7.91948	56383
7.92760	50062
7.93573	52626
7.94385	54003
7.95197	54529
7.96010	56007
7.96822	64629
7.97635	63672
7.98447	61926
7.99258	65005
8.00072	61348
8.00883	60649
8.01695	55579
8.02508	55697
8.03320	57743
8.04133	57295
8.04945	56408
8.05757	54899
8.06570	60491
8.07382	53076
8.08195	56261
8.09007	54407
8.09818	57145
8.10632	56584
8.11443	55727
8.12255	58780
8.13068	61591
8.13880	56981
8.14693	54179
8.15505	59384
8.16317	60984
8.17130	60603
8.17942	65258
8.18755	68977
8.19567	65815
8.20378	65546
8.21192	66762
8.22003	61158
8.22817	62395
8.23628	57022
8.24440	63800
8.25253	59882
8.26065	58280
8.26877	56918
8.27690	57767
8.28502	55295
8.29315	64327
8.30127	54627
8.30938	54500
8.31752	56559
8.32563	54394
8.33377	58220
8.34188	63297
8.35000	63327
8.35813	69495
8.36625	74785
8.37437	72522
8.38250	69405
8.39062	62916
8.39875	56396
8.40687	55576
8.41498	54782
8.42312	52712
8.43123	54100
8.43937	51207
8.44748	53786
8.45560	54086
8.46373	57562
8.47185	57742
8.47998	54787
8.48810	54891
8.49622	55971
8.50435	53734
8.51247	56274
8.52058	62954
8.52872	60262
8.53683	63949
8.54497	58314
8.55308	59355
8.56120	56540
8.56933	61387
8.57745	59011
8.58558	54840
8.59370	51379
8.60182	54850
8.60995	53105
8.61807	50718
8.62620	52097
8.63432	50315
8.64243	53571
8.65057	55032
8.65868	54612
8.66680	55023
8.67493	49124
8.68305	52355
8.69118	57780
8.69930	53368
8.70742	50166
8.71555	52662
8.72367	54176
8.73180	51888
8.73992	50220
8.74803	52108
8.75617	52488
8.76428	51192
8.77242	53846
8.78053	81158
8.78865	131068
8.79678	247019
8.80490	417298
8.81302	598838
8.82115	723705
8.82927	699224
8.83740	626809
8.84552	527119
8.85363	451730
8.86177	387557
8.86988	337850
8.87802	307714
8.88613	267185
8.89425	265359
8.90238	236617
8.91050	227464
8.91862	214394
8.92675	198621
8.93487	198743
8.94300	189043
8.95112	190209
8.95923	184844
8.96737	166728
8.97548	160572
8.98362	163321
8.99173	156350
8.99985	155711
9.00798	152396
9.01610	155629
9.02423	142369
9.03235	139993
9.04047	137212
9.04860	141851
9.05672	134555
9.06483	137203
9.07297	130171
9.08108	129411
9.08922	130944
9.09733	132314
9.10545	124859
9.11358	121385
9.12170	120469
9.12983	123903
9.13795	118801
9.14607	119058
9.15420	112544
9.16232	114937
9.17043	123994
9.17857	123011
9.18668	118545
9.19482	117480
9.20293	126780
9.21105	120661
9.21918	121622
9.22730	120830
9.23543	113176
9.24355	113009
9.25167	110774
9.25980	115458
9.26792	105337
9.27605	116881
9.28417	114124
9.29228	110746
9.30042	106542
9.30853	100370
9.31665	105147
9.32478	104919
9.33290	100480
9.34103	100572
9.34915	100086
9.35727	92958
9.36540	100340
9.37352	98221
9.38165	100636
9.38977	99229
9.39788	90341
9.40602	93432
9.41413	90788
9.42227	90413
9.43038	90093
9.43850	95980
9.44663	90638
9.45475	91583
9.46287	90699
9.47100	90323
9.47912	90536
9.48725	83888
9.49537	85905
9.50348	88346
9.51162	93023
9.51973	89422
9.52787	91769
9.53598	88640
9.54410	94130
9.55223	90715
9.56035	89817
9.56847	90734
9.57660	80514
9.58472	76570
9.59285	68437
9.60097	67673
9.60908	69177
9.61722	64800
9.62533	66654
9.63347	64537
9.64158	61379
9.64970	61871
9.65783	56753
9.66595	60568
9.67408	59505
9.68220	56554
9.69032	57758
9.69845	59666
9.70657	54332
9.71468	56392
9.72282	61038
9.73093	57125
9.73907	58041
9.74718	55217
9.75530	56033
9.76343	54611
9.77155	53073
9.77968	54454
9.78780	54255
9.79592	50437
9.80405	54027
9.81217	54368
9.82030	54272
9.82842	57044
9.83653	57850
9.84467	54683
9.85278	61086
9.86090	59545
9.86903	65242
9.87715	60226
9.88528	58127
9.89340	58211
9.90152	54901
9.90965	51674
9.91777	56592
9.92590	53443
9.93402	55929
9.94213	53019
9.95027	50654
9.95838	50415
9.96650	55692
9.97463	58735
9.98275	55767
9.99088	60975
9.99900	69265
10.00712	70223
10.01525	68313
10.02337	76188
10.03150	97013
10.03962	98661
10.04773	119663
10.05587	117827
10.06398	113506
10.07212	109704
10.08023	110685
10.08835	101568
10.09648	101358
10.10460	97837
10.11272	88884
10.12085	88014
10.12897	85297
10.13710	85001
10.14522	85007
10.15333	79863
10.16147	77977
10.16958	86042
10.17772	80331
10.18583	78454
10.19395	80967
10.20208	77154
10.21020	76753
10.21832	78808
10.22645	81535
10.23457	81878
10.24270	87662
10.25082	86125
10.25893	89592
10.26707	88807
10.27518	82622
10.28332	85765
10.29143	89735
10.29955	95345
10.30768	101438
10.31580	117576
10.32393	132909
10.33205	145664
10.34017	148491
10.34830	149458
10.35642	139630
10.36453	119080
10.37267	121781
10.38078	111938
10.38892	105939
10.39703	103426
10.40515	100649
10.41328	100724
10.42140	99667
10.42953	94556
10.43765	96753
10.44577	99627
10.45390	95883
10.46202	96871
10.47015	91364
10.47827	92827
10.48638	91889
10.49452	87136
10.50263	87333
10.51075	90339
10.51888	86646
10.52700	85891
10.53513	85491
10.54325	83949
10.55137	84350
10.55950	84950
10.56762	86222
10.57575	95818
10.58387	88699
10.59198	84509
10.60012	87756
10.60823	82384
10.61635	85377
10.62448	85632
10.63260	82051
10.64073	85078
10.64885	83237
10.65697	81692
10.66510	87619
10.67322	82647
10.68135	83432
10.68947	82997
10.69758	82090
10.70572	81405
10.71383	81097
10.72197	77891
10.73008	78756
10.73820	77532
10.74633	82185
10.75445	76394
10.76257	76101
10.77070	78816
10.77882	81768
10.78695	81427
10.79507	77805
10.80318	80680
10.81132	75629
10.81943	71229
10.82757	77243
10.83568	69311
10.84380	71215
10.85193	70044
10.86005	71668
10.86818	71382
10.87630	72821
10.88442	75547
10.89255	69193
10.90067	73001
10.90878	68397
10.91692	71778
10.92503	73612
10.93317	67929
10.94128	69947
10.94940	70001
10.95753	72021
10.96565	74601
10.97378	73812
10.98190	74894
10.99002	73675
10.99815	69831
11.00627	68694
11.01438	62635
11.02252	63372
11.03063	68255
11.03877	69478
11.04688	65912
11.05500	62856
11.06313	63083
11.07125	60963
11.07938	64066
11.08750	62215
11.09562	62930
11.10375	60475
11.11187	63023
11.12000	60859
11.12812	58079
11.13623	57823
11.14437	52969
11.15248	64132
11.16060	55840
11.16873	58556
11.17685	60219
11.18498	62470
11.19310	73486
11.20122	74268
11.20935	84712
11.21747	94049
11.22560	96218
11.23372	94681
11.24183	82212
11.24997	83155
11.25808	76326
11.26620	64974
11.27433	66739
11.28245	57822
11.29058	59744
11.29870	59006
11.30682	57055
11.31495	56552
11.32307	54662
11.33120	52436
11.33932	55427
11.34743	58257
11.35557	55551
11.36368	63769
11.37182	56832
11.37993	57469
11.38805	60357
11.39618	64754
11.40430	59766
11.41242	64577
11.42055	64157
11.42867	57953
11.43680	59835
11.44492	57664
11.45303	61642
11.46117	58294
11.46928	57621
11.47742	58432
11.48553	60286
11.49365	57015
11.50178	54634
11.50990	56584
11.51803	55689
11.52615	57639
11.53427	55349
11.54240	55063
11.55052	54198
11.55863	54624
11.56677	56587
11.57488	52619
11.58302	58984
11.59113	57592
11.59925	53825
11.60738	54983
11.61550	55274
11.62363	59820
11.63175	55597
11.63987	54350
11.64800	53793
11.65612	54430
11.66423	54665
11.67237	52435
11.68048	57301
11.68862	53672
11.69673	54419
11.70485	55347
11.71298	60758
11.72110	54943
11.72923	64000
11.73735	61943
11.74547	57697
11.75360	65210
11.76172	59214
11.76985	58420
11.77797	58656
11.78608	61912
11.79422	59442
11.80233	63319
11.81045	59428
11.81858	59365
11.82670	56771
11.83483	57815
11.84295	59983
11.85107	56212
11.85920	56477
11.86732	58707
11.87545	57461
11.88357	55652
11.89168	57538
11.89982	53741
11.90793	57891
11.91607	56327
11.92418	54139
11.93230	49097
11.94043	55113
11.94855	50442
11.95667	50880
11.96480	51582
11.97292	50534
11.98105	50120
11.98917	52490
11.99728	53159
12.00542	54324
12.01353	50598
12.02167	52440
12.02978	51671
12.03790	50735
12.04603	52706
12.05415	49406
12.06227	56744
12.07040	51337
12.07852	51331
12.08665	49899
12.09477	45379
12.10288	50061
12.11102	55659
12.11913	46518
12.12727	49994
12.13538	49495
12.14350	50993
12.15163	60281
12.15975	66357
12.16788	73787
12.17600	88043
12.18412	96839
12.19225	110612
12.20037	106966
12.20848	115294
12.21662	120386
12.22473	117465
12.23287	124846
12.24098	122305
12.24910	112325
12.25723	111406
12.26535	120227
12.27348	119295
12.28160	113196
12.28972	109366
12.29785	106878
12.30597	107582
12.31410	107196
12.32222	106461
12.33033	113936
12.33847	107437
12.34658	106129
12.35470	108345
12.36283	110613
12.37095	109887
12.37908	98277
12.38720	101640
12.39532	101154
12.40345	98093
12.41157	98791
12.41970	105045
12.42782	106774
12.43593	105331
12.44407	105226
12.45218	105006
12.46030	105999
12.46843	102778
12.47655	107037
12.48468	101332
12.49280	100530
12.50092	102653
12.50905	94422
12.51717	92221
12.52530	97090
12.53342	96283
12.54153	94738
12.54967	96593
12.55778	93648
12.56592	97010
12.57403	88751
12.58215	93811
12.59028	93515
12.59840	88040
12.60652	87215
12.61465	90749
12.62277	85403
12.63090	86172
12.63902	85737
12.64713	84159
12.65527	90309
12.66338	86442
12.67152	91290
12.67963	81390
12.68775	81669
12.69588	85193
12.70400	83095
12.71212	84449
12.72025	79005
12.72837	81723
12.73650	82145
12.74462	81636
12.75273	87956
12.76087	92317
12.76898	93716
12.77712	81605
12.78523	83300
12.79335	84161
12.80148	76473
12.80960	76015
12.81773	76243
12.82585	67872
12.83397	62933
12.84210	57233
12.85022	56665
12.85833	49485
12.86647	53519
12.87458	52041
12.88272	51761
12.89083	55249
12.89895	55082
12.90708	47878
12.91520	50039
12.92333	45838
12.93145	49889
12.93957	52449
12.94770	48427
12.95582	47845
12.96395	47674
12.97207	50554
12.98018	50486
12.98832	48431
12.99643	48096
13.00455	54815
13.01268	51171
13.02080	50913
13.02893	51225
13.03705	48576
13.04517	45348
13.05330	48713
13.06142	48097
13.06955	49796
13.07767	50974
13.08578	43723
13.09392	45580
13.10203	45758
13.11015	46557
13.11828	44810
13.12640	47137
13.13453	45684
13.14265	50789
13.15077	46673
13.15890	47095
13.16702	44985
13.17515	48775
13.18327	48837
13.19138	47180
13.19952	51159
13.20763	51577
13.21577	54465
13.22388	58283
13.23200	64180
13.24013	64089
13.24825	60406
13.25637	55380
13.26450	50922
13.27262	53402
13.28075	51144
13.28887	51647
13.29698	48745
13.30512	47381
13.31323	49048
13.32137	46592
13.32948	47697
13.33760	43273
13.34573	48000
13.35385	44944
13.36198	48832
13.37010	46939
13.37822	49151
13.38635	48214
13.39447	43688
13.40258	45542
13.41072	40768
13.41883	44575
13.42697	42882
13.43508	47158
13.44320	45182
13.45133	43431
13.45945	44729
13.46758	42325
13.47570	43835
13.48382	42692
13.49195	44445
13.50007	43408
13.50818	43401
13.51632	43000
13.52443	46193
13.53257	43476
13.54068	42948
13.54880	39882
13.55693	41479
13.56505	43247
13.57318	43161
13.58130	40263
13.58942	39663
13.59755	44780
13.60567	43422
13.61380	38312
13.62192	40228
13.63003	40197
13.63817	40039
13.64628	40045
13.65440	42298
13.66253	40114
13.67065	38374
13.67878	40878
13.68690	43314
13.69502	42397
13.70315	44827
13.71127	40158
13.71940	37437
13.72752	43858
13.73563	42928
13.74377	37608
13.75188	40536
13.76000	41182
13.76813	40796
13.77625	40928
13.78438	41321
13.79250	42176
13.80062	37632
13.80875	42143
13.81687	38295
13.82500	43103
13.83312	41326
13.84123	46037
13.84937	45761
13.85748	42521
13.86562	46636
13.87373	43384
13.88185	42813
13.88998	45829
13.89810	48099
13.90622	40917
13.91435	41767
13.92247	48528
13.93060	45910
13.93872	51404
13.94683	56846
13.95497	54773
13.96308	54914
13.97122	51358
13.97933	49102
13.98745	46870
13.99558	46664
14.00370	45551
14.01183	44678
14.01995	46041
14.02807	42897
14.03620	43958
14.04432	42896
14.05243	40429
14.06057	42973
14.06868	44845
14.07682	45941
14.08493	50697
14.09305	51300
14.10118	49384
14.10930	55344
14.11743	51324
14.12555	47610
14.13367	45425
14.14180	43423
14.14992	44267
14.15805	46341
14.16617	48305
14.17428	45680
14.18242	43885
14.19053	52324
14.19865	61896
14.20678	89548
14.21490	131497
14.22303	187299
14.23115	248775
14.23927	283677
14.24740	278481
14.25552	255639
14.26365	219712
14.27177	192521
14.27988	177218
14.28802	156640
14.29613	137659
14.30425	136939
14.31238	127390
14.32050	120434
14.32863	108996
14.33675	105568
14.34487	99627
14.35300	98199
14.36112	98804
14.36925	83855
14.37737	72175
14.38548	68129
14.39362	67371
14.40173	59635
14.40987	53745
14.41798	54643
14.42610	53145
14.43423	54699
14.44235	51612
14.45047	50871
14.45860	51243
14.46672	50607
14.47485	53259
14.48297	51918
14.49108	52611
14.49922	50687
14.50733	48292
14.51547	48937
14.52358	48339
14.53170	46603
14.53983	47213
14.54795	49386
14.55607	47825
14.56420	50215
14.57232	44963
14.58045	47418
14.58857	49534
14.59668	48033
14.60482	49076
14.61293	51450
14.62107	43682
14.62918	45539
14.63730	43911
14.64543	44496
14.65355	44467
14.66168	41843
14.66980	39924
14.67792	46471
14.68605	42441
14.69417	41020
14.70228	42372
14.71042	45825
14.71853	40211
14.72667	43220
14.73478	39467
14.74290	45183
14.75103	46416
14.75915	45155
14.76728	42946
14.77540	42496
14.78352	41754
14.79165	40873
14.79977	46736
14.80790	44860
14.81602	49578
14.82413	68441
14.83227	97882
14.84038	134359
14.84850	174083
14.85663	211696
14.86475	237808
14.87288	236318
14.88100	233204
14.88912	221416
14.89725	219526
14.90537	212249
14.91350	198047
14.92162	191554
14.92973	189169
14.93787	172918
14.94598	184007
14.95410	178667
14.96223	168877
14.97035	156594
14.97848	160120
14.98660	158011
14.99472	156004
15.00285	145646
15.01097	145527
15.01910	148787
15.02722	131946
15.03533	141164
15.04347	130830
15.05158	127029
15.05972	122852
15.06783	127237
15.07595	127951
15.08408	120488
15.09220	115880
15.10032	117254
15.10845	113778
15.11657	114235
15.12470	113539
15.13282	112996
15.14093	110014
15.14907	107573
15.15718	99715
15.16532	93637
15.17343	86313
15.18155	73241
15.18968	61894
15.19780	60809
15.20593	58493
15.21405	57819
15.22217	55951
15.23030	55723
15.23842	58338
15.24653	54224
15.25467	53669
15.26278	52502
15.27092	56643
15.27903	55957
15.28715	52871
15.29528	55979
15.30340	50006
15.31153	54414
15.31965	50844
15.32777	51897
15.33590	50128
15.34402	52228
15.35213	48105
15.36027	48946
15.36838	49149
15.37652	51602
15.38463	46867
15.39275	45141
15.40088	49344
15.40900	42945
15.41713	47653
15.42525	41316
15.43337	46250
15.44150	53738
15.44962	46256
15.45775	47720
15.46587	43438
15.47398	48561
15.48212	42968
15.49023	45622
15.49835	48212
15.50648	49560
15.51460	47395
15.52273	50922
15.53085	50795
15.53897	53318
15.54710	54366
15.55522	54685
15.56335	50962
15.57147	51137
15.57958	53897
15.58772	47738
15.59583	49936
15.60395	53058
15.61208	47122
15.62020	48479
15.62833	46554
15.63645	46912
15.64457	49468
15.65270	46200
15.66082	47970
15.66895	45500
15.67707	41192
15.68518	47335
15.69332	44763
15.70143	45442
15.70957	44554
15.71768	45611
15.72580	42101
15.73393	46603
15.74205	45809
15.75017	42548
15.75830	44976
15.76642	44511
15.77455	46935
15.78267	52689
15.79078	50936
15.79892	54125
15.80703	54247
15.81517	53797
15.82328	54530
15.83140	56628
15.83953	58569
15.84765	54757
15.85578	56971
15.86390	52645
15.87202	55793
15.88015	54192
15.88827	54043
15.89638	49139
15.90452	49785
15.91263	48104
15.92077	49031
15.92888	48846
15.93700	45686
15.94513	49188
15.95325	53972
15.96138	52119
15.96950	48997
15.97762	47722
15.98575	48350
15.99387	51038
16.00198	49950
16.01012	52781
16.01823	54388
16.02637	58904
16.03448	64224
16.04260	70866
16.05073	68654
16.05885	69245
16.06698	65751
16.07510	60075
16.08322	53702
16.09135	49215
16.09947	49553
16.10760	48569
16.11572	47295
16.12383	47129
16.13197	45796
16.14008	49334
16.14820	44683
16.15633	43935
16.16445	38374
16.17258	39672
16.18070	47088
16.18882	43257
16.19695	43687
16.20507	42308
16.21320	46755
16.22132	41831
16.22943	48541
16.23757	43498
16.24568	46992
16.25382	42024
16.26193	41799
16.27005	43684
16.27818	40036
16.28630	41903
16.29442	38354
16.30255	45921
16.31067	43327
16.31880	42700
16.32692	48785
16.33503	44920
16.34317	44734
16.35128	43184
16.35942	47391
16.36753	44723
16.37565	45252
16.38378	44526
16.39190	43433
16.40002	42606
16.40815	47213
16.41627	41164
16.42440	43331
16.43252	40502
16.44063	44991
16.44877	45471
16.45688	45323
16.46502	41006
16.47313	48767
16.48125	54402
16.48938	56939
16.49750	58541
16.50563	69772
16.51375	71018
16.52187	72963
16.53000	76076
16.53812	70606
16.54623	65375
16.55437	63905
16.56248	63197
16.57062	60375
16.57873	61396
16.58685	54129
16.59498	62057
16.60310	56016
16.61123	55726
16.61935	56883
16.62747	51556
16.63560	59779
16.64372	49170
16.65185	53668
16.65997	54781
16.66808	55134
16.67622	55500
16.68433	48313
16.69245	49255
16.70058	51157
16.70870	48843
16.71683	50580
16.72495	49686
16.73307	48493
16.74120	44378
16.74932	39618
16.75745	39816
16.76557	38969
16.77368	37135
16.78182	40576
16.78993	39231
16.79805	41346
16.80618	40411
16.81430	41936
16.82243	39995
16.83055	44051
16.83867	41113
16.84680	39482
16.85492	38091
16.86305	38707
16.87117	39367
16.87928	40859
16.88742	38552
16.89553	39859
16.90367	40368
16.91178	43220
16.91990	39794
16.92803	49656
16.93615	40180
16.94427	39251
16.95240	37683
16.96052	38767
16.96865	36621
16.97677	38646
16.98488	38542
16.99302	38196
17.00113	40805
17.00927	37783
17.01738	40226
17.02550	38850
17.03363	40885
17.04175	41553
17.04987	38345
17.05800	40104
17.06612	37862
17.07425	40793
17.08237	37103
17.09048	39256
17.09862	40143
17.10673	40170
17.11487	41017
17.12298	43310
17.13110	41300
17.13923	38109
17.14735	44588
17.15548	42644
17.16360	40811
17.17172	39414
17.17985	37681
17.18797	39233
17.19608	43934
17.20422	40788
17.21233	40223
17.22047	37770
17.22858	40678
17.23670	38919
17.24483	40538
17.25295	37598
17.26108	40988
17.26920	38512
17.27732	41341
17.28545	43755
17.29357	39949
17.30170	41822
17.30982	35686
17.31793	39937
17.32607	40770
17.33418	45842
17.34230	45510
17.35043	46703
17.35855	54452
17.36668	59795
17.37480	65952
17.38292	68580
17.39105	74581
17.39917	84560
17.40730	79149
17.41542	76000
17.42353	71159
17.43167	73169
17.43978	67836
17.44790	69433
17.45603	65927
17.46415	69083
17.47228	64573
17.48040	60102
17.48852	64059
17.49665	67662
17.50477	67003
17.51290	57829
17.52102	65634
17.52913	62094
17.53727	62295
17.54538	62515
17.55352	64698
17.56163	62467
17.56975	60336
17.57788	63200
17.58600	55541
17.59412	54436
17.60225	53710
17.61037	50559
17.61850	48049
17.62662	45950
17.63473	47892
17.64287	51469
17.65098	53940
17.65912	53954
17.66723	52060
17.67535	51904
17.68348	52720
17.69160	52623
17.69973	51671
17.70785	56975
17.71597	53556
17.72410	55114
17.73222	53148
17.74033	55947
17.74847	54005
17.75658	54255
17.76472	49021
17.77283	52785
17.78095	59058
17.78908	50321
17.79720	52441
17.80533	45480
17.81345	51140
17.82157	52128
17.82970	55806
17.83782	47929
17.84593	46028
17.85407	46847
17.86218	53428
17.87032	47968
17.87843	48782
17.88655	47748
17.89468	43238
17.90280	46619
17.91093	49215
17.91905	46937
17.92717	44158
17.93530	41591
17.94342	41418
17.95155	44876
17.95967	42998
17.96778	43231
17.97592	45166
17.98403	41187
17.99215	42380
18.00028	45316
18.00840	46154
18.01653	40074
18.02465	41590
18.03277	43519
18.04090	44982
18.04902	45546
18.05715	43778
18.06527	49339
18.07338	56725
18.08152	67480
18.08963	86716
18.09775	127113
18.10588	165589
18.11400	229582
18.12213	263259
18.13025	271818
18.13837	281892
18.14650	269968
18.15462	262663
18.16275	252774
18.17087	235804
18.17898	217642
18.18712	215616
18.19523	206534
18.20337	200622
18.21148	185431
18.21960	179007
18.22773	180503
18.23585	164412
18.24397	163264
18.25210	160162
18.26022	156394
18.26835	150301
18.27647	139957
18.28458	126628
18.29272	109160
18.30083	101372
18.30897	83187
18.31708	67256
18.32520	63160
18.33333	60904
18.34145	56889
18.34958	58561
18.35770	59205
18.36582	57417
18.37395	49728
18.38207	52366
18.39018	55635
18.39832	51047
18.40643	55058
18.41457	52756
18.42268	52700
18.43080	50385
18.43893	52081
18.44705	60834
18.45518	54774
18.46330	51943
18.47142	57243
18.47955	53879
18.48767	59885
18.49580	59159
18.50392	58424
18.51203	53974
18.52017	51128
18.52828	49543
18.53640	49234
18.54453	53122
18.55265	44898
18.56078	50812
18.56890	44914
18.57702	47238
18.58515	48296
18.59327	48086
18.60140	43837
18.60952	45775
18.61763	47444
18.62577	47832
18.63388	49159
18.64200	43778
18.65013	47042
18.65825	46039
18.66638	42308
18.67450	43675
18.68262	46323
18.69075	45433
18.69887	45479
18.70700	48885
18.71512	41942
18.72323	44287
18.73137	41552
18.73948	41014
18.74762	48208
18.75573	45670
18.76385	44574
18.77198	47343
18.78010	45239
18.78822	44356
18.79635	45143
18.80447	45041
18.81260	43692
18.82072	48689
18.82883	46899
18.83697	45035
18.84508	45820
18.85322	43247
18.86133	50712
18.86945	40595
18.87758	43619
18.88570	45248
18.89382	47893
18.90195	45272
18.91007	47397
18.91820	46819
18.92632	53437
18.93443	53216
18.94257	47394
18.95068	50253
18.95882	55034
18.96693	47967
18.97505	49715
18.98318	49738
18.99130	53741
18.99943	51059
19.00755	44549
19.01567	47258
19.02380	50223
19.03192	46668
19.04003	50658
19.04817	50758
19.05628	46782
19.06442	50255
19.07253	47935
19.08065	48797
19.08878	50021
19.09690	46209
19.10503	54968
19.11315	49521
19.12127	59021
19.12940	63701
19.13752	59045
19.14565	60924
19.15377	57202
19.16188	48769
19.17002	52834
19.17813	49118
19.18625	48922
19.19438	47930
19.20250	48098
19.21063	47889
19.21875	50844
19.22687	43607
19.23500	45987
19.24312	49180
19.25125	42059
19.25937	43276
19.26748	47158
19.27562	44790
19.28373	49756
19.29185	49854
19.29998	56295
19.30810	63393
19.31623	57372
19.32435	57911
19.33247	57946
19.34060	51892
19.34872	54285
19.35685	50585
19.36497	47805
19.37308	51124
19.38122	49731
19.38933	58365
19.39747	58723
19.40558	54339
19.41370	57748
19.42183	61411
19.42995	54853
19.43807	61765
19.44620	57378
19.45432	55394
19.46245	57252
19.47057	52358
19.47868	56534
19.48682	58242
19.49493	58857
19.50307	62351
19.51118	76296
19.51930	102249
19.52743	132024
19.53555	154539
19.54368	167584
19.55180	157992
19.55992	128144
19.56805	103223
19.57617	81276
19.58428	67727
19.59242	57572
19.60053	53289
19.60867	53733
19.61678	54474
19.62490	52280
19.63303	55882
19.64115	65203
19.64928	100361
19.65740	161612
19.66552	281988
19.67365	457384
19.68177	664602
19.68988	822290
19.69802	891745
19.70613	824425
19.71427	656049
19.72238	458228
19.73050	320910
19.73863	230399
19.74675	186793
19.75488	153455
19.76300	132160
19.77112	110997
19.77925	99637
19.78737	83841
19.79550	85284
19.80362	80579
19.81173	76452
19.81987	74443
19.82798	72255
19.83610	72659
19.84423	69901
19.85235	68433
19.86048	66932
19.86860	69564
19.87672	65766
19.88485	67483
19.89297	68426
19.90110	78442
19.90922	86007
19.91733	88040
19.92547	97250
19.93358	108210
19.94170	108445
19.94983	105429
19.95795	97325
19.96608	102100
19.97420	92942
19.98232	90810
19.99045	91286
19.99857	93125
20.00670	88040
20.01482	86529
20.02293	78065
20.03107	79981
20.03918	77294
20.04732	71137
20.05543	71222
20.06355	68305
20.07168	63234
20.07980	65781
20.08792	65769
20.09605	63869
20.10417	65905
20.11230	66689
20.12042	67442
20.12853	67841
20.13667	69776
20.14478	64186
20.15292	61156
20.16103	70050
20.16915	62640
20.17728	64075
20.18540	68515
20.19353	74632
20.20165	72424
20.20977	79034
20.21790	87867
20.22602	89087
20.23413	86667
20.24227	84583
20.25038	91608
20.25852	103478
20.26663	134365
20.27475	196734
20.28288	298927
20.29100	430140
20.29913	567108
20.30725	661588
20.31537	652259
20.32350	575086
20.33162	441621
20.33973	321777
20.34787	236896
20.35598	184649
20.36412	141111
20.37223	110211
20.38035	109426
20.38848	99622
20.39660	91200
20.40473	80143
20.41285	86990
20.42097	82121
20.42910	87067
20.43722	114055
20.44535	129933
20.45347	161024
20.46158	199999
20.46972	202973
20.47783	202099
20.48595	181253
20.49408	150080
20.50220	130477
20.51033	116445
20.51845	92193
20.52657	77757
20.53470	78370
20.54282	67414
20.55095	70822
20.55907	66848
20.56718	66050
20.57532	65230
20.58343	58508
20.59157	61288
20.59968	56648
20.60780	60066
20.61593	57564
20.62405	57031
20.63217	55822
20.64030	61068
20.64842	53601
20.65655	54821
20.66467	54227
20.67278	60441
20.68092	60016
20.68903	58773
20.69717	54287
20.70528	57023
20.71340	63377
20.72153	57702
20.72965	58452
20.73777	54334
20.74590	53505
20.75402	51165
20.76215	55530
20.77027	51582
20.77838	50298
20.78652	54430
20.79463	57730
20.80277	55726
20.81088	57871
20.81900	57799
20.82713	61217
20.83525	65112
20.84338	67595
20.85150	68806
20.85962	72607
20.86775	73784
20.87587	64199
20.88398	59800
20.89212	65838
20.90023	60926
20.90837	58102
20.91648	57192
20.92460	55205
20.93273	52682
20.94085	52724
20.94898	54641
20.95710	50620
20.96522	47743
20.97335	55697
20.98147	58416
20.98958	53056
20.99772	49275
21.00583	49236
21.01397	48649
21.02208	53195
21.03020	47932
21.03833	51101
21.04645	48350
21.05458	55015
21.06270	57417
21.07082	59843
21.07895	60480
21.08707	62597
21.09520	67494
21.10332	60569
21.11143	64912
21.11957	62835
21.12768	61474
21.13580	62164
21.14393	67765
21.15205	67290
21.16018	75859
21.16830	73767
21.17642	88222
21.18455	85088
21.19267	93557
21.20080	95661
21.20892	92730
21.21703	97951
21.22517	96250
21.23328	85934
21.24142	83692
21.24953	88051
21.25765	78993
21.26578	81045
21.27390	82187
21.28202	80642
21.29015	80388
21.29827	77799
21.30640	76341
21.31452	72887
21.32263	70912
21.33077	74023
21.33888	72679
21.34702	71320
21.35513	74250
21.36325	69136
21.37138	67512
21.37950	71168
21.38762	69968
21.39575	68534
21.40387	67820
21.41200	68037
21.42012	79086
21.42823	76861
21.43637	76967
21.44448	82451
21.45262	77256
21.46073	81939
21.46885	81780
21.47698	81415
21.48510	73072
21.49323	68468
21.50135	83632
21.50947	72181
21.51760	69287
21.52572	69512
21.53383	69701
21.54197	66695
21.55008	69346
21.55822	69093
21.56633	63748
21.57445	70084
21.58258	68488
21.59070	66319
21.59883	74050
21.60695	70576
21.61507	75319
21.62320	81723
21.63132	86204
21.63945	115065
21.64757	155242
21.65568	198942
21.66382	239781
21.67193	260655
21.68005	250722
21.68818	224006
21.69630	178284
21.70443	140145
21.71255	114153
21.72067	96723
21.72880	88133
21.73692	84343
21.74505	78637
21.75317	78399
21.76128	78493
21.76942	77583
21.77753	72995
21.78565	78455
21.79378	76879
21.80190	79778
21.81003	72021
21.81815	75166
21.82627	77881
21.83440	101255
21.84252	129119
21.85065	167479
21.85877	207472
21.86688	234794
21.87502	236584
21.88313	201434
21.89127	161371
21.89938	132368
21.90750	98043
21.91563	87664
21.92375	76409
21.93187	70329
21.94000	73465
21.94812	67811
21.95625	69286
21.96437	70731
21.97248	67738
21.98062	67336
21.98873	60723
21.99687	64456
22.00498	66404
22.01310	58938
22.02123	61557
22.02935	59762
22.03748	54345
22.04560	60893
22.05372	58621
22.06185	58424
22.06997	62171
22.07808	56947
22.08622	67041
22.09433	64843
22.10247	58372
22.11058	58185
22.11870	62770
22.12683	56889
22.13495	62872
22.14308	64760
22.15120	57931
22.15932	61151
22.16745	64259
22.17557	63587
22.18368	63230
22.19182	64067
22.19993	63425
22.20807	61827
22.21618	71251
22.22430	69697
22.23243	72062
22.24055	77357
22.24868	88432
22.25680	91850
22.26492	92998
22.27305	87580
22.28117	75069
22.28930	72507
22.29742	67916
22.30553	59638
22.31367	61030
22.32178	62830
22.32990	61343
22.33803	62382
22.34615	59674
22.35428	59857
22.36240	58897
22.37052	58730
22.37865	54827
22.38677	54754
22.39490	61508
22.40302	59470
22.41113	55661
22.41927	62488
22.42738	62544
22.43550	71036
22.44363	67048
22.45175	68249
22.45988	68799
22.46800	70287
22.47612	67054
22.48425	67306
22.49237	65241
22.50050	61162
22.50862	61632
22.51673	63469
22.52487	65103
22.53298	62747
22.54112	65526
22.54923	68041
22.55735	67919
22.56548	64269
22.57360	68155
22.58172	69918
22.58985	64586
22.59797	68191
22.60610	64744
22.61422	63607
22.62233	59311
22.63047	54448
22.63858	54889
22.64672	55762
22.65483	50518
22.66295	53386
22.67108	52049
22.67920	50980
22.68733	57110
22.69545	58175
22.70357	52818
22.71170	56181
22.71982	59312
22.72793	57515
22.73607	61800
22.74418	56932
22.75232	61688
22.76043	60839
22.76855	59065
22.77668	57697
22.78480	57680
22.79293	52066
22.80105	54918
22.80917	55107
22.81730	65996
22.82542	54665
22.83353	57461
22.84167	58539
22.84978	64453
22.85792	62439
22.86603	61518
22.87415	66213
22.88228	68354
22.89040	66345
22.89853	66159
22.90665	69399
22.91477	79974
22.92290	83700
22.93102	91094
22.93915	102440
22.94727	112799
22.95538	125469
22.96352	132067
22.97163	121567
22.97975	121986
22.98788	105829
22.99600	110865
23.00413	97020
23.01225	85091
23.02037	78479
23.02850	73318
23.03662	69438
23.04475	61735
23.05287	64231
23.06098	59109
23.06912	57200
23.07723	54084
23.08537	54855
23.09348	56440
23.10160	55071
23.10973	51991
23.11785	53465
23.12597	54782
23.13410	48744
23.14222	46964
23.15035	47594
23.15847	42212
23.16658	45157
23.17472	46534
23.18283	47441
23.19097	46483
23.19908	45257
23.20720	48736
23.21533	47147
23.22345	45906
23.23157	45622
23.23970	44377
23.24782	44195
23.25595	46533
23.26407	44544
23.27218	44241
23.28032	42748
23.28843	44801
23.29657	46331
23.30468	47770
23.31280	50125
23.32093	44503
23.32905	45381
23.33718	48153
23.34530	46023
23.35342	44108
23.36155	43368
23.36967	47690
23.37778	44883
23.38592	47454
23.39403	48353
23.40217	48429
23.41028	47291
23.41840	50322
23.42653	48251
23.43465	49245
23.44278	47253
23.45090	46382
23.45902	43862
23.46715	46365
23.47527	44214
23.48338	42580
23.49152	42771
23.49963	45046
23.50777	41745
23.51588	40194
23.52400	41635
23.53213	47547
23.54025	44921
23.54838	43974
23.55650	50701
23.56462	49274
23.57275	47542
23.58087	51226
23.58900	49002
23.59712	46007
23.60523	51542
23.61337	48394
23.62148	49064
23.62960	50363
23.63773	53817
23.64585	47169
23.65398	48578
23.66210	53802
23.67022	52883
23.67835	58160
23.68647	55488
23.69460	55133
23.70272	57550
23.71083	57370
23.71897	58401
23.72708	52992
23.73522	52075
23.74333	59805
23.75145	75754
23.75958	150182
23.76770	399521
23.77582	1076556
23.78395	2369661
23.79207	4064183
23.80020	5671470
23.80832	6538175
23.81643	6095858
23.82457	4936393
23.83268	3666997
23.84082	2440562
23.84893	1675226
23.85705	1186137
23.86518	852347
23.87330	680192
23.88143	553763
23.88955	486416
23.89767	410238
23.90580	369626
23.91392	346729
23.92203	315031
23.93017	286175
23.93828	278599
23.94642	257307
23.95453	251505
23.96265	226071
23.97078	215848
23.97890	206807
23.98703	204605
23.99515	194184
24.00327	179947
24.01140	181269
24.01952	165548
24.02763	172827
24.03577	164772
24.04388	156889
24.05202	151063
24.06013	151714
24.06825	145948
24.07638	143138
24.08450	145192
24.09263	137213
24.10075	127701
24.10887	132310
24.11700	124080
24.12512	125646
24.13325	129918
24.14137	125114
24.14948	133299
24.15762	142478
24.16573	161339
24.17385	166271
24.18198	159661
24.19010	154843
24.19823	147880
24.20635	140288
24.21447	134588
24.22260	137496
24.23072	152694
24.23885	148099
24.24697	160159
24.25508	166763
24.26322	159444
24.27133	148268
24.27945	126619
24.28758	119283
24.29570	110499
24.30383	96927
24.31195	92114
24.32007	95503
24.32820	91655
24.33632	91733
24.34445	94379
24.35257	97304
24.36068	94098
24.36882	91673
24.37693	97959
24.38507	94008
24.39318	96849
24.40130	92148
24.40943	107888
24.41755	121816
24.42567	139487
24.43380	146324
24.44192	151038
24.45005	131428
24.45817	118041
24.46628	95945
24.47442	87215
24.48253	81268
24.49067	92332
24.49878	93758
24.50690	92779
24.51503	104010
24.52315	113062
24.53128	128725
24.53940	147794
24.54752	158087
24.55565	146958
24.56377	143846
24.57188	129806
24.58002	118652
24.58813	115956
24.59627	111073
24.60438	107254
24.61250	98267
24.62063	104317
24.62875	93421
24.63688	91169
24.64500	89297
24.65312	91460
24.66125	94447
24.66937	104046
24.67748	97833
24.68562	99268
24.69373	94806
24.70187	96135
24.70998	88496
24.71810	87924
24.72623	81203
24.73435	79597
24.74248	77641
24.75060	77785
24.75872	71482
24.76685	71967
24.77497	73036
24.78310	73961
24.79122	70726
24.79933	72549
24.80747	74208
24.81558	69516
24.82370	66836
24.83183	69138
24.83995	69048
24.84808	69129
24.85620	70470
24.86432	78275
24.87245	76650
24.88057	78214
24.88870	79900
24.89682	84996
24.90493	83998
24.91307	87675
24.92118	90462
24.92932	87663
24.93743	78738
24.94555	79414
24.95368	72769
24.96180	71681
24.96992	63303
24.97805	69997
24.98617	65459
24.99430	62558
25.00242	60141
25.01053	57230
25.01867	61391
25.02678	55150
25.03492	62097
25.04303	61633
25.05115	65502
25.05928	61066
25.06740	65085
25.07552	62927
25.08365	63278
25.09177	62157
25.09990	63030
25.10802	59253
25.11613	65683
25.12427	74579
25.13238	101928
25.14052	143139
25.14863	204125
25.15675	297123
25.16488	392881
25.17300	458370
25.18113	475848
25.18925	410706
25.19737	346152
25.20550	272523
25.21362	210997
25.22173	153046
25.22987	118919
25.23798	101040
25.24612	97617
25.25423	88673
25.26235	81274
25.27048	84962
25.27860	79837
25.28673	80016
25.29485	81632
25.30297	75111
25.31110	76365
25.31922	83145
25.32733	80349
25.33547	90413
25.34358	83733
25.35172	80459
25.35983	76535
25.36795	71392
25.37608	72019
25.38420	66573
25.39233	59152
25.40045	63295
25.40857	59815
25.41670	61314
25.42482	65147
25.43295	62040
25.44107	56660
25.44918	62166
25.45732	57628
25.46543	58491
25.47355	64996
25.48168	59535
25.48980	68922
25.49793	68892
25.50605	74911
25.51417	77546
25.52230	71529
25.53042	78895
25.53855	70589
25.54667	69784
25.55478	63077
25.56292	63057
25.57103	61662
25.57917	58321
25.58728	61647
25.59540	58432
25.60353	56726
25.61165	58025
25.61977	56710
25.62790	55323
25.63602	58485
25.64415	55340
25.65227	61560
25.66038	56210
25.66852	61588
25.67663	60788
25.68477	56838
25.69288	60229
25.70100	65008
25.70913	58466
25.71725	58114
25.72537	65171
25.73350	63627
25.74162	60880
25.74975	61785
25.75787	55741
25.76598	64051
25.77412	56009
25.78223	54163
25.79037	55253
25.79848	57827
25.80660	58580
25.81473	53039
25.82285	61340
25.83098	64565
25.83910	61579
25.84722	65106
25.85535	49621
25.86347	57728
25.87158	61054
25.87972	61972
25.88783	52578
25.89597	56170
25.90408	53843
25.91220	55872
25.92033	59548
25.92845	51499
25.93658	55965
25.94470	59142
25.95282	57190
25.96095	57265
25.96907	56380
25.97720	56428
25.98532	57030
25.99343	57587
26.00157	55323
26.00968	57058
26.01780	56457
26.02593	54217
26.03405	52790
26.04218	55405
26.05030	52913
26.05842	52539
26.06655	52655
26.07467	53884
26.08280	53969
26.09092	54915
26.09903	59256
26.10717	64727
26.11528	60142
26.12340	62359
26.13153	67464
26.13965	71759
26.14778	81312
26.15590	77711
26.16402	78644
26.17215	78465
26.18027	83851
26.18840	77036
26.19652	75560
26.20463	76166
26.21277	70756
26.22088	63462
26.22902	61906
26.23713	55499
26.24525	54997
26.25338	54351
26.26150	55204
26.26962	56016
26.27775	56704
26.28587	57999
26.29400	58541
26.30212	58541
26.31023	58071
26.31837	54643
26.32648	53117
26.33462	53853
26.34273	54838
26.35085	53755
26.35898	56431
26.36710	63641
26.37522	78371
26.38335	97261
26.39147	125130
26.39960	174848
26.40772	237463
26.41583	294654
26.42397	337337
26.43208	351551
26.44022	335975
26.44833	276244
26.45645	228381
26.46458	172520
26.47270	141465
26.48083	115942
26.48895	92664
26.49707	82115
26.50520	73415
26.51332	65361
26.52143	57630
26.52957	54796
26.53768	58604
26.54582	52689
26.55393	52637
26.56205	51268
26.57018	50185
26.57830	51331
26.58643	55960
26.59455	53131
26.60267	56979
26.61080	53131
26.61892	51161
26.62705	51971
26.63517	52658
26.64328	57135
26.65142	58210
26.65953	51250
26.66765	55354
26.67578	54544
26.68390	55322
26.69203	51957
26.70015	55763
26.70827	56577
26.71640	51659
26.72452	53505
26.73265	60765
26.74077	53314
26.74888	55089
26.75702	57504
26.76513	59628
26.77325	53778
26.78138	55073
26.78950	56493
26.79763	54769
26.80575	55236
26.81387	50618
26.82200	57683
26.83012	58756
26.83825	57201
26.84637	58682
26.85448	60665
26.86262	55685
26.87073	60274
26.87887	63411
26.88698	63666
26.89510	62948
26.90323	64282
26.91135	62674
26.91947	65294
26.92760	57899
26.93572	58977
26.94385	57538
26.95197	60693
26.96008	59509
26.96822	75306
26.97633	106130
26.98447	205009
26.99258	432069
27.00070	921886
27.00883	1892804
27.01695	3382777
27.02508	4736110
27.03320	5341325
27.04132	5127823
27.04945	4347301
27.05757	3213035
27.06568	2259662
27.07382	1601940
27.08193	1151385
27.09007	856891
27.09818	687729
27.10630	571907
27.11443	480622
27.12255	433625
27.13068	392485
27.13880	356059
27.14692	335203
27.15505	306895
27.16317	292440
27.17128	266787
27.17942	252233
27.18753	254873
27.19567	235393
27.20378	234137
27.21190	227120
27.22003	242726
27.22815	233891
27.23628	213766
27.24440	215252
27.25252	199473
27.26065	187786
27.26877	168382
27.27690	170351
27.28502	164315
27.29313	153230
27.30127	152299
27.30938	143205
27.31750	139418
27.32563	135322
27.33375	136199
27.34188	130648
27.35000	132599
27.35812	135224
27.36625	128011
27.37437	128092
27.38250	120582
27.39062	125468
27.39873	123062
27.40687	117279
27.41498	114810
27.42312	113469
27.43123	118622
27.43935	103597
27.44748	107342
27.45560	112274
27.46372	107601
27.47185	104423
27.47997	102091
27.48810	103213
27.49622	100928
27.50433	100700
27.51247	96813
27.52058	103362
27.52872	97972
27.53683	96626
27.54495	97426
27.55308	102913
27.56120	103689
27.56932	106278
27.57745	106549
27.58557	94148
27.59370	95187
27.60182	93503
27.60993	90594
27.61807	93354
27.62618	92809
27.63432	96099
27.64243	95964
27.65055	103235
27.65868	88769
27.66680	94909
27.67493	86998
27.68305	85346
27.69117	89529
27.69930	89329
27.70742	87596
27.71553	85793
27.72367	84117
27.73178	87013
27.73992	82801
27.74803	79102
27.75615	82091
27.76428	73217
27.77240	82337
27.78053	77862
27.78865	78030
27.79677	76220
27.80490	76913
27.81302	82337
27.82113	76472
27.82927	80219
27.83738	75088
27.84552	81493
27.85363	78054
27.86175	76768
27.86988	76011
27.87800	78015
27.88613	81769
27.89425	83314
27.90237	77816
27.91050	79589
27.91862	76211
27.92675	74475
27.93487	74258
27.94298	74748
27.95112	74447
27.95923	76843
27.96735	74134
27.97548	74184
27.98360	69032
27.99173	69997
27.99985	75109
28.00797	79209
28.01610	72191
28.02422	74724
28.03235	76138
28.04047	78386
28.04858	83859
28.05672	86134
28.06483	93630
28.07297	93753
28.08108	95118
28.08920	90382
28.09733	88598
28.10545	83349
28.11357	76517
28.12170	74709
28.12982	74838
28.13795	70435
28.14607	70405
28.15418	66686
28.16232	64619
28.17043	69018
28.17857	71456
28.18668	61912
28.19480	73363
28.20293	67931
28.21105	71063
28.21917	76318
28.22730	80998
28.23542	91279
28.24355	89315
28.25167	89387
28.25978	86446
28.26792	82675
28.27603	85553
28.28417	72035
28.29228	76651
28.30040	75206
28.30853	78228
28.31665	97165
28.32478	126161
28.33290	194678
28.34102	269233
28.34915	386860
28.35727	530850
28.36538	679751
28.37352	814990
28.38163	899571
28.38977	936346
28.39788	907214
28.40600	849089
28.41413	766119
28.42225	677981
28.43038	596606
28.43850	503397
28.44662	425304
28.45475	346150
28.46287	308381
28.47100	284075
28.47912	250956
28.48723	223194
28.49537	216956
28.50348	201882
28.51160	187676
28.51973	173434
28.52785	167889
28.53598	153053
28.54410	156007
28.55222	152526
28.56035	142576
28.56847	145763
28.57660	133761
28.58472	126365
28.59283	125949
28.60097	122514
28.60908	116183
28.61720	118587
28.62533	119957
28.63345	110400
28.64158	115968
28.64970	113541
28.65782	116609
28.66595	118547
28.67407	121028
28.68220	122210
28.69032	118960
28.69843	114443
28.70657	115798
28.71468	101586
28.72282	100018
28.73093	99174
28.73905	100896
28.74718	91574
28.75530	92526
28.76342	95860
28.77155	89249
28.77967	97517
28.78780	105640
28.79592	104208
28.80403	115445
28.81217	115649
28.82028	116322
28.82842	106281
28.83653	98524
28.84465	95527
28.85278	94458
28.86090	85262
28.86902	85955
28.87715	86422
28.88527	84744
28.89340	81864
28.90152	84028
28.90963	80596
28.91777	81838
28.92588	86568
28.93402	82949
28.94213	89685
28.95025	82814
28.95838	88344
28.96650	91167
28.97463	92491
28.98275	88916
28.99087	91019
28.99900	80635
29.00712	83912
29.01523	78862
29.02337	81998
29.03148	80707
29.03962	83465
29.04773	76231
29.05585	74079
29.06398	73872
29.07210	77169
29.08023	75491
29.08835	72120
29.09647	70859
29.10460	77668
29.11272	73836
29.12085	71651
29.12897	72669
29.13708	72843
29.14522	70449
29.15333	75498
29.16145	69082
29.16958	76773
29.17770	72837
29.18583	73703
29.19395	70636
29.20207	78008
29.21020	78389
29.21832	72073
29.22645	74751
29.23457	74055
29.24268	72585
29.25082	72919
29.25893	77894
29.26707	79768
29.27518	70711
29.28330	73299
29.29143	74662
29.29955	77311
29.30767	73344
29.31580	70735
29.32392	71773
29.33205	67016
29.34017	70380
29.34828	74017
29.35642	70269
29.36453	71640
29.37267	66573
29.38078	71740
29.38890	69273
29.39703	72917
29.40515	68658
29.41327	68680
29.42140	69339
29.42952	68574
29.43765	67253
29.44577	69183
29.45388	70936
29.46202	69346
29.47013	71697
29.47827	66510
29.48638	68411
29.49450	72670
29.50263	71427
29.51075	76104
29.51888	85091
29.52700	87244
29.53512	83800
29.54325	85144
29.55137	87055
29.55948	77319
29.56762	71255
29.57573	68467
29.58387	63784
29.59198	64480
29.60010	60660
29.60823	63900
29.61635	63501
29.62448	65954
29.63260	64087
29.64072	64628
29.64885	62485
29.65697	67160
29.66508	62677
29.67322	65479
29.68133	59452
29.68947	65581
29.69758	64104
29.70570	64963
29.71383	61303
29.72195	58399
29.73008	60466
29.73820	65813
29.74632	57748
29.75445	57649
29.76257	62594
29.77070	63809
29.77882	58026
29.78693	61885
29.79507	56585
29.80318	58668
29.81130	58930
29.81943	58040
29.82755	56161
29.83568	55866
29.84380	57175
29.85192	58509
29.86005	57981
29.86817	60061
29.87630	62576
29.88442	57960
29.89253	65499
29.90067	67510
29.90878	68419
29.91692	72862
29.92503	70879
29.93315	70895
29.94128	68199
29.94940	69487
29.95752	73673
29.96565	78043
29.97377	84933
29.98190	103347
29.99002	126544
29.99813	152879
30.00627	181690
30.01438	223330
30.02252	252556
30.03063	280898
30.03875	306595
30.04688	337920
30.05500	328357
30.06312	332474
30.07125	332877
30.07937	310820
30.08750	307716
30.09562	275322
30.10373	247307
30.11187	234728
30.11998	221262
30.12812	191080
30.13623	180973
30.14435	160252
30.15248	156943
30.16060	136251
30.16873	131262
30.17685	132207
30.18497	132327
30.19310	124637
30.20122	115289
30.20933	113186
30.21747	107876
30.22558	111840
30.23372	107044
30.24183	97213
30.24995	97531
30.25808	90552
30.26620	92175
30.27433	81404
30.28245	91015
30.29057	85035
30.29870	89405
30.30682	81482
30.31495	85261
30.32307	75812
30.33118	79805
30.33932	76577
30.34743	75452
30.35555	76266
30.36368	79103
30.37180	78474
30.37993	75247
30.38805	70818
30.39617	72881
30.40430	67271
30.41242	72053
30.42055	73739
30.42867	70232
30.43678	68468
30.44492	69940
30.45303	69200
30.46115	70864
30.46928	66862
30.47740	68645
30.48553	68054
30.49365	75743
30.50177	66705
30.50990	68620
30.51802	68597
30.52615	68237
30.53427	70373
30.54238	67458
30.55052	68382
30.55863	67933
30.56677	68703
30.57488	63304
30.58300	58063
30.59113	67126
30.59925	67627
30.60737	64868
30.61550	65008
30.62362	66106
30.63175	66746
30.63987	66005
30.64798	60909
30.65612	62623
30.66423	62170
30.67237	62393
30.68048	60200
30.68860	62911
30.69673	63271
30.70485	60837
30.71297	57593
30.72110	57622
30.72922	62358
30.73735	62917
30.74547	59947
30.75358	59851
30.76172	61399
30.76983	61253
30.77797	63457
30.78608	65565
30.79420	58653
30.80233	65375
30.81045	70864
30.81858	77525
30.82670	81370
30.83482	86947
30.84295	81671
30.85107	74233
30.85918	71160
30.86732	67886
30.87543	71475
30.88357	69071
30.89168	65905
30.89980	64374
30.90793	60604
30.91605	67873
30.92418	62182
30.93230	60845
30.94042	60804
30.94855	62207
30.95667	56502
30.96480	60776
30.97292	60727
30.98103	60296
30.98917	62960
30.99728	57666
31.00540	56251
31.01353	62112
31.02165	59387
31.02978	60491
31.03790	58231
31.04602	63020
31.05415	60130
31.06227	59226
31.07040	59603
31.07852	59050
31.08663	61538
31.09477	62194
31.10288	64955
31.11100	72006
31.11913	80509
31.12725	78447
31.13538	79972
31.14350	75093
31.15162	68205
31.15975	75317
31.16787	69871
31.17600	70271
31.18412	81236
31.19223	86429
31.20037	121266
31.20848	174550
31.21662	249029
31.22473	341137
31.23285	450771
31.24098	501107
31.24910	500955
31.25722	433693
31.26535	325081
31.27347	233327
31.28160	163040
31.28972	111096
31.29783	93538
31.30597	82051
31.31408	74687
31.32222	70625
31.33033	67336
31.33845	65484
31.34658	62742
31.35470	67176
31.36283	69667
31.37095	63465
31.37907	64628
31.38720	62546
31.39532	65968
31.40343	57702
31.41157	63997
31.41968	63624
31.42782	65918
31.43593	63729
31.44405	66687
31.45218	68460
31.46030	67592
31.46843	68133
31.47655	68611
31.48467	66286
31.49280	66098
31.50092	62852
31.50903	61134
31.51717	66395
31.52528	60881
31.53342	63685
31.54153	62924
31.54965	66132
31.55778	68632
31.56590	60112
31.57403	62747
31.58215	65832
31.59027	66398
31.59840	66704
31.60652	65001
31.61465	64961
31.62277	61844
31.63088	60351
31.63902	61230
31.64713	65998
31.65525	59454
31.66338	64663
31.67150	60144
31.67963	68692
31.68775	67278
31.69587	64161
31.70400	69629
31.71212	61364
31.72025	64858
31.72837	64800
31.73648	58925
31.74462	55655
31.75273	62220
31.76085	54736
31.76898	56336
31.77710	60525
31.78523	56400
31.79335	58415
31.80147	62533
31.80960	63779
31.81772	67232
31.82585	67031
31.83397	67378
31.84208	70643
31.85022	64717
31.85833	65349
31.86647	64009
31.87458	61608
31.88270	67966
31.89083	73415
31.89895	72901
31.90707	68355
31.91520	66137
31.92332	70490
31.93145	72904
31.93957	86437
31.94768	103288
31.95582	117640
31.96393	142276
31.97207	162119
31.98018	184769
31.98830	197289
31.99643	197572
32.00455	204526
32.01268	204682
32.02080	205950
32.02892	186442
32.03705	178823
32.04517	158659
32.05328	151371
32.06142	129689
32.06953	122944
32.07767	114162
32.08578	110620
32.09390	110196
32.10203	114107
32.11015	102424
32.11828	103681
32.12640	103993
32.13452	96508
32.14265	85380
32.15077	87241
32.15888	82998
32.16702	79829
32.17513	77466
32.18327	78292
32.19138	72165
32.19950	70805
32.20763	72413
32.21575	69465
32.22388	71709
32.23200	70060
32.24012	70369
32.24825	73945
32.25637	70378
32.26450	65617
32.27262	61847
32.28073	66028
32.28887	64546
32.29698	72117
32.30510	67650
32.31323	66334
32.32135	62173
32.32948	67726
32.33760	66733
32.34572	66001
32.35385	71795
32.36197	68741
32.37010	72800
32.37822	71778
32.38633	68198
32.39447	65654
32.40258	65822
32.41072	63937
32.41883	61734
32.42695	65858
32.43508	65558
32.44320	62062
32.45132	59917
32.45945	66980
32.46757	64874
32.47570	61617
32.48382	61839
32.49193	62774
32.50007	63054
32.50818	65982
32.51632	64760
32.52443	61933
32.53255	59922
32.54068	58475
32.54880	63243
32.55692	62902
32.56505	62649
32.57317	62330
32.58130	63024
32.58942	60330
32.59753	58790
32.60567	61974
32.61378	60898
32.62192	65933
32.63003	61861
32.63815	62571
32.64628	60843
32.65440	57180
32.66253	61841
32.67065	71164
32.67877	64878
32.68690	73308
32.69502	77999
32.70313	84093
32.71127	78805
32.71938	74878
32.72752	77496
32.73563	72679
32.74375	68352
32.75188	70384
32.76000	71819
32.76813	62648
32.77625	60514
32.78437	62447
32.79250	58103
32.80062	56803
32.80875	58901
32.81687	65357
32.82498	60013
32.83312	55779
32.84123	67044
32.84935	58145
32.85748	61410
32.86560	58978
32.87373	64647
32.88185	59526
32.88997	63476
32.89810	68836
32.90622	62399
32.91435	61188
32.92247	66230
32.93058	65849
32.93872	62124
32.94683	63473
32.95495	63728
32.96308	61266
32.97120	58341
32.97933	57638
32.98745	61502
32.99557	64365
33.00370	63671
33.01182	70210
33.01995	65679
33.02807	67980
33.03618	66180
33.04432	63407
33.05243	63462
33.06057	62439
33.06868	68470
33.07680	63124
33.08493	64277
33.09305	71591
33.10117	70875
33.10930	76124
33.11742	76613
33.12555	84040
33.13367	93992
33.14178	93174
33.14992	93619
33.15803	80113
33.16617	74877
33.17428	68484
33.18240	60658
33.19053	62111
33.19865	67395
33.20677	56260
33.21490	61750
33.22302	62168
33.23115	61700
33.23927	66315
33.24738	68522
33.25552	67282
33.26363	70020
33.27177	67191
33.27988	68287
33.28800	65229
33.29613	65818
33.30425	68670
33.31238	63275
33.32050	60581
33.32862	66406
33.33675	59456
33.34487	63631
33.35298	60115
33.36112	62440
33.36923	63606
33.37737	63233
33.38548	60226
33.39360	61720
33.40173	65118
33.40985	63726
33.41798	60751
33.42610	56786
33.43422	60858
33.44235	55686
33.45047	58925
33.45860	62021
33.46672	61241
33.47483	58421
33.48297	56083
33.49108	53397
33.49920	58776
33.50733	60843
33.51545	59229
33.52358	63911
33.53170	67217
33.53982	64625
33.54795	61114
33.55607	61874
33.56420	64042
33.57232	61442
33.58043	67310
33.58857	60693
33.59668	62737
33.60480	58621
33.61293	61902
33.62105	55433
33.62918	56331
33.63730	58682
33.64542	55233
33.65355	60370
33.66167	61416
33.66980	63606
33.67792	58200
33.68603	60172
33.69417	62163
33.70228	58402
33.71042	59469
33.71853	53694
33.72665	56857
33.73478	57161
33.74290	58459
33.75102	57924
33.75915	61698
33.76727	58271
33.77540	52851
33.78352	53242
33.79163	57300
33.79977	57632
33.80788	56612
33.81602	56438
33.82413	54577
33.83225	57288
33.84038	58831
33.84850	56794
33.85663	60331
33.86475	57857
33.87287	61050
33.88100	57793
33.88912	62416
33.89723	62098
33.90537	58935
33.91348	60265
33.92162	62544
33.92973	59507
33.93785	61437
33.94598	55617
33.95410	58158
33.96223	60776
33.97035	63292
33.97847	57291
33.98660	62022
33.99472	56709
34.00283	60061
34.01097	61905
34.01908	54816
34.02722	55720
34.03533	55980
34.04345	52018
34.05158	52381
34.05970	57177
34.06783	55665
34.07595	55335
34.08407	52573
34.09220	57299
34.10032	55575
34.10845	55322
34.11657	56455
34.12468	55327
34.13282	53651
34.14093	58206
34.14905	56868
34.15718	54479
34.16530	57968
34.17343	57368
34.18155	58273
34.18967	60123
34.19780	59053
34.20592	60873
34.21405	57931
34.22217	57927
34.23028	58029
34.23842	57358
34.24653	57571
34.25465	56718
34.26278	59284
34.27090	55644
34.27903	54096
34.28715	59751
34.29527	59695
34.30340	59398
34.31152	58981
34.31965	56305
34.32777	53702
34.33588	57934
34.34402	55887
34.35213	55272
34.36027	58895
34.36838	64469
34.37650	56142
34.38463	57190
34.39275	59278
34.40087	57817
34.40900	57993
34.41712	60237
34.42525	56848
34.43337	62624
34.44148	58643
34.44962	58931
34.45773	60171
34.46587	62130
34.47398	55677
34.48210	56455
34.49023	56908
34.49835	57466
34.50648	56464
34.51460	59024
34.52272	60356
34.53085	60422
34.53897	67364
34.54708	77496
34.55522	85698
34.56333	102550
34.57147	117836
34.57958	122699
34.58770	137672
34.59583	139967
34.60395	134345
34.61208	123232
34.62020	114579
34.62832	102469
34.63645	95184
34.64457	90932
34.65270	86691
34.66082	78248
34.66893	79551
34.67707	80112
34.68518	77855
34.69330	74931
34.70143	69325
34.70955	69683
34.71768	69721
34.72580	70125
34.73392	70432
34.74205	69606
34.75017	70030
34.75830	75184
34.76642	69937
34.77453	71619
34.78267	65675
34.79078	69612
34.79890	66965
34.80703	67488
34.81515	62952
34.82328	67028
34.83140	68543
34.83952	71079
34.84765	66756
34.85577	65454
34.86390	61119
34.87202	60862
34.88013	64346
34.88827	65910
34.89638	63719
34.90452	62877
34.91263	63379
34.92075	62242
34.92888	64471
34.93700	64166
34.94512	62650
34.95325	66496
34.96137	65470
34.96950	70838
34.97762	70757
34.98573	69353
34.99387	69856
35.00198	68520
35.01012	75483
35.01823	72412
35.02635	73501
35.03448	67052
35.04260	67366
35.05072	72877
35.05885	70885
35.06697	69322
35.07510	70772
35.08322	68795
35.09133	66096
35.09947	68628
35.10758	68224
35.11572	61680
35.12383	66125
35.13195	68069
35.14008	72464
35.14820	68654
35.15633	73078
35.16445	76967
35.17257	87045
35.18070	77156
35.18882	78144
35.19693	76389
35.20507	73214
35.21318	72169
35.22132	65880
35.22943	66562
35.23755	67482
35.24568	70567
35.25380	64342
35.26193	63229
35.27005	61350
35.27817	66954
35.28630	68646
35.29442	64177
35.30253	67304
35.31067	66635
35.31878	64271
35.32692	63722
35.33503	64713
35.34315	60343
35.35128	62418
35.35940	59693
35.36753	62547
35.37565	61929
35.38377	67814
35.39190	60454
35.40002	59266
35.40815	67772
35.41627	64110
35.42438	70664
35.43252	76114
35.44063	74180
35.44875	76333
35.45688	77223
35.46500	71300
35.47313	68588
35.48125	73130
35.48937	70200
35.49750	71070
35.50562	71567
35.51375	71019
35.52187	70042
35.52998	65431
35.53812	62508
35.54623	68762
35.55437	62845
35.56248	69204
35.57060	67811
35.57873	62915
35.58685	70765
35.59497	64433
35.60310	64455
35.61122	67304
35.61935	69317
35.62747	67465
35.63558	66154
35.64372	70865
35.65183	64664
35.65997	66114
35.66808	65077
35.67620	64324
35.68433	72906
35.69245	66488
35.70058	69568
35.70870	80551
35.71682	80720
35.72495	77785
35.73307	80460
35.74118	73856
35.74932	73191
35.75743	73125
35.76557	76580
35.77368	73445
35.78180	74169
35.78993	80006
35.79805	73952
35.80618	71191
35.81430	77017
35.82242	64734
35.83055	65441
35.83867	70035
35.84678	70644
35.85492	69642
35.86303	68214
35.87117	69467
35.87928	77465
35.88740	68920
35.89553	73200
35.90365	66070
35.91178	67225
35.91990	67406
35.92802	65249
35.93615	66655
35.94427	64802
35.95240	63443
35.96052	64511
35.96863	65428
35.97677	62583
35.98488	66507
35.99300	65535
36.00113	67367
36.00925	64434
36.01738	70747
36.02550	67557
36.03362	72580
36.04175	76557
36.04987	74796
36.05800	75887
36.06612	74864
36.07423	80760
36.08237	72742
36.09048	73121
36.09860	68021
36.10673	66531
36.11485	67449
36.12298	69312
36.13110	71605
36.13922	68455
36.14735	68203
36.15547	67216
36.16360	71267
36.17172	70513
36.17983	68138
36.18797	67982
36.19608	71253
36.20422	73666
36.21233	65967
36.22045	71805
36.22858	72247
36.23670	68452
36.24482	67946
36.25295	68059
36.26107	65735
36.26920	70487
36.27732	72352
36.28543	74210
36.29357	67469
36.30168	69137
36.30982	69953
36.31793	69734
36.32605	69382
36.33418	74331
36.34230	76457
36.35043	85561
36.35855	89358
36.36667	88163
36.37480	84144
36.38292	88053
36.39103	88774
36.39917	88673
36.40728	84335
36.41542	83545
36.42353	81923
36.43165	80287
36.43978	81517
36.44790	77808
36.45603	71347
36.46415	68674
36.47227	70858
36.48040	69907
36.48852	72696
36.49663	72056
36.50477	69124
36.51288	70108
36.52102	68436
36.52913	68522
36.53725	70733
36.54538	68685
36.55350	68674
36.56163	68340
36.56975	65633
36.57787	66024
36.58600	63881
36.59412	70639
36.60225	72212
36.61037	71605
36.61848	66816
36.62662	70215
36.63473	69384
36.64285	68124
36.65098	66079
36.65910	69691
36.66723	69644
36.67535	69837
36.68347	71958
36.69160	72674
36.69972	74690
36.70785	71766
36.71597	77684
36.72408	75726
36.73222	82112
36.74033	80435
36.74847	81515
36.75658	84524
36.76470	83745
36.77283	81814
36.78095	92033
36.78907	88877
36.79720	92053
36.80532	92690
36.81345	97143
36.82157	98340
36.82968	106743
36.83782	97976
36.84593	103206
36.85407	108928
36.86218	106410
36.87030	104333
36.87843	96881
36.88655	96711
36.89467	91568
36.90280	95346
36.91092	87685
36.91905	86867
36.92717	81469
36.93528	84132
36.94342	78110
36.95153	79206
36.95967	74526
36.96778	80158
36.97590	75443
36.98403	77060
36.99215	73897
37.00028	71847
37.00840	73785
37.01652	68892
37.02465	70551
37.03277	70522
37.04088	70285
37.04902	71854
37.05713	70559
37.06527	71838
37.07338	69510
37.08150	74812
37.08963	74991
37.09775	78422
37.10588	79779
37.11400	75672
37.12212	75350
37.13025	74785
37.13837	76356
37.14650	74200
37.15462	72406
37.16273	72459
37.17087	66623
37.17898	70479
37.18710	75647
37.19523	73334
37.20335	75530
37.21148	73229
37.21960	74739
37.22772	76262
37.23585	74339
37.24397	73268
37.25210	75433
37.26022	74861
37.26833	74418
37.27647	75130
37.28458	74181
37.29270	71829
37.30083	69791
37.30895	73936
37.31708	69131
37.32520	74242
37.33332	76765
37.34145	78307
37.34957	83241
37.35770	83009
37.36582	83499
37.37393	98249
37.38207	99436
37.39018	108223
37.39832	107719
37.40643	110469
37.41455	107843
37.42268	104278
37.43080	102648
37.43892	91590
37.44705	89558
37.45517	90260
37.46330	90054
37.47142	86968
37.47953	88451
37.48767	97489
