Z:\data\JTB-E02\BACandBLUE\JTB-E18-007-12.D Fri Apr 12 14:56:12 2019
Start of data points
2.09513	66120
2.10325	65337
2.11137	61141
2.11950	59027
2.12762	64242
2.13575	62405
2.14387	63953
2.15198	60560
2.16012	62560
2.16823	61351
2.17637	64725
2.18448	61454
2.19260	58098
2.20073	61245
2.20885	54884
2.21697	54727
2.22510	53823
2.23322	55254
2.24135	54754
2.24947	56721
2.25758	59558
2.26572	93699
2.27383	730006
2.28197	2324151
2.29008	1956503
2.29820	939945
2.30633	615518
2.31445	463898
2.32257	385668
2.33070	335354
2.33882	293433
2.34695	256658
2.35507	239593
2.36318	208965
2.37132	193781
2.37943	179484
2.38757	178395
2.39568	168669
2.40380	167280
2.41193	155737
2.42005	163019
2.42818	163628
2.43630	154215
2.44442	144432
2.45255	140840
2.46067	139407
2.46878	124885
2.47692	125659
2.48503	124102
2.49317	133281
2.50128	145307
2.50940	137690
2.51753	132128
2.52565	125749
2.53378	116683
2.54190	116709
2.55002	133177
2.55815	272975
2.56627	567518
2.57440	526021
2.58252	367742
2.59063	284778
2.59877	246847
2.60688	230260
2.61500	246092
2.62313	263172
2.63125	228073
2.63938	194491
2.64750	182666
2.65562	175523
2.66375	159831
2.67187	146480
2.68000	149687
2.68812	147806
2.69623	138804
2.70437	128683
2.71248	124347
2.72060	126485
2.72873	123517
2.73685	127058
2.74498	117651
2.75310	119185
2.76122	111426
2.76935	115508
2.77747	116272
2.78560	211175
2.79372	328567
2.80183	274388
2.80997	200528
2.81808	183403
2.82622	170434
2.83433	160772
2.84245	145178
2.85058	132113
2.85870	131395
2.86682	128293
2.87495	115205
2.88307	114961
2.89120	111354
2.89932	107120
2.90743	109297
2.91557	99553
2.92368	101569
2.93182	103225
2.93993	99417
2.94805	103704
2.95618	101391
2.96430	100563
2.97243	105230
2.98055	103411
2.98867	103216
2.99680	105423
3.00492	107925
3.01303	112663
3.02117	106760
3.02928	101777
3.03742	93771
3.04553	100546
3.05365	94863
3.06178	104595
3.06990	115920
3.07803	114502
3.08615	146094
3.09427	275480
3.10240	446939
3.11052	642142
3.11863	692893
3.12677	534782
3.13488	390669
3.14302	305373
3.15113	263868
3.15925	231699
3.16738	226609
3.17550	249889
3.18363	324432
3.19175	678785
3.19987	1158514
3.20800	1102689
3.21612	778603
3.22425	595284
3.23237	497205
3.24048	426775
3.24862	368460
3.25673	323518
3.26485	305248
3.27298	274267
3.28110	250166
3.28923	296582
3.29735	654308
3.30547	1767956
3.31360	3469083
3.32172	4447512
3.32985	4240665
3.33797	3573989
3.34608	3002968
3.35422	2567707
3.36233	2252718
3.37047	1991190
3.37858	1775577
3.38670	1613040
3.39483	1492186
3.40295	1340542
3.41107	1242140
3.41920	1161220
3.42732	1084392
3.43545	1009313
3.44357	941099
3.45168	908561
3.45982	831735
3.46793	806442
3.47607	761919
3.48418	734721
3.49230	697402
3.50043	672613
3.50855	624782
3.51667	621484
3.52480	619378
3.53292	645186
3.54105	652288
3.54917	620042
3.55728	567896
3.56542	539895
3.57353	514130
3.58167	492327
3.58978	475405
3.59790	468850
3.60603	450853
3.61415	440775
3.62228	442678
3.63040	437456
3.63852	422384
3.64665	419867
3.65477	419165
3.66288	618295
3.67102	2160341
3.67913	6438437
3.68727	1.009302E+07
3.69538	9055623
3.70350	6101915
3.71163	4274777
3.71975	3392853
3.72788	2863254
3.73600	2521415
3.74412	2191016
3.75225	1976980
3.76037	1778714
3.76848	1653685
3.77662	1529821
3.78473	1417119
3.79287	1343799
3.80098	1282830
3.80910	1208445
3.81723	1160479
3.82535	1109127
3.83348	1031083
3.84160	988443
3.84972	941550
3.85785	886370
3.86597	858099
3.87410	817382
3.88222	782371
3.89033	746688
3.89847	725536
3.90658	694202
3.91470	698091
3.92283	708038
3.93095	758074
3.93908	793479
3.94720	768746
3.95532	813625
3.96345	1039553
3.97157	1340492
3.97970	1343543
3.98782	1100324
3.99593	911736
4.00407	981145
4.01218	1396605
4.02032	1880942
4.02843	1858158
4.03655	1448084
4.04468	1070697
4.05280	853229
4.06092	743764
4.06905	661482
4.07717	598778
4.08530	563775
4.09342	526965
4.10153	512038
4.10967	478308
4.11778	462899
4.12592	500815
4.13403	880811
4.14215	2210269
4.15028	4392423
4.15840	5784710
4.16652	5340460
4.17465	3899532
4.18277	2590650
4.19090	1802303
4.19902	1371028
4.20713	1465276
4.21527	3628246
4.22338	1.013357E+07
4.23152	1.881786E+07
4.23963	2.586404E+07
4.24775	3.057187E+07
4.25588	3.299605E+07
4.26400	3.165451E+07
4.27213	2.257959E+07
4.28025	1.335888E+07
4.28837	9397688
4.29650	7111023
4.30462	5530188
4.31273	4425879
4.32087	3624653
4.32898	3030867
4.33712	2604392
4.34523	2272498
4.35335	1971622
4.36148	1760538
4.36960	1614516
4.37773	1477640
4.38585	1365559
4.39397	1236246
4.40210	1124181
4.41022	1052299
4.41835	985114
4.42647	925153
4.43458	869251
4.44272	813946
4.45083	768755
4.45895	755172
4.46708	762287
4.47520	1139009
4.48333	2269333
4.49145	3817672
4.49957	4510599
4.50770	3799812
4.51582	2769372
4.52395	2117667
4.53207	1781086
4.54018	1589613
4.54832	1420854
4.55643	1343475
4.56455	1244814
4.57268	1155212
4.58080	1100229
4.58893	1059483
4.59705	1018816
4.60517	963976
4.61330	936625
4.62142	919755
4.62955	907722
4.63767	955337
4.64578	1008430
4.65392	1007889
4.66203	971800
4.67017	894501
4.67828	841021
4.68640	807355
4.69453	783024
4.70265	765475
4.71077	731884
4.71890	718500
4.72702	681339
4.73515	680431
4.74327	657066
4.75138	639048
4.75952	638473
4.76763	621625
4.77577	616577
4.78388	587837
4.79200	595040
4.80013	581747
4.80825	577934
4.81637	608970
4.82450	570608
4.83262	573147
4.84075	573450
4.84887	561784
4.85698	558765
4.86512	541874
4.87323	536891
4.88137	531854
4.88948	521490
4.89760	521246
4.90573	501901
4.91385	498270
4.92198	499724
4.93010	502240
4.93822	581448
4.94635	897596
4.95447	1657020
4.96258	2816515
4.97072	3777619
4.97883	3987738
4.98697	3497854
4.99508	2793824
5.00320	2253449
5.01133	1856762
5.01945	1610450
5.02758	1435784
5.03570	1369695
5.04382	1322790
5.05195	1283292
5.06007	1201862
5.06820	1125450
5.07632	1044852
5.08443	985902
5.09257	938094
5.10068	884559
5.10880	856808
5.11693	838174
5.12505	789295
5.13318	774389
5.14130	755610
5.14942	724825
5.15755	730307
5.16567	737900
5.17380	740995
5.18192	733368
5.19003	704451
5.19817	688528
5.20628	679153
5.21442	685728
5.22253	682269
5.23065	675013
5.23878	638890
5.24690	622130
5.25502	605306
5.26315	583057
5.27127	562136
5.27940	541980
5.28752	516590
5.29563	520431
5.30377	507429
5.31188	503957
5.32002	489782
5.32813	482856
5.33625	476825
5.34438	480094
5.35250	482614
5.36062	465920
5.36875	466383
5.37687	453579
5.38500	452276
5.39312	464575
5.40123	454014
5.40937	464169
5.41748	441429
5.42562	434920
5.43373	458093
5.44185	517255
5.44998	681483
5.45810	975061
5.46623	1195570
5.47435	1173709
5.48247	1015300
5.49060	791336
5.49872	638076
5.50683	568476
5.51497	514292
5.52308	486775
5.53122	464697
5.53933	455780
5.54745	448625
5.55558	435426
5.56370	440921
5.57183	471609
5.57995	480339
5.58807	481742
5.59620	465342
5.60432	449279
5.61243	432453
5.62057	407541
5.62868	396683
5.63682	401927
5.64493	390331
5.65305	388635
5.66118	392958
5.66930	401979
5.67743	499671
5.68555	750470
5.69367	1086223
5.70180	1349898
5.70992	1271993
5.71805	1090745
5.72617	839926
5.73428	679611
5.74242	585138
5.75053	533958
5.75865	495305
5.76678	455131
5.77490	442630
5.78303	421379
5.79115	424479
5.79927	452699
5.80740	529300
5.81552	616788
5.82365	672191
5.83177	628501
5.83988	566692
5.84802	507149
5.85613	466457
5.86427	447889
5.87238	423013
5.88050	409290
5.88863	406137
5.89675	382852
5.90487	358320
5.91300	345837
5.92112	332520
5.92925	326862
5.93737	333099
5.94548	314848
5.95362	323072
5.96173	330757
5.96987	344855
5.97798	365323
5.98610	377927
5.99423	402150
6.00235	410205
6.01047	384248
6.01860	356002
6.02672	332082
6.03485	303192
6.04297	297160
6.05108	282029
6.05922	283062
6.06733	271488
6.07547	254670
6.08358	259635
6.09170	252822
6.09983	254017
6.10795	248843
6.11608	257698
6.12420	256427
6.13232	282987
6.14045	329635
6.14857	421082
6.15668	480093
6.16482	502141
6.17293	480666
6.18107	451571
6.18918	399160
6.19730	364476
6.20543	331513
6.21355	314744
6.22168	294977
6.22980	285877
6.23792	291867
6.24605	284806
6.25417	282022
6.26230	284294
6.27042	275903
6.27853	273626
6.28667	278884
6.29478	270386
6.30290	296607
6.31103	324291
6.31915	369210
6.32728	366553
6.33540	336028
6.34352	308124
6.35165	283904
6.35977	275969
6.36790	265534
6.37602	265172
6.38413	257727
6.39227	255745
6.40038	248974
6.40850	259216
6.41663	247028
6.42475	244540
6.43288	245393
6.44100	249102
6.44912	243082
6.45725	243260
6.46537	239357
6.47350	244971
6.48162	246535
6.48973	239220
6.49787	241438
6.50598	235163
6.51412	241289
6.52223	239119
6.53035	239544
6.53848	244139
6.54660	235532
6.55472	231089
6.56285	243601
6.57097	232423
6.57910	255170
6.58722	261818
6.59533	263711
6.60347	259631
6.61158	247496
6.61972	239281
6.62783	237040
6.63595	237684
6.64408	281262
6.65220	417744
6.66032	713050
6.66845	1084693
6.67657	1276640
6.68470	1169732
6.69282	862668
6.70093	611594
6.70907	464924
6.71718	439774
6.72532	431060
6.73343	374667
6.74155	349672
6.74968	332910
6.75780	313784
6.76593	294231
6.77405	273713
6.78217	262779
6.79030	256251
6.79842	262881
6.80653	262535
6.81467	268773
6.82278	284218
6.83092	284805
6.83903	285421
6.84715	279317
6.85528	265920
6.86340	229521
6.87153	212343
6.87965	188678
6.88777	181677
6.89590	163289
6.90402	159278
6.91215	145602
6.92027	148055
6.92838	142122
6.93652	133321
6.94463	132454
6.95275	131695
6.96088	145041
6.96900	158919
6.97713	165121
6.98525	174718
6.99337	170351
7.00150	168309
7.00962	167534
7.01775	150473
7.02587	152785
7.03398	142115
7.04212	141365
7.05023	139396
7.05835	148795
7.06648	147574
7.07460	150480
7.08273	148017
7.09085	147648
7.09897	143692
7.10710	133300
7.11522	134814
7.12335	134507
7.13147	131970
7.13958	133366
7.14772	136602
7.15583	148654
7.16397	165171
7.17208	169955
7.18020	180026
7.18833	177359
7.19645	202144
7.20457	349955
7.21270	904443
7.22082	2062459
7.22895	3642707
7.23707	4623539
7.24518	4286209
7.25332	3092724
7.26143	1871228
7.26957	1086102
7.27768	651930
7.28580	367924
7.29393	233393
7.30205	180995
7.31018	172884
7.31830	166741
7.32642	176343
7.33455	169898
7.34267	170277
7.35078	172275
7.35892	159409
7.36703	158547
7.37517	158685
7.38328	152181
7.39140	150647
7.39953	139581
7.40765	142084
7.41578	141565
7.42390	140832
7.43202	135008
7.44015	133957
7.44827	134020
7.45638	135141
7.46452	132611
7.47263	127640
7.48077	127009
7.48888	130244
7.49700	119715
7.50513	121082
7.51325	118579
7.52138	124067
7.52950	143246
7.53762	171290
7.54575	234924
7.55387	334063
7.56200	427880
7.57012	484753
7.57823	499383
7.58637	454075
7.59448	392075
7.60260	333362
7.61073	280405
7.61885	235382
7.62698	203599
7.63510	177161
7.64322	156198
7.65135	142404
7.65947	135073
7.66760	119525
7.67572	119845
7.68383	117045
7.69197	115971
7.70008	121503
7.70820	125201
7.71633	124218
7.72445	123797
7.73258	113790
7.74070	112460
7.74882	107995
7.75695	111145
7.76507	114919
7.77320	122682
7.78132	120772
7.78943	120339
7.79757	122839
7.80568	126834
7.81382	130252
7.82193	142041
7.83005	188227
7.83818	331305
7.84630	665186
7.85442	1195480
7.86255	1969839
7.87067	3020399
7.87880	4601761
7.88692	6685762
7.89503	8313596
7.90317	8753837
7.91128	7733718
7.91942	5895448
7.92753	4118524
7.93565	2837706
7.94378	2012683
7.95190	1492370
7.96003	1112333
7.96815	866633
7.97627	669083
7.98440	542873
7.99252	463985
8.00063	428156
8.00877	456171
8.01688	533947
8.02502	639188
8.03313	722426
8.04125	752599
8.04938	738580
8.05750	697252
8.06563	662752
8.07375	643316
8.08187	614102
8.09000	571747
8.09812	538933
8.10623	539770
8.11437	493969
8.12248	483257
8.13062	469601
8.13873	454138
8.14685	429445
8.15498	427040
8.16310	407064
8.17123	400464
8.17935	382262
8.18747	371863
8.19560	357097
8.20372	341352
8.21185	336992
8.21997	332761
8.22808	324737
8.23622	313701
8.24433	306438
8.25245	299751
8.26058	303972
8.26870	290192
8.27683	281361
8.28495	269173
8.29307	276178
8.30120	259976
8.30932	264250
8.31745	249373
8.32557	253694
8.33368	247359
8.34182	238372
8.34993	237867
8.35807	227211
8.36618	230137
8.37430	221981
8.38243	214567
8.39055	214919
8.39867	211450
8.40680	202443
8.41492	194849
8.42305	197114
8.43117	201350
8.43928	190195
8.44742	180295
8.45553	187713
8.46367	189428
8.47178	181126
8.47990	180411
8.48803	184156
8.49615	178037
8.50427	198143
8.51240	232793
8.52052	481474
8.52865	1260221
8.53677	2889458
8.54488	5201143
8.55302	7115392
8.56113	7558562
8.56927	5999386
8.57738	3682428
8.58550	1924753
8.59363	1050295
8.60175	725305
8.60988	603848
8.61800	533709
8.62612	504989
8.63425	468555
8.64237	425826
8.65048	397889
8.65862	379786
8.66673	354994
8.67487	346132
8.68298	312465
8.69110	303923
8.69923	294726
8.70735	274325
8.71548	269502
8.72360	260773
8.73172	248155
8.73985	244370
8.74797	245042
8.75610	259769
8.76422	314810
8.77233	463201
8.78047	744130
8.78858	1083935
8.79670	1322479
8.80483	1367983
8.81295	1146904
8.82108	889162
8.82920	657530
8.83732	560618
8.84545	526630
8.85357	515702
8.86170	501205
8.86982	465583
8.87793	466221
8.88607	440010
8.89418	412073
8.90230	387874
8.91043	372295
8.91855	356906
8.92668	347949
8.93480	353143
8.94292	360039
8.95105	359401
8.95917	354035
8.96730	336554
8.97542	320590
8.98353	309869
8.99167	290825
8.99978	289623
9.00792	276937
9.01603	273025
9.02415	257465
9.03228	263151
9.04040	251532
9.04852	247833
9.05665	233853
9.06477	234198
9.07290	229288
9.08102	223038
9.08913	220456
9.09727	223617
9.10538	228470
9.11352	221856
9.12163	230912
9.12975	231786
9.13788	230091
9.14600	239788
9.15412	250270
9.16225	252822
9.17037	257414
9.17850	242777
9.18662	237678
9.19473	222012
9.20287	220080
9.21098	208445
9.21912	202477
9.22723	202585
9.23535	190186
9.24348	183447
9.25160	178147
9.25973	175405
9.26785	168691
9.27597	166426
9.28410	166169
9.29222	165268
9.30033	159252
9.30847	166037
9.31658	150395
9.32472	137517
9.33283	148947
9.34095	148400
9.34908	140605
9.35720	143501
9.36533	143027
9.37345	138178
9.38157	138280
9.38970	139469
9.39782	136958
9.40595	139226
9.41407	137396
9.42218	148607
9.43032	161549
9.43843	181569
9.44655	195068
9.45468	234559
9.46280	233531
9.47093	225934
9.47905	202487
9.48717	183329
9.49530	159122
9.50342	153228
9.51155	146306
9.51967	142825
9.52778	142888
9.53592	145741
9.54403	145717
9.55215	135988
9.56028	127079
9.56840	115101
9.57653	112289
9.58465	103913
9.59277	114220
9.60090	111143
9.60902	109188
9.61715	112100
9.62527	104405
9.63338	100003
9.64152	91855
9.64963	88347
9.65777	89374
9.66588	82921
9.67400	86005
9.68213	82279
9.69025	74940
9.69837	78267
9.70650	72510
9.71462	83513
9.72275	81696
9.73087	84242
9.73898	87877
9.74712	83566
9.75523	86666
9.76337	84242
9.77148	82306
9.77960	75644
9.78773	72116
9.79585	79660
9.80398	74654
9.81210	82218
9.82022	72919
9.82835	77767
9.83647	74216
9.84458	74622
9.85272	78983
9.86083	88931
9.86897	93712
9.87708	89009
9.88520	96189
9.89333	88022
9.90145	87815
9.90958	81332
9.91770	86946
9.92582	85674
9.93395	81311
9.94207	86192
9.95018	91557
9.95832	98678
9.96643	100182
9.97457	107237
9.98268	104020
9.99080	103230
9.99893	102694
10.00705	108907
10.01518	113224
10.02330	116334
10.03142	115246
10.03955	116475
10.04767	116214
10.05580	113862
10.06392	109457
10.07203	101129
10.08017	95308
10.08828	98189
10.09640	100158
10.10453	99863
10.11265	95807
10.12078	92758
10.12890	89196
10.13702	90019
10.14515	85247
10.15327	82965
10.16140	86288
10.16952	81779
10.17763	83695
10.18577	80902
10.19388	82312
10.20200	79489
10.21013	83206
10.21825	80854
10.22638	74164
10.23450	84027
10.24262	85830
10.25075	107262
10.25887	172991
10.26700	447608
10.27512	1276273
10.28323	3011373
10.29137	5776918
10.29948	9028890
10.30762	1.235342E+07
10.31573	1.570416E+07
10.32385	1.975886E+07
10.33198	2.489474E+07
10.34010	3.140685E+07
10.34822	3.715407E+07
10.35635	4.03848E+07
10.36447	3.740712E+07
10.37260	2.681961E+07
10.38072	1.464715E+07
10.38883	7558672
10.39697	4682058
10.40508	3583424
10.41322	2911645
10.42133	2389625
10.42945	1934441
10.43758	1628988
10.44570	1439998
10.45383	1323730
10.46195	1230314
10.47007	1131963
10.47820	1037859
10.48632	959616
10.49443	885634
10.50257	833985
10.51068	760407
10.51882	718160
10.52693	673376
10.53505	635105
10.54318	614163
10.55130	586977
10.55943	560975
10.56755	529082
10.57567	512475
10.58380	503782
10.59192	487125
10.60005	467432
10.60817	442650
10.61628	427246
10.62442	410195
10.63253	389207
10.64065	378204
10.64878	363532
10.65690	353647
10.66503	342698
10.67315	331908
10.68127	322621
10.68940	312652
10.69752	307728
10.70565	293466
10.71377	295781
10.72188	283550
10.73002	293797
10.73813	281598
10.74625	277471
10.75438	272377
10.76250	263063
10.77063	254264
10.77875	248007
10.78687	244368
10.79500	230250
10.80312	230024
10.81125	228671
10.81937	216913
10.82748	214040
10.83562	206816
10.84373	205030
10.85187	196469
10.85998	187214
10.86810	192491
10.87623	192061
10.88435	181140
10.89247	178176
10.90060	178412
10.90872	174791
10.91685	181242
10.92497	181329
10.93308	166331
10.94122	169483
10.94933	163370
10.95747	167639
10.96558	166514
10.97370	168945
10.98183	164281
10.98995	163905
10.99807	155118
11.00620	154404
11.01432	153135
11.02245	152419
11.03057	145841
11.03868	140261
11.04682	144685
11.05493	141148
11.06307	134583
11.07118	137366
11.07930	135937
11.08743	138776
11.09555	141765
11.10368	131157
11.11180	132032
11.11992	126461
11.12805	120175
11.13617	114332
11.14428	106504
11.15242	111528
11.16053	105766
11.16867	109856
11.17678	103802
11.18490	113295
11.19303	115448
11.20115	111552
11.20928	106772
11.21740	106021
11.22552	107626
11.23365	102261
11.24177	95784
11.24990	88631
11.25802	89523
11.26613	82787
11.27427	79475
11.28238	78148
11.29050	77752
11.29863	77567
11.30675	89537
11.31488	102080
11.32300	122339
11.33112	162514
11.33925	214166
11.34737	250094
11.35550	272130
11.36362	255179
11.37173	219739
11.37987	187351
11.38798	155649
11.39610	144811
11.40423	141201
11.41235	145296
11.42048	138110
11.42860	137056
11.43672	121631
11.44485	118961
11.45297	111766
11.46110	109598
11.46922	105331
11.47733	106480
11.48547	114539
11.49358	129112
11.50172	134407
11.50983	147817
11.51795	151814
11.52608	171153
11.53420	201121
11.54232	229469
11.55045	253509
11.55857	249711
11.56670	222546
11.57482	198452
11.58293	165432
11.59107	152584
11.59918	153250
11.60732	166723
11.61543	205340
11.62355	225534
11.63168	220053
11.63980	210498
11.64793	193227
11.65605	173581
11.66417	161344
11.67230	140872
11.68042	134974
11.68853	129465
11.69667	122373
11.70478	110564
11.71292	111661
11.72103	105170
11.72915	98420
11.73728	95244
11.74540	95082
11.75353	91301
11.76165	87767
11.76977	96246
11.77790	87771
11.78602	89948
11.79413	86887
11.80227	79849
11.81038	84987
11.81852	83983
11.82663	81207
11.83475	77974
11.84288	85373
11.85100	83591
11.85913	87238
11.86725	95456
11.87537	91894
11.88350	93273
11.89162	86537
11.89975	85198
11.90787	90961
11.91598	108593
11.92412	129761
11.93223	142206
11.94035	153983
11.94848	158471
11.95660	147539
11.96473	142724
11.97285	143491
11.98097	200253
11.98910	386611
11.99722	756099
12.00535	1325403
12.01347	1899822
12.02158	2383824
12.02972	2855020
12.03783	3417107
12.04595	3418488
12.05408	3411036
12.06220	2698577
12.07033	2173031
12.07845	1661243
12.08657	1274661
12.09470	1113664
12.10282	1040838
12.11095	944757
12.11907	910607
12.12718	858602
12.13532	829423
12.14343	818892
12.15157	763997
12.15968	735317
12.16780	733422
12.17593	664675
12.18405	645425
12.19217	625228
12.20030	609140
12.20842	593107
12.21655	569763
12.22467	574869
12.23278	558991
12.24092	571620
12.24903	538779
12.25717	553690
12.26528	590635
12.27340	585812
12.28153	576177
12.28965	540428
12.29778	511616
12.30590	479711
12.31402	471324
12.32215	444019
12.33027	427816
12.33838	426400
12.34652	425314
12.35463	410287
12.36277	391222
12.37088	385594
12.37900	371301
12.38713	371965
12.39525	354948
12.40338	374848
12.41150	350047
12.41962	380308
12.42775	384902
12.43587	376760
12.44398	373756
12.45212	363788
12.46023	339744
12.46837	348997
12.47648	309746
12.48460	317918
12.49273	298927
12.50085	302311
12.50898	302883
12.51710	304705
12.52522	302533
12.53335	326223
12.54147	307312
12.54960	292916
12.55772	287340
12.56583	277051
12.57397	266165
12.58208	272035
12.59020	258133
12.59833	255002
12.60645	253846
12.61458	256117
12.62270	242179
12.63082	248272
12.63895	232887
12.64707	235466
12.65520	213680
12.66332	219852
12.67143	208124
12.67957	201434
12.68768	167200
12.69582	152908
12.70393	127597
12.71205	122296
12.72018	111528
12.72830	109110
12.73642	111415
12.74455	111227
12.75267	112342
12.76080	109211
12.76892	105193
12.77703	100861
12.78517	100906
12.79328	102121
12.80142	98602
12.80953	94413
12.81765	94703
12.82578	94933
12.83390	91360
12.84202	87394
12.85015	87932
12.85827	88267
12.86640	84579
12.87452	84933
12.88263	76177
12.89077	80956
12.89888	82100
12.90702	80262
12.91513	83385
12.92325	76035
12.93138	82488
12.93950	80650
12.94763	80662
12.95575	79583
12.96387	81589
12.97200	85293
12.98012	87837
12.98823	87542
12.99637	85381
13.00448	86100
13.01262	85228
13.02073	89127
13.02885	81844
13.03698	75589
13.04510	80213
13.05323	78852
13.06135	82376
13.06947	75549
13.07760	77641
13.08572	77393
13.09385	82341
13.10197	88655
13.11008	82401
13.11822	77088
13.12633	77489
13.13445	74682
13.14258	80740
13.15070	74534
13.15883	71909
13.16695	78206
13.17507	72216
13.18320	77731
13.19132	77191
13.19945	83740
13.20757	88012
13.21568	90674
13.22382	90892
13.23193	91099
13.24005	88449
13.24818	78557
13.25630	74285
13.26443	77538
13.27255	76046
13.28067	75451
13.28880	72818
13.29692	74802
13.30505	72576
13.31317	69370
13.32128	66205
13.32942	65986
13.33753	67842
13.34567	66864
13.35378	66919
13.36190	66123
13.37003	67171
13.37815	62779
13.38627	68085
13.39440	64525
13.40252	64638
13.41065	66166
13.41877	65582
13.42688	62362
13.43502	63451
13.44313	63987
13.45127	63398
13.45938	60327
13.46750	62239
13.47563	62588
13.48375	59304
13.49187	62461
13.50000	61640
13.50812	61800
13.51625	64825
13.52437	62241
13.53248	63233
13.54062	62663
13.54873	62193
13.55687	66496
13.56498	60903
13.57310	68400
13.58123	70893
13.58935	68862
13.59748	83458
13.60560	108371
13.61372	130647
13.62185	147666
13.62997	161442
13.63808	175412
13.64622	163082
13.65433	143489
13.66247	127187
13.67058	111726
13.67870	103091
13.68683	93447
13.69495	85708
13.70308	82550
13.71120	82109
13.71932	75041
13.72745	79572
13.73557	85309
13.74370	97720
13.75182	145114
13.75993	238978
13.76807	410426
13.77618	658380
13.78430	1030298
13.79243	1411225
13.80055	1957114
13.80868	2364116
13.81680	2546528
13.82492	2416491
13.83305	2119898
13.84117	1659957
13.84930	1311244
13.85742	1037310
13.86553	913006
13.87367	797209
13.88178	726496
13.88990	670085
13.89803	646395
13.90615	576908
13.91428	548742
13.92240	516021
13.93052	480749
13.93865	461854
13.94677	463427
13.95490	471451
13.96302	491136
13.97113	546703
13.97927	635898
13.98738	788191
13.99552	1011597
14.00363	1170419
14.01175	1350840
14.01988	1437369
14.02800	1403623
14.03612	1137513
14.04425	920156
14.05237	771054
14.06050	672034
14.06862	594469
14.07673	586940
14.08487	535766
14.09298	509111
14.10112	520515
14.10923	468475
14.11735	483053
14.12548	455191
14.13360	481104
14.14173	515947
14.14985	541375
14.15797	569173
14.16610	649239
14.17422	694510
14.18233	745450
14.19047	830534
14.19858	851665
14.20672	814775
14.21483	747240
14.22295	705997
14.23108	637628
14.23920	582943
14.24733	555497
14.25545	518890
14.26357	486671
14.27170	471164
14.27982	428814
14.28793	384881
14.29607	365301
14.30418	341603
14.31232	324616
14.32043	305518
14.32855	305818
14.33668	291259
14.34480	278523
14.35293	263678
14.36105	242603
14.36917	233798
14.37730	223794
14.38542	212716
14.39355	210135
14.40167	205158
14.40978	211959
14.41792	208946
14.42603	215162
14.43415	227351
14.44228	210135
14.45040	193906
14.45853	181005
14.46665	170233
14.47477	147848
14.48290	148348
14.49102	150570
14.49915	139499
14.50727	131294
14.51538	137295
14.52352	152325
14.53163	141868
14.53975	154760
14.54788	170253
14.55600	192099
14.56413	204156
14.57225	206541
14.58037	190863
14.58850	172015
14.59662	156049
14.60475	140852
14.61287	129448
14.62098	122299
14.62912	116149
14.63723	111221
14.64537	107926
14.65348	109012
14.66160	106980
14.66973	106413
14.67785	104669
14.68597	106782
14.69410	108481
14.70222	104940
14.71035	99186
14.71847	100594
14.72658	99762
14.73472	98096
14.74283	99841
14.75097	102153
14.75908	107382
14.76720	108370
14.77533	111161
14.78345	110640
14.79158	106840
14.79970	102876
14.80782	121859
14.81595	164748
14.82407	312632
14.83218	705240
14.84032	1477640
14.84843	2516994
14.85657	3489768
14.86468	3839685
14.87280	3527026
14.88093	2689878
14.88905	1894444
14.89718	1271047
14.90530	907939
14.91342	693078
14.92155	592379
14.92967	534732
14.93780	476527
14.94592	429122
14.95403	397110
14.96217	361146
14.97028	345545
14.97840	331925
14.98653	305582
14.99465	295750
15.00278	286556
15.01090	260088
15.01902	259087
15.02715	247595
15.03527	232791
15.04340	216601
15.05152	217958
15.05963	202644
15.06777	204161
15.07588	200605
15.08400	195901
15.09213	192012
15.10025	198526
15.10838	198182
15.11650	186358
15.12462	176800
15.13275	172069
15.14087	171793
15.14900	172363
15.15712	185742
15.16523	195141
15.17337	203516
15.18148	196908
15.18962	178921
15.19773	159726
15.20585	140588
15.21398	125907
15.22210	120573
15.23022	106387
15.23835	100316
15.24647	106180
15.25460	95563
15.26272	95301
15.27083	88557
15.27897	92119
15.28708	84752
15.29522	89036
15.30333	82083
15.31145	82578
15.31958	80323
15.32770	82142
15.33582	87781
15.34395	83382
15.35207	80010
15.36020	82704
15.36832	83934
15.37643	81749
15.38457	80099
15.39268	81068
15.40082	79243
15.40893	81261
15.41705	75404
15.42518	75014
15.43330	82964
15.44143	81895
15.44955	81546
15.45767	75311
15.46580	74166
15.47392	78595
15.48203	81777
15.49017	84311
15.49828	87057
15.50642	95083
15.51453	98326
15.52265	101082
15.53078	102851
15.53890	97379
15.54703	100403
15.55515	99658
15.56327	100583
15.57140	91200
15.57952	87444
15.58765	80503
15.59577	78863
15.60388	75345
15.61202	72486
15.62013	73117
15.62825	69226
15.63638	68983
15.64450	70699
15.65263	68846
15.66075	73836
15.66887	69463
15.67700	71970
15.68512	70062
15.69325	62810
15.70137	67515
15.70948	64591
15.71762	68780
15.72573	67921
15.73385	66451
15.74198	68965
15.75010	63842
15.75823	67925
15.76635	81146
15.77447	88835
15.78260	134240
15.79072	237857
15.79885	451762
15.80697	725952
15.81508	967160
15.82322	1065065
15.83133	966746
15.83947	810082
15.84758	595666
15.85570	439171
15.86383	342283
15.87195	285451
15.88007	244751
15.88820	226320
15.89632	211461
15.90445	197642
15.91257	179744
15.92068	167950
15.92882	164767
15.93693	158422
15.94507	152927
15.95318	146123
15.96130	152679
15.96943	142120
15.97755	139880
15.98568	144210
15.99380	153425
16.00192	192213
16.01005	223501
16.01817	267237
16.02628	288902
16.03442	291568
16.04253	283671
16.05067	260231
16.05878	219893
16.06690	200487
16.07503	186467
16.08315	161906
16.09128	150241
16.09940	152458
16.10752	141955
16.11565	138075
16.12377	153621
16.13188	173650
16.14002	201230
16.14813	239037
16.15627	269093
16.16438	251034
16.17250	223734
16.18063	186865
16.18875	160998
16.19688	141947
16.20500	133975
16.21312	121799
16.22125	118257
16.22937	120953
16.23750	117567
16.24562	112716
16.25373	114776
16.26187	112126
16.26998	110345
16.27810	105957
16.28623	101926
16.29435	100065
16.30248	94960
16.31060	103349
16.31872	94053
16.32685	98130
16.33497	92752
16.34310	91270
16.35122	87448
16.35933	81343
16.36747	85563
16.37558	87776
16.38370	90447
16.39183	93831
16.39995	111597
16.40808	138371
16.41620	178490
16.42432	238937
16.43245	283473
16.44057	327949
16.44870	337786
16.45682	301003
16.46493	250690
16.47307	220961
16.48118	214141
16.48932	260237
16.49743	400620
16.50555	577395
16.51368	757992
16.52180	842893
16.52992	768805
16.53805	608106
16.54617	446968
16.55430	351687
16.56242	266896
16.57053	234961
16.57867	207173
16.58678	180266
16.59492	168089
16.60303	160942
16.61115	158306
16.61928	150786
16.62740	152671
16.63553	137624
16.64365	138092
16.65177	134140
16.65990	131899
16.66802	136368
16.67613	122391
16.68427	124783
16.69238	117448
16.70052	117598
16.70863	112596
16.71675	107415
16.72488	105031
16.73300	91670
16.74113	92974
16.74925	85859
16.75737	88245
16.76550	83926
16.77362	84204
16.78173	85147
16.78987	89724
16.79798	85642
16.80612	88666
16.81423	87335
16.82235	87339
16.83048	83111
16.83860	79655
16.84673	77279
16.85485	80635
16.86297	71889
16.87110	76871
16.87922	76769
16.88735	76979
16.89547	81040
16.90358	80733
16.91172	79337
16.91983	73084
16.92795	74321
16.93608	71046
16.94420	71983
16.95233	75168
16.96045	71725
16.96857	71013
16.97670	72369
16.98482	71260
16.99295	71460
17.00107	72956
17.00918	68235
17.01732	69566
17.02543	65305
17.03357	71759
17.04168	71748
17.04980	74468
17.05793	77757
17.06605	74415
17.07417	78244
17.08230	81387
17.09042	84197
17.09855	90433
17.10667	85453
17.11478	83572
17.12292	87503
17.13103	84212
17.13917	89201
17.14728	88600
17.15540	93738
17.16353	88611
17.17165	93647
17.17977	86419
17.18790	83286
17.19602	74862
17.20415	83471
17.21227	74848
17.22038	67039
17.22852	76754
17.23663	69721
17.24477	72287
17.25288	69853
17.26100	69666
17.26913	66778
17.27725	67794
17.28538	62866
17.29350	68269
17.30162	70131
17.30975	67705
17.31787	71614
17.32598	71470
17.33412	71832
17.34223	76872
17.35037	78628
17.35848	83430
17.36660	96868
17.37473	115277
17.38285	131598
17.39098	134403
17.39910	129655
17.40722	136496
17.41535	488978
17.42347	4.71587E+07
17.43160	5.191222E+07
17.43972	5.116774E+07
17.44783	5.050788E+07
17.45597	5.01013E+07
17.46408	4.975833E+07
17.47220	4.882803E+07
17.48033	4.818822E+07
17.48845	4.750009E+07
17.49658	4.745827E+07
17.50470	4.68052E+07
17.51282	4.646189E+07
17.52095	4.56553E+07
17.52907	4.486538E+07
17.53720	4.427958E+07
17.54532	4.355495E+07
17.55343	4.310074E+07
17.56157	4.21933E+07
17.56968	4.154721E+07
17.57780	4.059592E+07
17.58593	3.972744E+07
17.59405	3.883985E+07
17.60218	3.850429E+07
17.61030	3.736185E+07
17.61842	3.633983E+07
17.62655	3.622397E+07
17.63467	3.588524E+07
17.64280	3.510166E+07
17.65092	3.41042E+07
17.65903	3.238405E+07
17.66717	3.086777E+07
17.67528	2.96205E+07
17.68342	2.787949E+07
17.69153	2.654187E+07
17.69965	2.499962E+07
17.70778	2.368707E+07
17.71590	2.256184E+07
17.72402	2.125563E+07
17.73215	1.989122E+07
17.74027	1.896392E+07
17.74840	1.809376E+07
17.75652	1.676099E+07
17.76463	1.558568E+07
17.77277	1.443423E+07
17.78088	1.377527E+07
17.78902	1.277665E+07
17.79713	1.192881E+07
17.80525	1.125781E+07
17.81338	1.061146E+07
17.82150	1.009438E+07
17.82962	9457531
17.83775	8983272
17.84587	8557647
17.85400	8107188
17.86212	7559926
17.87023	7274908
17.87837	6922911
17.88648	6624277
17.89462	6249342
17.90273	5977372
17.91085	5723525
17.91898	5488178
17.92710	5192332
17.93523	5010499
17.94335	4820423
17.95147	4575317
17.95960	4447698
17.96772	4328256
17.97583	4219120
17.98397	4075624
17.99208	3857822
18.00022	3710982
18.00833	3607890
18.01645	3499384
18.02458	3413080
18.03270	3359207
18.04083	3237717
18.04895	3179700
18.05707	3107308
18.06520	2998352
18.07332	2914526
18.08145	2762496
18.08957	2694946
18.09768	2571022
18.10582	2546653
18.11393	2560924
18.12205	2483107
18.13018	2391822
18.13830	2296901
18.14643	2248591
18.15455	2161515
18.16267	2151786
18.17080	2117550
18.17892	2032517
18.18705	1911249
18.19517	1844374
18.20328	1843390
18.21142	1779202
18.21953	1739396
18.22765	1665043
18.23578	1616506
18.24390	1568975
18.25203	1532363
18.26015	1466407
18.26827	1460522
18.27640	1428767
18.28452	1420996
18.29265	1351693
18.30077	1312481
18.30888	1254778
18.31702	1236833
18.32513	1196533
18.33327	1184968
18.34138	1135177
18.34950	1116341
18.35763	1106574
18.36575	1075157
18.37387	1042102
18.38200	1013996
18.39012	999520
18.39825	993748
18.40637	968198
18.41448	943165
18.42262	896786
18.43073	918135
18.43887	894804
18.44698	905156
18.45510	927285
18.46323	1011436
18.47135	1152636
18.47948	1363329
18.48760	1608123
18.49572	1771119
18.50385	1802059
18.51197	1620563
18.52008	1410986
18.52822	1222363
18.53633	1058133
18.54447	956619
18.55258	897133
18.56070	839435
18.56883	798351
18.57695	766477
18.58508	745972
18.59320	740828
18.60132	707842
18.60945	703511
18.61757	684167
18.62568	691939
18.63382	671116
18.64193	647985
18.65007	644478
18.65818	622475
18.66630	627477
18.67443	608980
18.68255	600874
18.69068	590067
18.69880	572428
18.70692	563041
18.71505	565573
18.72317	549881
18.73130	541813
18.73942	534457
18.74753	528275
18.75567	518101
18.76378	517339
18.77190	516813
18.78003	487495
18.78815	511616
18.79628	484262
18.80440	488964
18.81252	490821
18.82065	481623
18.82877	458916
18.83690	470089
18.84502	466366
18.85313	458517
18.86127	445151
18.86938	450276
18.87750	443606
18.88563	435638
18.89375	433790
18.90188	425744
18.91000	419821
18.91812	422328
18.92625	429485
18.93437	434408
18.94250	437286
18.95062	456702
18.95873	471444
18.96687	499596
18.97498	510852
18.98312	503255
18.99123	483259
18.99935	467109
19.00748	452433
19.01560	438524
19.02372	420938
19.03185	421999
19.03997	407992
19.04810	404390
19.05622	396842
19.06433	398563
19.07247	401515
19.08058	403866
19.08872	410617
19.09683	449760
19.10495	488206
19.11308	518213
19.12120	523048
19.12933	512184
19.13745	496813
19.14557	450459
19.15370	437623
19.16182	430849
19.16993	412478
19.17807	397636
19.18618	383723
19.19432	382074
19.20243	380917
19.21055	358187
19.21868	358328
19.22680	355772
19.23493	345869
19.24305	342827
19.25117	336981
19.25930	333159
19.26742	339790
19.27555	334126
19.28367	328059
19.29178	325102
19.29992	333334
19.30803	329438
19.31615	330675
19.32428	337018
19.33240	328526
19.34053	316422
19.34865	316716
19.35677	308495
19.36490	306757
19.37302	317339
19.38115	309632
19.38927	310830
19.39738	306851
19.40552	300834
19.41363	304050
19.42175	301068
19.42988	291692
19.43800	297690
19.44613	284963
19.45425	284679
19.46237	293497
19.47050	296617
19.47862	286334
19.48675	296736
19.49487	304805
19.50298	347996
19.51112	397612
19.51923	457240
19.52737	463148
19.53548	467405
19.54360	418000
19.55173	367040
19.55985	324940
19.56797	284212
19.57610	284201
19.58422	274856
19.59235	260056
19.60047	266998
19.60858	256691
19.61672	249889
19.62483	250271
19.63297	265216
19.64108	294525
19.64920	339430
19.65733	434343
19.66545	541913
19.67357	684361
19.68170	776312
19.68982	809161
19.69795	781610
19.70607	700731
19.71418	624394
19.72232	541767
19.73043	499976
19.73857	440352
19.74668	401669
19.75480	361926
19.76293	348100
19.77105	320409
19.77918	313501
19.78730	299211
19.79542	292152
19.80355	289965
19.81167	290460
19.81978	293575
19.82792	277671
19.83603	280011
19.84417	268180
19.85228	261167
19.86040	255724
19.86853	254985
19.87665	276317
19.88478	296774
19.89290	347698
19.90102	400342
19.90915	444514
19.91727	466984
19.92540	468577
19.93352	457621
19.94163	426697
19.94977	398736
19.95788	379158
19.96600	359445
19.97413	353509
19.98225	342130
19.99038	333917
19.99850	332555
20.00662	328087
20.01475	325521
20.02287	325068
20.03100	335935
20.03912	317454
20.04723	308976
20.05537	287441
20.06348	273884
20.07160	268203
20.07973	259069
20.08785	248121
20.09598	250359
20.10410	251916
20.11222	247315
20.12035	240027
20.12847	236881
20.13660	238222
20.14472	226685
20.15283	231390
20.16097	231401
20.16908	233224
20.17722	261736
20.18533	277626
20.19345	288200
20.20158	295198
20.20970	314172
20.21782	307901
20.22595	300323
20.23407	286946
20.24220	279957
20.25032	288254
20.25843	325183
20.26657	377138
20.27468	459796
20.28282	547542
20.29093	620846
20.29905	647925
20.30718	610017
20.31530	543389
20.32343	481457
20.33155	408986
20.33967	358258
20.34780	317125
20.35592	288759
20.36403	270953
20.37217	251106
20.38028	247537
20.38842	244877
20.39653	266812
20.40465	278707
20.41278	296929
20.42090	322669
20.42903	324167
20.43715	323134
20.44527	323561
20.45340	314992
20.46152	327590
20.46963	312594
20.47777	301477
20.48588	278053
20.49402	261764
20.50213	251119
20.51025	241048
20.51838	228399
20.52650	219452
20.53463	222938
20.54275	211147
20.55087	205962
20.55900	203240
20.56712	209469
20.57525	203612
20.58337	199919
20.59148	205236
20.59962	194495
20.60773	196170
20.61585	190635
20.62398	196549
20.63210	194463
20.64023	189618
20.64835	187395
20.65647	195114
20.66460	190505
20.67272	198393
20.68085	195999
20.68897	192749
20.69708	192292
20.70522	192163
20.71333	189290
20.72145	193219
20.72958	192110
20.73770	192317
20.74583	189555
20.75395	193703
20.76207	183062
20.77020	191558
20.77832	196985
20.78645	203198
20.79457	207466
20.80268	224608
20.81082	269091
20.81893	313294
20.82707	322918
20.83518	337645
20.84330	302705
20.85143	285947
20.85955	253096
20.86767	233680
20.87580	219015
20.88392	210943
20.89205	203215
20.90017	201710
20.90828	187951
20.91642	197468
20.92453	190369
20.93267	183795
20.94078	187194
20.94890	185589
20.95703	190900
20.96515	194763
20.97328	190994
20.98140	187527
20.98952	190518
20.99765	185579
21.00577	188165
21.01388	183178
21.02202	177480
21.03013	184820
21.03827	181606
21.04638	180387
21.05450	176982
21.06263	172064
21.07075	173098
21.07888	174198
21.08700	173880
21.09512	178129
21.10325	182932
21.11137	175127
21.11948	176655
21.12762	174272
21.13573	185945
21.14387	196662
21.15198	215663
21.16010	236468
21.16823	265800
21.17635	266970
21.18448	261129
21.19260	249248
21.20072	245980
21.20885	219037
21.21697	213156
21.22510	213738
21.23322	194896
21.24133	186605
21.24947	189253
21.25758	185154
21.26570	188759
21.27383	181388
21.28195	182613
21.29008	175155
21.29820	177285
21.30632	170497
21.31445	176090
21.32257	168875
21.33070	168409
21.33882	173294
21.34693	169618
21.35507	168841
21.36318	167903
21.37132	171831
21.37943	170408
21.38755	164146
21.39568	163730
21.40380	167740
21.41192	165264
21.42005	168483
21.42817	162666
21.43630	165370
21.44442	172000
21.45253	165852
21.46067	162451
21.46878	151966
21.47692	157465
21.48503	154949
21.49315	150731
21.50128	157709
21.50940	155238
21.51752	149025
21.52565	151346
21.53377	146328
21.54190	139880
21.55002	147355
21.55813	142875
21.56627	145397
21.57438	141243
21.58252	129854
21.59063	145222
21.59875	144803
21.60688	145699
21.61500	146295
21.62313	153027
21.63125	171838
21.63937	195112
21.64750	205551
21.65562	213122
21.66373	214335
21.67187	211400
21.67998	203675
21.68812	180868
21.69623	176304
21.70435	169824
21.71248	161091
21.72060	157611
21.72873	152877
21.73685	146066
21.74497	147167
21.75310	147462
21.76122	147925
21.76935	145979
21.77747	143409
21.78558	144775
21.79372	149713
21.80183	149344
21.80995	151569
21.81808	155247
21.82620	167862
21.83433	182639
21.84245	192313
21.85057	202816
21.85870	201929
21.86682	192517
21.87495	178851
21.88307	167618
21.89118	156156
21.89932	140448
21.90743	138032
21.91555	135404
21.92368	126474
21.93180	125966
21.93993	124937
21.94805	123330
21.95617	115901
21.96430	118317
21.97242	111634
21.98055	109015
21.98867	110197
21.99678	104955
22.00492	111114
22.01303	106578
22.02117	108419
22.02928	113211
22.03740	115846
22.04553	113023
22.05365	124063
22.06177	136840
22.06990	141218
22.07802	159887
22.08615	162038
22.09427	174080
22.10238	178598
22.11052	186691
22.11863	182381
22.12677	187904
22.13488	190529
22.14300	191314
22.15113	195026
22.15925	189427
22.16737	204034
22.17550	213097
22.18362	216796
22.19175	221175
22.19987	225160
22.20798	211087
22.21612	207519
22.22423	194999
22.23237	200558
22.24048	192105
22.24860	192781
22.25673	181744
22.26485	186126
22.27298	178976
22.28110	184119
22.28922	173457
22.29735	171616
22.30547	173954
22.31358	170941
22.32172	175820
22.32983	172971
22.33797	175336
22.34608	176098
22.35420	158683
22.36233	169407
22.37045	171037
22.37858	168524
22.38670	169812
22.39482	169839
22.40295	168497
22.41107	175654
22.41920	193966
22.42732	197256
22.43543	207885
22.44357	200765
22.45168	186334
22.45980	170869
22.46793	158302
22.47605	146909
22.48418	136572
22.49230	136876
22.50042	133400
22.50855	132827
22.51667	126255
22.52480	122629
22.53292	125760
22.54103	121368
22.54917	122340
22.55728	115282
22.56540	115510
22.57353	109882
22.58165	108029
22.58978	105197
22.59790	102720
22.60602	103286
22.61415	102104
22.62227	100818
22.63040	96407
22.63852	98532
22.64663	99596
22.65477	109792
22.66288	104642
22.67102	108544
22.67913	106519
22.68725	105264
22.69538	110380
22.70350	109653
22.71162	108585
22.71975	113260
22.72787	119551
22.73600	128785
22.74412	134158
22.75223	142832
22.76037	147437
22.76848	157293
22.77662	162508
22.78473	172059
22.79285	169081
22.80098	176019
22.80910	175639
22.81723	178979
22.82535	180384
22.83347	192831
22.84160	186203
22.84972	180921
22.85783	184064
22.86597	184136
22.87408	188786
22.88222	188669
22.89033	189911
22.89845	196775
22.90658	216807
22.91470	242425
22.92283	266244
22.93095	295363
22.93907	315834
22.94720	316883
22.95532	295061
22.96343	288639
22.97157	267522
22.97968	261082
22.98782	233577
22.99593	225621
23.00405	215275
23.01218	214267
23.02030	212341
23.02843	210147
23.03655	203920
23.04467	184794
23.05280	191320
23.06092	178957
23.06905	179484
23.07717	179983
23.08528	171629
23.09342	182246
23.10153	166811
23.10965	170868
23.11778	172932
23.12590	165706
23.13403	180180
23.14215	166813
23.15027	172205
23.15840	172874
23.16652	171416
23.17465	171258
23.18277	158913
23.19088	167381
23.19902	161363
23.20713	158719
23.21525	159118
23.22338	151749
23.23150	152447
23.23963	157802
23.24775	157240
23.25587	148319
23.26400	156782
23.27212	159354
23.28025	157964
23.28837	157508
23.29648	153965
23.30462	150933
23.31273	151455
23.32087	152704
23.32898	145008
23.33710	152976
23.34523	157701
23.35335	160451
23.36147	162168
23.36960	179879
23.37772	182053
23.38585	177495
23.39397	183407
23.40208	173753
23.41022	177184
23.41833	164323
23.42647	168392
23.43458	159491
23.44270	157968
23.45083	160855
23.45895	156171
23.46708	147142
23.47520	151536
23.48332	150254
23.49145	146546
23.49957	147136
23.50768	145440
23.51582	144356
23.52393	143702
23.53207	139481
23.54018	139725
23.54830	138464
23.55643	148614
23.56455	146159
23.57268	145169
23.58080	154750
23.58892	155391
23.59705	163325
23.60517	161899
23.61328	171076
23.62142	168525
23.62953	166080
23.63767	152760
23.64578	154095
23.65390	147008
23.66203	146000
23.67015	142735
23.67828	140018
23.68640	143518
23.69452	132998
23.70265	133559
23.71077	139246
23.71890	133524
23.72702	136742
23.73513	134194
23.74327	139940
23.75138	190794
23.75950	326271
23.76763	610872
23.77575	1177949
23.78388	1994430
23.79200	2918931
23.80012	3571631
23.80825	3506689
23.81637	3134917
23.82450	2488082
23.83262	1905953
23.84073	1436473
23.84887	1075894
23.85698	871096
23.86512	696877
23.87323	573791
23.88135	511536
23.88948	467193
23.89760	404548
23.90572	373162
23.91385	352517
23.92197	342983
23.93010	326333
23.93822	310773
23.94633	287816
23.95447	285440
23.96258	270173
23.97072	253704
23.97883	239910
23.98695	233962
23.99508	239555
24.00320	299623
24.01132	499210
24.01945	876103
24.02757	1512046
24.03570	2182945
24.04382	2577868
24.05193	2518816
24.06007	2064797
24.06818	1414757
24.07632	902130
24.08443	553035
24.09255	364959
24.10068	267156
24.10880	222306
24.11693	203881
24.12505	189247
24.13317	189057
24.14130	199506
24.14942	205591
24.15753	209157
24.16567	206815
24.17378	204141
24.18192	190438
24.19003	186621
24.19815	173356
24.20628	170573
24.21440	182574
24.22253	163245
24.23065	170408
24.23877	162111
24.24690	156883
24.25502	146738
24.26313	145058
24.27127	136502
24.27938	133523
24.28752	133018
24.29563	128733
24.30375	135728
24.31188	126249
24.32000	128359
24.32813	127551
24.33625	127660
24.34437	127262
24.35250	127653
24.36062	127468
24.36875	142586
24.37687	177141
24.38498	213858
24.39312	256833
24.40123	284130
24.40935	322746
24.41748	351689
24.42560	342077
24.43373	332991
24.44185	314987
24.44997	303123
24.45810	296566
24.46622	294355
24.47435	299044
24.48247	297985
24.49058	299573
24.49872	304548
24.50683	316954
24.51497	323302
24.52308	338993
24.53120	338998
24.53933	338476
24.54745	340524
24.55557	329215
24.56370	324772
24.57182	320260
24.57995	309413
24.58807	307234
24.59618	299575
24.60432	300215
24.61243	303692
24.62057	295302
24.62868	300325
24.63680	301209
24.64493	294101
24.65305	296132
24.66118	299480
24.66930	304542
24.67742	291172
24.68555	289985
24.69367	293586
24.70178	281931
24.70992	284915
24.71803	284163
24.72617	260197
24.73428	275078
24.74240	262185
24.75053	264352
24.75865	268309
24.76678	267250
24.77490	277345
24.78302	271111
24.79115	276553
24.79927	280986
24.80738	275836
24.81552	273633
24.82363	274896
24.83177	278559
24.83988	282976
24.84800	288926
24.85613	322271
24.86425	363259
24.87238	403489
24.88050	486981
24.88862	564067
24.89675	623569
24.90487	645673
24.91300	638131
24.92112	560960
24.92923	473020
24.93737	400961
24.94548	338163
24.95360	297098
24.96173	284251
24.96985	265961
24.97798	259143
24.98610	251359
24.99422	250753
25.00235	250597
25.01047	243135
25.01860	247555
25.02672	249541
25.03483	238248
25.04297	239472
25.05108	236289
25.05920	238337
25.06733	235129
25.07545	233127
25.08358	237215
25.09170	237213
25.09982	238606
25.10795	282020
25.11607	368589
25.12420	558814
25.13232	882758
25.14043	1295569
25.14857	1694672
25.15668	1920952
25.16482	1925386
25.17293	1726553
25.18105	1349017
25.18918	1012144
25.19730	716643
25.20542	529189
25.21355	416734
25.22167	353036
25.22980	314936
25.23792	311893
25.24603	372903
25.25417	487613
25.26228	679174
25.27042	902445
25.27853	1081765
25.28665	1131800
25.29478	1045388
25.30290	856316
25.31103	615243
25.31915	430649
25.32727	305025
25.33540	226815
25.34352	188657
25.35163	173655
25.35977	157463
25.36788	144323
25.37602	143817
25.38413	137994
25.39225	126232
25.40038	133253
25.40850	122890
25.41663	119938
25.42475	120052
25.43287	121232
25.44100	122158
25.44912	118225
25.45723	117363
25.46537	123586
25.47348	127576
25.48162	121357
25.48973	122431
25.49785	124572
25.50598	117692
25.51410	118865
25.52223	113776
25.53035	115209
25.53847	110052
25.54660	103981
25.55472	103732
25.56285	99078
25.57097	100434
25.57908	102345
25.58722	99856
25.59533	100276
25.60345	103540
25.61158	109317
25.61970	116322
25.62783	139425
25.63595	158599
25.64407	192779
25.65220	204184
25.66032	209171
25.66845	211445
25.67657	178686
25.68468	159290
25.69282	132562
25.70093	125276
25.70907	122824
25.71718	145404
25.72530	163874
25.73343	179614
25.74155	199789
25.74967	218668
25.75780	225899
25.76592	247788
25.77405	279850
25.78217	310890
25.79028	356685
25.79842	373682
25.80653	362598
25.81467	331134
25.82278	298529
25.83090	274712
25.83903	262325
25.84715	257993
25.85527	257436
25.86340	251030
25.87152	253310
25.87965	244273
25.88777	249158
25.89588	243064
25.90402	240561
25.91213	244036
25.92027	231894
25.92838	238486
25.93650	241720
25.94463	243197
25.95275	252836
25.96088	254436
25.96900	250761
25.97712	248800
25.98525	238393
25.99337	232784
26.00148	228327
26.00962	229026
26.01773	221719
26.02587	216457
26.03398	217409
26.04210	220743
26.05023	217598
26.05835	220140
26.06648	210702
26.07460	214829
26.08272	206470
26.09085	212550
26.09897	222133
26.10708	209246
26.11522	210522
26.12333	209458
26.13147	205111
26.13958	200622
26.14770	208428
26.15583	206215
26.16395	197152
26.17208	200192
26.18020	190437
26.18832	201908
26.19645	191446
26.20457	193011
26.21270	194183
26.22082	193804
26.22893	190232
26.23707	180135
26.24518	184898
26.25330	191609
26.26143	189295
26.26955	204780
26.27768	201513
26.28580	219097
26.29392	233429
26.30205	239801
26.31017	234494
26.31830	234273
26.32642	217992
26.33453	199627
26.34267	191853
26.35078	176269
26.35892	174781
26.36703	174603
26.37515	175519
26.38328	176793
26.39140	176233
26.39952	189265
26.40765	190224
26.41577	182382
26.42390	187224
26.43202	184235
26.44013	179586
26.44827	180648
26.45638	180592
26.46452	168644
26.47263	176712
26.48075	170679
26.48888	166195
26.49700	159744
26.50512	160935
26.51325	152724
26.52137	148369
26.52950	157638
26.53762	141851
26.54573	151426
26.55387	148284
26.56198	149091
26.57012	144423
26.57823	146179
26.58635	141177
26.59448	141103
26.60260	135637
26.61073	138335
26.61885	137695
26.62697	137898
26.63510	137783
26.64322	139819
26.65133	137314
26.65947	136184
26.66758	138048
26.67572	139122
26.68383	141105
26.69195	137877
26.70008	128444
26.70820	131750
26.71633	127956
26.72445	130833
26.73257	129074
26.74070	131702
26.74882	120172
26.75695	129497
26.76507	126591
26.77318	122631
26.78132	126233
26.78943	129635
26.79755	128023
26.80568	132343
26.81380	132242
26.82193	128522
26.83005	133175
26.83817	128638
26.84630	123856
26.85442	118837
26.86255	120238
26.87067	118151
26.87878	122135
26.88692	121168
26.89503	117632
26.90315	109267
26.91128	120659
26.91940	115745
26.92753	112116
26.93565	113042
26.94377	122900
26.95190	121256
26.96002	131983
26.96815	142303
26.97627	171072
26.98438	228390
26.99252	315243
27.00063	457110
27.00877	642579
27.01688	890500
27.02500	1082475
27.03313	1247092
27.04125	1234330
27.04937	1124045
27.05750	952021
27.06562	776528
27.07375	631524
27.08187	510862
27.08998	425757
27.09812	372904
27.10623	331271
27.11437	293561
27.12248	274780
27.13060	248275
27.13873	234739
27.14685	228098
27.15498	216385
27.16310	225354
27.17122	233809
27.17935	233814
27.18747	249650
27.19558	269059
27.20372	265645
27.21183	250612
27.21997	229201
27.22808	213870
27.23620	198604
27.24433	186891
27.25245	180753
27.26058	173630
27.26870	157543
27.27682	154850
27.28495	148360
27.29307	144105
27.30118	143557
27.30932	140322
27.31743	133781
27.32557	138348
27.33368	134838
27.34180	128245
27.34993	129625
27.35805	139556
27.36618	134759
27.37430	146735
27.38242	133792
27.39055	137743
27.39867	127579
27.40680	130523
27.41492	127145
27.42303	120855
27.43117	112697
27.43928	119581
27.44740	116541
27.45553	115634
27.46365	118698
27.47178	113680
27.47990	104408
27.48802	103766
27.49615	106503
27.50427	107420
27.51240	103105
27.52052	109816
27.52863	107707
27.53677	106271
27.54488	103144
27.55300	110795
27.56113	112341
27.56925	108161
27.57738	107070
27.58550	119917
27.59362	118037
27.60175	118619
27.60987	125805
27.61800	124327
27.62612	122186
27.63423	116624
27.64237	106069
27.65048	108356
27.65862	113054
27.66673	108502
27.67485	97436
27.68298	101106
27.69110	96323
27.69922	95657
27.70735	96050
27.71547	93413
27.72360	90711
27.73172	92494
27.73983	89787
27.74797	93842
27.75608	94273
27.76422	110767
27.77233	122533
27.78045	144612
27.78858	165881
27.79670	172594
27.80483	164531
27.81295	165058
27.82107	143436
27.82920	120052
27.83732	115294
27.84543	107942
27.85357	93638
27.86168	100906
27.86982	95044
27.87793	93007
27.88605	88026
27.89418	93317
27.90230	89828
27.91043	93395
27.91855	85676
27.92667	87157
27.93480	85992
27.94292	85021
27.95103	80590
27.95917	85164
27.96728	82614
27.97542	83002
27.98353	89533
27.99165	86934
27.99978	86280
28.00790	89384
28.01603	88022
28.02415	92476
28.03227	87198
28.04040	84981
28.04852	84158
28.05665	83836
28.06477	85287
28.07288	88073
28.08102	82222
28.08913	82738
28.09725	81458
28.10538	87965
28.11350	84333
28.12163	81087
28.12975	78548
28.13787	83199
28.14600	77908
28.15412	79793
28.16225	79160
28.17037	75121
28.17848	76575
28.18662	86827
28.19473	89052
28.20287	98673
28.21098	109063
28.21910	117091
28.22723	118613
28.23535	120098
28.24347	119023
28.25160	113028
28.25972	112095
28.26785	107480
28.27597	99146
28.28408	98010
28.29222	92445
28.30033	95809
28.30847	93899
28.31658	97113
28.32470	108236
28.33283	116581
28.34095	127873
28.34907	128834
28.35720	147874
28.36532	157614
28.37345	172157
28.38157	176757
28.38968	184873
28.39782	186385
28.40593	188606
28.41407	192028
28.42218	179312
28.43030	171206
28.43843	171955
28.44655	161604
28.45468	157912
28.46280	149212
28.47092	141952
28.47905	135970
28.48717	139015
28.49528	149282
28.50342	145943
28.51153	147892
28.51967	151720
28.52778	145313
28.53590	142662
28.54403	134091
28.55215	119728
28.56028	116338
28.56840	112034
28.57652	110370
28.58465	112754
28.59277	107275
28.60088	108828
28.60902	107001
28.61713	110869
28.62527	110364
28.63338	111062
28.64150	107006
28.64963	109276
28.65775	109978
28.66588	111110
28.67400	112073
28.68212	111529
28.69025	103853
28.69837	105030
28.70650	99043
28.71462	103883
28.72273	97619
28.73087	97546
28.73898	99848
28.74710	101213
28.75523	99361
28.76335	101905
28.77148	115085
28.77960	127620
28.78772	124474
28.79585	125035
28.80397	120656
28.81210	114815
28.82022	110922
28.82833	112025
28.83647	99684
28.84458	97009
28.85272	96873
28.86083	96970
28.86895	91946
28.87708	96213
28.88520	98516
28.89332	97118
28.90145	93675
28.90957	92863
28.91770	96485
28.92582	102927
28.93393	97580
28.94207	102282
28.95018	100444
28.95832	98831
28.96643	103502
28.97455	104252
28.98268	101418
28.99080	95905
28.99892	90841
29.00705	90206
29.01517	91604
29.02330	89626
29.03142	85431
29.03953	83885
29.04767	89386
29.05578	92517
29.06392	101599
29.07203	110593
29.08015	108344
29.08828	114502
29.09640	109703
29.10453	107336
29.11265	101859
29.12077	100706
29.12890	93477
29.13702	86894
29.14513	88753
29.15327	86146
29.16138	80261
29.16952	86378
29.17763	81584
29.18575	87517
29.19388	85992
29.20200	92688
29.21013	100903
29.21825	104872
29.22637	110004
29.23450	120692
29.24262	113195
29.25075	118071
29.25887	125336
29.26698	119087
29.27512	130497
29.28323	117233
29.29135	112948
29.29948	102635
29.30760	92301
29.31573	92251
29.32385	90094
29.33197	83464
29.34010	83480
29.34822	79249
29.35635	83329
29.36447	76969
29.37258	78111
29.38072	76207
29.38883	75360
29.39695	82535
29.40508	84645
29.41320	78631
29.42133	83536
29.42945	83195
29.43757	85808
29.44570	82436
29.45382	86552
29.46195	81593
29.47007	83240
29.47818	82817
29.48632	85504
29.49443	87707
29.50257	82908
29.51068	91619
29.51880	95382
29.52693	95972
29.53505	94037
29.54317	97757
29.55130	96415
29.55942	93503
29.56755	95964
29.57567	91253
29.58378	88320
29.59192	85502
29.60003	84879
29.60817	78052
29.61628	78963
29.62440	83959
29.63253	82765
29.64065	83252
29.64877	78081
29.65690	76953
29.66502	74538
29.67315	69278
29.68127	77737
29.68938	78010
29.69752	76807
29.70563	74318
29.71377	76563
29.72188	74045
29.73000	73252
29.73813	76437
29.74625	71567
29.75438	66697
29.76250	68453
29.77062	67493
29.77875	68771
29.78687	70076
29.79498	70586
29.80312	73245
29.81123	65942
29.81937	69695
29.82748	76051
29.83560	71261
29.84373	75390
29.85185	71546
29.85998	82470
29.86810	94867
29.87622	121879
29.88435	170403
29.89247	241163
29.90060	340581
29.90872	380912
29.91683	374062
29.92497	324249
29.93308	252402
29.94120	175921
29.94933	130579
29.95745	111632
29.96558	93368
29.97370	92266
29.98182	101944
29.98995	97596
29.99807	98903
30.00620	102803
30.01432	111805
30.02243	116962
30.03057	117880
30.03868	120530
30.04682	117231
30.05493	115640
30.06305	123335
30.07118	119791
30.07930	110873
30.08742	113353
30.09555	122171
30.10367	116548
30.11180	114467
30.11992	108099
30.12803	112000
30.13617	103776
30.14428	100937
30.15242	100735
30.16053	99412
30.16865	99060
30.17678	96200
30.18490	89790
30.19302	97521
30.20115	92886
30.20927	92480
30.21740	90413
30.22552	89002
30.23363	83142
30.24177	86169
30.24988	84877
30.25802	79867
30.26613	82319
30.27425	77021
30.28238	75282
30.29050	77094
30.29863	77187
30.30675	73118
30.31487	80499
30.32300	76575
30.33112	79161
30.33923	83427
30.34737	79834
30.35548	78603
30.36362	79506
30.37173	76556
30.37985	79273
30.38798	78787
30.39610	77836
30.40423	80189
30.41235	75606
30.42047	82532
30.42860	78286
30.43672	75262
30.44483	74647
30.45297	73222
30.46108	77643
30.46922	77350
30.47733	72352
30.48545	84721
30.49358	84979
30.50170	85802
30.50983	92869
30.51795	80785
30.52607	88881
30.53420	79301
30.54232	82593
30.55045	79844
30.55857	77212
30.56668	78619
30.57482	78632
30.58293	76793
30.59105	75241
30.59918	72064
30.60730	72236
30.61543	75693
30.62355	80425
30.63167	74842
30.63980	74555
30.64792	74211
30.65605	71714
30.66417	71153
30.67228	73605
30.68042	72427
30.68853	71872
30.69667	65234
30.70478	66784
30.71290	75917
30.72103	71974
30.72915	77044
30.73727	77931
30.74540	72945
30.75352	67679
30.76165	73294
30.76977	81302
30.77788	101442
30.78602	142369
30.79413	215140
30.80227	307537
30.81038	386681
30.81850	462379
30.82663	460299
30.83475	404703
30.84287	293469
30.85100	215505
30.85912	155282
30.86725	134691
30.87537	107982
30.88348	101301
30.89162	91179
30.89973	90994
30.90787	85091
30.91598	82626
30.92410	82564
30.93223	81281
30.94035	77426
30.94848	75145
30.95660	76053
30.96472	79413
30.97285	74060
30.98097	71125
30.98908	73450
30.99722	70895
31.00533	76951
31.01347	74582
31.02158	73023
31.02970	70315
31.03783	71828
31.04595	72713
31.05408	74901
31.06220	73822
31.07032	78019
31.07845	77988
31.08657	85062
31.09470	87891
31.10282	95237
31.11093	104622
31.11907	97527
31.12718	100593
31.13530	90670
31.14343	83029
31.15155	80862
31.15968	75446
31.16780	76413
31.17592	81383
31.18405	86317
31.19217	103022
31.20030	121519
31.20842	150097
31.21653	182783
31.22467	210977
31.23278	222701
31.24090	211585
31.24903	195461
31.25715	172085
31.26528	136888
31.27340	111557
31.28152	101752
31.28965	101480
31.29777	91865
31.30590	94606
31.31402	88475
31.32213	91027
31.33027	92773
31.33838	94528
31.34652	93944
31.35463	97700
31.36275	97232
31.37088	90240
31.37900	88872
31.38712	91492
31.39525	89678
31.40337	87987
31.41150	92009
31.41962	89813
31.42773	96647
31.43587	91886
31.44398	100095
31.45212	95951
31.46023	94772
31.46835	95602
31.47648	95849
31.48460	104652
31.49272	108039
31.50085	105163
31.50897	104614
31.51710	104267
31.52522	102045
31.53333	97503
31.54147	100850
31.54958	96741
31.55772	112145
31.56583	107285
31.57395	105639
31.58208	113711
31.59020	111900
31.59833	105017
31.60645	102736
31.61457	101249
31.62270	91004
31.63082	93618
31.63893	91466
31.64707	91801
31.65518	90151
31.66332	90337
31.67143	94858
31.67955	94675
31.68768	97741
31.69580	97796
31.70393	89778
31.71205	91932
31.72017	85543
31.72830	90139
31.73642	84573
31.74455	92910
31.75267	83687
31.76078	78298
31.76892	84095
31.77703	86626
31.78515	84066
31.79328	88405
31.80140	82283
31.80953	92881
31.81765	86385
31.82577	84094
31.83390	82981
31.84202	81349
31.85015	86908
31.85827	87387
31.86638	86940
31.87452	86404
31.88263	88480
31.89075	85302
31.89888	91010
31.90700	88637
31.91513	85230
31.92325	93192
31.93137	90842
31.93950	94130
31.94762	98405
31.95575	99068
31.96387	108095
31.97198	105384
31.98012	109253
31.98823	110362
31.99637	109425
32.00448	117128
32.01260	105074
32.02073	109879
32.02885	114885
32.03697	108666
32.04510	107077
32.05322	100999
32.06135	106646
32.06947	97615
32.07758	99812
32.08572	107978
32.09383	102407
32.10197	107700
32.11008	93859
32.11820	94697
32.12633	87561
32.13445	85320
32.14258	90293
32.15070	85971
32.15882	90919
32.16695	87914
32.17507	85561
32.18318	81335
32.19132	82243
32.19943	83902
32.20757	82493
32.21568	83960
32.22380	81853
32.23193	85466
32.24005	83531
32.24818	83278
32.25630	85931
32.26442	91400
32.27255	98276
32.28067	103490
32.28878	98713
32.29692	99630
32.30503	87124
32.31317	85870
32.32128	85141
32.32940	80785
32.33753	86307
32.34565	80041
32.35378	78806
32.36190	79797
32.37002	81408
32.37815	78667
32.38627	77796
32.39440	77134
32.40252	75595
32.41063	75046
32.41877	80070
32.42688	74092
32.43500	71762
32.44313	73819
32.45125	70801
32.45938	74944
32.46750	72908
32.47562	73022
32.48375	70386
32.49187	76216
32.50000	66108
32.50812	70676
32.51623	74604
32.52437	70689
32.53248	73495
32.54062	74101
32.54873	70566
32.55685	72984
32.56498	74033
32.57310	71393
32.58122	72930
32.58935	70283
32.59747	70400
32.60560	70176
32.61372	71315
32.62183	67344
32.62997	65621
32.63808	70527
32.64622	69941
32.65433	73906
32.66245	76731
32.67058	86900
32.67870	92868
32.68682	94719
32.69495	88855
32.70307	87123
32.71120	84997
32.71932	81226
32.72743	78702
32.73557	74872
32.74368	79471
32.75182	74667
32.75993	71589
32.76805	71539
32.77618	67444
32.78430	72364
32.79243	71208
32.80055	71941
32.80867	69851
32.81680	66069
32.82492	70037
32.83303	66733
32.84117	69144
32.84928	68964
32.85742	66272
32.86553	66732
32.87365	69157
32.88178	63043
32.88990	68117
32.89803	67838
32.90615	68845
32.91427	72315
32.92240	63256
32.93052	68191
32.93863	68714
32.94677	70709
32.95488	69488
32.96302	66901
32.97113	74294
32.97925	79705
32.98738	82878
32.99550	93121
33.00363	99814
33.01175	123550
33.01987	110437
33.02800	102485
33.03612	94580
33.04425	85721
33.05237	79621
33.06048	78942
33.06862	75758
33.07673	81222
33.08485	76051
33.09298	79571
33.10110	85976
33.10923	93064
33.11735	108416
33.12547	109416
33.13360	106660
33.14172	102123
33.14985	92903
33.15797	84052
33.16608	78644
33.17422	76571
33.18233	74465
33.19047	69996
33.19858	74167
33.20670	74786
33.21483	72793
33.22295	79786
33.23107	75949
33.23920	73359
33.24732	73586
33.25545	71748
33.26357	72540
33.27168	70882
33.27982	70407
33.28793	71625
33.29607	70229
33.30418	67890
33.31230	67070
33.32043	66841
33.32855	69808
33.33667	72860
33.34480	66670
33.35292	69355
33.36105	70050
33.36917	66703
33.37728	68128
33.38542	68308
33.39353	64632
33.40167	71759
33.40978	71412
33.41790	71263
33.42603	74794
33.43415	78737
33.44228	81225
33.45040	75663
33.45852	75601
33.46665	66864
33.47477	73159
33.48288	71742
33.49102	69074
33.49913	72761
33.50727	71586
33.51538	73852
33.52350	77811
33.53163	77251
33.53975	71566
33.54788	75244
33.55600	71526
33.56412	65526
33.57225	67273
33.58037	66992
33.58850	66153
33.59662	68847
33.60473	62922
33.61287	66407
33.62098	68788
33.62910	64206
33.63723	63206
33.64535	71639
33.65348	70383
33.66160	77806
33.66972	72689
33.67785	71187
33.68597	71196
33.69410	73767
33.70222	65583
33.71033	65446
33.71847	67067
33.72658	70590
33.73470	71193
33.74283	73031
33.75095	74584
33.75908	86719
33.76720	81727
33.77532	83915
33.78345	73499
33.79157	65754
33.79970	71596
33.80782	69611
33.81593	74499
33.82407	64571
33.83218	70859
33.84032	78761
33.84843	72457
33.85655	76775
33.86468	80428
33.87280	81178
33.88092	81377
33.88905	82653
33.89717	87548
33.90530	83018
33.91342	80121
33.92153	90883
33.92967	81254
33.93778	81050
33.94592	78260
33.95403	80745
33.96215	73244
33.97028	75880
33.97840	72760
33.98652	73226
33.99465	72396
34.00277	67793
34.01090	69502
34.01902	67456
34.02713	66834
34.03527	68945
34.04338	75579
34.05152	69302
34.05963	64901
34.06775	71361
34.07588	71176
34.08400	75392
34.09213	64938
34.10025	67146
34.10837	70055
34.11650	64759
34.12462	70723
34.13273	66205
34.14087	63877
34.14898	69526
34.15712	64594
34.16523	65405
34.17335	72741
34.18148	68975
34.18960	72757
34.19773	74776
34.20585	74857
34.21397	75430
34.22210	73308
34.23022	72853
34.23835	76365
34.24647	73101
34.25458	68518
34.26272	72622
34.27083	66642
34.27895	65750
34.28708	67072
34.29520	67367
34.30333	65263
34.31145	66505
34.31957	65241
34.32770	66607
34.33582	65144
34.34395	66713
34.35207	68061
34.36018	64465
34.36832	65222
34.37643	70192
34.38455	68987
34.39268	67916
34.40080	69590
34.40893	64929
34.41705	71821
34.42517	66259
34.43330	67848
34.44142	67026
34.44955	68826
34.45767	67456
34.46578	66890
34.47392	65733
34.48203	70773
34.49017	66857
34.49828	61908
34.50640	66067
34.51453	66017
34.52265	68249
34.53077	75594
34.53890	78294
34.54702	79300
34.55515	90222
34.56327	91427
34.57138	89404
34.57952	92884
34.58763	101455
34.59577	103757
34.60388	91636
34.61200	89618
34.62013	91013
34.62825	88076
34.63638	85333
34.64450	89809
34.65262	85662
34.66075	87101
34.66887	81737
34.67698	78015
34.68512	80328
34.69323	83223
34.70137	75654
34.70948	72778
34.71760	83157
34.72573	72644
34.73385	74405
34.74198	75755
34.75010	72268
34.75822	72246
34.76635	73621
34.77447	68034
34.78258	73272
34.79072	68393
34.79883	70372
34.80697	67928
34.81508	71775
34.82320	69549
34.83133	72247
34.83945	69233
34.84758	75134
34.85570	72039
34.86382	68680
34.87195	71096
34.88007	68486
34.88820	71496
34.89632	73631
34.90443	68524
34.91257	67279
34.92068	73256
34.92880	77938
34.93693	71746
34.94505	78875
34.95318	77759
34.96130	80528
34.96942	90446
34.97755	94781
34.98567	91479
34.99380	95304
35.00192	89200
35.01003	87266
35.01817	86201
35.02628	82093
35.03440	84910
35.04253	86212
35.05065	89483
35.05878	81962
35.06690	76491
35.07502	80863
35.08315	81292
35.09127	77726
35.09940	75071
35.10752	71938
35.11563	78371
35.12377	74676
35.13188	75313
35.14002	66661
35.14813	72139
35.15625	73413
35.16438	72723
35.17250	73820
35.18062	77361
35.18875	78187
35.19687	75847
35.20500	71352
35.21312	72888
35.22123	71269
35.22937	65158
35.23748	66610
35.24562	75106
35.25373	73456
35.26185	75302
35.26998	74209
35.27810	73850
35.28623	73459
35.29435	75204
35.30247	74326
35.31060	73628
35.31872	70289
35.32683	73730
35.33497	72527
35.34308	69717
35.35122	73117
35.35933	75847
35.36745	73065
35.37558	73599
35.38370	78615
35.39183	82242
35.39995	85293
35.40807	92525
35.41620	88883
35.42432	93366
35.43245	98588
35.44057	96560
35.44868	90981
35.45682	90913
35.46493	83942
35.47305	83880
35.48118	78685
35.48930	78796
35.49743	74307
35.50555	76190
35.51367	78753
35.52180	69969
35.52992	75029
35.53805	73482
35.54617	75867
35.55428	76668
35.56242	78211
35.57053	72943
35.57865	73430
35.58678	73063
35.59490	71439
35.60303	78551
35.61115	70925
35.61927	67710
35.62740	72782
35.63552	64827
35.64365	67755
35.65177	72202
35.65988	72846
35.66802	75574
35.67613	74058
35.68427	77002
35.69238	80133
35.70050	79476
35.70863	79505
35.71675	85995
35.72487	84956
35.73300	79028
35.74112	78242
35.74925	80955
35.75737	78352
35.76548	75707
35.77362	80381
35.78173	77603
35.78987	76597
35.79798	75967
35.80610	77690
35.81423	79199
35.82235	76852
35.83047	74627
35.83860	72354
35.84672	70784
35.85485	77054
35.86297	73827
35.87108	75335
35.87922	77453
35.88733	75905
35.89547	74958
35.90358	74020
35.91170	75130
35.91983	75635
35.92795	73345
35.93608	73007
35.94420	72064
35.95232	74246
35.96045	69892
35.96857	71987
35.97668	72572
35.98482	71584
35.99293	73723
36.00107	77227
36.00918	77016
36.01730	78706
36.02543	74108
36.03355	71666
36.04168	75244
36.04980	71789
36.05792	74134
36.06605	71513
36.07417	73988
36.08230	72501
36.09042	77179
36.09853	74850
36.10667	69514
36.11478	67669
36.12290	67001
36.13103	70918
36.13915	72275
36.14728	68141
36.15540	74838
36.16352	72342
36.17165	71634
36.17977	73146
36.18790	72065
36.19602	69237
36.20413	69233
36.21227	71189
36.22038	70249
36.22850	71640
36.23663	74225
36.24475	76287
36.25288	71866
36.26100	77747
36.26912	76482
36.27725	77151
36.28537	79171
36.29350	79081
36.30162	78110
36.30973	78723
36.31787	88372
36.32598	87096
36.33412	81031
36.34223	81439
36.35035	83110
36.35848	80355
36.36660	77062
36.37472	78391
36.38285	74771
36.39097	72738
36.39910	75472
36.40722	71204
36.41533	71912
36.42347	78430
36.43158	78508
36.43972	84465
36.44783	83821
36.45595	85422
36.46408	80653
36.47220	84305
36.48033	83234
36.48845	81727
36.49657	83878
36.50470	81797
36.51282	85536
36.52093	80655
36.52907	84649
36.53718	82954
36.54532	82132
36.55343	78951
36.56155	83869
36.56968	75090
36.57780	76945
36.58593	74755
36.59405	75282
36.60217	73210
36.61030	74634
36.61842	73486
36.62653	75929
36.63467	77709
36.64278	81242
36.65092	79593
36.65903	83717
36.66715	86401
36.67528	90332
36.68340	85988
36.69153	82909
36.69965	82784
36.70777	81589
36.71590	76344
36.72402	86374
36.73215	83548
36.74027	84699
36.74838	81024
36.75652	80460
36.76463	83047
36.77275	87286
36.78088	86722
36.78900	86154
36.79713	88299
36.80525	84015
36.81337	84287
36.82150	86348
36.82962	85636
36.83775	81291
36.84587	81504
36.85398	89485
36.86212	87975
36.87023	85639
36.87835	93615
36.88648	88316
36.89460	83049
36.90273	92581
36.91085	88746
36.91897	88840
36.92710	88633
36.93522	90416
36.94335	91677
36.95147	108950
36.95958	105075
36.96772	110498
36.97583	113933
36.98397	110645
36.99208	112065
37.00020	104724
37.00833	100517
37.01645	98431
37.02457	89673
37.03270	93111
37.04082	89725
37.04895	92540
37.05707	90058
37.06518	97423
37.07332	94892
37.08143	90798
37.08957	93086
37.09768	93455
37.10580	93947
37.11393	95395
37.12205	96219
37.13018	97339
37.13830	107870
37.14642	100375
37.15455	103910
37.16267	97804
37.17078	94506
37.17892	89967
37.18703	95795
37.19517	96026
37.20328	93109
37.21140	86625
37.21953	91370
37.22765	87062
37.23578	93205
37.24390	84529
37.25202	85534
37.26015	89843
37.26827	93521
37.27638	83358
37.28452	90855
37.29263	91209
37.30077	87267
37.30888	92320
37.31700	85261
37.32513	92901
37.33325	93316
37.34138	90179
37.34950	96981
37.35762	100758
37.36575	101380
37.37387	99489
37.38200	102341
37.39012	104986
37.39823	104820
37.40637	96338
37.41448	98813
37.42260	99967
37.43073	94284
37.43885	95767
37.44698	91164
37.45510	90611
37.46322	94504
37.47135	97000
37.47947	92641
37.48760	94750
