C:\MassHunter\GCMS\1\data\JTB-E18\BURNOFFS\JTB-E18-05.D Thu Aug 22 10:08:21 2019
Start of data points
2.09520,38081
2.10332,38262
2.11143,44194
2.11957,48566
2.12768,47675
2.13580,56328
2.14393,57204
2.15205,60825
2.16018,60105
2.16830,66495
2.17642,65626
2.18455,61958
2.19267,60787
2.20080,58983
2.20892,58601
2.21703,58597
2.22517,50806
2.23328,55852
2.24142,49766
2.24953,49921
2.25765,45139
2.26578,47285
2.27390,46495
2.28202,42958
2.29015,43148
2.29827,39720
2.30640,41628
2.31452,43457
2.32263,41555
2.33077,38429
2.33888,40481
2.34702,38900
2.35513,40561
2.36325,37561
2.37138,37260
2.37950,34696
2.38763,39794
2.39575,36383
2.40387,34084
2.41200,35007
2.42012,34774
2.42823,32378
2.43637,31756
2.44448,34015
2.45262,33500
2.46073,33291
2.46885,34274
2.47698,34131
2.48510,34487
2.49323,36094
2.50135,30094
2.50947,33483
2.51760,32623
2.52572,40424
2.53383,34125
2.54197,31616
2.55008,32098
2.55822,31892
2.56633,33420
2.57445,34878
2.58258,31161
2.59070,31515
2.59883,33807
2.60695,36969
2.61507,31261
2.62320,31031
2.63132,31549
2.63945,31737
2.64757,32225
2.65568,31835
2.66382,33183
2.67193,31497
2.68005,29633
2.68818,29356
2.69630,30659
2.70443,32678
2.71255,32209
2.72067,29977
2.72880,31166
2.73692,32820
2.74505,31678
2.75317,32104
2.76128,29772
2.76942,33714
2.77753,32521
2.78565,31738
2.79378,30239
2.80190,30611
2.81003,35200
2.81815,32658
2.82627,31781
2.83440,33330
2.84252,30150
2.85065,35020
2.85877,31190
2.86688,28996
2.87502,29410
2.88313,30456
2.89127,29697
2.89938,31061
2.90750,29759
2.91563,33153
2.92375,29704
2.93187,28525
2.94000,29201
2.94812,28775
2.95625,30077
2.96437,30163
2.97248,35663
2.98062,31703
2.98873,28106
2.99687,35483
3.00498,32253
3.01310,29764
3.02123,29483
3.02935,32160
3.03748,31306
3.04560,30643
3.05372,33998
3.06185,28527
3.06997,26732
3.07808,31191
3.08622,29943
3.09433,30969
3.10247,31802
3.11058,32720
3.11870,29920
3.12683,28812
3.13495,31316
3.14308,28569
3.15120,29437
3.15932,29253
3.16745,31166
3.17557,32537
3.18368,31242
3.19182,31740
3.19993,32439
3.20807,30941
3.21618,32238
3.22430,32670
3.23243,31495
3.24055,31779
3.24868,30900
3.25680,28756
3.26492,31442
3.27305,29814
3.28117,33324
3.28930,29994
3.29742,34477
3.30553,31602
3.31367,32593
3.32178,31464
3.32990,37173
3.33803,29387
3.34615,30071
3.35428,29115
3.36240,29968
3.37052,31449
3.37865,31239
3.38677,30761
3.39490,33678
3.40302,32082
3.41113,34450
3.41927,33965
3.42738,29608
3.43552,33421
3.44363,30578
3.45175,31649
3.45988,32279
3.46800,32368
3.47612,31112
3.48425,34351
3.49237,32622
3.50050,34484
3.50862,32541
3.51673,29343
3.52487,32953
3.53298,31277
3.54112,32973
3.54923,33920
3.55735,32866
3.56548,31256
3.57360,32413
3.58172,33534
3.58985,33415
3.59797,31017
3.60610,34603
3.61422,33912
3.62233,35980
3.63047,31525
3.63858,35005
3.64672,35738
3.65483,31712
3.66295,29997
3.67108,32644
3.67920,33015
3.68733,33200
3.69545,33785
3.70357,31454
3.71170,32561
3.71982,31327
3.72793,33962
3.73607,31970
3.74418,39541
3.75232,32200
3.76043,34315
3.76855,31908
3.77668,31574
3.78480,33336
3.79293,32855
3.80105,30629
3.80917,34647
3.81730,33554
3.82542,30432
3.83353,31904
3.84167,32069
3.84978,36604
3.85792,30773
3.86603,32968
3.87415,32469
3.88228,31534
3.89040,33674
3.89853,33624
3.90665,36423
3.91477,38399
3.92290,35469
3.93102,33107
3.93915,33526
3.94727,33845
3.95538,31245
3.96352,35229
3.97163,35791
3.97975,34443
3.98788,32443
3.99600,32024
4.00413,34049
4.01225,33402
4.02037,33584
4.02850,32259
4.03662,33488
4.04475,36906
4.05287,36593
4.06098,31737
4.06912,29315
4.07723,32364
4.08537,33060
4.09348,33556
4.10160,33328
4.10973,33047
4.11785,31885
4.12597,34631
4.13410,31607
4.14222,34409
4.15035,33363
4.15847,32247
4.16658,33906
4.17472,33584
4.18283,35731
4.19097,35070
4.19908,31030
4.20720,33416
4.21533,36826
4.22345,36265
4.23157,32960
4.23970,33406
4.24782,33918
4.25595,33500
4.26407,33774
4.27218,31387
4.28032,36048
4.28843,30725
4.29657,34631
4.30468,34195
4.31280,33035
4.32093,35872
4.32905,35738
4.33718,32085
4.34530,33358
4.35342,39020
4.36155,33747
4.36967,34198
4.37778,37215
4.38592,34865
4.39403,36130
4.40217,35218
4.41028,38395
4.41840,35461
4.42653,34217
4.43465,31919
4.44278,35303
4.45090,37312
4.45902,35470
4.46715,34327
4.47527,34250
4.48340,34508
4.49152,33974
4.49963,35364
4.50777,36652
4.51588,38084
4.52400,35764
4.53213,34003
4.54025,37384
4.54838,36988
4.55650,33160
4.56462,36081
4.57275,35477
4.58087,37203
4.58900,34138
4.59712,34574
4.60523,38681
4.61337,34604
4.62148,36689
4.62960,32198
4.63773,35333
4.64585,34716
4.65398,35926
4.66210,36863
4.67022,33437
4.67835,40729
4.68647,35969
4.69460,37903
4.70272,33114
4.71083,33737
4.71897,36320
4.72708,35644
4.73522,32795
4.74333,34002
4.75145,36520
4.75958,33825
4.76770,36098
4.77582,34163
4.78395,36674
4.79207,41865
4.80020,34485
4.80832,37304
4.81643,35477
4.82457,37113
4.83268,36676
4.84082,36531
4.84893,33626
4.85705,36909
4.86518,35713
4.87330,37252
4.88143,40088
4.88955,35607
4.89767,34287
4.90580,33177
4.91392,35705
4.92203,35278
4.93017,34260
4.93828,37526
4.94642,35671
4.95453,35490
4.96265,37434
4.97078,38641
4.97890,38400
4.98703,35486
4.99515,38576
5.00327,37240
5.01140,35172
5.01952,37046
5.02763,37722
5.03577,34426
5.04388,37516
5.05202,38734
5.06013,39096
5.06825,38969
5.07638,38639
5.08450,38842
5.09263,38058
5.10075,38538
5.10887,37201
5.11700,37371
5.12512,37544
5.13325,36451
5.14137,41985
5.14948,33612
5.15762,44519
5.16573,38895
5.17385,44174
5.18198,40104
5.19010,37384
5.19823,41441
5.20635,36172
5.21447,39824
5.22260,38427
5.23072,38127
5.23885,38464
5.24697,37888
5.25508,38841
5.26322,39644
5.27133,39662
5.27945,37883
5.28758,35067
5.29570,35420
5.30383,37845
5.31195,40106
5.32007,36561
5.32820,35345
5.33632,35713
5.34445,35387
5.35257,35751
5.36068,38494
5.36882,36556
5.37693,36334
5.38507,39025
5.39318,38975
5.40130,42244
5.40943,38132
5.41755,33404
5.42567,37489
5.43380,35323
5.44192,41671
5.45005,35392
5.45817,35435
5.46628,38820
5.47442,39106
5.48253,38044
5.49067,38652
5.49878,36098
5.50690,39750
5.51503,37470
5.52315,41016
5.53128,39336
5.53940,35116
5.54752,34822
5.55565,39154
5.56377,41444
5.57188,39840
5.58002,37058
5.58813,38320
5.59627,38730
5.60438,39418
5.61250,38937
5.62063,36237
5.62875,34770
5.63688,35784
5.64500,41773
5.65312,35584
5.66125,36631
5.66937,38014
5.67748,36479
5.68562,38580
5.69373,37204
5.70187,41672
5.70998,38632
5.71810,36500
5.72623,41964
5.73435,39713
5.74248,37224
5.75060,39784
5.75872,39992
5.76685,34934
5.77497,37963
5.78310,37713
5.79122,39316
5.79933,36463
5.80747,43001
5.81558,39918
5.82370,38551
5.83183,34866
5.83995,37363
5.84808,38852
5.85620,37210
5.86432,34303
5.87245,37816
5.88057,39303
5.88870,40775
5.89682,40619
5.90493,40319
5.91307,34638
5.92118,33549
5.92932,31447
5.93743,33035
5.94555,29043
5.95368,29959
5.96180,33924
5.96992,33011
5.97805,31207
5.98617,33409
5.99430,34019
6.00242,33840
6.01053,32356
6.01867,27675
6.02678,30680
6.03492,32452
6.04303,30667
6.05115,32834
6.05928,32242
6.06740,33036
6.07552,27926
6.08365,31348
6.09177,31265
6.09990,29233
6.10802,32745
6.11613,33058
6.12427,30284
6.13238,29312
6.14052,35025
6.14863,29044
6.15675,27061
6.16488,31610
6.17300,30234
6.18113,32237
6.18925,32062
6.19737,30991
6.20550,29330
6.21362,28927
6.22173,31349
6.22987,30308
6.23798,28766
6.24612,31219
6.25423,31326
6.26235,29841
6.27048,32716
6.27860,33717
6.28673,33950
6.29485,27327
6.30297,26705
6.31110,30692
6.31922,32386
6.32733,29465
6.33547,31729
6.34358,32045
6.35172,31130
6.35983,29898
6.36795,30254
6.37608,30849
6.38420,31197
6.39233,31388
6.40045,31738
6.40857,32227
6.41670,28953
6.42482,29518
6.43295,33096
6.44107,30247
6.44918,29137
6.45732,29735
6.46543,31512
6.47355,28850
6.48168,28013
6.48980,30349
6.49793,29989
6.50605,29662
6.51417,30102
6.52230,29639
6.53042,30198
6.53855,30810
6.54667,28722
6.55478,32214
6.56292,31879
6.57103,30542
6.57917,30626
6.58728,30196
6.59540,30467
6.60353,31568
6.61165,32059
6.61977,27520
6.62790,29417
6.63602,29539
6.64415,30407
6.65227,30097
6.66038,30612
6.66852,31147
6.67663,29274
6.68477,26571
6.69288,31039
6.70100,30261
6.70913,31920
6.71725,30245
6.72538,29032
6.73350,29740
6.74162,28635
6.74975,30877
6.75787,30790
6.76598,31060
6.77412,31277
6.78223,29568
6.79037,27693
6.79848,30086
6.80660,29827
6.81473,28374
6.82285,26915
6.83098,29715
6.83910,29052
6.84722,28574
6.85535,27445
6.86347,26131
6.87158,24990
6.87972,23243
6.88783,26465
6.89597,25075
6.90408,25133
6.91220,25087
6.92033,22729
6.92845,26261
6.93658,24212
6.94470,26069
6.95282,24855
6.96095,27262
6.96907,24998
6.97720,24181
6.98532,27083
6.99343,24389
7.00157,24873
7.00968,23543
7.01780,25322
7.02593,26892
7.03405,27117
7.04218,22394
7.05030,24261
7.05842,22278
7.06655,25300
7.07467,26897
7.08280,23626
7.09092,27811
7.09903,23137
7.10717,23240
7.11528,23458
7.12340,27213
7.13153,23543
7.13965,23654
7.14778,23971
7.15590,25102
7.16402,24304
7.17215,23681
7.18027,25153
7.18840,23473
7.19652,22618
7.20463,27258
7.21277,23872
7.22088,24253
7.22902,25319
7.23713,26545
7.24525,25998
7.25338,24890
7.26150,23432
7.26962,23219
7.27775,25320
7.28587,23198
7.29400,23172
7.30212,24204
7.31023,24073
7.31837,26745
7.32648,22977
7.33462,20554
7.34273,22593
7.35085,22181
7.35898,23241
7.36710,23936
7.37523,27679
7.38335,23409
7.39147,24544
7.39960,23259
7.40772,24974
7.41583,25270
7.42397,26714
7.43208,22531
7.44022,22702
7.44833,23045
7.45645,23170
7.46458,22563
7.47270,24158
7.48083,23840
7.48895,27988
7.49707,22995
7.50520,24874
7.51332,23531
7.52143,25394
7.52957,24233
7.53768,24132
7.54582,23423
7.55393,23616
7.56205,28021
7.57018,24346
7.57830,23086
7.58643,22677
7.59455,23913
7.60267,23234
7.61080,22937
7.61892,23327
7.62705,28756
7.63517,26139
7.64328,23074
7.65142,24869
7.65953,27842
7.66765,22951
7.67578,22540
7.68390,23141
7.69203,24215
7.70015,25608
7.70827,24379
7.71640,21523
7.72452,23902
7.73265,23583
7.74077,21556
7.74888,24429
7.75702,22888
7.76513,23085
7.77327,22508
7.78138,23877
7.78950,21441
7.79763,22644
7.80575,24952
7.81387,26377
7.82200,24206
7.83012,23391
7.83825,23784
7.84637,25652
7.85448,22961
7.86262,22072
7.87073,23382
7.87887,23514
7.88698,23976
7.89510,21005
7.90323,26229
7.91135,22360
7.91947,23737
7.92760,23368
7.93572,24958
7.94385,26616
7.95197,22741
7.96008,23013
7.96822,24007
7.97633,21679
7.98447,24574
7.99258,21124
8.00070,21959
8.00883,24460
8.01695,21844
8.02508,22797
8.03320,22008
8.04132,23095
8.04945,25166
8.05757,26261
8.06568,22072
8.07382,26286
8.08193,21770
8.09007,22382
8.09818,23620
8.10630,22696
8.11443,22359
8.12255,25719
8.13068,25102
8.13880,21995
8.14692,21398
8.15505,20512
8.16317,23086
8.17128,21277
8.17942,23533
8.18753,23268
8.19567,22245
8.20378,22228
8.21190,22312
8.22003,24019
8.22815,24294
8.23628,22111
8.24440,19463
8.25252,24075
8.26065,23640
8.26877,23572
8.27690,20768
8.28502,23210
8.29313,21903
8.30127,24496
8.30938,22294
8.31750,22614
8.32563,27057
8.33375,22172
8.34188,23856
8.35000,21920
8.35812,24020
8.36625,23690
8.37437,21090
8.38250,21010
8.39062,23679
8.39873,21402
8.40687,22972
8.41498,21316
8.42312,21392
8.43123,21717
8.43935,23415
8.44748,25061
8.45560,25717
8.46372,22481
8.47185,19905
8.47997,21817
8.48810,21548
8.49622,22528
8.50433,22659
8.51247,24216
8.52058,23736
8.52872,21157
8.53683,22793
8.54495,22910
8.55308,21699
8.56120,21491
8.56932,24927
8.57745,20809
8.58557,25959
8.59370,22543
8.60182,22196
8.60993,20551
8.61807,22201
8.62618,21399
8.63432,20219
8.64243,24320
8.65055,21543
8.65868,21989
8.66680,22349
8.67493,22177
8.68305,21532
8.69117,21244
8.69930,19362
8.70742,21377
8.71553,22776
8.72367,22725
8.73178,21198
8.73992,21290
8.74803,18522
8.75615,22812
8.76428,20724
8.77240,20218
8.78053,21866
8.78865,23779
8.79677,21241
8.80490,25321
8.81302,23707
8.82115,22436
8.82927,24431
8.83738,22670
8.84552,21296
8.85363,21982
8.86175,21312
8.86988,23078
8.87800,20443
8.88613,22783
8.89425,24067
8.90237,24752
8.91050,24671
8.91862,21516
8.92675,23936
8.93487,22738
8.94298,24317
8.95112,25885
8.95923,23246
8.96735,22063
8.97548,24979
8.98360,26171
8.99173,21610
8.99985,23761
9.00797,23782
9.01610,21000
9.02422,22920
9.03235,24061
9.04047,20833
9.04858,26694
9.05672,21929
9.06483,23140
9.07297,23306
9.08108,24560
9.08920,23094
9.09733,23062
9.10545,24249
9.11357,24703
9.12170,24162
9.12982,24254
9.13795,23151
9.14607,25432
9.15418,25775
9.16232,23937
9.17043,25288
9.17857,21608
9.18668,26810
9.19480,26356
9.20293,21864
9.21105,24211
9.21918,22792
9.22730,27282
9.23542,23516
9.24355,27326
9.25167,26383
9.25978,21866
9.26792,25674
9.27603,23557
9.28417,24198
9.29228,23964
9.30040,23858
9.30853,24638
9.31665,24042
9.32478,24147
9.33290,21369
9.34102,23101
9.34915,22355
9.35727,21908
9.36538,23047
9.37352,21305
9.38163,22085
9.38977,23445
9.39788,24984
9.40600,23433
9.41413,24203
9.42225,24157
9.43038,24193
9.43850,20632
9.44662,23161
9.45475,23384
9.46287,25822
9.47100,26012
9.47912,25711
9.48723,25108
9.49537,23250
9.50348,22062
9.51160,23143
9.51973,23843
9.52785,23556
9.53598,25223
9.54410,20455
9.55222,20892
9.56035,21522
9.56847,21685
9.57660,21734
9.58472,22752
9.59283,21780
9.60097,21902
9.60908,19381
9.61720,20223
9.62533,23022
9.63345,21749
9.64158,20821
9.64970,20942
9.65782,20665
9.66595,22218
9.67407,23588
9.68220,20968
9.69032,20264
9.69843,19912
9.70657,20902
9.71468,20901
9.72282,20887
9.73093,20568
9.73905,22658
9.74718,21061
9.75530,22142
9.76342,21503
9.77155,20439
9.77967,20168
9.78780,23394
9.79592,23192
9.80403,18811
9.81217,21600
9.82028,20298
9.82842,20995
9.83653,19301
9.84465,20100
9.85278,23165
9.86090,23579
9.86903,24305
9.87715,18519
9.88527,19711
9.89340,21284
9.90152,17393
9.90963,21518
9.91777,20107
9.92588,20872
9.93402,17919
9.94213,23034
9.95025,24248
9.95838,17481
9.96650,19019
9.97463,22200
9.98275,20407
9.99087,18562
9.99900,21415
10.00712,18336
10.01523,20719
10.02337,21568
10.03148,19636
10.03962,21183
10.04773,21390
10.05585,21076
10.06398,21083
10.07210,18841
10.08023,21969
10.08835,20393
10.09647,22034
10.10460,25052
10.11272,22273
10.12085,21662
10.12897,21579
10.13708,19757
10.14522,21607
10.15333,20473
10.16145,21988
10.16958,18639
10.17770,21773
10.18583,20494
10.19395,21117
10.20207,20307
10.21020,21100
10.21832,19219
10.22645,20613
10.23457,21606
10.24268,22753
10.25082,21336
10.25893,19295
10.26707,22427
10.27518,21407
10.28330,20588
10.29143,22719
10.29955,20310
10.30767,21637
10.31580,18723
10.32392,21359
10.33205,17402
10.34017,19081
10.34828,21235
10.35642,20559
10.36453,20682
10.37267,17372
10.38078,19090
10.38890,19500
10.39703,18788
10.40515,19498
10.41327,21905
10.42140,21727
10.42952,18852
10.43765,20432
10.44577,19796
10.45388,20332
10.46202,20446
10.47013,17517
10.47827,20093
10.48638,17032
10.49450,21268
10.50263,20227
10.51075,19923
10.51888,19791
10.52700,16999
10.53512,19455
10.54325,20758
10.55137,19186
10.55948,21235
10.56762,20663
10.57573,20019
10.58387,19213
10.59198,19655
10.60010,22588
10.60823,19611
10.61635,18180
10.62448,18576
10.63260,21901
10.64072,18149
10.64885,22316
10.65697,19536
10.66508,21077
10.67322,21334
10.68133,20634
10.68947,20151
10.69758,20590
10.70570,21271
10.71383,23242
10.72195,19399
10.73008,19626
10.73820,18245
10.74632,17498
10.75445,19906
10.76257,21038
10.77070,17877
10.77882,19413
10.78693,19924
10.79507,21666
10.80318,19538
10.81130,21179
10.81943,20275
10.82755,20678
10.83568,21801
10.84380,20297
10.85192,19547
10.86005,19559
10.86817,19045
10.87630,20024
10.88442,20741
10.89253,21235
10.90067,18172
10.90878,23781
10.91692,18871
10.92503,21301
10.93315,19705
10.94128,18025
10.94940,19196
10.95752,23187
10.96565,18422
10.97377,18039
10.98190,18729
10.99002,19887
10.99813,22645
11.00627,24900
11.01438,18927
11.02252,21164
11.03063,20558
11.03875,19719
11.04688,18221
11.05500,19516
11.06312,21602
11.07125,17878
11.07937,19989
11.08750,18031
11.09562,17273
11.10373,23352
11.11187,21097
11.11998,19536
11.12812,18706
11.13623,19368
11.14435,20725
11.15248,19835
11.16060,17861
11.16873,19493
11.17685,20040
11.18497,18238
11.19310,21956
11.20122,23100
11.20933,20012
11.21747,18049
11.22558,19995
11.23372,18893
11.24183,17384
11.24995,20306
11.25808,22072
11.26620,21690
11.27433,21108
11.28245,18040
11.29057,19189
11.29870,19365
11.30682,18680
11.31495,21811
11.32307,23089
11.33118,17278
11.33932,20911
11.34743,18397
11.35555,19394
11.36368,18598
11.37180,22182
11.37993,23038
11.38805,17417
11.39617,18493
11.40430,20463
11.41242,19013
11.42055,17548
11.42867,22611
11.43678,18936
11.44492,21347
11.45303,19739
11.46115,17265
11.46928,18058
11.47740,17322
11.48553,19234
11.49365,20746
11.50177,22189
11.50990,18937
11.51802,20403
11.52615,20354
11.53427,19126
11.54238,20307
11.55052,16535
11.55863,18775
11.56677,21648
11.57488,18916
11.58300,21686
11.59113,20083
11.59925,21624
11.60737,17732
11.61550,18521
11.62362,19838
11.63175,20720
11.63987,18559
11.64798,19520
11.65612,19693
11.66423,18923
11.67237,18822
11.68048,18730
11.68860,19657
11.69673,20984
11.70485,16894
11.71297,19632
11.72110,19340
11.72922,19744
11.73735,19484
11.74547,20809
11.75358,18045
11.76172,19417
11.76983,21554
11.77797,20238
11.78608,19709
11.79420,18424
11.80233,19568
11.81045,19120
11.81858,20752
11.82670,21527
11.83482,22459
11.84295,20334
11.85107,18059
11.85918,18120
11.86732,19505
11.87543,19951
11.88357,17934
11.89168,18170
11.89980,20146
11.90793,18011
11.91605,20830
11.92418,19515
11.93230,19678
11.94042,19881
11.94855,18138
11.95667,20590
11.96480,19519
11.97292,17051
11.98103,17220
11.98917,19837
11.99728,19167
12.00540,17152
12.01353,19085
12.02165,19162
12.02978,17997
12.03790,17741
12.04602,18597
12.05415,21513
12.06227,20023
12.07040,16925
12.07852,20443
12.08663,20216
12.09477,18179
12.10288,17471
12.11102,20363
12.11913,18234
12.12725,15486
12.13538,17804
12.14350,17310
12.15162,16694
12.15975,19606
12.16787,18680
12.17600,18448
12.18412,17145
12.19223,20175
12.20037,19643
12.20848,18094
12.21662,19423
12.22473,15994
12.23285,17903
12.24098,17386
12.24910,18503
12.25722,20615
12.26535,17546
12.27347,22164
12.28160,20461
12.28972,18702
12.29783,17054
12.30597,22179
12.31408,18541
12.32222,21896
12.33033,21004
12.33845,20254
12.34658,17739
12.35470,20310
12.36283,16862
12.37095,17873
12.37907,18797
12.38720,20308
12.39532,19353
12.40343,17742
12.41157,18736
12.41968,17915
12.42782,15205
12.43593,16485
12.44405,17884
12.45218,18939
12.46030,20440
12.46843,19726
12.47655,18546
12.48467,18072
12.49280,19809
12.50092,18901
12.50903,18957
12.51717,20817
12.52528,18775
12.53342,18698
12.54153,18368
12.54965,19820
12.55778,21098
12.56590,17561
12.57403,15142
12.58215,17872
12.59027,17123
12.59840,18963
12.60652,16917
12.61465,17725
12.62277,17815
12.63088,20125
12.63902,18321
12.64713,17228
12.65525,17406
12.66338,15595
12.67150,16479
12.67963,19078
12.68775,18684
12.69587,17571
12.70400,22662
12.71212,19306
12.72025,19779
12.72837,17322
12.73648,16264
12.74462,18611
12.75273,17529
12.76087,17412
12.76898,20438
12.77710,17790
12.78523,17414
12.79335,20323
12.80147,18577
12.80960,18449
12.81772,21452
12.82585,17823
12.83397,22001
12.84208,18511
12.85022,18426
12.85833,18502
12.86647,15990
12.87458,17697
12.88270,15561
12.89083,17317
12.89895,19497
12.90707,16972
12.91520,18193
12.92332,18878
12.93145,20714
12.93957,17780
12.94768,17977
12.95582,16471
12.96393,17883
12.97207,21045
12.98018,17553
12.98830,17332
12.99643,17273
13.00455,18452
13.01268,19679
13.02080,16753
13.02892,18554
13.03705,19972
13.04517,18838
13.05328,18765
13.06142,19183
13.06953,18885
13.07767,19466
13.08578,18132
13.09390,19878
13.10203,17125
13.11015,17302
13.11828,20156
13.12640,22186
13.13452,21216
13.14265,18031
13.15077,18203
13.15890,18915
13.16702,17125
13.17513,16868
13.18327,19520
13.19138,19329
13.19950,15322
13.20763,16650
13.21575,20347
13.22388,18122
13.23200,16849
13.24012,18109
13.24825,18806
13.25637,18062
13.26450,21028
13.27262,18100
13.28073,19120
13.28887,19994
13.29698,15965
13.30510,18592
13.31323,19085
13.32135,17214
13.32948,18854
13.33760,21464
13.34572,20709
13.35385,18409
13.36197,18071
13.37010,16431
13.37822,16789
13.38633,18237
13.39447,19668
13.40258,18993
13.41072,17730
13.41883,16904
13.42695,21162
13.43508,17270
13.44320,17467
13.45132,18410
13.45945,18914
13.46757,16760
13.47570,16392
13.48382,16282
13.49193,18746
13.50007,17901
13.50818,16389
13.51632,19526
13.52443,22436
13.53255,17616
13.54068,18405
13.54880,21445
13.55692,18681
13.56505,20501
13.57317,18736
13.58130,18169
13.58942,19568
13.59753,17933
13.60567,17902
13.61378,19231
13.62192,19833
13.63003,20753
13.63815,18627
13.64628,17514
13.65440,16266
13.66253,18198
13.67065,16249
13.67877,18039
13.68690,18082
13.69502,19365
13.70313,16442
13.71127,16279
13.71938,19597
13.72752,18041
13.73563,17255
13.74375,16958
13.75188,17819
13.76000,17616
13.76813,17228
13.77625,18487
13.78437,16824
13.79250,18060
13.80062,19792
13.80875,17660
13.81687,15749
13.82498,16767
13.83312,17438
13.84123,18308
13.84935,15874
13.85748,17966
13.86560,20045
13.87373,16352
13.88185,17226
13.88997,16863
13.89810,15598
13.90622,16829
13.91435,19420
13.92247,18467
13.93058,17351
13.93872,17916
13.94683,17037
13.95495,15967
13.96308,19118
13.97120,18296
13.97933,17342
13.98745,17318
13.99557,20032
14.00370,16103
14.01182,16704
14.01995,19741
14.02807,21095
14.03618,19507
14.04432,16455
14.05243,16475
14.06057,17151
14.06868,15662
14.07680,20079
14.08493,19689
14.09305,18278
14.10117,19035
14.10930,19404
14.11742,18919
14.12555,18825
14.13367,21415
14.14178,19016
14.14992,17672
14.15803,18143
14.16617,17405
14.17428,19703
14.18240,19758
14.19053,17216
14.19865,20876
14.20678,19864
14.21490,19534
14.22302,20302
14.23115,19436
14.23927,18713
14.24738,20255
14.25552,22089
14.26363,20057
14.27177,18818
14.27988,18037
14.28800,19671
14.29613,22974
14.30425,19173
14.31238,21565
14.32050,20592
14.32862,19071
14.33675,17834
14.34487,18939
14.35298,17672
14.36112,18167
14.36923,18752
14.37737,20123
14.38548,20002
14.39360,17029
14.40173,21264
14.40985,17783
14.41798,16222
14.42610,16465
14.43422,16577
14.44235,19638
14.45047,17399
14.45860,18339
14.46672,17199
14.47483,19689
14.48297,17927
14.49108,17815
14.49920,16481
14.50733,19894
14.51545,18700
14.52358,16158
14.53170,16182
14.53982,16628
14.54795,18092
14.55607,16337
14.56420,16783
14.57232,17378
14.58043,20227
14.58857,18879
14.59668,17040
14.60482,17227
14.61293,21345
14.62105,20083
14.62918,16869
14.63730,23171
14.64542,20168
14.65355,17352
14.66167,20443
14.66980,17172
14.67792,16153
14.68603,18447
14.69417,18321
14.70228,17323
14.71042,19232
14.71853,16490
14.72665,17225
14.73478,17331
14.74290,16706
14.75102,17454
14.75915,18962
14.76727,18224
14.77540,17394
14.78352,17294
14.79163,17015
14.79977,19315
14.80788,16578
14.81602,17933
14.82413,18518
14.83225,17547
14.84038,15755
14.84850,16112
14.85663,16630
14.86475,19756
14.87287,15726
14.88100,17970
14.88912,18824
14.89723,16884
14.90537,19152
14.91348,19344
14.92162,20349
14.92973,15876
14.93785,17612
14.94598,20374
14.95410,16351
14.96223,16911
14.97035,18208
14.97847,17195
14.98660,18286
14.99472,17815
15.00283,18302
15.01097,16967
15.01908,17013
15.02722,17081
15.03533,20060
15.04345,18211
15.05158,18911
15.05970,18213
15.06783,18421
15.07595,17881
15.08407,19605
15.09220,17996
15.10032,16794
15.10845,16520
15.11657,20776
15.12468,17755
15.13282,17672
15.14093,17282
15.14905,20752
15.15718,16201
15.16530,17025
15.17343,16898
15.18155,20865
15.18967,18465
15.19780,16827
15.20592,18479
15.21405,21329
15.22217,20788
15.23028,18106
15.23842,15213
15.24653,16547
15.25467,17639
15.26278,16358
15.27090,19002
15.27903,18390
15.28715,20589
15.29527,18909
15.30340,15444
15.31152,15527
15.31965,21822
15.32777,17100
15.33588,18655
15.34402,20757
15.35213,17622
15.36027,19770
15.36838,16438
15.37650,17710
15.38463,15008
15.39275,18051
15.40087,18387
15.40900,17097
15.41712,17691
15.42525,17585
15.43337,18822
15.44148,16675
15.44962,18326
15.45773,16051
15.46587,17540
15.47398,17108
15.48210,17969
15.49023,17593
15.49835,18944
15.50648,18627
15.51460,17750
15.52272,18080
15.53085,16255
15.53897,15944
15.54708,18267
15.55522,17404
15.56333,20556
15.57147,18221
15.57958,19413
15.58770,17846
15.59583,14197
15.60395,20228
15.61208,20953
15.62020,16002
15.62832,18818
15.63645,17358
15.64457,18709
15.65270,16290
15.66082,20451
15.66893,17203
15.67707,16957
15.68518,19586
15.69330,18120
15.70143,18736
15.70955,18041
15.71768,16969
15.72580,18099
15.73392,16173
15.74205,21238
15.75017,16305
15.75830,16911
15.76642,15502
15.77453,21669
15.78267,17206
15.79078,16757
15.79890,19216
15.80703,17349
15.81515,16949
15.82328,16399
15.83140,18162
15.83952,18369
15.84765,18581
15.85577,17292
15.86390,18709
15.87202,19761
15.88013,15408
15.88827,16537
15.89638,17932
15.90452,18776
15.91263,17493
15.92075,15805
15.92888,18010
15.93700,17375
15.94512,19735
15.95325,14156
15.96137,14749
15.96950,20173
15.97762,16523
15.98573,19232
15.99387,19074
16.00198,19287
16.01012,18318
16.01823,16653
16.02635,20417
16.03448,17773
16.04260,14839
16.05072,16474
16.05885,15323
16.06697,15887
16.07510,16839
16.08322,18136
16.09133,17644
16.09947,16710
16.10758,17249
16.11572,18880
16.12383,15629
16.13195,18906
16.14008,16724
16.14820,18975
16.15633,17640
16.16445,15568
16.17257,18506
16.18070,15633
16.18882,18666
16.19693,18837
16.20507,16059
16.21318,18708
16.22132,22252
16.22943,15008
16.23755,17289
16.24568,19262
16.25380,17469
16.26193,16514
16.27005,15177
16.27817,17873
16.28630,21012
16.29442,16909
16.30255,17955
16.31067,19630
16.31878,16983
16.32692,18448
16.33503,18841
16.34315,20879
16.35128,17010
16.35940,16582
16.36753,21910
16.37565,16380
16.38377,16393
16.39190,15610
16.40002,17919
16.40815,17412
16.41627,15792
16.42438,17846
16.43252,16737
16.44063,17801
16.44875,15974
16.45688,16236
16.46500,18123
16.47313,16054
16.48125,17902
16.48937,18799
16.49750,18399
16.50562,17789
16.51375,17796
16.52187,16243
16.52998,16756
16.53812,16802
16.54623,17141
16.55437,20535
16.56248,17167
16.57060,17959
16.57873,15951
16.58685,18607
16.59497,17438
16.60310,17732
16.61122,17108
16.61935,16370
16.62747,16286
16.63558,15903
16.64372,16384
16.65183,15384
16.65997,15498
16.66808,17025
16.67620,16553
16.68433,17494
16.69245,20085
16.70058,17809
16.70870,17297
16.71682,18310
16.72495,15049
16.73307,16949
16.74118,15217
16.74932,19662
16.75743,17781
16.76557,16327
16.77368,17985
16.78180,17212
16.78993,18436
16.79805,17191
16.80618,15167
16.81430,17578
16.82242,17374
16.83055,16299
16.83867,16924
16.84678,17523
16.85492,17909
16.86303,16238
16.87117,14754
16.87928,17258
16.88740,17305
16.89553,16292
16.90365,19964
16.91178,17577
16.91990,18434
16.92802,15533
16.93615,18908
16.94427,17519
16.95240,17395
16.96052,17140
16.96863,17622
16.97677,16446
16.98488,19592
16.99300,17158
17.00113,16308
17.00925,16623
17.01738,18747
17.02550,17518
17.03362,17065
17.04175,14465
17.04987,17587
17.05800,17021
17.06612,17643
17.07423,15580
17.08237,19233
17.09048,16377
17.09860,16038
17.10673,17268
17.11485,17594
17.12298,17661
17.13110,19341
17.13922,18088
17.14735,16384
17.15547,19539
17.16360,18470
17.17172,15915
17.17983,17408
17.18797,20497
17.19608,16360
17.20422,18180
17.21233,18105
17.22045,17114
17.22858,17669
17.23670,18587
17.24482,17583
17.25295,19093
17.26107,17904
17.26920,17962
17.27732,15843
17.28543,16565
17.29357,17106
17.30168,19225
17.30982,17440
17.31793,17634
17.32605,19348
17.33418,16394
17.34230,17611
17.35043,19613
17.35855,16240
17.36667,19293
17.37480,17046
17.38292,15755
17.39103,20117
17.39917,14948
17.40728,16726
17.41542,17920
17.42353,18677
17.43165,17313
17.43978,17620
17.44790,20507
17.45603,16472
17.46415,18548
17.47227,18364
17.48040,18526
17.48852,17941
17.49665,17088
17.50477,13617
17.51288,17427
17.52102,19335
17.52913,18241
17.53725,16845
17.54538,19733
17.55350,15934
17.56163,18064
17.56975,15849
17.57787,17576
17.58600,17494
17.59412,16916
17.60225,19438
17.61037,20722
17.61848,17495
17.62662,18187
17.63473,15001
17.64285,15995
17.65098,18878
17.65910,18140
17.66723,15525
17.67535,15441
17.68347,18500
17.69160,18146
17.69972,19444
17.70785,14739
17.71597,16537
17.72408,14277
17.73222,16089
17.74033,21342
17.74847,18442
17.75658,18442
17.76470,16136
17.77283,15653
17.78095,20328
17.78907,19772
17.79720,17588
17.80532,16022
17.81345,19373
17.82157,18344
17.82968,15243
17.83782,20328
17.84593,19471
17.85407,19006
17.86218,18156
17.87030,16622
17.87843,15162
17.88655,17064
17.89467,18333
17.90280,16396
17.91092,17356
17.91905,19597
17.92717,15076
17.93528,16214
17.94342,22359
17.95153,20348
17.95967,16475
17.96778,16382
17.97590,17550
17.98403,18041
17.99215,16828
18.00028,16844
18.00840,20107
18.01652,16960
18.02465,15250
18.03277,18426
18.04088,18775
18.04902,17091
18.05713,17322
18.06527,18338
18.07338,16426
18.08150,16642
18.08963,16191
18.09775,19109
18.10588,18758
18.11400,19788
18.12212,19571
18.13025,16745
18.13837,18258
18.14650,16589
18.15462,15874
18.16273,16159
18.17087,18138
18.17898,16375
18.18710,15328
18.19523,16151
18.20335,16680
18.21148,18987
18.21960,15770
18.22772,15170
18.23585,17273
18.24397,16394
18.25210,15342
18.26022,17067
18.26833,17462
18.27647,17222
18.28458,17344
18.29270,18769
18.30083,16969
18.30895,17414
18.31708,17630
18.32520,20313
18.33332,16304
18.34145,19617
18.34957,20445
18.35770,21321
18.36582,18460
18.37393,16477
18.38207,18881
18.39018,15715
18.39832,19906
18.40643,13685
18.41455,17960
18.42268,17191
18.43080,19294
18.43892,19084
18.44705,16867
18.45517,17222
18.46330,16944
18.47142,16300
18.47953,15243
18.48767,15853
18.49578,16369
18.50392,16991
18.51203,17361
18.52015,19513
18.52828,16906
18.53640,15255
18.54453,15068
18.55265,16098
18.56077,17356
18.56890,19720
18.57702,20317
18.58513,19012
18.59327,16010
18.60138,16151
18.60952,17210
18.61763,15516
18.62575,19037
18.63388,16381
18.64200,14982
18.65013,16360
18.65825,16305
18.66637,15571
18.67450,16177
18.68262,18772
18.69073,18625
18.69887,16724
18.70698,19328
18.71512,15891
18.72323,16871
18.73135,16534
18.73948,17426
18.74760,16893
18.75573,16517
18.76385,13452
18.77197,16040
18.78010,16244
18.78822,16329
18.79635,16303
18.80447,17956
18.81258,15277
18.82072,19190
18.82883,21213
18.83695,15165
18.84508,17136
18.85320,17118
18.86133,16249
18.86945,17750
18.87757,16236
18.88570,15877
18.89382,19305
18.90195,16477
18.91007,16908
18.91818,15060
18.92632,15137
18.93443,14987
18.94255,17107
18.95068,17068
18.95880,16645
18.96693,17410
18.97505,19291
18.98317,15916
18.99130,16618
18.99942,16702
19.00755,19670
19.01567,18611
19.02378,17315
19.03192,16267
19.04003,17639
19.04817,17014
19.05628,17831
19.06440,18596
19.07253,17310
19.08065,15694
19.08877,17696
19.09690,15887
19.10502,18489
19.11315,20654
19.12127,18331
19.12938,16575
19.13752,16773
19.14563,17888
19.15377,18015
19.16188,16336
19.17000,18405
19.17813,16315
19.18625,16468
19.19438,18951
19.20250,16325
19.21062,18146
19.21875,15987
19.22687,16225
19.23498,18575
19.24312,17507
19.25123,14705
19.25937,15940
19.26748,16104
19.27560,18445
19.28373,17361
19.29185,16401
19.29998,15266
19.30810,16385
19.31622,19922
19.32435,20726
19.33247,16679
19.34058,17946
19.34872,15901
19.35683,16126
19.36497,17914
19.37308,17563
19.38120,16726
19.38933,17609
19.39745,16739
19.40558,20259
19.41370,18629
19.42182,16157
19.42995,17356
19.43807,17883
19.44620,15633
19.45432,17227
19.46243,17693
19.47057,19267
19.47868,16396
19.48680,18531
19.49493,17379
19.50305,18411
19.51118,20036
19.51930,18450
19.52742,18112
19.53555,17531
19.54367,19142
19.55180,17445
19.55992,16316
19.56803,16324
19.57617,15116
19.58428,15978
19.59242,16474
19.60053,17621
19.60865,14640
19.61678,17728
19.62490,16932
19.63302,18552
19.64115,17060
19.64927,15681
19.65740,16207
19.66552,15851
19.67363,18993
19.68177,16600
19.68988,18466
19.69802,17151
19.70613,15062
19.71425,16358
19.72238,18259
19.73050,15056
19.73862,20603
19.74675,16562
19.75487,17246
19.76300,17355
19.77112,17215
19.77923,20421
19.78737,16007
19.79548,19589
19.80362,17423
19.81173,17718
19.81985,15965
19.82798,18958
19.83610,18701
19.84423,17195
19.85235,16708
19.86047,15681
19.86860,17975
19.87672,18789
19.88483,16953
19.89297,17736
19.90108,19558
19.90922,15549
19.91733,17940
19.92545,17133
19.93358,16638
19.94170,15124
19.94983,14976
19.95795,15386
19.96607,21685
19.97420,17568
19.98232,15245
19.99045,16118
19.99857,16389
20.00668,19788
20.01482,18249
20.02293,16856
20.03105,18410
20.03918,19148
20.04730,20802
20.05543,18123
20.06355,16417
20.07167,16556
20.07980,17147
20.08792,16264
20.09605,16423
20.10417,18458
20.11228,18791
20.12042,18666
20.12853,17612
20.13665,16367
20.14478,15783
20.15290,16768
20.16103,17231
20.16915,16144
20.17727,15539
20.18540,17789
20.19352,16498
20.20165,16605
20.20977,17028
20.21788,19636
20.22602,19036
20.23413,19328
20.24227,16966
20.25038,19373
20.25850,18074
20.26663,16258
20.27475,17700
20.28287,16266
20.29100,18532
20.29912,17530
20.30725,17307
20.31537,17994
20.32348,17394
20.33162,16404
20.33973,19895
20.34787,18709
20.35598,17244
20.36410,15479
20.37223,15389
20.38035,16459
20.38847,17088
20.39660,16832
20.40472,17240
20.41285,21528
20.42097,17264
20.42908,18050
20.43722,18057
20.44533,18472
20.45347,19163
20.46158,17208
20.46970,19339
20.47783,19449
20.48595,18164
20.49408,18047
20.50220,18419
20.51032,17715
20.51845,17797
20.52657,17651
20.53468,20206
20.54282,18683
20.55093,19448
20.55907,15713
20.56718,19805
20.57530,17393
20.58343,19678
20.59155,19445
20.59968,21108
20.60780,13792
20.61592,18318
20.62405,16157
20.63217,15905
20.64030,17540
20.64842,16650
20.65653,18069
20.66467,17483
20.67278,18528
20.68090,16391
20.68903,18334
20.69715,17988
20.70528,17391
20.71340,20509
20.72152,17901
20.72965,17260
20.73777,17476
20.74590,17931
20.75402,17615
20.76213,19422
20.77027,17112
20.77838,19297
20.78650,18577
20.79463,18328
20.80275,18310
20.81088,18874
20.81900,18781
20.82712,15796
20.83525,18671
20.84337,17946
20.85150,17599
20.85962,18005
20.86773,17046
20.87587,19257
20.88398,20086
20.89212,18411
20.90023,18407
20.90835,15719
20.91648,17587
20.92460,16173
20.93272,16318
20.94085,18260
20.94897,18460
20.95710,15308
20.96522,17746
20.97333,19986
20.98147,18922
20.98958,17966
20.99772,17304
21.00583,19702
21.01395,22330
21.02208,17635
21.03020,18122
21.03833,17915
21.04645,18033
21.05457,17989
21.06270,17350
21.07082,17293
21.07893,16808
21.08707,16061
21.09518,16485
21.10332,17835
21.11143,15515
21.11955,16104
21.12768,16132
21.13580,19550
21.14393,20067
21.15205,18051
21.16017,20539
21.16830,21864
21.17642,21277
21.18453,17818
21.19267,16567
21.20078,17526
21.20892,17143
21.21703,16371
21.22515,18626
21.23328,16056
21.24140,18862
21.24953,15637
21.25765,18295
21.26577,18986
21.27390,15869
21.28202,18007
21.29015,16173
21.29827,17797
21.30638,15385
21.31452,15751
21.32263,16834
21.33075,17278
21.33888,19623
21.34700,18659
21.35513,17907
21.36325,16046
21.37137,16186
21.37950,15364
21.38762,17522
21.39575,19632
21.40387,18935
21.41198,15436
21.42012,18037
21.42823,18701
21.43635,19741
21.44448,17822
21.45260,18709
21.46073,19456
21.46885,17090
21.47697,20287
21.48510,19460
21.49322,17668
21.50135,16376
21.50947,16958
21.51758,20030
21.52572,17520
21.53383,19666
21.54197,17681
21.55008,18085
21.55820,18189
21.56633,19285
21.57445,21792
21.58257,17051
21.59070,19541
21.59882,18453
21.60695,17921
21.61507,19060
21.62318,17789
21.63132,14872
21.63943,16089
21.64757,19541
21.65568,15893
21.66380,17119
21.67193,19048
21.68005,15003
21.68818,15927
21.69630,20367
21.70442,15612
21.71255,19298
21.72067,17152
21.72878,16373
21.73692,17954
21.74503,17194
21.75317,16219
21.76128,16894
21.76940,16777
21.77753,17787
21.78565,18125
21.79378,18230
21.80190,18263
21.81002,18279
21.81815,17478
21.82627,17228
21.83440,19772
21.84252,17508
21.85063,14829
21.85877,19855
21.86688,17642
21.87500,21624
21.88313,18993
21.89125,17944
21.89938,18550
21.90750,19731
21.91562,19534
21.92375,16065
21.93187,18658
21.94000,18774
21.94812,17379
21.95623,22740
21.96437,16607
21.97248,16826
21.98060,17525
21.98873,19772
21.99685,17413
22.00498,18244
22.01310,16941
22.02122,15197
22.02935,17709
22.03747,17552
22.04560,17487
22.05372,19444
22.06183,17433
22.06997,18544
22.07808,18263
22.08622,17228
22.09433,21423
22.10245,15051
22.11058,18655
22.11870,16995
22.12682,17588
22.13495,18789
22.14307,18468
22.15120,17008
22.15932,18720
22.16743,17082
22.17557,18271
22.18368,16592
22.19182,19563
22.19993,18212
22.20805,18993
22.21618,19035
22.22430,17238
22.23242,18734
22.24055,16883
22.24867,19263
22.25680,19252
22.26492,19133
22.27303,18995
22.28117,24991
22.28928,18838
22.29742,20481
22.30553,17482
22.31365,20464
22.32178,17825
22.32990,19450
22.33803,17534
22.34615,17571
22.35427,20813
22.36240,17990
22.37052,18415
22.37863,18311
22.38677,21774
22.39488,19889
22.40302,18150
22.41113,16596
22.41925,17480
22.42738,18229
22.43550,19633
22.44363,16783
22.45175,19994
22.45987,17744
22.46800,19494
22.47612,19323
22.48423,16693
22.49237,18070
22.50048,17219
22.50862,20491
22.51673,17996
22.52485,18384
22.53298,16928
22.54110,19268
22.54923,21446
22.55735,17241
22.56547,20558
22.57360,17794
22.58172,20650
22.58985,17563
22.59797,20476
22.60608,18520
22.61422,17096
22.62233,16903
22.63045,18451
22.63858,16145
22.64670,19337
22.65483,19343
22.66295,22012
22.67107,17745
22.67920,18198
22.68732,18396
22.69545,21782
22.70357,19010
22.71168,20658
22.71982,18232
22.72793,21620
22.73607,20426
22.74418,21283
22.75230,20016
22.76043,17711
22.76855,17714
22.77667,18978
22.78480,22382
22.79292,19946
22.80105,18384
22.80917,19047
22.81728,20196
22.82542,16371
22.83353,18725
22.84167,18790
22.84978,21496
22.85790,17980
22.86603,20786
22.87415,18121
22.88228,19232
22.89040,21839
22.89852,19121
22.90665,17459
22.91477,18980
22.92288,16885
22.93102,18586
22.93913,18740
22.94727,19580
22.95538,20621
22.96350,21202
22.97163,19462
22.97975,18420
22.98788,21637
22.99600,16469
23.00412,21299
23.01225,20616
23.02037,23103
23.02848,19530
23.03662,19424
23.04473,19577
23.05287,19849
23.06098,20660
23.06910,19015
23.07723,18992
23.08535,18138
23.09348,18829
23.10160,18665
23.10972,23082
23.11785,16475
23.12597,18794
23.13410,15642
23.14222,22040
23.15033,20434
23.15847,16664
23.16658,20167
23.17470,18824
23.18283,20389
23.19095,17340
23.19908,20663
23.20720,20894
23.21532,19157
23.22345,18240
23.23157,18257
23.23970,19943
23.24782,16864
23.25593,22606
23.26407,17843
23.27218,18444
23.28030,20435
23.28843,19907
23.29655,20382
23.30468,19879
23.31280,18385
23.32092,20412
23.32905,20463
23.33717,20516
23.34530,18701
23.35342,20726
23.36153,16373
23.36967,20895
23.37778,18231
23.38592,19360
23.39403,18816
23.40215,17216
23.41028,19789
23.41840,19570
23.42652,20604
23.43465,19814
23.44277,19306
23.45090,20579
23.45902,19084
23.46713,20267
23.47527,22006
23.48338,18584
23.49152,18874
23.49963,19465
23.50775,21415
23.51588,17934
23.52400,19684
23.53213,22666
23.54025,20451
23.54837,18851
23.55650,22349
23.56462,22086
23.57273,22985
23.58087,19824
23.58898,20906
23.59712,20282
23.60523,20922
23.61335,20232
23.62148,21750
23.62960,19420
23.63773,21067
23.64585,22564
23.65397,21174
23.66210,21282
23.67022,19544
23.67833,22260
23.68647,20415
23.69458,23661
23.70272,24448
23.71083,20291
23.71895,21188
23.72708,18529
23.73520,21544
23.74333,23734
23.75145,24015
23.75957,20860
23.76770,21861
23.77582,24350
23.78395,25419
23.79207,22252
23.80018,23577
23.80832,23205
23.81643,25536
23.82455,23141
23.83268,21707
23.84080,21987
23.84893,23161
23.85705,22466
23.86517,20274
23.87330,20627
23.88142,22006
23.88955,22059
23.89767,19945
23.90578,21355
23.91392,18851
23.92203,21414
23.93017,20792
23.93828,23566
23.94640,20942
23.95453,21888
23.96265,22991
23.97077,19417
23.97890,20109
23.98702,20173
23.99515,19554
24.00327,19782
24.01138,19066
24.01952,21648
24.02763,22464
24.03577,20906
24.04388,19638
24.05200,20978
24.06013,21008
24.06825,22039
24.07637,19911
24.08450,19928
24.09262,19928
24.10075,23068
24.10887,21171
24.11698,19838
24.12512,19247
24.13323,18285
24.14137,18923
24.14948,20454
24.15760,18081
24.16573,19505
24.17385,21581
24.18198,20227
24.19010,20884
24.19822,21273
24.20635,18572
24.21447,21522
24.22258,20673
24.23072,18675
24.23883,20956
24.24697,20756
24.25508,22041
24.26320,19887
24.27133,18951
24.27945,20646
24.28758,18657
24.29570,19434
24.30382,18175
24.31195,19613
24.32007,21601
24.32818,22508
24.33632,20831
24.34443,24482
24.35257,21044
24.36068,20319
24.36880,22849
24.37693,21224
24.38505,20953
24.39318,19488
24.40130,19848
24.40942,23834
24.41755,24049
24.42567,24494
24.43380,23201
24.44192,22416
24.45003,26259
24.45817,22464
24.46628,19344
24.47440,21640
24.48253,20235
24.49065,19441
24.49878,21438
24.50690,18468
24.51502,20778
24.52315,20822
24.53127,20224
24.53940,24160
24.54752,18298
24.55563,20310
24.56377,20643
24.57188,19475
24.58002,20430
24.58813,22696
24.59625,20959
24.60438,26244
24.61250,21149
24.62062,21038
24.62875,24101
24.63687,20911
24.64500,20068
24.65312,23952
24.66123,19833
24.66937,24684
24.67748,22538
24.68562,21298
24.69373,20897
24.70185,22532
24.70998,19332
24.71810,20008
24.72622,20747
24.73435,22388
24.74247,21450
24.75060,20749
24.75872,21249
24.76683,20584
24.77497,21609
24.78308,19599
24.79122,20777
24.79933,21806
24.80745,21002
24.81558,21530
24.82370,21653
24.83183,21998
24.83995,22986
24.84807,24397
24.85620,21322
24.86432,20874
24.87243,21065
24.88057,20340
24.88868,19941
24.89682,22321
24.90493,19584
24.91305,20897
24.92118,23178
24.92930,21523
24.93743,21928
24.94555,21239
24.95367,19085
24.96180,26470
24.96992,20447
24.97805,22608
24.98617,22585
24.99428,19778
25.00242,21607
25.01053,23568
25.01865,22764
25.02678,25377
25.03490,20525
25.04303,22780
25.05115,26016
25.05927,23116
25.06740,24678
25.07552,19332
25.08365,19664
25.09177,22593
25.09988,24828
25.10802,20358
25.11613,20368
25.12425,20613
25.13238,22502
25.14050,21518
25.14863,21058
25.15675,18685
25.16487,22277
25.17300,26145
25.18112,21893
25.18925,20090
25.19737,21984
25.20548,21981
25.21362,22443
25.22173,20598
25.22987,20834
25.23798,21636
25.24610,20166
25.25423,20427
25.26235,19626
25.27047,22731
25.27860,23819
25.28672,23082
25.29485,20764
25.30297,24853
25.31108,19486
25.31922,24105
25.32733,23793
25.33547,22768
25.34358,23771
25.35170,23291
25.35983,22571
25.36795,19984
25.37608,22934
25.38420,21730
25.39232,23356
25.40045,22136
25.40857,21728
25.41668,22083
25.42482,21187
25.43293,22028
25.44107,21556
25.44918,20138
25.45730,21029
25.46543,22344
25.47355,21655
25.48168,23668
25.48980,21861
25.49792,22763
25.50605,21817
25.51417,24600
25.52228,22213
25.53042,23964
25.53853,21931
25.54667,21300
25.55478,22301
25.56290,23533
25.57103,22509
25.57915,21588
25.58728,21760
25.59540,21240
25.60352,21372
25.61165,21175
25.61977,23293
25.62790,20520
25.63602,25579
25.64413,21437
25.65227,19171
25.66038,21506
25.66850,23761
25.67663,20387
25.68475,22028
25.69288,20428
25.70100,23924
25.70912,22314
25.71725,22036
25.72537,22299
25.73350,20511
25.74162,27587
25.74973,24600
25.75787,26214
25.76598,22336
25.77410,25714
25.78223,20107
25.79035,21054
25.79848,22772
25.80660,22635
25.81472,21353
25.82285,22569
25.83097,21975
25.83910,22663
25.84722,23041
25.85533,23285
25.86347,21680
25.87158,23726
25.87972,21867
25.88783,22063
25.89595,19827
25.90408,20847
25.91220,23516
25.92032,23847
25.92845,25016
25.93657,21534
25.94470,22030
25.95282,23279
25.96093,23278
25.96907,21135
25.97718,21020
25.98532,25197
25.99343,23743
26.00155,23646
26.00968,23478
26.01780,24246
26.02593,23470
26.03405,24427
26.04217,21124
26.05030,21718
26.05842,22809
26.06653,21870
26.07467,21976
26.08278,26374
26.09092,24520
26.09903,21743
26.10715,24252
26.11528,22373
26.12340,23545
26.13153,24784
26.13965,22295
26.14777,22940
26.15590,21358
26.16402,20730
26.17213,22385
26.18027,23767
26.18838,26107
26.19652,22552
26.20463,24635
26.21275,23313
26.22088,25950
26.22900,25486
26.23713,25279
26.24525,22773
26.25337,26307
26.26150,25925
26.26962,22939
26.27775,24360
26.28587,24543
26.29398,22577
26.30212,24800
26.31023,25131
26.31835,23426
26.32648,23427
26.33460,24159
26.34273,22121
26.35085,22328
26.35897,23046
26.36710,24398
26.37522,23316
26.38335,23214
26.39147,22986
26.39958,22516
26.40772,21374
26.41583,22724
26.42397,22088
26.43208,21435
26.44020,22181
26.44833,23739
26.45645,25308
26.46457,25200
26.47270,22161
26.48082,23560
26.48895,24146
26.49707,22573
26.50518,27158
26.51332,22304
26.52143,24469
26.52957,24351
26.53768,26903
26.54580,24177
26.55393,23970
26.56205,24489
26.57017,24039
26.57830,22006
26.58642,24275
26.59455,22691
26.60267,22979
26.61078,24233
26.61892,23344
26.62703,26160
26.63517,25257
26.64328,23212
26.65140,21310
26.65953,30518
26.66765,24375
26.67578,24435
26.68390,24740
26.69202,23533
26.70015,25546
26.70827,24177
26.71638,25408
26.72452,24163
26.73263,25880
26.74077,24533
26.74888,25075
26.75700,25578
26.76513,21393
26.77325,26967
26.78138,23486
26.78950,22539
26.79762,26773
26.80575,24714
26.81387,26525
26.82198,26100
26.83012,25193
26.83823,25461
26.84637,22905
26.85448,24100
26.86260,23858
26.87073,21611
26.87885,24660
26.88698,22973
26.89510,22966
26.90322,23243
26.91135,21344
26.91947,27023
26.92760,24287
26.93572,27072
26.94383,25392
26.95197,27303
26.96008,24235
26.96820,24378
26.97633,26940
26.98445,22818
26.99258,24368
27.00070,26997
27.00882,28065
27.01695,26027
27.02507,26642
27.03320,26783
27.04132,27940
27.04943,27089
27.05757,28546
27.06568,29841
27.07382,25723
27.08193,24702
27.09005,27204
27.09818,27382
27.10630,25228
27.11442,25806
27.12255,23175
27.13067,25058
27.13880,25631
27.14692,24250
27.15503,25541
27.16317,26274
27.17128,23603
27.17942,25729
27.18753,26739
27.19565,24434
27.20378,23482
27.21190,24695
27.22002,24760
27.22815,22511
27.23627,26081
27.24440,25226
27.25252,24830
27.26063,26682
27.26877,26562
27.27688,29295
27.28502,24855
27.29313,28919
27.30125,26443
27.30938,29450
27.31750,25181
27.32563,25852
27.33375,25664
27.34187,26828
27.35000,24551
27.35812,28556
27.36623,25123
27.37437,28552
27.38248,25361
27.39062,25480
27.39873,24215
27.40685,25799
27.41498,25590
27.42310,27833
27.43123,24784
27.43935,25815
27.44747,25878
27.45560,26078
27.46372,26843
27.47185,28726
27.47997,25528
27.48808,26792
27.49622,27646
27.50433,29839
27.51245,26489
27.52058,24815
27.52870,26154
27.53683,27915
27.54495,28049
27.55307,27550
27.56120,27001
27.56932,28455
27.57745,25706
27.58557,29944
27.59368,25895
27.60182,27177
27.60993,30422
27.61805,27111
27.62618,28554
27.63430,26231
27.64243,28612
27.65055,25046
27.65867,29062
27.66680,26692
27.67492,28409
27.68305,24242
27.69117,28629
27.69928,31308
27.70742,29622
27.71553,28083
27.72367,25987
27.73178,29411
27.73990,26123
27.74803,27909
27.75615,24800
27.76427,28050
27.77240,27823
27.78052,29686
27.78865,30687
27.79677,26707
27.80488,25496
27.81302,26175
27.82113,29074
27.82927,23454
27.83738,29810
27.84550,29287
27.85363,27352
27.86175,29443
27.86987,27059
27.87800,28050
27.88612,27427
27.89425,29669
27.90237,26584
27.91048,26550
27.91862,27198
27.92673,27110
27.93487,28668
27.94298,29221
27.95110,27193
27.95923,31831
27.96735,30761
27.97548,29903
27.98360,28947
27.99172,32973
27.99985,29916
28.00797,28541
28.01608,26678
28.02422,26673
28.03233,28026
28.04047,30636
28.04858,27154
28.05670,28759
28.06483,28385
28.07295,29218
28.08108,27372
28.08920,31651
28.09732,28343
28.10545,26725
28.11357,27960
28.12170,25607
28.12982,28610
28.13793,28377
28.14607,30148
28.15418,27233
28.16230,28259
28.17043,26035
28.17855,28922
28.18668,27083
28.19480,32344
28.20292,27498
28.21105,32379
28.21917,28321
28.22730,29005
28.23542,29137
28.24353,30116
28.25167,32469
28.25978,29538
28.26792,30400
28.27603,30282
28.28415,27788
28.29228,28188
28.30040,30198
28.30852,29148
28.31665,31976
28.32477,31471
28.33290,27794
28.34102,32136
28.34913,32553
28.35727,27890
28.36538,32023
28.37352,28616
28.38163,32028
28.38975,33033
28.39788,31276
28.40600,28784
28.41412,30850
28.42225,33143
28.43037,28447
28.43850,27096
28.44662,30786
28.45473,31299
28.46287,29034
28.47098,30363
28.47912,30302
28.48723,30707
28.49535,29962
28.50348,31583
28.51160,31807
28.51973,29873
28.52785,28497
28.53597,30414
28.54410,32969
28.55222,30079
28.56033,29598
28.56847,30337
28.57658,28269
28.58472,28085
28.59283,28102
28.60095,30017
28.60908,31007
28.61720,28513
28.62533,29786
28.63345,30442
28.64157,28109
28.64970,30778
28.65782,29761
28.66593,30614
28.67407,30002
28.68218,31506
28.69032,30417
28.69843,32210
28.70655,30100
28.71468,32288
28.72280,29120
28.73093,31284
28.73905,33550
28.74717,30668
28.75530,31315
28.76342,30450
28.77155,32246
28.77967,28843
28.78778,32253
28.79592,30425
28.80403,30079
28.81215,30204
28.82028,28641
28.82840,29026
28.83653,30615
28.84465,32241
28.85277,32188
28.86090,31211
28.86902,29400
28.87715,28251
28.88527,31148
28.89338,33583
28.90152,30679
28.90963,31771
28.91777,31259
28.92588,31844
28.93400,36508
28.94213,32418
28.95025,31729
28.95837,32429
28.96650,33024
28.97462,34126
28.98275,32187
28.99087,32707
28.99898,34941
29.00712,32394
29.01523,33032
29.02337,32576
29.03148,31111
29.03960,37814
29.04773,31384
29.05585,30062
29.06397,30635
29.07210,32602
29.08022,32341
29.08835,33648
29.09647,31869
29.10458,33586
29.11272,32742
29.12083,34421
29.12897,34071
29.13708,33090
29.14520,31856
29.15333,32186
29.16145,31075
29.16958,32146
29.17770,31067
29.18582,33067
29.19395,33095
29.20207,35368
29.21018,33313
29.21832,32465
29.22643,33581
29.23457,33874
29.24268,34613
29.25080,34731
29.25893,36442
29.26705,34822
29.27518,34358
29.28330,36477
29.29142,32568
29.29955,31968
29.30767,32772
29.31580,33461
29.32392,33179
29.33203,33156
29.34017,34793
29.34828,33010
29.35640,32331
29.36453,33494
29.37265,36212
29.38078,32090
29.38890,32651
29.39702,35074
29.40515,33687
29.41327,31656
29.42140,32434
29.42952,33334
29.43763,32871
29.44577,34281
29.45388,32513
29.46200,33431
29.47013,32643
29.47825,31823
29.48638,34624
29.49450,33977
29.50262,35327
29.51075,35522
29.51887,34160
29.52700,33321
29.53512,31794
29.54323,34555
29.55137,34727
29.55948,34391
29.56762,34895
29.57573,33750
29.58385,34510
29.59198,34026
29.60010,35777
29.60822,35965
29.61635,32915
29.62447,34475
29.63260,34675
29.64072,35979
29.64883,36809
29.65697,35083
29.66508,33922
29.67322,34026
29.68133,36447
29.68945,37622
29.69758,39540
29.70570,34937
29.71382,36203
29.72195,34186
29.73007,36934
29.73820,35004
29.74632,39245
29.75443,37359
29.76257,36721
29.77068,36599
29.77882,35231
29.78693,38464
29.79505,37152
29.80318,35255
29.81130,37524
29.81943,36493
29.82755,38354
29.83567,36739
29.84380,35487
29.85192,37812
29.86003,38225
29.86817,31033
29.87628,36884
29.88442,36381
29.89253,40052
29.90065,40344
29.90878,36669
29.91690,38428
29.92503,38488
29.93315,41127
29.94127,38427
29.94940,37412
29.95752,36819
29.96565,38501
29.97377,40236
29.98188,39478
29.99002,39951
29.99813,39144
30.00625,37970
30.01438,43577
30.02250,36632
30.03063,37767
30.03875,35827
30.04687,40022
30.05500,40926
30.06312,39465
30.07125,37281
30.07937,38203
30.08748,37828
30.09562,35553
30.10373,40300
30.11185,38147
30.11998,36597
30.12810,35473
30.13623,36701
30.14435,39539
30.15247,39138
30.16060,38320
30.16872,36269
30.17685,44202
30.18497,39635
30.19308,42036
30.20122,42381
30.20933,40046
30.21747,39738
30.22558,38429
30.23370,40298
30.24183,42596
30.24995,39216
30.25807,39222
30.26620,40278
30.27432,41462
30.28245,41371
30.29057,39950
30.29868,41763
30.30682,39481
30.31493,39505
30.32307,36108
30.33118,40383
30.33930,41873
30.34743,40895
30.35555,38152
30.36368,40702
30.37180,41774
30.37992,38530
30.38805,38283
30.39617,41929
30.40428,41030
30.41242,40967
30.42053,42753
30.42867,42416
30.43678,41669
30.44490,45235
30.45303,41144
30.46115,41829
30.46928,44587
30.47740,46220
30.48552,40360
30.49365,39865
30.50177,41747
30.50988,44598
30.51802,42250
30.52613,44300
30.53427,41980
30.54238,41752
30.55050,39954
30.55863,39883
30.56675,43125
30.57488,41816
30.58300,41907
30.59112,43931
30.59925,42871
30.60737,42622
30.61550,43571
30.62362,45101
30.63173,41437
30.63987,41403
30.64798,43586
30.65610,40291
30.66423,44010
30.67235,45611
30.68048,40910
30.68860,43076
30.69672,42334
30.70485,44726
30.71297,44211
30.72110,44996
30.72922,43651
30.73733,42852
30.74547,44526
30.75358,43192
30.76172,44588
30.76983,44311
30.77795,48071
30.78608,42599
30.79420,45883
30.80232,42371
30.81045,44598
30.81857,48192
30.82670,41949
30.83482,44859
30.84293,43130
30.85107,43227
30.85918,46780
30.86732,45785
30.87543,44159
30.88355,41663
30.89168,45655
30.89980,49242
30.90792,43829
30.91605,43264
30.92417,42971
30.93230,45356
30.94042,44812
30.94853,41766
30.95667,45769
30.96478,44803
30.97292,46020
30.98103,53010
30.98915,42360
30.99728,49000
31.00540,51872
31.01353,48437
31.02165,45922
31.02977,45760
31.03790,45709
31.04602,46437
31.05413,44995
31.06227,42573
31.07038,48753
31.07852,46073
31.08663,48174
31.09475,48854
31.10288,50507
31.11100,47890
31.11913,46805
31.12725,50823
31.13537,48328
31.14350,49831
31.15162,48456
31.15973,45757
31.16787,44729
31.17598,49902
31.18412,48315
31.19223,51894
31.20035,47031
31.20848,44782
31.21660,45192
31.22473,52121
31.23285,49808
31.24097,51282
31.24910,49031
31.25722,45788
31.26535,51714
31.27347,49173
31.28158,46427
31.28972,47846
31.29783,47377
31.30595,47743
31.31408,50243
31.32220,50023
31.33033,46586
31.33845,49615
31.34657,47867
31.35470,49011
31.36282,52648
31.37095,49942
31.37907,45289
31.38718,51078
31.39532,48305
31.40343,48236
31.41157,47094
31.41968,49662
31.42780,51219
31.43593,49362
31.44405,55661
31.45217,49905
31.46030,50044
31.46842,50223
31.47655,48542
31.48467,47865
31.49278,52960
31.50092,49093
31.50903,48933
31.51717,49790
31.52528,47263
31.53340,52802
31.54153,50212
31.54965,50227
31.55777,48378
31.56590,51987
31.57402,51513
31.58215,52103
31.59027,50674
31.59838,55087
31.60652,52692
31.61463,54009
31.62277,51799
31.63088,53500
31.63900,53310
31.64713,54726
31.65525,49114
31.66338,53221
31.67150,50893
31.67962,55953
31.68775,55269
31.69587,57303
31.70398,56010
31.71212,52851
31.72023,56156
31.72837,51440
31.73648,55725
31.74460,49797
31.75273,52114
31.76085,51957
31.76898,55482
31.77710,50661
31.78522,51605
31.79335,50264
31.80147,53171
31.80960,52966
31.81772,52629
31.82583,51194
31.83397,49020
31.84208,51009
31.85020,56901
31.85833,52354
31.86645,54440
31.87458,56161
31.88270,54425
31.89082,59138
31.89895,52530
31.90707,54804
31.91520,54613
31.92332,55331
31.93143,50632
31.93957,53662
31.94768,54368
31.95580,53471
31.96393,55876
31.97205,52810
31.98018,55437
31.98830,53740
31.99642,57534
32.00455,53578
32.01267,56045
32.02080,53482
32.02892,60305
32.03703,55660
32.04517,53273
32.05328,54864
32.06142,56470
32.06953,58754
32.07765,59856
32.08578,55238
32.09390,55647
32.10202,56450
32.11015,62027
32.11827,59125
32.12640,55585
32.13452,55777
32.14263,56279
32.15077,56607
32.15888,63268
32.16702,57639
32.17513,56537
32.18325,58598
32.19138,53951
32.19950,57746
32.20762,57214
32.21575,58813
32.22387,58116
32.23200,57375
32.24012,57631
32.24823,57756
32.25637,61721
32.26448,58929
32.27262,60633
32.28073,57584
32.28885,56231
32.29698,59331
32.30510,59845
32.31323,61654
32.32135,62896
32.32947,56345
32.33760,56597
32.34572,58408
32.35383,58711
32.36197,60615
32.37008,58770
32.37822,61718
32.38633,58163
32.39445,62749
32.40258,65488
32.41070,60209
32.41883,63634
32.42695,59730
32.43507,58151
32.44320,58781
32.45132,68746
32.45945,58945
32.46757,62109
32.47568,60234
32.48382,60536
32.49193,59842
32.50005,58794
32.50818,61666
32.51630,62826
32.52443,61364
32.53255,64221
32.54067,60233
32.54880,63053
32.55692,69151
32.56505,60523
32.57317,59441
32.58128,62952
32.58942,60925
32.59753,63200
32.60567,63068
32.61378,67758
32.62190,61496
32.63003,62399
32.63815,63449
32.64627,61424
32.65440,64623
32.66252,61585
32.67065,63144
32.67877,64094
32.68688,61848
32.69502,66018
32.70313,64060
32.71127,65654
32.71938,72121
32.72750,66642
32.73563,62195
32.74375,67777
32.75187,62682
32.76000,63518
32.76812,63947
32.77625,66674
32.78437,66163
32.79248,65508
32.80062,67800
32.80873,67406
32.81687,69776
32.82498,64892
32.83310,64122
32.84123,64137
32.84935,66314
32.85748,66443
32.86560,69681
32.87372,67265
32.88185,72617
32.88997,66726
32.89808,68255
32.90622,70807
32.91433,72561
32.92247,64845
32.93058,65403
32.93870,71198
32.94683,69825
32.95495,68021
32.96308,71156
32.97120,68816
32.97932,68986
32.98745,74364
32.99557,66447
33.00368,70026
33.01182,72615
33.01993,70376
33.02807,70095
33.03618,71006
33.04430,71178
33.05243,72284
33.06055,73735
33.06868,66333
33.07680,67509
33.08492,66307
33.09305,67703
33.10117,71335
33.10930,70718
33.11742,72144
33.12553,72420
33.13367,71919
33.14178,69756
33.14990,70326
33.15803,70006
33.16615,68404
33.17428,73181
33.18240,71017
33.19052,72580
33.19865,72421
33.20677,71964
33.21490,71487
33.22302,69923
33.23113,75197
33.23927,70462
33.24738,74768
33.25552,74584
33.26363,71474
33.27175,76590
33.27988,74759
33.28800,78805
33.29612,76132
33.30425,76069
33.31237,76514
33.32050,74684
33.32862,77238
33.33673,72764
33.34487,72257
33.35298,73771
33.36112,71164
33.36923,75114
33.37735,75717
33.38548,75318
33.39360,76623
33.40172,73690
33.40985,76020
33.41797,75809
33.42610,79568
33.43422,78711
33.44233,77143
33.45047,75625
33.45858,76552
33.46672,77010
33.47483,78433
33.48295,77367
33.49108,74139
33.49920,75205
33.50733,75708
33.51545,76783
33.52357,77927
33.53170,75808
33.53982,79231
33.54793,75145
33.55607,83910
33.56418,76469
33.57232,79025
33.58043,79585
33.58855,77357
33.59668,76729
33.60480,76330
33.61293,79827
33.62105,83080
33.62917,80320
33.63730,81894
33.64542,80641
33.65355,82860
33.66167,83497
33.66978,78391
33.67792,76836
33.68603,78510
33.69415,81824
33.70228,87293
33.71040,85724
33.71853,84411
33.72665,82456
33.73477,84183
33.74290,81693
33.75102,83626
33.75915,82062
33.76727,85103
33.77538,81459
33.78352,81095
33.79163,82792
33.79975,86362
33.80788,82592
33.81600,84775
33.82413,81884
33.83225,84629
33.84037,88387
33.84850,88868
33.85662,83746
33.86475,83355
33.87287,88163
33.88098,86047
33.88912,82360
33.89723,87405
33.90537,85566
33.91348,89918
33.92160,89457
33.92973,87274
33.93785,85965
33.94597,82287
33.95410,86610
33.96222,83887
33.97035,86813
33.97847,87875
33.98658,86684
33.99472,91527
34.00283,89536
34.01097,88635
34.01908,87984
34.02720,88474
34.03533,95335
34.04345,89320
34.05157,91151
34.05970,86562
34.06782,90422
34.07595,97697
34.08407,94395
34.09218,90821
34.10032,95266
34.10843,92171
34.11657,92831
34.12468,93543
34.13280,92089
34.14093,90149
34.14905,90959
34.15718,88035
34.16530,90548
34.17342,86598
34.18155,93792
34.18967,92217
34.19778,94606
34.20592,96853
34.21403,93853
34.22217,92235
34.23028,89215
34.23840,92435
34.24653,88211
34.25465,86451
34.26278,90739
34.27090,99735
34.27902,90306
34.28715,91017
34.29527,95774
34.30340,93925
34.31152,92353
34.31963,99642
34.32777,97348
34.33588,92730
34.34400,92018
34.35213,92145
34.36025,90483
34.36838,92898
34.37650,92381
34.38462,95456
34.39275,93883
34.40087,96630
34.40900,93265
34.41712,97181
34.42523,99397
34.43337,94700
34.44148,100454
34.44960,98257
34.45773,92725
34.46585,102523
34.47398,104443
34.48210,99730
34.49022,98479
34.49835,97029
34.50647,99509
34.51460,100345
34.52272,96183
34.53083,100721
34.53897,100275
34.54708,106735
34.55522,101796
34.56333,99781
34.57145,98590
34.57958,103340
34.58770,102983
34.59582,101853
34.60395,101921
34.61207,96660
34.62020,102939
34.62832,101769
34.63643,104271
34.64457,101432
34.65268,96328
34.66082,109930
34.66893,100824
34.67705,103558
34.68518,99932
34.69330,98530
34.70143,97813
34.70955,101568
34.71767,103839
34.72580,105056
34.73392,105602
34.74203,102288
34.75017,105956
34.75828,106053
34.76642,104682
34.77453,102888
34.78265,105027
34.79078,106309
34.79890,107032
34.80703,105593
34.81515,109402
34.82327,104455
34.83140,107302
34.83952,108893
34.84763,115339
34.85577,111379
34.86388,105737
34.87202,106269
34.88013,111750
34.88825,111973
34.89638,109059
34.90450,111279
34.91263,112548
34.92075,108105
34.92887,109294
34.93700,108691
34.94512,115982
34.95325,111235
34.96137,114896
34.96948,111885
34.97762,113323
34.98573,109048
34.99385,111378
35.00198,110369
35.01010,114207
35.01823,112289
35.02635,110837
35.03447,115303
35.04260,116748
35.05072,111816
35.05885,112349
35.06697,121335
35.07508,116226
35.08322,118849
35.09133,117010
35.09945,116855
35.10758,119729
35.11570,115975
35.12383,119452
35.13195,109492
35.14007,121912
35.14820,120887
35.15632,116021
35.16445,119615
35.17257,117847
35.18068,119052
35.18882,119119
35.19693,116350
35.20507,122791
35.21318,120669
35.22130,126748
35.22943,124055
35.23755,123366
35.24567,122882
35.25380,123239
35.26192,121310
35.27005,120400
35.27817,120904
35.28628,121442
35.29442,121422
35.30253,118331
35.31067,120966
35.31878,123932
35.32690,125268
35.33503,125455
35.34315,131273
35.35128,126038
35.35940,127053
35.36752,124695
35.37565,126014
35.38377,126373
35.39188,124259
35.40002,125136
35.40813,132166
35.41627,125948
35.42438,134700
35.43250,132344
35.44063,132549
35.44875,127275
35.45688,126178
35.46500,126594
35.47312,129039
35.48125,126684
35.48937,130261
35.49748,128069
35.50562,129476
35.51373,129663
35.52187,131971
35.52998,132130
35.53810,131072
35.54623,131322
35.55435,131560
35.56248,128746
35.57060,131803
35.57872,136719
35.58685,137793
35.59497,131206
35.60310,127402
35.61122,131066
35.61933,136150
35.62747,134071
35.63558,129912
35.64370,136576
35.65183,133018
35.65995,127131
35.66808,135320
35.67620,128458
35.68432,133334
35.69245,137060
35.70057,129182
35.70870,127877
35.71682,131139
35.72493,137189
35.73307,132212
35.74118,138047
35.74932,135851
35.75743,135179
35.76555,137549
35.77368,134896
35.78180,136130
35.78992,137892
35.79805,138911
35.80617,130534
35.81430,135094
35.82242,139236
35.83053,139335
35.83867,133494
35.84678,135239
35.85492,137714
35.86303,137334
35.87115,140169
35.87928,139349
35.88740,130639
35.89552,135151
35.90365,140328
35.91177,133546
35.91990,137860
35.92802,136797
35.93613,140698
35.94427,137286
35.95238,141266
35.96052,139322
35.96863,138549
35.97675,139283
35.98488,140675
35.99300,141047
36.00113,143660
36.00925,140865
36.01737,142975
36.02550,145590
36.03362,141174
36.04173,138153
36.04987,144186
36.05798,147948
36.06612,144170
36.07423,146909
36.08235,148860
36.09048,154264
36.09860,145696
36.10673,149032
36.11485,152281
36.12297,155644
36.13110,149358
36.13922,154529
36.14735,158241
36.15547,152026
36.16358,149939
36.17172,156038
36.17983,152984
36.18795,155915
36.19608,157616
36.20420,155139
36.21233,161859
36.22045,156261
36.22857,158794
36.23670,160823
36.24482,158640
36.25295,160335
36.26107,160561
36.26918,154968
36.27732,160467
36.28543,163278
36.29355,156491
36.30168,162290
36.30980,162235
36.31793,160926
36.32605,165924
36.33417,158384
36.34230,162198
36.35042,157404
36.35855,164340
36.36667,168402
36.37478,166056
36.38292,167098
36.39103,166430
36.39917,162909
36.40728,160627
36.41540,161322
36.42353,174336
36.43165,164867
36.43977,164963
36.44790,169863
36.45602,163039
36.46415,168561
36.47227,166361
36.48038,167726
36.48852,171799
36.49663,166465
36.50477,163693
36.51288,171403
36.52100,173308
36.52913,175762
36.53725,169895
36.54537,172999
36.55350,167288
36.56162,166717
36.56975,173728
36.57787,167904
36.58598,163974
36.59412,170459
36.60223,169888
36.61037,166399
36.61848,167617
36.62660,169247
36.63473,177478
36.64285,169628
36.65098,180596
36.65910,171266
36.66722,171129
36.67535,169957
36.68347,175547
36.69158,168600
36.69972,170677
36.70783,176026
36.71597,174963
36.72408,173305
36.73220,177452
36.74033,182185
36.74845,178635
36.75658,173284
36.76470,175175
36.77282,175300
36.78095,176606
36.78907,176446
36.79720,175151
36.80532,182889
36.81343,180284
36.82157,174081
36.82968,172744
36.83780,181592
36.84593,176772
36.85405,172287
36.86218,175241
36.87030,178469
36.87842,176455
36.88655,180422
36.89467,177779
36.90280,175599
36.91092,179413
36.91903,176623
36.92717,184883
36.93528,191784
36.94340,191096
36.95153,185652
36.95965,187631
36.96778,187530
36.97590,184136
36.98402,193724
36.99215,190794
37.00027,187771
37.00840,190930
37.01652,187525
37.02463,181432
37.03277,187739
37.04088,194213
37.04902,193124
37.05713,195545
37.06525,187945
37.07338,204197
37.08150,194574
37.08962,194136
37.09775,202036
37.10587,194701
37.11400,199557
37.12212,195015
37.13023,204215
37.13837,208520
37.14648,202677
37.15462,201270
37.16273,202817
37.17085,202315
37.17898,197797
37.18710,210158
37.19523,203073
37.20335,207752
37.21147,207329
37.21960,203115
37.22772,202781
37.23583,199966
37.24397,202628
37.25208,202074
37.26022,201867
37.26833,207166
37.27645,211617
37.28458,211775
37.29270,207377
37.30083,206802
37.30895,204807
37.31707,205628
37.32520,213786
37.33332,212317
37.34143,215189
37.34957,219789
37.35768,212243
37.36582,213276
37.37393,214685
37.38205,213201
37.39018,212001
37.39830,220166
37.40643,214780
37.41455,213719
37.42267,222252
37.43080,223222
37.43892,219961
37.44705,221964
37.45517,214310
37.46328,221712
37.47142,225729
37.47953,218125
37.48765,213859
