C:\MassHunter\GCMS\1\data\JTB-E18\BURNOFFS\JTB-E18-03.D Wed Aug 21 14:23:00 2019
Start of data points
2.09532	192052
2.10345	203051
2.11157	204447
2.11968	196665
2.12782	181946
2.13593	169287
2.14405	157549
2.15218	146359
2.16030	125365
2.16843	111328
2.17655	106562
2.18467	100203
2.19280	88244
2.20092	87841
2.20905	84790
2.21717	77495
2.22528	82855
2.23342	76520
2.24153	73965
2.24965	73738
2.25778	76353
2.26590	70320
2.27403	70782
2.28215	66680
2.29027	69083
2.29840	66753
2.30652	67955
2.31465	65882
2.32277	67090
2.33088	63780
2.33902	67143
2.34713	62417
2.35527	62038
2.36338	67802
2.37150	64207
2.37963	64945
2.38775	62514
2.39587	61849
2.40400	60928
2.41212	62192
2.42025	60045
2.42837	62051
2.43648	62087
2.44462	61672
2.45273	59180
2.46087	62482
2.46898	63437
2.47710	60650
2.48523	56231
2.49335	64862
2.50148	64156
2.50960	57444
2.51772	69300
2.52585	58978
2.53397	54801
2.54208	55115
2.55022	60072
2.55833	61863
2.56647	60727
2.57458	57123
2.58270	58041
2.59083	61721
2.59895	55812
2.60708	57940
2.61520	59658
2.62332	65892
2.63145	56982
2.63957	58457
2.64768	65073
2.65582	55814
2.66393	54411
2.67207	55929
2.68018	57332
2.68830	55898
2.69643	55873
2.70455	52554
2.71268	58883
2.72080	56249
2.72892	54520
2.73705	61601
2.74517	53647
2.75330	53488
2.76142	57332
2.76953	56632
2.77767	60211
2.78578	58304
2.79390	55447
2.80203	51590
2.81015	56799
2.81828	54812
2.82640	56758
2.83452	52425
2.84265	54270
2.85077	54089
2.85890	56410
2.86702	55222
2.87513	59535
2.88327	56961
2.89138	56424
2.89952	56299
2.90763	50741
2.91575	54827
2.92388	56681
2.93200	57794
2.94012	52308
2.94825	52465
2.95637	52893
2.96450	51458
2.97262	54705
2.98073	51780
2.98887	53656
2.99698	51124
3.00512	53968
3.01323	60409
3.02135	60008
3.02948	57139
3.03760	57714
3.04572	55187
3.05385	54986
3.06197	61961
3.07010	53710
3.07822	54936
3.08633	61006
3.09447	55199
3.10258	54378
3.11072	56303
3.11883	54547
3.12695	55489
3.13508	57667
3.14320	56156
3.15133	57399
3.15945	58131
3.16757	55989
3.17570	57811
3.18382	56723
3.19193	55741
3.20007	58282
3.20818	54529
3.21632	58304
3.22443	55361
3.23255	53507
3.24068	56760
3.24880	55301
3.25693	57713
3.26505	55274
3.27317	57429
3.28130	56858
3.28942	57886
3.29753	61733
3.30567	58186
3.31378	57068
3.32192	58507
3.33003	53067
3.33815	58087
3.34628	56659
3.35440	58952
3.36253	57879
3.37065	55315
3.37877	60381
3.38690	62121
3.39502	62712
3.40315	56486
3.41127	58712
3.41938	60031
3.42752	56372
3.43563	62562
3.44375	58736
3.45188	56655
3.46000	55994
3.46813	58894
3.47625	59331
3.48437	54633
3.49250	60323
3.50062	59235
3.50875	56453
3.51687	57221
3.52498	66052
3.53312	56950
3.54123	55160
3.54937	59061
3.55748	54201
3.56560	55870
3.57373	56505
3.58185	53645
3.58997	53453
3.59810	53504
3.60622	56417
3.61435	53183
3.62247	52279
3.63058	54638
3.63872	57734
3.64683	61767
3.65497	58403
3.66308	55817
3.67120	57008
3.67933	59629
3.68745	58646
3.69557	59928
3.70370	59090
3.71182	55108
3.71995	55065
3.72807	55782
3.73618	58849
3.74432	56229
3.75243	57055
3.76057	55132
3.76868	53444
3.77680	56322
3.78493	57499
3.79305	60150
3.80118	63213
3.80930	55687
3.81742	56880
3.82555	56326
3.83367	57441
3.84178	56991
3.84992	58098
3.85803	62416
3.86617	53811
3.87428	57252
3.88240	58176
3.89053	61484
3.89865	57137
3.90678	56944
3.91490	54893
3.92302	55443
3.93115	53801
3.93927	60669
3.94740	52832
3.95552	55358
3.96363	57482
3.97177	55458
3.97988	57593
3.98800	54311
3.99613	54540
4.00425	55899
4.01238	54842
4.02050	57787
4.02862	55718
4.03675	54339
4.04487	57991
4.05300	55457
4.06112	55705
4.06923	58542
4.07737	53263
4.08548	54912
4.09360	53315
4.10173	53842
4.10985	57647
4.11798	57279
4.12610	59152
4.13422	57679
4.14235	52708
4.15047	55080
4.15860	54068
4.16672	50985
4.17483	62489
4.18297	56004
4.19108	53479
4.19922	58672
4.20733	53610
4.21545	51487
4.22358	55223
4.23170	56213
4.23982	56002
4.24795	57185
4.25607	57130
4.26420	58577
4.27232	55676
4.28043	57711
4.28857	54260
4.29668	56764
4.30482	57155
4.31293	54834
4.32105	58270
4.32918	57682
4.33730	54382
4.34543	53459
4.35355	53002
4.36167	55867
4.36980	57725
4.37792	52507
4.38603	61117
4.39417	56044
4.40228	57307
4.41042	63982
4.41853	57200
4.42665	55339
4.43478	54583
4.44290	56790
4.45103	52347
4.45915	54490
4.46727	53756
4.47540	52115
4.48352	52393
4.49163	61681
4.49977	55342
4.50788	53000
4.51602	55265
4.52413	55417
4.53225	60194
4.54038	53912
4.54850	52825
4.55663	55428
4.56475	53170
4.57287	54158
4.58100	55033
4.58912	58957
4.59725	52920
4.60537	54502
4.61348	56212
4.62162	54210
4.62973	55619
4.63785	54455
4.64598	61018
4.65410	56814
4.66223	51221
4.67035	55122
4.67847	56151
4.68660	55727
4.69472	50338
4.70285	55363
4.71097	54107
4.71908	54238
4.72722	53704
4.73533	58329
4.74345	56227
4.75158	52561
4.75970	53728
4.76783	60217
4.77595	54142
4.78407	61587
4.79220	59320
4.80032	62315
4.80845	56760
4.81657	57471
4.82468	57345
4.83282	56969
4.84093	59073
4.84907	54769
4.85718	59101
4.86530	55565
4.87343	57603
4.88155	59738
4.88967	58108
4.89780	62540
4.90592	58165
4.91405	53683
4.92217	60430
4.93028	60856
4.93842	59576
4.94653	59334
4.95467	58958
4.96278	55011
4.97090	56062
4.97903	55284
4.98715	54979
4.99528	62358
5.00340	59431
5.01152	56000
5.01965	56142
5.02777	60886
5.03588	55298
5.04402	57613
5.05213	59261
5.06027	57790
5.06838	59988
5.07650	58131
5.08463	61812
5.09275	55688
5.10088	55435
5.10900	55866
5.11712	55704
5.12525	58523
5.13337	57961
5.14148	57231
5.14962	58481
5.15773	54929
5.16587	58215
5.17398	56925
5.18210	59271
5.19023	60086
5.19835	60034
5.20648	57370
5.21460	59967
5.22272	60546
5.23085	62698
5.23897	59597
5.24710	64909
5.25522	55936
5.26333	60664
5.27147	56816
5.27958	57096
5.28770	60190
5.29583	57224
5.30395	55974
5.31208	53253
5.32020	54805
5.32832	57281
5.33645	56053
5.34457	60322
5.35270	51410
5.36082	50622
5.36893	56237
5.37707	57498
5.38518	55275
5.39332	51744
5.40143	57352
5.40955	51407
5.41768	55472
5.42580	58692
5.43392	52393
5.44205	53183
5.45017	57608
5.45830	52408
5.46642	53053
5.47453	54126
5.48267	57459
5.49078	53816
5.49892	51135
5.50703	54547
5.51515	53420
5.52328	61037
5.53140	51987
5.53952	53189
5.54765	52421
5.55577	61789
5.56390	55252
5.57202	50656
5.58013	55198
5.58827	54419
5.59638	54270
5.60452	55994
5.61263	53433
5.62075	53398
5.62888	51558
5.63700	53632
5.64513	59049
5.65325	56044
5.66137	55859
5.66950	52029
5.67762	58451
5.68573	50897
5.69387	53925
5.70198	55864
5.71012	52880
5.71823	57842
5.72635	55056
5.73448	55296
5.74260	52669
5.75073	52587
5.75885	57242
5.76697	54188
5.77510	52697
5.78322	55985
5.79133	51350
5.79947	53984
5.80758	50596
5.81572	55647
5.82383	51142
5.83195	52850
5.84008	54046
5.84820	55840
5.85633	55943
5.86445	51472
5.87257	53019
5.88070	58530
5.88882	55633
5.89695	52332
5.90507	53510
5.91318	51389
5.92132	48041
5.92943	45268
5.93755	46043
5.94568	41563
5.95380	44174
5.96193	46678
5.97005	44661
5.97817	48743
5.98630	45911
5.99442	43899
6.00255	45999
6.01067	41525
6.01878	44937
6.02692	45596
6.03503	44032
6.04317	40804
6.05128	45572
6.05940	42694
6.06753	42540
6.07565	44426
6.08377	43670
6.09190	39825
6.10002	41897
6.10815	47256
6.11627	43334
6.12438	48704
6.13252	50228
6.14063	44828
6.14877	44512
6.15688	43743
6.16500	43370
6.17313	43133
6.18125	42421
6.18937	42062
6.19750	43950
6.20562	44241
6.21375	43640
6.22187	43975
6.22998	46698
6.23812	44137
6.24623	45258
6.25437	45848
6.26248	44559
6.27060	44071
6.27873	46148
6.28685	45110
6.29498	41561
6.30310	46384
6.31122	46787
6.31935	42817
6.32747	44386
6.33558	43328
6.34372	45267
6.35183	44405
6.35997	43289
6.36808	43556
6.37620	46360
6.38433	48742
6.39245	46648
6.40058	41937
6.40870	42699
6.41682	45029
6.42495	48893
6.43307	42709
6.44120	46674
6.44932	45349
6.45743	45967
6.46557	43046
6.47368	44681
6.48180	42613
6.48993	42955
6.49805	43840
6.50618	41291
6.51430	41965
6.52242	43316
6.53055	48416
6.53867	43848
6.54680	44494
6.55492	42507
6.56303	43057
6.57117	44073
6.57928	42707
6.58740	49802
6.59553	43659
6.60365	44248
6.61178	43201
6.61990	42191
6.62802	41638
6.63615	42592
6.64427	44991
6.65240	42446
6.66052	41945
6.66863	43912
6.67677	42285
6.68488	43600
6.69302	43320
6.70113	46405
6.70925	40680
6.71738	42797
6.72550	43552
6.73362	43238
6.74175	41041
6.74987	42520
6.75800	43118
6.76612	42034
6.77423	43356
6.78237	40879
6.79048	40683
6.79862	42128
6.80673	41642
6.81485	42495
6.82298	43766
6.83110	42881
6.83922	47038
6.84735	38093
6.85547	38448
6.86360	39934
6.87172	35180
6.87983	35617
6.88797	36211
6.89608	37418
6.90422	36856
6.91233	37908
6.92045	37450
6.92858	35991
6.93670	34581
6.94483	39707
6.95295	39513
6.96107	36290
6.96920	37061
6.97732	36152
6.98543	35959
6.99357	34471
7.00168	37201
7.00982	38796
7.01793	36156
7.02605	38657
7.03418	37152
7.04230	38121
7.05043	35413
7.05855	36156
7.06667	39462
7.07480	36807
7.08292	36117
7.09105	37088
7.09917	33767
7.10728	37725
7.11542	34436
7.12353	33300
7.13165	34631
7.13978	38512
7.14790	34804
7.15603	37088
7.16415	37813
7.17227	38041
7.18040	38144
7.18852	34753
7.19665	42280
7.20477	39144
7.21288	34672
7.22102	36087
7.22913	35672
7.23727	38457
7.24538	37459
7.25350	37954
7.26163	36274
7.26975	34948
7.27787	37460
7.28600	34952
7.29412	36606
7.30225	36916
7.31037	37894
7.31848	37295
7.32662	34126
7.33473	33821
7.34287	34059
7.35098	37423
7.35910	36083
7.36723	35077
7.37535	31856
7.38347	37854
7.39160	33068
7.39972	33832
7.40785	35542
7.41597	37446
7.42408	36597
7.43222	35145
7.44033	36833
7.44847	39053
7.45658	34581
7.46470	35576
7.47283	35242
7.48095	33001
7.48908	35571
7.49720	36262
7.50532	38172
7.51345	38035
7.52157	35084
7.52968	37616
7.53782	32581
7.54593	34530
7.55407	35174
7.56218	35920
7.57030	37800
7.57843	32800
7.58655	33859
7.59468	34687
7.60280	34686
7.61092	39277
7.61905	33847
7.62717	35153
7.63528	35535
7.64342	33691
7.65153	35798
7.65967	34376
7.66778	37334
7.67590	33432
7.68403	34503
7.69215	32250
7.70028	36591
7.70840	36381
7.71652	34783
7.72465	32726
7.73277	35921
7.74090	35843
7.74902	34839
7.75713	37492
7.76527	34559
7.77338	34797
7.78150	34896
7.78963	37331
7.79775	35768
7.80588	35825
7.81400	34903
7.82212	36008
7.83025	31600
7.83837	35234
7.84650	33553
7.85462	35065
7.86273	35686
7.87087	34449
7.87898	34401
7.88712	39895
7.89523	37123
7.90335	33230
7.91148	37075
7.91960	39867
7.92772	31739
7.93585	36854
7.94397	33709
7.95210	29496
7.96022	35148
7.96833	34733
7.97647	41629
7.98458	36250
7.99272	35109
8.00083	31814
8.00895	35932
8.01708	36549
8.02520	30486
8.03332	34699
8.04145	34193
8.04957	33739
8.05770	33840
8.06582	32727
8.07393	37503
8.08207	37322
8.09018	36239
8.09832	35154
8.10643	37248
8.11455	34396
8.12268	38698
8.13080	35277
8.13893	33498
8.14705	34762
8.15517	35619
8.16330	35175
8.17142	32821
8.17953	35388
8.18767	32239
8.19578	32772
8.20392	36533
8.21203	34610
8.22015	36408
8.22828	33341
8.23640	34671
8.24453	34485
8.25265	36712
8.26077	33072
8.26890	33078
8.27702	34535
8.28515	33514
8.29327	36112
8.30138	33514
8.30952	33748
8.31763	38388
8.32575	36347
8.33388	33800
8.34200	36550
8.35013	35046
8.35825	31856
8.36637	34700
8.37450	32156
8.38262	32332
8.39075	32815
8.39887	35245
8.40698	35310
8.41512	32234
8.42323	33211
8.43135	34670
8.43948	34478
8.44760	35293
8.45573	34670
8.46385	36238
8.47197	32611
8.48010	36261
8.48822	33357
8.49635	35233
8.50447	34196
8.51258	32204
8.52072	32632
8.52883	32963
8.53697	32818
8.54508	37322
8.55320	34422
8.56133	38891
8.56945	32755
8.57757	36132
8.58570	35656
8.59382	33521
8.60195	33932
8.61007	38226
8.61818	33369
8.62632	33024
8.63443	33841
8.64257	37075
8.65068	36299
8.65880	33923
8.66693	29275
8.67505	34586
8.68317	34431
8.69130	33526
8.69942	37356
8.70755	34867
8.71567	30444
8.72378	31537
8.73192	35657
8.74003	34703
8.74817	35683
8.75628	35268
8.76440	37598
8.77253	36419
8.78065	36630
8.78878	36419
8.79690	32745
8.80502	37396
8.81315	39363
8.82127	34259
8.82938	34330
8.83752	39291
8.84563	39583
8.85377	39898
8.86188	33803
8.87000	37551
8.87813	39281
8.88625	36540
8.89438	36864
8.90250	38456
8.91062	39330
8.91875	37457
8.92687	40553
8.93500	39865
8.94312	37021
8.95123	37638
8.95937	37093
8.96748	38300
8.97560	37693
8.98373	35356
8.99185	35307
8.99998	39207
9.00810	39131
9.01622	37786
9.02435	35713
9.03247	39289
9.04060	38482
9.04872	41161
9.05683	36697
9.06497	35690
9.07308	35985
9.08120	36014
9.08933	39105
9.09745	38619
9.10558	36637
9.11370	38359
9.12182	35700
9.12995	37478
9.13807	36366
9.14620	37637
9.15432	34679
9.16243	34527
9.17057	35872
9.17868	34673
9.18682	37389
9.19493	32898
9.20305	37993
9.21118	36625
9.21930	36805
9.22742	36496
9.23555	38665
9.24367	38339
9.25180	35727
9.25992	36749
9.26803	37406
9.27617	39305
9.28428	37430
9.29242	37774
9.30053	35012
9.30865	33455
9.31678	39610
9.32490	36346
9.33303	37417
9.34115	34571
9.34927	35927
9.35740	32982
9.36552	36337
9.37363	36728
9.38177	34366
9.38988	37896
9.39802	34908
9.40613	39566
9.41425	35944
9.42238	36798
9.43050	35775
9.43863	36716
9.44675	37700
9.45487	37404
9.46300	38120
9.47112	38452
9.47923	39566
9.48737	37023
9.49548	34709
9.50362	39662
9.51173	36330
9.51985	37390
9.52798	36235
9.53610	37474
9.54423	36801
9.55235	34712
9.56047	36001
9.56860	34461
9.57672	32388
9.58485	33722
9.59297	34454
9.60108	36056
9.60922	31077
9.61733	32576
9.62545	31336
9.63358	34785
9.64170	33672
9.64983	32326
9.65795	32100
9.66607	34345
9.67420	33055
9.68232	36028
9.69045	35738
9.69857	35666
9.70668	32996
9.71482	31179
9.72293	30975
9.73107	33204
9.73918	35492
9.74730	37083
9.75543	32176
9.76355	32352
9.77167	33693
9.77980	33874
9.78792	33824
9.79605	32261
9.80417	33332
9.81228	33063
9.82042	32798
9.82853	31401
9.83667	36706
9.84478	34026
9.85290	36038
9.86103	30675
9.86915	31915
9.87727	32595
9.88540	34460
9.89352	33835
9.90165	34426
9.90977	36111
9.91788	34436
9.92602	32155
9.93413	32454
9.94227	34433
9.95038	34715
9.95850	31126
9.96663	32331
9.97475	31865
9.98288	34752
9.99100	33349
9.99912	33015
10.00725	33016
10.01537	36069
10.02348	32235
10.03162	31135
10.03973	33223
10.04787	34202
10.05598	37689
10.06410	33016
10.07223	34828
10.08035	30296
10.08848	34754
10.09660	32748
10.10472	33795
10.11285	32877
10.12097	31684
10.12908	33360
10.13722	32895
10.14533	31627
10.15347	31771
10.16158	33222
10.16970	32505
10.17783	35147
10.18595	31029
10.19408	34055
10.20220	33161
10.21032	31586
10.21845	33373
10.22657	38233
10.23470	34913
10.24282	32668
10.25093	31484
10.25907	32951
10.26718	33763
10.27530	33333
10.28343	32940
10.29155	29113
10.29968	32590
10.30780	32357
10.31592	33431
10.32405	34756
10.33217	35485
10.34030	29952
10.34842	33172
10.35653	34070
10.36467	30819
10.37278	30205
10.38092	34959
10.38903	34637
10.39715	32838
10.40528	30412
10.41340	34749
10.42152	32791
10.42965	32832
10.43777	32025
10.44590	30849
10.45402	33334
10.46213	31914
10.47027	30596
10.47838	29761
10.48652	32488
10.49463	33028
10.50275	36365
10.51088	32231
10.51900	31371
10.52712	29533
10.53525	35073
10.54337	32766
10.55150	32344
10.55962	30591
10.56773	34305
10.57587	31309
10.58398	33112
10.59212	35010
10.60023	32233
10.60835	36733
10.61648	33479
10.62460	31676
10.63273	31401
10.64085	30155
10.64897	33996
10.65710	30245
10.66522	32866
10.67333	32211
10.68147	30998
10.68958	33860
10.69772	37526
10.70583	34248
10.71395	34058
10.72208	33123
10.73020	33108
10.73833	36884
10.74645	30476
10.75457	32578
10.76270	34368
10.77082	32950
10.77895	35178
10.78707	32632
10.79518	31706
10.80332	33340
10.81143	34974
10.81955	30950
10.82768	32045
10.83580	32727
10.84393	29985
10.85205	31809
10.86017	30826
10.86830	31595
10.87642	31173
10.88455	34443
10.89267	31423
10.90078	32350
10.90892	32461
10.91703	34719
10.92515	33015
10.93328	34278
10.94140	32147
10.94953	32422
10.95765	31876
10.96577	31924
10.97390	33051
10.98202	31577
10.99015	32549
10.99827	38210
11.00638	35055
11.01452	34657
11.02263	36439
11.03077	32211
11.03888	30311
11.04700	34354
11.05513	33130
11.06325	32329
11.07137	30860
11.07950	30950
11.08762	37664
11.09575	33308
11.10387	33599
11.11198	32731
11.12012	31833
11.12823	31454
11.13637	38064
11.14448	33046
11.15260	31761
11.16073	29850
11.16885	33622
11.17697	28772
11.18510	33539
11.19322	33154
11.20135	30354
11.20947	30953
11.21758	31890
11.22572	34164
11.23383	31969
11.24197	31118
11.25008	35127
11.25820	31170
11.26633	31518
11.27445	33775
11.28258	32313
11.29070	31795
11.29882	30081
11.30695	35698
11.31507	35484
11.32318	32655
11.33132	30850
11.33943	32405
11.34757	34391
11.35568	31237
11.36380	29872
11.37193	32722
11.38005	34212
11.38818	32449
11.39630	35301
11.40442	33728
11.41255	31848
11.42067	32724
11.42880	32891
11.43692	34062
11.44503	31815
11.45317	36822
11.46128	34215
11.46940	33942
11.47753	33856
11.48565	31105
11.49378	34196
11.50190	32281
11.51002	37352
11.51815	34675
11.52627	33774
11.53440	30745
11.54252	36474
11.55063	31127
11.55877	33704
11.56688	30360
11.57502	35771
11.58313	33214
11.59125	35364
11.59938	28830
11.60750	29511
11.61562	31943
11.62375	32326
11.63187	38641
11.64000	35354
11.64812	32212
11.65623	35761
11.66437	35266
11.67248	33634
11.68062	32097
11.68873	33271
11.69685	32188
11.70498	32216
11.71310	31883
11.72122	31538
11.72935	31891
11.73747	31564
11.74560	33281
11.75372	32310
11.76183	34399
11.76997	33658
11.77808	33360
11.78622	33494
11.79433	31412
11.80245	34162
11.81058	31661
11.81870	32376
11.82683	32597
11.83495	34272
11.84307	35987
11.85120	34378
11.85932	29210
11.86743	34893
11.87557	30355
11.88368	33806
11.89182	30346
11.89993	35651
11.90805	33930
11.91618	31487
11.92430	36047
11.93243	36857
11.94055	36920
11.94867	35166
11.95680	32072
11.96492	35036
11.97303	37071
11.98117	31262
11.98928	37312
11.99742	33612
12.00553	30543
12.01365	34246
12.02178	35006
12.02990	32392
12.03803	33372
12.04615	36273
12.05427	30878
12.06240	31558
12.07052	34277
12.07865	34952
12.08677	33325
12.09488	32376
12.10302	32593
12.11113	37034
12.11925	31741
12.12738	32589
12.13550	31193
12.14363	32199
12.15175	34717
12.15987	33831
12.16800	31740
12.17612	32006
12.18425	32173
12.19237	33982
12.20048	32436
12.20862	34278
12.21673	34524
12.22487	33556
12.23298	35322
12.24110	34161
12.24923	31196
12.25735	31150
12.26547	32738
12.27360	34046
12.28172	31748
12.28985	31769
12.29797	33512
12.30608	31170
12.31422	32619
12.32233	29061
12.33047	33326
12.33858	34099
12.34670	34370
12.35483	31961
12.36295	36745
12.37107	33954
12.37920	36080
12.38732	35687
12.39545	33958
12.40357	36062
12.41168	29588
12.41982	32701
12.42793	35054
12.43607	33174
12.44418	36977
12.45230	33707
12.46043	35381
12.46855	32626
12.47668	32453
12.48480	35777
12.49292	33110
12.50105	36374
12.50917	32075
12.51728	33446
12.52542	36059
12.53353	33651
12.54167	31547
12.54978	31284
12.55790	33715
12.56603	36966
12.57415	36473
12.58228	32120
12.59040	34524
12.59852	35082
12.60665	33022
12.61477	35806
12.62290	35756
12.63102	30265
12.63913	33072
12.64727	31266
12.65538	34664
12.66350	35494
12.67163	34652
12.67975	34660
12.68788	34106
12.69600	35047
12.70412	32617
12.71225	35959
12.72037	37165
12.72850	31004
12.73662	35644
12.74473	35192
12.75287	32465
12.76098	31547
12.76910	33988
12.77723	33904
12.78535	34414
12.79348	37493
12.80160	32736
12.80972	35324
12.81785	33282
12.82597	38578
12.83410	32934
12.84222	31040
12.85033	31772
12.85847	31256
12.86658	36346
12.87472	33620
12.88283	32073
12.89095	33952
12.89908	33072
12.90720	35060
12.91532	33647
12.92345	32761
12.93157	33733
12.93970	30932
12.94782	31228
12.95593	30901
12.96407	31973
12.97218	29477
12.98032	35382
12.98843	33909
12.99655	31078
13.00468	31732
13.01280	34123
13.02092	34001
13.02905	34313
13.03717	34053
13.04530	31615
13.05342	31048
13.06153	35556
13.06967	33391
13.07778	33712
13.08592	34053
13.09403	35631
13.10215	36472
13.11028	35164
13.11840	36312
13.12653	33433
13.13465	37495
13.14277	32810
13.15090	34519
13.15902	36426
13.16713	34463
13.17527	35314
13.18338	35316
13.19152	34256
13.19963	32674
13.20775	33689
13.21588	38884
13.22400	33645
13.23213	31324
13.24025	33380
13.24837	34855
13.25650	34731
13.26462	33284
13.27275	37016
13.28087	33710
13.28898	33443
13.29712	34350
13.30523	33485
13.31335	30647
13.32148	35617
13.32960	35122
13.33773	31140
13.34585	30826
13.35397	38266
13.36210	35049
13.37022	35535
13.37835	36367
13.38647	35119
13.39458	35496
13.40272	32431
13.41083	31916
13.41895	31551
13.42708	34234
13.43520	36196
13.44333	34981
13.45145	37623
13.45957	36287
13.46770	34212
13.47582	33636
13.48395	33491
13.49207	34017
13.50018	33170
13.50832	33348
13.51643	33047
13.52457	31459
13.53268	34536
13.54080	33564
13.54893	35332
13.55705	32305
13.56517	34588
13.57330	36582
13.58142	32009
13.58955	33977
13.59767	34123
13.60578	35631
13.61392	35573
13.62203	34225
13.63017	34909
13.63828	36095
13.64640	37375
13.65453	34726
13.66265	32600
13.67078	34479
13.67890	32286
13.68702	38476
13.69515	35514
13.70327	32478
13.71138	35091
13.71952	34207
13.72763	33657
13.73577	33228
13.74388	34224
13.75200	35972
13.76013	36451
13.76825	34460
13.77638	33799
13.78450	34075
13.79262	32581
13.80075	33496
13.80887	34169
13.81698	34736
13.82512	37249
13.83323	35105
13.84137	33190
13.84948	37597
13.85760	30965
13.86573	34535
13.87385	36445
13.88198	33981
13.89010	34971
13.89822	35846
13.90635	34449
13.91447	34855
13.92260	34565
13.93072	35765
13.93883	35036
13.94697	36305
13.95508	35926
13.96320	37397
13.97133	36003
13.97945	33987
13.98758	32830
13.99570	33338
14.00382	32507
14.01195	33362
14.02007	34039
14.02820	33997
14.03632	34146
14.04443	34582
14.05257	35649
14.06068	35206
14.06882	35383
14.07693	35380
14.08505	34498
14.09318	35268
14.10130	34721
14.10942	34889
14.11755	35449
14.12567	34001
14.13380	36349
14.14192	33768
14.15003	37260
14.15817	35391
14.16628	33425
14.17442	36759
14.18253	38570
14.19065	35658
14.19878	38193
14.20690	38326
14.21502	35854
14.22315	36279
14.23127	39312
14.23940	40399
14.24752	35992
14.25563	38436
14.26377	39202
14.27188	42445
14.28002	38925
14.28813	37633
14.29625	36118
14.30438	37997
14.31250	38457
14.32063	38628
14.32875	37601
14.33687	36821
14.34500	34048
14.35312	33861
14.36123	35790
14.36937	36239
14.37748	32550
14.38562	37689
14.39373	38021
14.40185	35537
14.40998	36378
14.41810	36587
14.42623	35242
14.43435	33914
14.44247	34653
14.45060	35223
14.45872	34645
14.46683	33487
14.47497	31715
14.48308	34789
14.49122	37638
14.49933	35019
14.50745	34909
14.51558	34657
14.52370	33298
14.53183	35006
14.53995	35239
14.54807	35742
14.55620	37367
14.56432	34331
14.57245	37280
14.58057	32829
14.58868	35570
14.59682	36084
14.60493	34061
14.61305	34733
14.62118	35546
14.62930	34494
14.63743	32234
14.64555	32991
14.65367	36193
14.66180	37666
14.66992	35226
14.67805	34035
14.68617	33308
14.69428	34260
14.70242	35566
14.71053	36685
14.71867	34996
14.72678	36169
14.73490	35253
14.74303	36429
14.75115	34581
14.75927	31744
14.76740	36063
14.77552	36260
14.78365	36506
14.79177	35442
14.79988	35600
14.80802	34538
14.81613	34878
14.82427	35439
14.83238	37989
14.84050	35808
14.84863	35738
14.85675	35286
14.86487	41455
14.87300	35305
14.88112	33745
14.88925	36112
14.89737	34623
14.90548	35756
14.91362	38291
14.92173	33087
14.92987	33714
14.93798	33127
14.94610	37518
14.95423	35668
14.96235	34028
14.97048	35835
14.97860	35322
14.98672	33595
14.99485	36852
15.00297	32525
15.01108	36498
15.01922	35542
15.02733	36422
15.03547	36848
15.04358	35804
15.05170	33844
15.05983	39346
15.06795	33303
15.07608	36042
15.08420	37074
15.09232	35058
15.10045	34706
15.10857	34828
15.11670	37419
15.12482	37463
15.13293	37913
15.14107	35786
15.14918	36551
15.15730	33863
15.16543	36261
15.17355	37082
15.18168	32501
15.18980	37493
15.19792	35351
15.20605	38882
15.21417	34429
15.22230	35936
15.23042	34525
15.23853	37658
15.24667	34445
15.25478	39596
15.26290	35203
15.27103	35784
15.27915	33435
15.28728	35371
15.29540	34195
15.30352	36980
15.31165	38782
15.31977	35065
15.32790	33324
15.33602	35774
15.34413	37387
15.35227	34875
15.36038	36826
15.36852	35637
15.37663	40088
15.38475	37079
15.39288	37292
15.40100	38090
15.40912	36323
15.41725	32541
15.42537	37522
15.43350	37063
15.44162	33914
15.44973	36616
15.45787	35636
15.46598	37505
15.47412	36991
15.48223	36851
15.49035	34389
15.49848	36688
15.50660	40603
15.51472	36766
15.52285	38731
15.53097	35449
15.53910	34137
15.54722	40110
15.55533	36488
15.56347	36353
15.57158	35426
15.57972	35001
15.58783	35672
15.59595	36148
15.60408	37602
15.61220	36937
15.62033	34914
15.62845	35649
15.63657	33759
15.64470	34052
15.65282	38148
15.66093	37346
15.66907	36548
15.67718	36466
15.68532	33400
15.69343	36715
15.70155	34543
15.70968	35378
15.71780	35316
15.72593	35036
15.73405	35774
15.74217	35252
15.75030	36631
15.75842	33564
15.76655	37054
15.77467	37438
15.78278	36901
15.79092	39538
15.79903	35581
15.80715	32986
15.81528	35748
15.82340	40322
15.83153	36049
15.83965	42934
15.84777	39534
15.85590	40294
15.86402	40743
15.87215	38761
15.88027	38188
15.88838	40575
15.89652	34642
15.90463	34976
15.91275	35127
15.92088	38442
15.92900	36326
15.93713	39980
15.94525	36716
15.95337	35978
15.96150	35732
15.96962	35292
15.97775	35748
15.98587	36839
15.99398	38279
16.00212	37068
16.01023	41402
16.01837	38317
16.02648	39553
16.03460	40217
16.04273	38227
16.05085	35938
16.05897	37837
16.06710	35847
16.07522	36363
16.08335	36295
16.09147	38243
16.09958	35852
16.10772	36074
16.11583	37895
16.12397	35697
16.13208	40023
16.14020	37127
16.14833	36815
16.15645	40922
16.16458	35516
16.17270	38165
16.18082	37692
16.18895	40140
16.19707	38518
16.20518	37183
16.21332	38674
16.22143	37437
16.22957	38450
16.23768	40132
16.24580	37820
16.25393	36986
16.26205	39630
16.27018	41143
16.27830	37263
16.28642	38220
16.29455	39710
16.30267	37372
16.31078	39520
16.31892	38045
16.32703	36473
16.33517	36866
16.34328	39751
16.35140	38362
16.35953	35936
16.36765	39524
16.37578	36553
16.38390	39322
16.39202	36490
16.40015	36503
16.40827	35216
16.41640	39653
16.42452	37271
16.43263	37116
16.44077	38652
16.44888	38719
16.45700	35984
16.46513	37951
16.47325	41495
16.48138	41907
16.48950	38443
16.49762	37697
16.50575	35841
16.51387	40025
16.52200	41170
16.53012	37839
16.53823	39362
16.54637	36867
16.55448	39997
16.56260	39941
16.57073	37437
16.57885	37355
16.58698	41316
16.59510	38024
16.60322	39168
16.61135	39439
16.61947	37864
16.62760	39737
16.63572	37917
16.64383	36045
16.65197	38540
16.66008	39430
16.66822	39238
16.67633	37073
16.68445	36847
16.69258	35367
16.70070	36055
16.70882	38231
16.71695	38090
16.72507	37027
16.73320	36659
16.74132	38635
16.74943	41883
16.75757	35442
16.76568	39186
16.77382	39439
16.78193	37224
16.79005	38339
16.79818	38270
16.80630	37036
16.81443	38705
16.82255	38231
16.83067	38468
16.83880	38084
16.84692	36661
16.85503	37902
16.86317	37954
16.87128	37554
16.87942	41527
16.88753	36479
16.89565	42376
16.90378	40719
16.91190	41649
16.92003	39240
16.92815	39528
16.93627	37578
16.94440	44689
16.95252	40172
16.96065	38914
16.96877	39534
16.97688	38484
16.98502	39819
16.99313	40799
17.00125	42255
17.00938	40185
17.01750	40392
17.02563	36775
17.03375	38649
17.04187	39122
17.05000	36397
17.05812	39768
17.06625	38947
17.07437	38543
17.08248	40461
17.09062	40621
17.09873	39338
17.10685	36754
17.11498	46263
17.12310	39182
17.13123	41068
17.13935	43936
17.14747	45645
17.15560	38734
17.16372	44099
17.17185	38193
17.17997	40512
17.18808	39709
17.19622	38155
17.20433	39278
17.21247	40144
17.22058	35326
17.22870	39101
17.23683	40748
17.24495	38160
17.25307	39245
17.26120	35856
17.26932	40866
17.27745	42423
17.28557	40604
17.29368	38174
17.30182	39543
17.30993	37452
17.31807	39983
17.32618	41147
17.33430	37821
17.34243	38146
17.35055	39804
17.35867	39982
17.36680	38219
17.37492	36424
17.38305	39568
17.39117	39315
17.39928	43672
17.40742	39451
17.41553	41486
17.42367	40414
17.43178	42277
17.43990	41553
17.44803	39949
17.45615	38224
17.46428	44633
17.47240	36495
17.48052	35915
17.48865	38858
17.49677	42343
17.50488	36853
17.51302	38409
17.52113	39208
17.52927	41304
17.53738	39493
17.54550	39944
17.55363	39156
17.56175	40747
17.56988	39903
17.57800	40254
17.58612	38271
17.59425	42067
17.60237	37667
17.61048	39337
17.61862	38977
17.62673	37130
17.63487	38750
17.64298	41034
17.65110	39499
17.65923	38725
17.66735	40003
17.67548	40726
17.68360	42776
17.69172	44449
17.69985	39354
17.70797	44265
17.71610	41491
17.72422	41084
17.73233	38477
17.74047	40065
17.74858	41289
17.75670	38757
17.76483	38495
17.77295	40294
17.78108	38229
17.78920	40293
17.79732	41573
17.80545	36586
17.81357	39098
17.82170	40374
17.82982	38423
17.83793	40557
17.84607	42195
17.85418	40684
17.86232	37652
17.87043	38535
17.87855	40046
17.88668	42212
17.89480	39425
17.90292	40873
17.91105	44094
17.91917	40634
17.92730	42905
17.93542	41326
17.94353	39821
17.95167	41782
17.95978	39442
17.96792	39527
17.97603	38546
17.98415	40414
17.99228	42989
18.00040	41454
18.00853	43077
18.01665	41137
18.02477	39016
18.03290	39413
18.04102	40034
18.04913	39655
18.05727	43848
18.06538	39875
18.07352	43162
18.08163	40571
18.08975	45202
18.09788	40568
18.10600	38643
18.11413	41257
18.12225	40022
18.13037	37617
18.13850	41594
18.14662	41318
18.15473	39018
18.16287	39653
18.17098	39506
18.17912	38612
18.18723	39539
18.19535	39860
18.20348	41179
18.21160	40649
18.21973	43612
18.22785	40610
18.23597	41825
18.24410	42048
18.25222	42395
18.26035	43543
18.26847	41092
18.27658	39996
18.28472	41100
18.29283	40601
18.30095	42711
18.30908	43918
18.31720	40116
18.32533	43492
18.33345	38171
18.34157	38779
18.34970	40480
18.35782	39284
18.36595	39779
18.37407	41946
18.38218	39432
18.39032	39803
18.39843	43772
18.40655	40985
18.41468	43243
18.42280	40655
18.43093	45129
18.43905	42625
18.44717	41026
18.45530	44209
18.46342	43774
18.47155	39149
18.47967	38485
18.48778	42029
18.49592	41108
18.50403	42700
18.51217	41046
18.52028	43511
18.52840	39224
18.53653	39707
18.54465	43996
18.55277	39960
18.56090	39406
18.56902	41971
18.57715	40408
18.58527	42079
18.59338	39606
18.60152	40132
18.60963	43021
18.61777	41222
18.62588	37789
18.63400	40949
18.64213	40165
18.65025	40915
18.65838	42904
18.66650	45405
18.67462	41385
18.68275	43582
18.69087	41719
18.69898	40908
18.70712	42243
18.71523	41199
18.72337	41977
18.73148	39368
18.73960	42139
18.74773	40318
18.75585	43861
18.76398	39637
18.77210	43086
18.78022	40391
18.78835	39294
18.79647	38024
18.80458	38980
18.81272	39959
18.82083	40663
18.82897	44503
18.83708	40206
18.84520	42114
18.85333	40643
18.86145	40432
18.86958	44660
18.87770	39799
18.88582	42613
18.89395	39839
18.90207	45382
18.91020	40880
18.91832	40973
18.92643	41241
18.93457	43190
18.94268	40828
18.95080	40404
18.95893	40384
18.96705	44452
18.97518	39895
18.98330	38720
18.99142	39427
18.99955	40382
19.00767	44162
19.01580	40727
19.02392	44175
19.03203	38550
19.04017	44176
19.04828	42942
19.05642	42463
19.06453	44833
19.07265	42019
19.08078	42890
19.08890	44058
19.09702	41211
19.10515	41096
19.11327	40975
19.12140	42170
19.12952	46023
19.13763	41927
19.14577	41713
19.15388	41111
19.16202	43440
19.17013	40845
19.17825	40796
19.18638	44777
19.19450	41096
19.20262	44223
19.21075	42427
19.21887	43580
19.22700	42039
19.23512	42879
19.24323	41230
19.25137	40343
19.25948	46828
19.26762	43652
19.27573	40971
19.28385	43339
19.29198	42363
19.30010	42913
19.30823	43815
19.31635	43431
19.32447	43698
19.33260	47350
19.34072	43356
19.34883	43572
19.35697	44459
19.36508	41232
19.37322	45235
19.38133	41866
19.38945	43540
19.39758	45346
19.40570	43525
19.41383	48259
19.42195	43912
19.43007	42148
19.43820	39668
19.44632	42156
19.45443	47262
19.46257	42209
19.47068	46092
19.47882	45026
19.48693	44764
19.49505	46039
19.50318	48066
19.51130	46686
19.51943	47105
19.52755	42187
19.53567	45435
19.54380	44086
19.55192	43460
19.56005	40976
19.56817	41197
19.57628	43341
19.58442	43411
19.59253	46008
19.60065	41467
19.60878	40912
19.61690	41100
19.62503	43289
19.63315	44206
19.64127	42241
19.64940	41608
19.65752	41200
19.66565	45968
19.67377	43102
19.68188	44198
19.69002	44142
19.69813	42813
19.70627	43696
19.71438	44269
19.72250	44204
19.73063	43886
19.73875	44033
19.74687	46476
19.75500	45238
19.76312	45001
19.77125	42016
19.77937	46006
19.78748	42927
19.79562	46725
19.80373	44085
19.81187	44106
19.81998	44671
19.82810	49437
19.83623	43567
19.84435	44734
19.85247	42491
19.86060	43322
19.86872	45102
19.87685	43110
19.88497	43088
19.89308	43980
19.90122	43247
19.90933	44895
19.91747	41320
19.92558	43470
19.93370	45055
19.94183	41459
19.94995	42221
19.95808	42637
19.96620	44635
19.97432	43040
19.98245	42006
19.99057	41995
19.99868	45028
20.00682	42839
20.01493	44476
20.02307	45776
20.03118	45816
20.03930	43787
20.04743	42280
20.05555	42681
20.06368	47324
20.07180	44482
20.07992	43529
20.08805	44054
20.09617	46679
20.10430	42848
20.11242	45614
20.12053	44258
20.12867	44381
20.13678	46778
20.14490	40538
20.15303	42482
20.16115	43947
20.16928	43789
20.17740	43239
20.18552	44725
20.19365	44670
20.20177	42850
20.20990	43072
20.21802	46163
20.22613	46040
20.23427	44335
20.24238	44235
20.25050	45075
20.25863	42886
20.26675	44815
20.27488	46788
20.28300	48266
20.29112	46952
20.29925	46642
20.30737	50475
20.31550	42272
20.32362	46091
20.33173	46903
20.33987	43852
20.34798	45910
20.35612	42303
20.36423	44253
20.37235	42042
20.38048	42502
20.38860	44595
20.39672	41574
20.40485	44013
20.41297	45132
20.42110	49781
20.42922	40324
20.43733	48873
20.44547	48063
20.45358	49906
20.46172	43912
20.46983	47250
20.47795	44481
20.48608	42494
20.49420	42953
20.50233	44891
20.51045	47001
20.51857	46553
20.52670	44892
20.53482	44397
20.54293	48882
20.55107	43641
20.55918	43181
20.56732	43559
20.57543	45427
20.58355	45218
20.59168	46200
20.59980	42984
20.60793	44172
20.61605	46189
20.62417	44173
20.63230	44734
20.64042	45538
20.64853	47184
20.65667	43698
20.66478	45493
20.67292	45329
20.68103	40453
20.68915	46070
20.69728	42709
20.70540	47117
20.71353	44208
20.72165	43658
20.72977	43797
20.73790	45538
20.74602	44709
20.75415	44282
20.76227	46490
20.77038	44380
20.77852	44147
20.78663	47447
20.79475	45058
20.80288	45655
20.81100	44894
20.81913	49220
20.82725	46326
20.83537	45038
20.84350	45306
20.85162	47754
20.85975	43364
20.86787	45389
20.87598	46922
20.88412	48948
20.89223	45925
20.90035	46724
20.90848	46734
20.91660	44161
20.92473	43682
20.93285	45881
20.94097	48380
20.94910	47274
20.95722	43509
20.96535	47208
20.97347	44096
20.98158	48131
20.98972	43316
20.99783	48084
21.00597	43740
21.01408	45808
21.02220	47349
21.03033	47712
21.03845	46531
21.04657	45151
21.05470	46638
21.06282	46596
21.07095	47536
21.07907	45745
21.08718	45535
21.09532	45919
21.10343	46531
21.11157	45520
21.11968	46505
21.12780	44921
21.13593	47033
21.14405	47263
21.15218	48901
21.16030	48552
21.16842	45467
21.17655	48623
21.18467	45804
21.19278	46293
21.20092	47845
21.20903	49713
21.21717	47997
21.22528	44587
21.23340	44364
21.24153	50982
21.24965	46453
21.25778	43935
21.26590	45424
21.27402	46830
21.28215	47777
21.29027	49364
21.29838	43411
21.30652	44502
21.31463	46006
21.32277	49931
21.33088	48321
21.33900	52742
21.34713	49730
21.35525	44639
21.36338	45417
21.37150	44842
21.37962	45572
21.38775	46689
21.39587	54270
21.40400	46325
21.41212	45315
21.42023	48253
21.42837	49024
21.43648	43874
21.44460	48301
21.45273	48310
21.46085	45362
21.46898	47376
21.47710	46609
21.48522	46001
21.49335	44944
21.50147	45935
21.50960	48038
21.51772	49213
21.52583	50316
21.53397	47036
21.54208	47009
21.55022	48076
21.55833	46035
21.56645	50608
21.57458	43994
21.58270	46604
21.59082	49827
21.59895	45117
21.60707	47756
21.61520	53276
21.62332	48203
21.63143	50111
21.63957	50915
21.64768	47868
21.65582	47513
21.66393	49537
21.67205	49559
21.68018	51192
21.68830	48109
21.69642	45378
21.70455	52673
21.71267	53249
21.72080	49919
21.72892	50796
21.73703	50960
21.74517	50642
21.75328	47395
21.76142	51782
21.76953	48010
21.77765	49038
21.78578	47033
21.79390	47708
21.80203	47952
21.81015	48070
21.81827	50536
21.82640	45721
21.83452	46241
21.84263	53045
21.85077	49088
21.85888	52431
21.86702	46679
21.87513	52137
21.88325	45564
21.89138	48490
21.89950	49165
21.90763	47179
21.91575	45246
21.92387	51636
21.93200	49033
21.94012	50235
21.94823	49024
21.95637	44847
21.96448	48743
21.97262	53527
21.98073	50920
21.98885	48101
21.99698	48204
22.00510	50594
22.01323	52504
22.02135	47748
22.02947	49631
22.03760	50775
22.04572	46172
22.05385	49013
22.06197	49206
22.07008	48635
22.07822	50226
22.08633	47798
22.09445	47744
22.10258	50337
22.11070	46321
22.11883	45695
22.12695	48178
22.13507	51213
22.14320	49821
22.15132	45548
22.15945	46980
22.16757	50938
22.17568	50004
22.18382	48779
22.19193	49595
22.20007	46895
22.20818	49337
22.21630	50921
22.22443	50200
22.23255	51456
22.24067	49371
22.24880	48717
22.25692	50670
22.26505	50177
22.27317	50293
22.28128	51076
22.28942	49537
22.29753	48992
22.30567	49632
22.31378	44911
22.32190	49365
22.33003	47459
22.33815	49473
22.34628	48052
22.35440	54226
22.36252	48311
22.37065	48553
22.37877	49087
22.38688	54571
22.39502	50965
22.40313	47807
22.41127	49636
22.41938	50347
22.42750	48039
22.43563	48980
22.44375	52960
22.45188	49391
22.46000	51725
22.46812	53268
22.47625	52437
22.48437	50567
22.49248	50570
22.50062	49170
22.50873	49050
22.51687	52538
22.52498	49765
22.53310	49343
22.54123	52174
22.54935	49002
22.55748	52005
22.56560	51970
22.57372	50286
22.58185	47821
22.58997	50950
22.59810	51859
22.60622	49971
22.61433	51755
22.62247	52276
22.63058	50426
22.63870	50857
22.64683	48523
22.65495	54543
22.66308	52173
22.67120	52742
22.67932	50131
22.68745	51792
22.69557	50203
22.70370	51661
22.71182	49955
22.71993	52207
22.72807	51899
22.73618	53947
22.74430	54726
22.75243	52369
22.76055	54631
22.76868	48635
22.77680	50568
22.78492	52866
22.79305	51277
22.80117	49892
22.80930	51450
22.81742	51350
22.82553	51398
22.83367	49971
22.84178	50103
22.84992	52805
22.85803	53326
22.86615	51585
22.87428	50478
22.88240	53133
22.89052	53221
22.89865	52935
22.90677	51996
22.91490	53764
22.92302	53684
22.93113	55304
22.93927	51776
22.94738	50439
22.95552	50529
22.96363	52128
22.97175	57143
22.97988	52063
22.98800	54024
22.99612	52266
23.00425	52274
23.01237	51222
23.02050	55573
23.02862	54547
23.03673	54907
23.04487	52813
23.05298	50288
23.06112	52266
23.06923	56814
23.07735	49123
23.08548	52307
23.09360	52453
23.10173	52520
23.10985	57971
23.11797	53884
23.12610	54135
23.13422	54855
23.14233	56415
23.15047	52206
23.15858	52653
23.16672	51504
23.17483	52100
23.18295	58509
23.19108	57654
23.19920	53298
23.20733	51893
23.21545	56501
23.22357	56051
23.23170	56310
23.23982	54918
23.24795	56454
23.25607	54807
23.26418	54822
23.27232	58011
23.28043	57052
23.28855	54948
23.29668	55072
23.30480	54833
23.31293	54160
23.32105	54225
23.32917	55777
23.33730	54241
23.34542	57753
23.35355	59193
23.36167	56953
23.36978	56325
23.37792	53086
23.38603	57642
23.39417	61233
23.40228	56544
23.41040	55163
23.41853	54628
23.42665	60863
23.43477	54955
23.44290	55371
23.45102	57540
23.45915	58159
23.46727	58262
23.47538	61154
23.48352	62525
23.49163	59263
23.49977	55891
23.50788	58219
23.51600	61452
23.52413	57212
23.53225	60415
23.54037	61685
23.54850	66548
23.55662	63243
23.56475	59782
23.57287	64739
23.58098	67818
23.58912	64253
23.59723	64759
23.60537	66023
23.61348	61356
23.62160	63452
23.62973	61661
23.63785	63105
23.64598	61619
23.65410	68134
23.66222	70532
23.67035	65800
23.67847	64490
23.68658	62557
23.69472	60860
23.70283	62104
23.71097	65454
23.71908	64782
23.72720	68155
23.73533	63547
23.74345	64791
23.75158	66508
23.75970	65412
23.76782	63686
23.77595	65528
23.78407	62615
23.79218	59670
23.80032	60981
23.80843	63118
23.81657	58811
23.82468	57778
23.83280	59783
23.84093	59565
23.84905	57890
23.85718	58419
23.86530	55419
23.87342	57214
23.88155	57066
23.88967	61620
23.89780	54255
23.90592	56255
23.91403	59541
23.92217	53673
23.93028	55819
23.93840	59274
23.94653	54551
23.95465	55134
23.96278	52233
23.97090	55882
23.97902	57731
23.98715	51407
23.99527	57805
24.00340	54258
24.01152	56078
24.01963	54920
24.02777	55241
24.03588	55978
24.04402	56021
24.05213	54663
24.06025	55836
24.06838	55025
24.07650	58242
24.08462	52820
24.09275	55987
24.10087	55633
24.10900	54003
24.11712	57170
24.12523	55699
24.13337	55989
24.14148	55385
24.14962	53291
24.15773	59261
24.16585	56547
24.17398	55169
24.18210	61158
24.19022	51488
24.19835	52943
24.20647	55421
24.21460	51906
24.22272	51229
24.23083	54928
24.23897	53985
24.24708	51669
24.25522	58191
24.26333	58187
24.27145	52966
24.27958	56611
24.28770	52590
24.29583	57629
24.30395	56318
24.31207	54033
24.32020	53320
24.32832	51843
24.33643	57995
24.34457	53756
24.35268	57264
24.36082	58533
24.36893	58159
24.37705	52873
24.38518	55515
24.39330	57267
24.40143	55025
24.40955	58011
24.41767	58266
24.42580	57025
24.43392	54196
24.44205	55863
24.45017	54547
24.45828	61570
24.46642	53333
24.47453	54171
24.48265	58712
24.49078	59552
24.49890	54890
24.50703	56668
24.51515	56090
24.52327	54838
24.53140	56800
24.53952	59503
24.54765	55167
24.55577	57889
24.56388	59114
24.57202	52613
24.58013	52843
24.58825	55325
24.59638	57763
24.60450	54563
24.61263	56097
24.62075	54797
24.62887	56251
24.63700	53094
24.64512	54176
24.65325	53193
24.66137	53709
24.66948	57391
24.67762	59889
24.68573	56529
24.69387	57711
24.70198	54888
24.71010	55620
24.71823	54521
24.72635	53571
24.73447	57619
24.74260	54937
24.75072	53306
24.75885	55145
24.76697	55383
24.77508	55841
24.78322	54832
24.79133	52813
24.79947	58794
24.80758	53882
24.81570	54588
24.82383	56312
24.83195	59107
24.84007	55911
24.84820	54841
24.85632	55069
24.86445	56658
24.87257	55376
24.88068	56377
24.88882	54922
24.89693	54439
24.90507	56177
24.91318	57039
24.92130	54970
24.92943	57071
24.93755	58928
24.94568	55314
24.95380	53482
24.96192	57323
24.97005	52688
24.97817	55340
24.98628	56855
24.99442	57379
25.00253	54044
25.01067	55322
25.01878	53565
25.02690	55222
25.03503	59575
25.04315	57900
25.05128	59026
25.05940	58530
25.06752	57162
25.07565	59979
25.08377	54681
25.09190	56758
25.10002	58333
25.10813	56721
25.11627	56488
25.12438	54927
25.13250	57160
25.14063	56200
25.14875	54639
25.15688	59051
25.16500	57444
25.17312	54717
25.18125	55579
25.18937	58997
25.19750	58795
25.20562	58065
25.21373	57424
25.22187	59940
25.22998	58663
25.23810	59682
25.24623	58699
25.25435	55619
25.26248	58945
25.27060	58316
25.27872	57187
25.28685	57855
25.29497	61156
25.30310	57370
25.31122	53390
25.31933	59513
25.32747	55497
25.33558	58701
25.34372	54542
25.35183	59492
25.35995	56570
25.36808	60264
25.37620	55273
25.38432	57797
25.39245	62117
25.40057	60641
25.40870	58893
25.41682	56990
25.42493	61913
25.43307	60532
25.44118	61481
25.44932	61519
25.45743	57594
25.46555	55557
25.47368	58191
25.48180	55357
25.48993	61993
25.49805	60574
25.50617	59232
25.51430	55985
25.52242	62168
25.53053	59307
25.53867	63997
25.54678	56747
25.55492	56018
25.56303	59994
25.57115	55603
25.57928	61522
25.58740	57926
25.59553	58783
25.60365	57748
25.61177	64572
25.61990	56914
25.62802	59276
25.63613	60259
25.64427	58294
25.65238	60653
25.66052	58146
25.66863	58211
25.67675	57380
25.68488	66773
25.69300	59854
25.70113	62822
25.70925	60357
25.71737	57662
25.72550	56303
25.73362	62435
25.74175	58401
25.74987	56658
25.75798	58926
25.76612	58432
25.77423	59685
25.78235	61210
25.79048	60702
25.79860	61436
25.80673	61407
25.81485	62988
25.82297	62667
25.83110	62831
25.83922	62235
25.84735	64485
25.85547	59972
25.86358	64456
25.87172	63707
25.87983	58887
25.88797	61499
25.89608	61039
25.90420	61801
25.91233	59573
25.92045	61380
25.92857	61017
25.93670	62564
25.94482	59709
25.95295	60930
25.96107	63202
25.96918	63908
25.97732	61058
25.98543	64251
25.99357	64392
26.00168	65946
26.00980	65048
26.01793	61255
26.02605	63300
26.03417	60277
26.04230	62304
26.05042	64217
26.05855	60183
26.06667	61568
26.07478	62538
26.08292	64520
26.09103	62984
26.09917	65032
26.10728	62461
26.11540	64134
26.12353	61347
26.13165	66132
26.13978	61081
26.14790	62017
26.15602	62558
26.16415	60664
26.17227	61643
26.18038	65059
26.18852	60640
26.19663	60706
26.20477	62467
26.21288	60720
26.22100	62707
26.22913	60283
26.23725	59129
26.24538	61011
26.25350	63053
26.26162	61586
26.26975	63332
26.27787	63898
26.28598	65019
26.29412	61455
26.30223	62819
26.31037	64082
26.31848	70954
26.32660	63995
26.33473	62945
26.34285	64377
26.35098	61957
26.35910	63734
26.36722	65538
26.37535	62578
26.38347	65974
26.39160	65561
26.39972	65009
26.40783	64367
26.41597	64099
26.42408	63962
26.43220	62935
26.44033	66225
26.44845	66822
26.45658	66967
26.46470	64609
26.47282	65905
26.48095	64034
26.48907	66030
26.49720	63504
26.50532	65034
26.51343	65064
26.52157	70440
26.52968	66263
26.53782	64204
26.54593	64264
26.55405	65555
26.56218	65326
26.57030	66204
26.57842	69398
26.58655	65402
26.59467	68534
26.60280	67326
26.61092	65243
26.61903	65755
26.62717	70142
26.63528	64667
26.64342	67619
26.65153	67974
26.65965	65141
26.66778	66163
26.67590	65322
26.68402	66790
26.69215	70695
26.70027	67099
26.70840	65548
26.71652	69710
26.72463	67706
26.73277	64787
26.74088	69400
26.74902	68768
26.75713	69703
26.76525	69342
26.77338	69053
26.78150	63815
26.78963	68547
26.79775	68123
26.80587	69811
26.81400	70067
26.82212	66945
26.83023	66313
26.83837	69525
26.84648	69116
26.85462	66314
26.86273	74318
26.87085	72569
26.87898	68773
26.88710	74047
26.89523	66081
26.90335	67603
26.91147	70191
26.91960	68566
26.92772	72164
26.93585	71562
26.94397	68849
26.95208	69989
26.96022	74735
26.96833	70897
26.97645	70953
26.98458	72810
26.99270	74695
27.00083	76658
27.00895	74091
27.01707	72586
27.02520	73521
27.03332	71576
27.04145	72046
27.04957	74031
27.05768	72683
27.06582	71288
27.07393	73668
27.08205	74611
27.09018	70603
27.09830	72681
27.10643	67476
27.11455	69670
27.12267	81089
27.13080	71047
27.13892	71347
27.14705	71181
27.15517	76758
27.16328	71255
27.17142	70045
27.17953	68989
27.18767	72935
27.19578	73718
27.20390	71766
27.21203	74233
27.22015	77745
27.22827	74178
27.23640	71040
27.24452	73521
27.25265	71113
27.26077	75211
27.26888	76204
27.27702	74390
27.28513	75544
27.29327	77323
27.30138	72571
27.30950	72920
27.31763	74323
27.32575	75194
27.33387	81525
27.34200	74590
27.35012	75800
27.35825	74204
27.36637	71123
27.37448	73960
27.38262	73728
27.39073	74770
27.39887	79692
27.40698	77804
27.41510	78773
27.42323	73068
27.43135	72128
27.43948	71312
27.44760	73502
27.45572	76428
27.46385	77279
27.47197	72917
27.48008	77705
27.48822	75032
27.49633	80062
27.50447	73721
27.51258	78803
27.52070	76088
27.52883	73810
27.53695	74488
27.54508	77405
27.55320	80365
27.56132	76281
27.56945	79207
27.57757	78434
27.58570	78716
27.59382	77067
27.60193	76629
27.61007	80466
27.61818	77336
27.62630	77353
27.63443	81683
27.64255	80049
27.65068	74552
27.65880	84366
27.66692	82593
27.67505	80064
27.68317	78594
27.69130	82284
27.69942	80948
27.70753	80867
27.71567	79579
27.72378	77602
27.73192	78012
27.74003	77819
27.74815	75385
27.75628	78453
27.76440	83973
27.77252	83029
27.78065	79107
27.78877	75518
27.79690	76109
27.80502	77889
27.81313	78714
27.82127	82845
27.82938	76695
27.83752	77121
27.84563	76178
27.85375	85232
27.86188	82154
27.87000	79136
27.87812	77437
27.88625	77536
27.89437	82998
27.90250	83585
27.91062	81676
27.91873	80584
27.92687	83234
27.93498	84319
27.94312	81830
27.95123	73451
27.95935	80803
27.96748	80962
27.97560	80796
27.98373	81757
27.99185	81941
27.99997	81493
28.00810	84435
28.01622	81576
28.02433	76383
28.03247	80467
28.04058	80097
28.04872	86577
28.05683	83737
28.06495	89103
28.07308	81914
28.08120	78424
28.08933	85290
28.09745	83487
28.10557	83223
28.11370	85129
28.12182	83331
28.12993	83966
28.13807	88895
28.14618	84019
28.15432	88755
28.16243	87446
28.17055	86520
28.17868	81425
28.18680	80843
28.19493	82922
28.20305	80616
28.21117	86721
28.21930	83580
28.22742	79977
28.23555	86162
28.24367	82870
28.25178	82114
28.25992	83156
28.26803	83122
28.27615	83648
28.28428	83982
28.29240	86037
28.30053	83607
28.30865	83973
28.31677	80680
28.32490	82847
28.33302	89128
28.34115	86984
28.34927	86395
28.35738	87541
28.36552	86202
28.37363	87430
28.38177	86266
28.38988	91117
28.39800	86806
28.40613	83242
28.41425	85731
28.42237	84597
28.43050	88512
28.43862	84797
28.44675	82108
28.45487	82762
28.46298	82693
28.47112	82353
28.47923	84925
28.48737	86367
28.49548	84805
28.50360	91082
28.51173	91516
28.51985	87436
28.52797	93291
28.53610	88573
28.54422	86413
28.55235	87349
28.56047	91642
28.56858	88310
28.57672	90858
28.58483	90717
28.59297	95632
28.60108	93319
28.60920	92179
28.61733	89779
28.62545	90191
28.63358	93384
28.64170	88452
28.64982	89718
28.65795	92037
28.66607	90634
28.67418	96699
28.68232	88362
28.69043	92530
28.69857	97311
28.70668	89419
28.71480	89413
28.72293	86987
28.73105	90154
28.73918	94239
28.74730	92709
28.75542	94702
28.76355	93683
28.77167	94761
28.77980	93283
28.78792	92513
28.79603	90951
28.80417	98127
28.81228	98205
28.82040	94812
28.82853	97332
28.83665	94173
28.84478	91103
28.85290	96222
28.86102	93952
28.86915	96446
28.87727	91260
28.88540	96586
28.89352	92228
28.90163	94728
28.90977	91400
28.91788	98016
28.92600	94841
28.93413	95686
28.94225	95465
28.95038	97267
28.95850	94920
28.96662	91314
28.97475	95207
28.98287	93389
28.99100	94477
28.99912	95251
29.00723	96316
29.01537	93950
29.02348	95646
29.03162	94839
29.03973	96860
29.04785	99589
29.05598	91558
29.06410	96784
29.07222	95467
29.08035	101053
29.08847	98472
29.09660	97438
29.10472	97676
29.11283	98973
29.12097	103257
29.12908	101199
29.13722	104357
29.14533	102235
29.15345	99690
29.16158	100429
29.16970	101602
29.17782	101849
29.18595	100344
29.19407	101379
29.20220	100672
29.21032	100882
29.21843	99457
29.22657	100790
29.23468	99567
29.24282	104139
29.25093	103235
29.25905	102157
29.26718	100396
29.27530	103542
29.28343	100370
29.29155	102891
29.29967	103048
29.30780	102977
29.31592	102273
29.32403	102371
29.33217	107426
29.34028	103494
29.34842	105978
29.35653	107730
29.36465	102881
29.37278	102963
29.38090	108747
29.38903	102621
29.39715	102000
29.40527	99043
29.41340	107315
29.42152	104365
29.42965	103605
29.43777	100890
29.44588	105051
29.45402	99041
29.46213	102243
29.47025	104175
29.47838	102354
29.48650	103097
29.49463	103488
29.50275	103013
29.51087	95407
29.51900	105028
29.52712	106863
29.53525	107711
29.54337	102792
29.55148	104672
29.55962	107037
29.56773	102683
29.57585	107413
29.58398	105145
29.59210	108935
29.60023	105071
29.60835	104502
29.61647	107806
29.62460	103795
29.63272	107968
29.64085	110607
29.64897	109556
29.65708	103722
29.66522	103466
29.67333	104614
29.68147	105613
29.68958	107109
29.69770	107031
29.70583	109253
29.71395	109072
29.72207	110120
29.73020	109063
29.73832	108630
29.74645	107870
29.75457	107180
29.76268	113413
29.77082	106228
29.77893	104804
29.78707	106122
29.79518	105358
29.80330	108645
29.81143	111493
29.81955	111915
29.82768	110543
29.83580	113316
29.84392	112036
29.85205	111058
29.86017	113961
29.86828	113212
29.87642	115911
29.88453	108894
29.89267	118204
29.90078	115289
29.90890	118020
29.91703	115818
29.92515	119381
29.93328	123655
29.94140	116671
29.94952	127110
29.95765	113829
29.96577	115666
29.97388	116614
29.98202	118268
29.99013	113368
29.99827	115605
30.00638	113160
30.01450	116169
30.02263	110895
30.03075	118629
30.03888	111025
30.04700	117085
30.05512	114191
30.06325	118399
30.07137	118699
30.07950	117846
30.08762	112033
30.09573	115541
30.10387	120137
30.11198	116013
30.12010	119560
30.12823	114577
30.13635	116481
30.14448	116502
30.15260	119252
30.16072	123195
30.16885	115556
30.17697	120665
30.18510	119954
30.19322	118714
30.20133	123019
30.20947	120662
30.21758	116214
30.22572	124973
30.23383	119328
30.24195	122866
30.25008	122945
30.25820	121341
30.26632	117332
30.27445	120358
30.28257	121937
30.29070	118312
30.29882	121058
30.30693	122307
30.31507	124775
30.32318	122596
30.33132	134336
30.33943	122116
30.34755	124049
30.35568	116221
30.36380	119889
30.37192	126045
30.38005	120352
30.38817	119562
30.39630	125026
30.40442	124205
30.41253	122840
30.42067	126688
30.42878	126185
30.43692	125827
30.44503	124287
30.45315	123954
30.46128	120939
30.46940	123014
30.47753	122833
30.48565	118885
30.49377	120157
30.50190	125817
30.51002	123085
30.51813	122560
30.52627	119336
30.53438	125096
30.54252	124751
30.55063	122916
30.55875	123435
30.56688	124019
30.57500	126565
30.58313	126829
30.59125	127616
30.59937	124815
30.60750	128659
30.61562	127384
30.62373	123404
30.63187	131749
30.63998	122107
30.64812	131691
30.65623	129124
30.66435	129193
30.67248	126079
30.68060	131094
30.68873	129543
30.69685	129188
30.70497	129506
30.71310	129396
30.72122	127902
30.72935	124685
30.73747	131054
30.74558	131992
30.75372	131945
30.76183	126470
30.76995	126981
30.77808	130531
30.78620	134694
30.79433	131646
30.80245	130537
30.81057	132264
30.81870	129911
30.82682	132434
30.83495	128007
30.84307	133499
30.85118	135637
30.85932	130075
30.86743	135586
30.87557	136569
30.88368	131225
30.89180	127740
30.89993	134728
30.90805	126256
30.91617	138257
30.92430	138146
30.93242	132521
30.94055	132183
30.94867	134335
30.95678	138563
30.96492	136531
30.97303	135951
30.98117	139310
30.98928	134447
30.99740	130699
31.00553	138496
31.01365	138867
31.02177	136248
31.02990	137266
31.03802	135557
31.04615	137451
31.05427	137263
31.06238	135530
31.07052	139702
31.07863	142066
31.08677	141494
31.09488	143421
31.10300	138303
31.11113	141139
31.11925	141975
31.12738	142750
31.13550	145798
31.14362	143469
31.15175	149200
31.15987	142281
31.16798	143674
31.17612	144810
31.18423	146583
31.19237	150198
31.20048	142205
31.20860	148357
31.21673	140406
31.22485	140086
31.23298	144583
31.24110	147580
31.24922	146446
31.25735	148592
31.26547	139973
31.27360	144236
31.28172	142156
31.28983	139953
31.29797	140059
31.30608	143144
31.31420	141250
31.32233	142963
31.33045	141917
31.33858	142722
31.34670	145200
31.35482	141376
31.36295	143536
31.37107	138797
31.37920	139105
31.38732	146734
31.39543	147933
31.40357	141657
31.41168	151554
31.41980	142336
31.42793	141649
31.43605	147079
31.44418	147889
31.45230	148535
31.46042	137177
31.46855	151038
31.47667	149994
31.48480	149389
31.49292	149439
31.50103	143095
31.50917	148351
31.51728	148400
31.52542	149770
31.53353	151969
31.54165	144984
31.54978	148726
31.55790	148356
31.56602	150323
31.57415	151458
31.58227	154035
31.59040	156717
31.59852	156700
31.60663	154581
31.61477	154757
31.62288	154408
31.63102	156968
31.63913	158279
31.64725	156951
31.65538	151786
31.66350	158946
31.67162	156773
31.67975	155136
31.68787	158748
31.69600	161865
31.70412	157072
31.71223	163249
31.72037	161364
31.72848	157880
31.73662	155015
31.74473	159716
31.75285	156755
31.76098	159101
31.76910	161410
31.77723	159807
31.78535	167664
31.79347	163507
31.80160	163543
31.80972	163486
31.81783	163004
31.82597	168066
31.83408	162031
31.84222	162521
31.85033	164029
31.85845	167853
31.86658	171154
31.87470	166608
31.88283	164104
31.89095	165372
31.89907	165725
31.90720	164987
31.91532	165241
31.92345	169101
31.93157	166760
31.93968	160428
31.94782	162191
31.95593	170504
31.96405	163846
31.97218	165515
31.98030	171709
31.98843	163852
31.99655	169153
32.00467	174079
32.01280	162592
32.02092	165963
32.02905	166113
32.03717	169328
32.04528	166594
32.05342	169264
32.06153	171209
32.06965	167159
32.07778	163050
32.08590	169523
32.09403	174980
32.10215	162900
32.11027	161963
32.11840	170630
32.12652	172882
32.13465	172788
32.14277	166930
32.15088	167930
32.15902	170611
32.16713	168775
32.17527	170193
32.18338	170906
32.19150	176646
32.19963	174481
32.20775	174268
32.21587	175273
32.22400	175833
32.23212	178134
32.24025	170975
32.24837	174319
32.25648	177850
32.26462	178686
32.27273	176156
32.28087	180966
32.28898	173369
32.29710	177598
32.30523	184820
32.31335	182538
32.32148	187370
32.32960	184131
32.33772	184774
32.34585	185016
32.35397	183121
32.36208	189682
32.37022	180812
32.37833	187477
32.38647	186604
32.39458	184496
32.40270	185160
32.41083	180903
32.41895	185479
32.42708	188583
32.43520	187933
32.44332	184971
32.45145	184326
32.45957	181444
32.46768	181632
32.47582	185677
32.48393	185748
32.49207	188824
32.50018	182700
32.50830	192110
32.51643	181662
32.52455	186403
32.53268	189644
32.54080	189784
32.54892	180547
32.55705	188909
32.56517	187078
32.57330	192130
32.58142	184905
32.58953	189300
32.59767	186088
32.60578	184984
32.61390	187346
32.62203	183952
32.63015	185800
32.63828	189335
32.64640	184544
32.65452	191856
32.66265	189536
32.67077	200478
32.67890	191113
32.68702	193183
32.69513	191136
32.70327	191738
32.71138	194598
32.71950	195601
32.72763	194000
32.73575	195313
32.74388	196237
32.75200	187640
32.76012	187445
32.76825	192134
32.77637	192482
32.78450	192068
32.79262	195424
32.80073	192812
32.80887	194679
32.81698	194091
32.82512	195840
32.83323	194003
32.84135	189061
32.84948	193205
32.85760	191131
32.86572	202053
32.87385	194825
32.88197	195841
32.89010	196727
32.89822	197080
32.90633	198215
32.91447	201080
32.92258	191892
32.93072	195636
32.93883	199080
32.94695	195550
32.95508	191213
32.96320	196258
32.97133	201827
32.97945	199646
32.98757	200276
32.99570	199899
33.00382	207018
33.01193	203253
33.02007	208693
33.02818	205251
33.03632	205136
33.04443	204787
33.05255	208891
33.06068	204225
33.06880	207588
33.07693	207269
33.08505	212275
33.09317	210598
33.10130	215072
33.10942	212559
33.11755	207092
33.12567	211065
33.13378	208672
33.14192	214951
33.15003	212388
33.15815	210467
33.16628	215149
33.17440	212927
33.18253	218863
33.19065	217670
33.19877	214663
33.20690	218906
33.21502	218736
33.22315	220429
33.23127	213687
33.23938	219978
33.24752	220057
33.25563	222925
33.26375	219209
33.27188	214397
33.28000	214081
33.28813	214335
33.29625	218054
33.30437	219738
33.31250	220663
33.32062	217537
33.32875	221174
33.33687	219745
33.34498	212013
33.35312	216933
33.36123	217836
33.36937	213992
33.37748	221387
33.38560	214086
33.39373	219116
33.40185	219956
33.40997	215380
33.41810	217369
33.42622	219534
33.43435	215636
33.44247	218567
33.45058	218881
33.45872	221143
33.46683	214876
33.47497	218603
33.48308	212279
33.49120	215446
33.49933	216607
33.50745	215601
33.51557	215396
33.52370	219882
33.53182	222537
33.53995	219369
33.54807	220349
33.55618	221950
33.56432	224788
33.57243	217122
33.58057	216700
33.58868	217424
33.59680	226381
33.60493	228883
33.61305	220532
33.62118	230549
33.62930	221071
33.63742	225239
33.64555	225204
33.65367	228492
33.66178	226566
33.66992	225062
33.67803	228488
33.68617	227058
33.69428	228012
33.70240	234550
33.71053	232841
33.71865	233743
33.72678	238096
33.73490	248761
33.74302	243061
33.75115	245372
33.75927	242814
33.76740	242097
33.77552	244907
33.78363	238073
33.79177	243367
33.79988	242607
33.80800	238572
33.81613	244960
33.82425	237363
33.83238	241090
33.84050	243259
33.84862	244764
33.85675	244891
33.86487	239256
33.87300	240274
33.88112	242398
33.88923	239422
33.89737	248013
33.90548	236438
33.91360	240919
33.92173	240970
33.92985	235019
33.93798	240436
33.94610	248416
33.95422	246493
33.96235	241126
33.97047	235814
33.97860	245267
33.98672	237307
33.99483	239149
34.00297	246042
34.01108	243260
34.01922	253880
34.02733	244238
34.03545	249896
34.04358	246005
34.05170	251132
34.05982	248876
34.06795	253364
34.07607	251709
34.08420	250836
34.09232	261885
34.10043	250193
34.10857	255960
34.11668	247912
34.12482	256716
34.13293	259531
34.14105	257444
34.14918	261801
34.15730	255627
34.16543	263585
34.17355	261018
34.18167	268896
34.18980	256930
34.19792	269339
34.20603	259723
34.21417	258712
34.22228	264581
34.23042	263468
34.23853	258207
34.24665	260722
34.25478	260493
34.26290	266212
34.27103	265247
34.27915	263420
34.28727	272873
34.29540	269405
34.30352	274300
34.31163	267972
34.31977	274691
34.32788	276416
34.33602	276166
34.34413	263264
34.35225	272210
34.36038	271840
34.36850	272076
34.37663	270869
34.38475	272469
34.39287	269769
34.40100	263297
34.40912	267433
34.41725	271523
34.42537	262168
34.43348	262253
34.44162	268857
34.44973	264551
34.45785	273086
34.46598	266488
34.47410	267918
34.48223	278630
34.49035	269708
34.49847	267133
34.50660	269627
34.51472	272593
34.52285	268318
34.53097	270125
34.53908	269993
34.54722	273408
34.55533	273144
34.56345	267622
34.57158	280115
34.57970	268209
34.58783	270448
34.59595	277921
34.60407	272038
34.61220	273913
34.62032	273367
34.62845	284933
34.63657	270147
34.64468	282266
34.65282	281376
34.66093	283955
34.66907	291255
34.67718	293158
34.68530	286318
34.69343	291426
34.70155	289281
34.70967	287450
34.71780	299144
34.72592	291428
34.73405	295541
34.74217	293215
34.75028	297706
34.75842	294637
34.76653	302606
34.77467	296792
34.78278	299314
34.79090	301837
34.79903	295360
34.80715	291603
34.81528	289427
34.82340	295907
34.83152	293554
34.83965	295493
34.84777	306645
34.85588	292294
34.86402	301636
34.87213	298304
34.88027	302838
34.88838	293998
34.89650	301273
34.90463	292844
34.91275	296554
34.92088	291612
34.92900	299410
34.93712	302476
34.94525	300027
34.95337	305346
34.96148	302389
34.96962	304862
34.97773	307327
34.98587	308657
34.99398	308827
35.00210	311172
35.01023	305641
35.01835	316130
35.02648	309989
35.03460	306780
35.04272	302415
35.05085	314166
35.05897	302223
35.06710	302830
35.07522	309022
35.08333	304296
35.09147	311271
35.09958	311612
35.10770	305477
35.11583	318747
35.12395	315065
35.13208	299413
35.14020	316462
35.14832	319795
35.15645	308285
35.16457	304377
35.17270	314516
35.18082	316470
35.18893	309610
35.19707	315700
35.20518	316993
35.21332	319624
35.22143	320417
35.22955	320598
35.23768	326920
35.24580	328405
35.25392	327951
35.26205	330020
35.27017	325648
35.27830	332046
35.28642	333118
35.29453	327134
35.30267	326670
35.31078	333054
35.31892	333535
35.32703	323434
35.33515	331997
35.34328	336977
35.35140	335300
35.35952	328851
35.36765	338927
35.37577	327469
35.38390	328386
35.39202	334383
35.40013	329754
35.40827	321070
35.41638	329371
35.42452	321901
35.43263	326465
35.44075	320189
35.44888	321693
35.45700	319862
35.46513	324979
35.47325	325964
35.48137	326629
35.48950	323318
35.49762	334107
35.50573	332265
35.51387	340338
35.52198	333920
35.53012	329902
35.53823	337087
35.54635	338808
35.55448	339555
35.56260	342355
35.57073	350164
35.57885	345347
35.58697	348154
35.59510	348274
35.60322	342456
35.61135	344334
35.61947	348246
35.62758	343867
35.63572	353258
35.64383	345887
35.65195	347645
35.66008	355737
35.66820	353887
35.67633	350493
35.68445	351032
35.69257	353989
35.70070	347310
35.70882	347074
35.71695	341488
35.72507	338478
35.73318	345981
35.74132	340311
35.74943	337066
35.75755	340543
35.76568	339504
35.77380	347267
35.78193	350221
35.79005	339761
35.79817	348060
35.80630	351548
35.81442	348199
35.82255	346644
35.83067	357104
35.83878	355469
35.84692	352754
35.85503	353138
35.86317	354243
35.87128	355415
35.87940	355527
35.88753	357944
35.89565	360090
35.90377	356789
35.91190	364422
35.92002	367063
35.92815	357509
35.93627	352992
35.94438	361814
35.95252	360323
35.96063	353819
35.96877	355498
35.97688	356071
35.98500	355530
35.99313	350499
36.00125	359143
36.00937	356372
36.01750	357696
36.02562	347257
36.03375	360219
36.04187	359015
36.04998	362183
36.05812	366089
36.06623	365874
36.07437	368013
36.08248	372742
36.09060	368794
36.09873	364001
36.10685	370584
36.11498	363754
36.12310	371789
36.13122	367623
36.13935	365332
36.14747	370426
36.15558	370591
36.16372	368807
36.17183	360238
36.17997	379431
36.18808	362395
36.19620	369790
36.20433	379179
36.21245	376352
36.22058	377267
36.22870	373792
36.23682	363470
36.24495	374591
36.25307	374476
36.26120	366217
36.26932	369005
36.27743	370470
36.28557	371577
36.29368	377896
36.30180	378608
36.30993	376796
36.31805	374056
36.32618	382330
36.33430	384186
36.34242	368581
36.35055	376147
36.35867	379695
36.36680	392590
36.37492	386271
36.38303	382850
36.39117	399332
36.39928	398201
36.40740	382939
36.41553	386524
36.42365	383160
36.43178	381728
36.43990	392214
36.44802	390692
36.45615	392795
36.46427	392233
36.47240	391725
36.48052	394938
36.48863	393150
36.49677	398129
36.50488	389739
36.51302	384583
36.52113	380053
36.52925	384949
36.53738	385283
36.54550	397101
36.55362	380215
36.56175	391229
36.56987	378138
36.57800	398225
36.58612	387965
36.59423	387962
36.60237	383528
36.61048	385420
36.61862	395910
36.62673	389518
36.63485	393827
36.64298	387666
36.65110	386434
36.65923	394665
36.66735	394010
36.67547	408671
36.68360	392954
36.69172	395520
36.69983	404766
36.70797	398185
36.71608	416542
36.72422	409545
36.73233	398418
36.74045	405178
36.74858	396921
36.75670	409972
36.76483	409186
36.77295	407919
36.78107	405533
36.78920	407476
36.79732	417120
36.80543	418167
36.81357	408154
36.82168	410061
36.82982	416776
36.83793	422246
36.84605	421396
36.85418	421264
36.86230	428694
36.87043	426354
36.87855	413670
36.88667	424894
36.89480	415486
36.90292	429253
36.91105	419412
36.91917	418339
36.92728	419134
36.93542	424499
36.94353	417423
36.95165	431840
36.95978	429364
36.96790	428069
36.97603	431619
36.98415	433591
36.99227	431006
37.00040	430899
37.00852	427286
37.01665	428570
37.02477	425607
37.03288	420969
37.04102	429626
37.04913	420495
37.05725	429382
37.06538	437887
37.07350	431783
37.08163	437439
37.08975	435776
37.09787	436983
37.10600	442602
37.11412	432890
37.12225	434021
37.13037	440942
37.13848	438238
37.14662	447167
37.15473	446392
37.16287	437176
37.17098	445085
37.17910	445958
37.18723	446767
37.19535	464592
37.20347	452767
37.21160	462135
37.21972	451062
37.22785	460543
37.23597	445511
37.24408	446230
37.25222	447820
37.26033	449690
37.26847	453814
37.27658	445200
37.28470	458582
37.29283	442695
37.30095	450843
37.30908	451149
37.31720	457749
37.32532	449983
37.33345	457297
37.34157	457550
37.34968	454244
37.35782	459138
37.36593	460427
37.37407	460182
37.38218	452591
37.39030	455378
37.39843	466015
37.40655	465497
37.41468	453772
37.42280	459100
37.43092	466579
37.43905	466838
37.44717	458789
37.45528	460761
37.46342	459788
37.47153	472203
37.47967	471914
37.48778	465964
