D:\MassHunter\GCMS\1\data\JTB-E02\BACandSTRAW\JTB-E12-002-11.D Fri Mar 15 14:23:52 2019
Start of data points
2.09527,84197
2.10338,95029
2.11152,94514
2.11963,96493
2.12777,91101
2.13588,88647
2.14400,94749
2.15213,94040
2.16025,89379
2.16838,101013
2.17650,80974
2.18462,84734
2.19275,74086
2.20087,91903
2.20898,84578
2.21712,74379
2.22523,75157
2.23337,72497
2.24148,68380
2.24960,68093
2.25773,69897
2.26585,68142
2.27398,67601
2.28210,69412
2.29022,64107
2.29835,65042
2.30647,59946
2.31460,71848
2.32272,63620
2.33083,63608
2.33897,62598
2.34708,63172
2.35520,59744
2.36333,70450
2.37145,59496
2.37958,74744
2.38770,60782
2.39582,142805
2.40395,3032247
2.41207,1.145347E+07
2.42020,1.095032E+07
2.42832,4816743
2.43643,2503689
2.44457,1970863
2.45268,1634949
2.46082,1423774
2.46893,1258325
2.47705,1141795
2.48518,1012905
2.49330,928761
2.50142,860462
2.50955,815193
2.51767,790016
2.52580,745214
2.53392,739115
2.54203,713548
2.55017,696557
2.55828,672936
2.56642,675653
2.57453,668780
2.58265,654607
2.59078,634461
2.59890,627752
2.60702,627436
2.61515,627007
2.62327,624695
2.63140,620317
2.63952,632502
2.64763,647380
2.65577,628809
2.66388,634336
2.67202,613559
2.68013,612889
2.68825,603227
2.69638,630680
2.70450,646557
2.71263,662452
2.72075,637471
2.72887,633064
2.73700,629984
2.74512,625596
2.75323,1209283
2.76137,7268148
2.76948,1.373937E+07
2.77762,9200902
2.78573,4454716
2.79385,2881749
2.80198,2109241
2.81010,1676120
2.81823,1388826
2.82635,1208508
2.83447,1060921
2.84260,983175
2.85072,916415
2.85885,859930
2.86697,814246
2.87508,782160
2.88322,765328
2.89133,747541
2.89945,715410
2.90758,704050
2.91570,698644
2.92383,679460
2.93195,675359
2.94007,822937
2.94820,1513161
2.95632,1701025
2.96445,1125004
2.97257,841655
2.98068,772080
2.98882,715243
2.99693,692252
3.00505,671141
3.01318,646041
3.02130,654218
3.02943,640358
3.03755,608610
3.04567,618920
3.05380,612754
3.06192,602825
3.07005,598373
3.07817,581058
3.08628,583035
3.09442,580410
3.10253,575287
3.11067,577068
3.11878,556143
3.12690,561129
3.13503,582011
3.14315,582304
3.15127,568131
3.15940,562339
3.16752,555520
3.17565,575493
3.18377,601429
3.19188,578386
3.20002,548118
3.20813,538332
3.21627,536650
3.22438,524349
3.23250,521476
3.24063,525359
3.24875,505692
3.25688,512105
3.26500,572897
3.27312,882002
3.28125,4142084
3.28937,1.403499E+07
3.29748,1.734121E+07
3.30562,1.161391E+07
3.31373,6399953
3.32187,4424846
3.32998,3444918
3.33810,2750008
3.34623,2229476
3.35435,2446092
3.36248,1.505251E+07
3.37060,4.431266E+07
3.37872,5.892103E+07
3.38685,5.736559E+07
3.39497,4.728477E+07
3.40308,3.823274E+07
3.41122,3.337615E+07
3.41933,2.943411E+07
3.42747,2.609511E+07
3.43558,2.333013E+07
3.44370,2.092782E+07
3.45183,1.876435E+07
3.45995,1.683458E+07
3.46808,1.530143E+07
3.47620,1.428804E+07
3.48432,1.354285E+07
3.49245,1.270852E+07
3.50057,1.162164E+07
3.50870,1.046731E+07
3.51682,9645758
3.52493,8855460
3.53307,8172962
3.54118,7557742
3.54930,7024897
3.55743,6505235
3.56555,6112128
3.57368,5705162
3.58180,5356407
3.58992,5058561
3.59805,4774527
3.60617,4527732
3.61430,4282388
3.62242,4070491
3.63053,3877846
3.63867,3690110
3.64678,3573462
3.65492,3335139
3.66303,3253212
3.67115,3086845
3.67928,3002626
3.68740,2878515
3.69552,2762419
3.70365,2664715
3.71177,2589860
3.71990,2510891
3.72802,2425058
3.73613,2339824
3.74427,2298014
3.75238,2202614
3.76052,2118393
3.76863,2099388
3.77675,2026943
3.78488,1968993
3.79300,1949049
3.80113,1864811
3.80925,1831001
3.81737,1757557
3.82550,1730841
3.83362,1680706
3.84173,1624937
3.84987,1639165
3.85798,2947561
3.86612,1.998821E+07
3.87423,5.920548E+07
3.88235,8.910536E+07
3.89048,1.047787E+08
3.89860,1.121401E+08
3.90673,1.171227E+08
3.91485,1.202205E+08
3.92297,1.19017E+08
3.93110,8.961123E+07
3.93922,7.322528E+07
3.94733,6.718178E+07
3.95547,6.17664E+07
3.96358,5.75253E+07
3.97172,5.352918E+07
3.97983,5.045007E+07
3.98795,4.708698E+07
3.99608,4.719512E+07
4.00420,5.58406E+07
4.01233,6.318273E+07
4.02045,5.620412E+07
4.02857,4.366356E+07
4.03670,3.732843E+07
4.04482,3.45135E+07
4.05295,3.254876E+07
4.06107,3.103455E+07
4.06918,2.970995E+07
4.07732,2.839878E+07
4.08543,2.752885E+07
4.09355,2.752138E+07
4.10168,2.813881E+07
4.10980,2.709527E+07
4.11793,2.502356E+07
4.12605,2.356244E+07
4.13417,2.261233E+07
4.14230,2.180294E+07
4.15042,2.112132E+07
4.15855,2.049738E+07
4.16667,1.981013E+07
4.17478,1.921934E+07
4.18292,1.87218E+07
4.19103,1.825949E+07
4.19917,1.77059E+07
4.20728,1.712932E+07
4.21540,1.664095E+07
4.22353,1.626779E+07
4.23165,1.588138E+07
4.23977,1.557427E+07
4.24790,1.514821E+07
4.25602,1.463233E+07
4.26415,1.422263E+07
4.27227,1.37367E+07
4.28038,1.342255E+07
4.28852,1.312263E+07
4.29663,1.304961E+07
4.30477,1.31093E+07
4.31288,1.329025E+07
4.32100,1.278925E+07
4.32913,1.208709E+07
4.33725,1.165431E+07
4.34537,1.132664E+07
4.35350,1.098672E+07
4.36162,1.072567E+07
4.36975,1.05171E+07
4.37787,1.044207E+07
4.38598,1.067725E+07
4.39412,1.105032E+07
4.40223,1.11561E+07
4.41037,1.058338E+07
4.41848,9907964
4.42660,9419868
4.43473,9087643
4.44285,8850264
4.45098,8908358
4.45910,1.089008E+07
4.46722,1.913867E+07
4.47535,2.984951E+07
4.48347,3.763752E+07
4.49158,4.160099E+07
4.49972,4.548504E+07
4.50783,4.73895E+07
4.51597,4.059659E+07
4.52408,2.633998E+07
4.53220,2.008133E+07
4.54033,1.708109E+07
4.54845,1.507631E+07
4.55658,1.340952E+07
4.56470,1.213955E+07
4.57282,1.11496E+07
4.58095,1.044189E+07
4.58907,9830645
4.59720,9478765
4.60532,8982546
4.61343,8552392
4.62157,8168082
4.62968,7859392
4.63780,7603128
4.64593,7329286
4.65405,7129966
4.66218,6922838
4.67030,6732677
4.67842,6524292
4.68655,6428468
4.69467,6271627
4.70280,6079790
4.71092,6069295
4.71903,5987426
4.72717,5873175
4.73528,5727064
4.74340,5585641
4.75153,5539184
4.75965,5479406
4.76778,6312316
4.77590,1.154353E+07
4.78402,2.369261E+07
4.79215,3.234796E+07
4.80027,3.014633E+07
4.80840,2.023231E+07
4.81652,1.243632E+07
4.82463,9380270
4.83277,8101857
4.84088,7387806
4.84902,7044643
4.85713,6860167
4.86525,6479500
4.87338,6031789
4.88150,5647116
4.88962,5554745
4.89775,5943261
4.90587,8719546
4.91400,1.755412E+07
4.92212,2.928137E+07
4.93023,3.306231E+07
4.93837,2.513147E+07
4.94648,1.494243E+07
4.95462,9334320
4.96273,7171590
4.97085,6187039
4.97898,5632998
4.98710,5265368
4.99523,4975893
5.00335,4777678
5.01147,4610122
5.01960,4525746
5.02772,5068221
5.03583,9050383
5.04397,1.927865E+07
5.05208,2.856554E+07
5.06022,2.946075E+07
5.06833,2.23515E+07
5.07645,1.398977E+07
5.08458,9763377
5.09270,8534604
5.10083,8375946
5.10895,7708045
5.11707,6775805
5.12520,5909707
5.13332,5432561
5.14145,5128907
5.14957,4971427
5.15768,4989716
5.16582,5233295
5.17393,5377859
5.18205,5252514
5.19018,4982979
5.19830,4723581
5.20643,4640798
5.21455,5774013
5.22267,1.042861E+07
5.23080,1.821311E+07
5.23892,2.194062E+07
5.24705,1.804399E+07
5.25517,1.247434E+07
5.26328,9272716
5.27142,7742867
5.27953,6424030
5.28765,5496231
5.29578,4986159
5.30390,4655300
5.31203,4411782
5.32015,4244777
5.32827,4091257
5.33640,3958706
5.34452,3843740
5.35265,3732179
5.36077,3655134
5.36888,3569877
5.37702,3510338
5.38513,3430375
5.39327,3363037
5.40138,3251227
5.40950,3183408
5.41763,3157207
5.42575,3085459
5.43387,3030116
5.44200,2999322
5.45012,2977305
5.45825,2890685
5.46637,2893225
5.47448,2826888
5.48262,2807665
5.49073,2777591
5.49887,2728768
5.50698,2720848
5.51510,2689370
5.52323,2640086
5.53135,2612867
5.53948,2576136
5.54760,2523746
5.55572,2510987
5.56385,2483671
5.57197,2464124
5.58008,2443411
5.58822,2407584
5.59633,2428684
5.60447,2490066
5.61258,2599963
5.62070,2608847
5.62883,2554976
5.63695,2744661
5.64508,4629190
5.65320,1.139739E+07
5.66132,2.412602E+07
5.66945,3.472656E+07
5.67757,3.576162E+07
5.68568,2.720584E+07
5.69382,1.637955E+07
5.70193,1.105448E+07
5.71007,1.483596E+07
5.71818,2.650684E+07
5.72630,3.70383E+07
5.73443,4.011683E+07
5.74255,3.358608E+07
5.75068,2.167502E+07
5.75880,1.226817E+07
5.76692,7992137
5.77505,6070386
5.78317,5072154
5.79130,4529789
5.79942,4166070
5.80753,4019645
5.81567,3880408
5.82378,4283919
5.83190,6273481
5.84003,9668774
5.84815,1.16067E+07
5.85628,1.031799E+07
5.86440,7228067
5.87252,4883192
5.88065,3709320
5.88877,3191017
5.89690,2888694
5.90502,2750161
5.91313,2589110
5.92127,2514422
5.92938,2426043
5.93752,2334354
5.94563,2311754
5.95375,2210441
5.96188,2192160
5.97000,2167001
5.97812,2121211
5.98625,2145188
5.99437,2163116
6.00250,2155945
6.01062,2078248
6.01873,2007940
6.02687,1948007
6.03498,1939939
6.04312,1895946
6.05123,1850754
6.05935,1819219
6.06748,1770678
6.07560,1714796
6.08372,1693959
6.09185,1659784
6.09997,1670682
6.10810,1630497
6.11622,1629840
6.12433,1611319
6.13247,1623292
6.14058,1599207
6.14872,1549867
6.15683,1605517
6.16495,1838262
6.17308,3896872
6.18120,1.304164E+07
6.18933,3.575874E+07
6.19745,6.402426E+07
6.20557,8.82917E+07
6.21370,1.063731E+08
6.22182,1.161176E+08
6.22993,1.078491E+08
6.23807,7.258358E+07
6.24618,3.817902E+07
6.25432,2.520671E+07
6.26243,2.079387E+07
6.27055,1.833014E+07
6.27868,1.717299E+07
6.28680,1.708054E+07
6.29493,1.731007E+07
6.30305,1.635149E+07
6.31117,1.416848E+07
6.31930,1.207851E+07
6.32742,1.066606E+07
6.33555,9921201
6.34367,9206567
6.35178,8776085
6.35992,8404835
6.36803,8211291
6.37615,8009890
6.38428,7514086
6.39240,6857860
6.40053,6443377
6.40865,6096126
6.41677,5944067
6.42490,5752626
6.43302,5547595
6.44115,5282659
6.44927,5168530
6.45738,5024547
6.46552,4866601
6.47363,4687849
6.48177,4454634
6.48988,4304982
6.49800,4213308
6.50613,4080623
6.51425,3971934
6.52237,4248678
6.53050,6511624
6.53862,1.641135E+07
6.54675,3.974166E+07
6.55487,6.833661E+07
6.56298,9.17821E+07
6.57112,1.110015E+08
6.57923,1.261013E+08
6.58737,1.337386E+08
6.59548,1.212567E+08
6.60360,6.644716E+07
6.61173,2.412421E+07
6.61985,1.586908E+07
6.62797,1.323369E+07
6.63610,1.148788E+07
6.64422,1.019221E+07
6.65235,9092952
6.66047,8281904
6.66858,7577284
6.67672,7018592
6.68483,6591440
6.69297,6113520
6.70108,5768656
6.70920,5500721
6.71733,5209822
6.72545,4978333
6.73358,4694320
6.74170,4543082
6.74982,4318273
6.75795,4176080
6.76607,4008384
6.77418,3805930
6.78232,3689153
6.79043,3551380
6.79857,3441311
6.80668,3345712
6.81480,3274443
6.82293,3154117
6.83105,3066702
6.83918,2969226
6.84730,2960774
6.85542,3503371
6.86355,7046508
6.87167,1.893193E+07
6.87980,4.107855E+07
6.88792,6.405167E+07
6.89603,7.516408E+07
6.90417,6.590695E+07
6.91228,3.926471E+07
6.92040,1.824534E+07
6.92853,1.023706E+07
6.93665,7133821
6.94478,5712197
6.95290,5640209
6.96102,7421409
6.96915,1.033644E+07
6.97727,1.200785E+07
6.98540,1.093864E+07
6.99352,9176494
7.00163,7753382
7.00977,6104862
7.01788,4480684
7.02600,3502592
7.03413,3010702
7.04225,3684304
7.05038,3420508
7.05850,3134583
7.06662,3149979
7.07475,3512083
7.08287,3578974
7.09100,3457615
7.09912,3336843
7.10723,3226215
7.11537,3185770
7.12348,3092487
7.13162,3048125
7.13973,3067864
7.14785,3153761
7.15598,3274461
7.16410,3324514
7.17222,3157413
7.18035,2885385
7.18847,2684801
7.19660,2492283
7.20472,2356218
7.21283,2335387
7.22097,2440272
7.22908,2516420
7.23722,2616119
7.24533,2562517
7.25345,2520314
7.26158,2466754
7.26970,2456061
7.27783,2505991
7.28595,2542698
7.29407,2529265
7.30220,2474205
7.31032,2429454
7.31843,2381480
7.32657,2277581
7.33468,2264487
7.34282,2235047
7.35093,2185973
7.35905,2156507
7.36718,2147724
7.37530,2147428
7.38343,2184898
7.39155,2305104
7.39967,2527093
7.40780,2735448
7.41592,2733879
7.42403,2522718
7.43217,2303445
7.44028,2088576
7.44842,1999416
7.45653,1921769
7.46465,1917147
7.47278,1904961
7.48090,1911063
7.48903,1981136
7.49715,2022530
7.50527,1965567
7.51340,1857253
7.52152,1833241
7.52965,1793495
7.53777,1920847
7.54588,2499470
7.55402,3854812
7.56213,5545460
7.57025,6285031
7.57838,5180406
7.58650,3519304
7.59463,2443966
7.60275,1985377
7.61087,1788382
7.61900,1668614
7.62712,1602210
7.63525,1536710
7.64337,1523214
7.65148,1492010
7.65962,1495640
7.66773,1442855
7.67587,1439786
7.68398,1436742
7.69210,1421084
7.70023,1388498
7.70835,1386503
7.71647,1367568
7.72460,1366827
7.73272,1352022
7.74085,1338853
7.74897,1375511
7.75708,1419235
7.76522,1550820
7.77333,1809979
7.78147,2327445
7.78958,3012569
7.79770,3448030
7.80583,3366239
7.81395,2835776
7.82208,2415491
7.83020,2207110
7.83832,2120074
7.84645,1938420
7.85457,1764245
7.86268,1602958
7.87082,1504427
7.87893,1427097
7.88707,1397972
7.89518,1363080
7.90330,1360414
7.91143,1304714
7.91955,1308606
7.92768,1351132
7.93580,1459773
7.94392,1568340
7.95205,1590925
7.96017,1481573
7.96828,1380327
7.97642,1284698
7.98453,1110512
7.99267,926475
8.00078,781608
8.00890,744279
8.01703,713699
8.02515,721421
8.03328,714916
8.04140,693279
8.04952,684781
8.05765,680013
8.06577,668809
8.07390,655419
8.08202,644380
8.09013,654002
8.09827,645044
8.10638,639501
8.11450,623535
8.12263,622406
8.13075,641160
8.13888,698160
8.14700,1072432
8.15512,2496375
8.16325,6240055
8.17137,1.322633E+07
8.17950,2.198309E+07
8.18762,3.046771E+07
8.19573,3.730354E+07
8.20387,4.415194E+07
8.21198,5.274425E+07
8.22012,6.129937E+07
8.22823,6.564619E+07
8.23635,6.068466E+07
8.24448,4.430439E+07
8.25260,2.299372E+07
8.26072,1.067882E+07
8.26885,6339957
8.27697,4719971
8.28510,3848718
8.29322,2992457
8.30133,2397812
8.30947,2040071
8.31758,1835613
8.32572,1900505
8.33383,2211394
8.34195,2622971
8.35008,3024819
8.35820,3257536
8.36632,3145499
8.37445,2982051
8.38257,2795016
8.39070,2639316
8.39882,2449564
8.40693,2358549
8.41507,2211236
8.42318,2206814
8.43132,2169718
8.43943,2070842
8.44755,1999130
8.45568,1878931
8.46380,1755536
8.47193,1643832
8.48005,1593614
8.48817,1535645
8.49630,1508221
8.50442,1442861
8.51253,1393734
8.52067,1335646
8.52878,1385605
8.53692,1550425
8.54503,1916195
8.55315,2332446
8.56128,2440944
8.56940,2177542
8.57753,1747895
8.58565,1394059
8.59377,1175164
8.60190,1056741
8.61002,1037742
8.61815,971364
8.62627,963271
8.63438,971283
8.64252,1085382
8.65063,1533231
8.65875,2618869
8.66688,4322671
8.67500,6105997
8.68313,6729229
8.69125,5771102
8.69937,4047602
8.70750,2562482
8.71562,1682084
8.72375,1289545
8.73187,1098390
8.73998,1018673
8.74812,932867
8.75623,875942
8.76435,844546
8.77248,840602
8.78060,923158
8.78873,974448
8.79685,1034710
8.80497,1009477
8.81310,919646
8.82122,869656
8.82935,800785
8.83747,776685
8.84558,753699
8.85372,744592
8.86183,733757
8.86997,745546
8.87808,764494
8.88620,846296
8.89433,972073
8.90245,1271806
8.91057,1664896
8.91870,1956531
8.92682,1809149
8.93495,1373997
8.94307,951872
8.95118,734872
8.95932,657977
8.96743,624621
8.97557,597705
8.98368,572639
8.99180,576569
8.99993,571086
9.00805,590949
9.01618,684204
9.02430,854627
9.03242,1107827
9.04055,1299727
9.04867,1283471
9.05678,1104722
9.06492,900420
9.07303,759962
9.08117,723022
9.08928,866417
9.09740,1181959
9.10553,1641720
9.11365,2004171
9.12178,1977261
9.12990,1623870
9.13802,1157574
9.14615,848691
9.15427,663019
9.16240,583399
9.17052,541780
9.17863,501107
9.18677,500171
9.19488,570640
9.20300,801650
9.21113,1365366
9.21925,2254430
9.22738,3089837
9.23550,3421494
9.24362,3014823
9.25175,2147073
9.25987,1376218
9.26800,883975
9.27612,669413
9.28423,597283
9.29237,564234
9.30048,723588
9.30860,1350205
9.31673,3152657
9.32485,7098667
9.33298,1.275288E+07
9.34110,1.718016E+07
9.34922,1.798081E+07
9.35735,1.441021E+07
9.36547,9180635
9.37360,5169727
9.38172,3043232
9.38983,2135902
9.39797,1769624
9.40608,1727849
9.41422,1824197
9.42233,1932257
9.43045,1881815
9.43858,1862573
9.44670,1782585
9.45482,1671406
9.46295,1612593
9.47107,1585340
9.47920,1518664
9.48732,1454621
9.49543,1367500
9.50357,1321134
9.51168,1278854
9.51982,1328435
9.52793,1387426
9.53605,1513439
9.54418,1602570
9.55230,1601278
9.56043,1461443
9.56855,1320267
9.57667,1142637
9.58480,999044
9.59292,949030
9.60103,931228
9.60917,1028356
9.61728,1216742
9.62542,1505797
9.63353,1632964
9.64165,1623795
9.64978,1366345
9.65790,1101570
9.66603,915341
9.67415,837074
9.68227,844958
9.69040,1038947
9.69852,1710694
9.70663,3052455
9.71477,5080328
9.72288,6931740
9.73102,7628868
9.73913,6660273
9.74725,4760690
9.75538,2963882
9.76350,1821577
9.77163,1377341
9.77975,1179745
9.78787,1107941
9.79600,1068434
9.80412,981926
9.81225,1002653
9.82037,974436
9.82848,951201
9.83662,912909
9.84473,871993
9.85285,828229
9.86098,816350
9.86910,822614
9.87723,834009
9.88535,880265
9.89347,908658
9.90160,850152
9.90972,757673
9.91785,702877
9.92597,653367
9.93408,624750
9.94222,612932
9.95033,602743
9.95847,586328
9.96658,582225
9.97470,578860
9.98283,633233
9.99095,871030
9.99907,1677154
10.00720,3565711
10.01532,6500190
10.02345,9508105
10.03157,1.025066E+07
10.03968,8774755
10.04782,5808408
10.05593,3315857
10.06407,1865110
10.07218,1329085
10.08030,1236122
10.08843,1399264
10.09655,1844391
10.10468,2456922
10.11280,3225683
10.12092,4054574
10.12905,4774535
10.13717,5327378
10.14528,5703482
10.15342,5486955
10.16153,4807569
10.16967,3608993
10.17778,2496560
10.18590,1795047
10.19403,1347702
10.20215,1168978
10.21028,1124007
10.21840,1121563
10.22652,1181713
10.23465,1283388
10.24277,1379921
10.25088,1448485
10.25902,1486231
10.26713,1434750
10.27527,1309580
10.28338,1167605
10.29150,1057220
10.29963,999659
10.30775,958891
10.31588,951173
10.32400,912620
10.33212,868468
10.34025,821524
10.34837,783945
10.35650,740764
10.36462,720874
10.37273,706611
10.38087,673380
10.38898,665367
10.39710,676587
10.40523,630980
10.41335,654189
10.42148,654671
10.42960,633680
10.43772,588178
10.44585,535545
10.45397,495589
10.46210,474108
10.47022,462692
10.47833,440500
10.48647,435845
10.49458,407712
10.50272,395090
10.51083,395963
10.51895,382113
10.52708,373250
10.53520,377313
10.54332,359779
10.55145,356145
10.55957,352158
10.56770,351683
10.57582,361158
10.58393,359100
10.59207,345110
10.60018,339691
10.60832,343896
10.61643,331484
10.62455,323587
10.63268,327664
10.64080,317206
10.64893,363654
10.65705,572857
10.66517,1265888
10.67330,2925974
10.68142,5363335
10.68953,7706672
10.69767,8797671
10.70578,8915430
10.71392,1.012143E+07
10.72203,1.38025E+07
10.73015,1.76864E+07
10.73828,1.809757E+07
10.74640,1.349338E+07
10.75453,7306163
10.76265,3182975
10.77077,1414221
10.77890,858225
10.78702,669610
10.79513,593838
10.80327,536121
10.81138,521213
10.81952,492694
10.82763,481886
10.83575,470212
10.84388,453024
10.85200,497899
10.86013,500181
10.86825,510776
10.87637,510488
10.88450,482221
10.89262,431311
10.90075,380091
10.90887,373752
10.91698,387063
10.92512,419904
10.93323,458355
10.94135,472374
10.94948,486574
10.95760,517501
10.96573,566408
10.97385,621771
10.98197,582676
10.99010,480550
10.99822,367417
11.00635,283556
11.01447,244910
11.02258,225713
11.03072,231964
11.03883,222521
11.04697,222695
11.05508,212932
11.06320,209859
11.07133,202028
11.07945,185956
11.08757,192298
11.09570,177019
11.10382,168953
11.11195,176561
11.12007,196343
11.12818,212597
11.13632,212799
11.14443,216945
11.15257,230209
11.16068,268512
11.16880,389723
11.17693,562414
11.18505,767778
11.19317,828381
11.20130,736659
11.20942,524789
11.21755,360956
11.22567,270258
11.23378,228110
11.24192,203304
11.25003,193551
11.25817,180328
11.26628,180465
11.27440,179548
11.28253,207153
11.29065,269213
11.29878,420646
11.30690,629833
11.31502,815708
11.32315,919978
11.33127,833122
11.33938,657439
11.34752,473046
11.35563,332088
11.36377,306680
11.37188,383325
11.38000,596883
11.38813,928491
11.39625,1494827
11.40438,2597174
11.41250,5263744
11.42062,1.146025E+07
11.42875,2.250703E+07
11.43687,3.814133E+07
11.44500,5.44434E+07
11.45312,6.755235E+07
11.46123,7.354247E+07
11.46937,6.901635E+07
11.47748,5.157606E+07
11.48560,2.913887E+07
11.49373,1.496462E+07
11.50185,1.090848E+07
11.50998,1.163949E+07
11.51810,1.503484E+07
11.52622,2.149178E+07
11.53435,3.013755E+07
11.54247,3.640658E+07
11.55060,3.576489E+07
11.55872,2.780809E+07
11.56683,1.756644E+07
11.57497,1.078673E+07
11.58308,8150132
11.59120,7157200
11.59933,6742177
11.60745,6324041
11.61558,5851903
11.62370,5495735
11.63182,5138085
11.63995,4877383
11.64807,4621690
11.65620,4471471
11.66432,4233427
11.67243,4087353
11.68057,3962158
11.68868,3790644
11.69682,3676222
11.70493,3555796
11.71305,3481423
11.72118,3341975
11.72930,3254045
11.73742,3172244
11.74555,3070158
11.75367,3033480
11.76180,2913740
11.76992,2819908
11.77803,2774754
11.78617,2699440
11.79428,2668949
11.80242,2631206
11.81053,2611584
11.81865,2628844
11.82678,2738990
11.83490,2867458
11.84303,3008494
11.85115,2929317
11.85927,2740125
11.86740,2511680
11.87552,2370704
11.88363,2282655
11.89177,2263793
11.89988,2298474
11.90802,2341226
11.91613,2388577
11.92425,2363190
11.93238,2276761
11.94050,2192902
11.94863,2098341
11.95675,2082045
11.96487,2005940
11.97300,1938286
11.98112,1866558
11.98925,1866132
11.99737,1857888
12.00548,1878276
12.01362,1861369
12.02173,1907607
12.02985,1940547
12.03798,1968469
12.04610,1950549
12.05423,1914753
12.06235,2059916
12.07047,2663142
12.07860,3937618
12.08672,5768503
12.09485,7242414
12.10297,7501091
12.11108,6468815
12.11922,4833595
12.12733,3603003
12.13545,3094649
12.14358,2986176
12.15170,2976182
12.15983,2917051
12.16795,2756546
12.17607,2495342
12.18420,2179901
12.19232,1992260
12.20045,1901874
12.20857,1902856
12.21668,1902988
12.22482,1839930
12.23293,1739197
12.24107,1609253
12.24918,1465684
12.25730,1404886
12.26543,1355513
12.27355,1287863
12.28167,1224456
12.28980,1167861
12.29792,1095365
12.30605,1080948
12.31417,1064283
12.32228,1050395
12.33042,1030667
12.33853,1028089
12.34667,1024692
12.35478,1063878
12.36290,1067721
12.37103,1053251
12.37915,1022218
12.38728,977585
12.39540,1023698
12.40352,1177775
12.41165,1604149
12.41977,2370353
12.42788,3225551
12.43602,3789649
12.44413,3741774
12.45227,3113900
12.46038,2265960
12.46850,1633879
12.47663,1309216
12.48475,1163976
12.49288,1107556
12.50100,1058190
12.50912,1017797
12.51725,968224
12.52537,920371
12.53348,913276
12.54162,859804
12.54973,843647
12.55787,817497
12.56598,800813
12.57410,782344
12.58223,774291
12.59035,764858
12.59848,817232
12.60660,1040535
12.61472,1727338
12.62285,3180885
12.63097,5559788
12.63910,8151466
12.64722,9570020
12.65533,8985382
12.66347,6816723
12.67158,4537937
12.67970,3008924
12.68783,2284198
12.69595,2054925
12.70408,1884256
12.71220,1715786
12.72032,1631967
12.72845,1558763
12.73657,1465796
12.74470,1402129
12.75282,1340961
12.76093,1298562
12.76907,1279402
12.77718,1379429
12.78532,1675395
12.79343,2268410
12.80155,3102375
12.80968,3916544
12.81780,4285206
12.82592,3908267
12.83405,3013671
12.84217,2149597
12.85030,1561979
12.85842,1303186
12.86653,1300415
12.87467,1392295
12.88278,1517203
12.89092,1615304
12.89903,1640054
12.90715,1489737
12.91528,1287060
12.92340,1062902
12.93152,933965
12.93965,856171
12.94777,810751
12.95590,758145
12.96402,755380
12.97213,862426
12.98027,1234551
12.98838,2132902
12.99652,3400424
13.00463,4570577
13.01275,4847791
13.02088,4042488
13.02900,2710222
13.03713,1674720
13.04525,1069796
13.05337,830066
13.06150,695942
13.06962,650905
13.07773,618220
13.08587,599123
13.09398,602064
13.10212,571486
13.11023,572019
13.11835,556848
13.12648,566201
13.13460,577726
13.14273,599212
13.15085,615753
13.15897,681172
13.16710,802463
13.17522,950822
13.18335,1115897
13.19147,1130031
13.19958,996159
13.20772,807344
13.21583,635241
13.22395,512951
13.23208,422974
13.24020,387952
13.24833,349193
13.25645,314815
13.26457,315685
13.27270,297290
13.28082,304293
13.28895,274367
13.29707,251593
13.30518,235591
13.31332,251939
13.32143,277529
13.32957,366642
13.33768,565464
13.34580,836760
13.35393,1098648
13.36205,1290098
13.37017,1334798
13.37830,1232655
13.38642,1077622
13.39455,866097
13.40267,682491
13.41078,499869
13.41892,414546
13.42703,362913
13.43517,312406
13.44328,289397
13.45140,279822
13.45953,245430
13.46765,230568
13.47577,221417
13.48390,221456
13.49202,211982
13.50015,205151
13.50827,217550
13.51638,225404
13.52452,248706
13.53263,314886
13.54077,383356
13.54888,488535
13.55700,561224
13.56513,586190
13.57325,547562
13.58138,444433
13.58950,341566
13.59762,273740
13.60575,235114
13.61387,217201
13.62198,203813
13.63012,197820
13.63823,208066
13.64637,218068
13.65448,215158
13.66260,229360
13.67073,210149
13.67885,192932
13.68698,189330
13.69510,190276
13.70322,172015
13.71135,167887
13.71947,158950
13.72760,170305
13.73572,183694
13.74383,211538
13.75197,242244
13.76008,265774
13.76820,257765
13.77633,229959
13.78445,198979
13.79258,174977
13.80070,147160
13.80882,140536
13.81695,136814
13.82507,138837
13.83320,133822
13.84132,133556
13.84943,131415
13.85757,126999
13.86568,125623
13.87380,114473
13.88193,100030
13.89005,98710
13.89818,95230
13.90630,94897
13.91442,85427
13.92255,92057
13.93067,94559
13.93880,98485
13.94692,94656
13.95503,93255
13.96317,91462
13.97128,97308
13.97942,113312
13.98753,155220
13.99565,265285
14.00378,479556
14.01190,843894
14.02002,1338214
14.02815,1804017
14.03627,2049391
14.04440,1860755
14.05252,1446563
14.06063,984782
14.06877,619975
14.07688,442351
14.08502,370136
14.09313,395438
14.10125,442897
14.10938,490780
14.11750,500785
14.12563,437309
14.13375,350809
14.14187,265433
14.15000,214274
14.15812,192861
14.16623,172669
14.17437,163164
14.18248,185256
14.19062,237952
14.19873,303720
14.20685,408095
14.21498,506039
14.22310,533502
14.23123,537017
14.23935,541797
14.24747,536891
14.25560,468691
14.26372,372455
14.27183,293397
14.27997,213613
14.28808,185716
14.29622,173598
14.30433,157020
14.31245,146979
14.32058,142691
14.32870,147957
14.33683,140894
14.34495,136564
14.35307,127984
14.36120,125424
14.36932,112999
14.37745,112352
14.38557,110332
14.39368,113378
14.40182,115327
14.40993,120144
14.41805,122827
14.42618,131420
14.43430,133945
14.44243,144010
14.45055,146310
14.45867,143211
14.46680,146720
14.47492,163459
14.48305,186881
14.49117,214952
14.49928,215503
14.50742,202111
14.51553,186601
14.52367,172302
14.53178,184119
14.53990,252729
14.54803,407439
14.55615,653658
14.56427,895697
14.57240,1033274
14.58052,950463
14.58865,745620
14.59677,547392
14.60488,354630
14.61302,273229
14.62113,213142
14.62927,184907
14.63738,168959
14.64550,151900
14.65363,153508
14.66175,166461
14.66988,158583
14.67800,145114
14.68612,138309
14.69425,122021
14.70237,115456
14.71048,103052
14.71862,106797
14.72673,102556
14.73487,110619
14.74298,117222
14.75110,138291
14.75923,140053
14.76735,145149
14.77548,153059
14.78360,167498
14.79172,184269
14.79985,195533
14.80797,199283
14.81608,191433
14.82422,175893
14.83233,149535
14.84047,143567
14.84858,136953
14.85670,125116
14.86483,118388
14.87295,107607
14.88108,121513
14.88920,167024
14.89732,367959
14.90545,859543
14.91357,1887538
14.92170,3404413
14.92982,4899462
14.93793,5767786
14.94607,5344850
14.95418,3976397
14.96230,2557835
14.97043,1484675
14.97855,999636
14.98668,719187
14.99480,573212
15.00292,516369
15.01105,488261
15.01917,459372
15.02730,437068
15.03542,397881
15.04353,346655
15.05167,316542
15.05978,292356
15.06792,273787
15.07603,263891
15.08415,245018
15.09228,233395
15.10040,224182
15.10852,217277
15.11665,234863
15.12477,216359
15.13290,224701
15.14102,221119
15.14913,228183
15.15727,242572
15.16538,278625
15.17352,338818
15.18163,397566
15.18975,429563
15.19788,448718
15.20600,382009
15.21412,331242
15.22225,282327
15.23037,275153
15.23850,368246
15.24662,644104
15.25473,1231052
15.26287,2072083
15.27098,2664751
15.27912,2739014
15.28723,2277022
15.29535,1559568
15.30348,967186
15.31160,637474
15.31973,456454
15.32785,379380
15.33597,332461
15.34410,302845
15.35222,306934
15.36033,312215
15.36847,345268
15.37658,341578
15.38472,344256
15.39283,295961
15.40095,258615
15.40908,210167
15.41720,183081
15.42533,167541
15.43345,157100
15.44157,146003
15.44970,142019
15.45782,140947
15.46595,139268
15.47407,143486
15.48218,154613
15.49032,147338
15.49843,141242
15.50655,131100
15.51468,126715
15.52280,120883
15.53093,115130
15.53905,100508
15.54717,107360
15.55530,106492
15.56342,110428
15.57155,110263
15.57967,117548
15.58778,134485
15.59592,126352
15.60403,116098
15.61215,115600
15.62028,98457
15.62840,83274
15.63653,82961
15.64465,77144
15.65277,73938
15.66090,71757
15.66902,70930
15.67715,72069
15.68527,80212
15.69338,69067
15.70152,68821
15.70963,67894
15.71777,70434
15.72588,66921
15.73400,69804
15.74213,70734
15.75025,61610
15.75837,74093
15.76650,65880
15.77462,67824
15.78275,68226
15.79087,63438
15.79898,63466
15.80712,63423
15.81523,65260
15.82337,72071
15.83148,89810
15.83960,100923
15.84773,105546
15.85585,102180
15.86398,102186
15.87210,87779
15.88022,76507
15.88835,78641
15.89647,70547
15.90458,68921
15.91272,65609
15.92083,65028
15.92897,65134
15.93708,62586
15.94520,58751
15.95333,59285
15.96145,61882
15.96958,62524
15.97770,59366
15.98582,63650
15.99395,70130
16.00207,70232
16.01020,70839
16.01832,75696
16.02643,88363
16.03457,95145
16.04268,110691
16.05080,115110
16.05893,106895
16.06705,109129
16.07518,95305
16.08330,91655
16.09142,89353
16.09955,84248
16.10767,77255
16.11580,66582
16.12392,55367
16.13203,58208
16.14017,55786
16.14828,68765
16.15640,62765
16.16453,68562
16.17265,71196
16.18078,70041
16.18890,66967
16.19702,79828
16.20515,130856
16.21327,247673
16.22140,484459
16.22952,812615
16.23763,1085743
16.24577,1188650
16.25388,1011390
16.26202,794386
16.27013,566574
16.27825,417157
16.28638,302656
16.29450,247535
16.30262,230107
16.31075,230363
16.31887,232174
16.32700,241473
16.33512,257633
16.34323,250407
16.35137,249435
16.35948,252394
16.36762,239175
16.37573,235547
16.38385,239723
16.39198,221381
16.40010,187912
16.40823,166708
16.41635,146072
16.42447,128692
16.43260,137483
16.44072,131910
16.44883,126110
16.45697,126332
16.46508,122918
16.47322,103590
16.48133,98879
16.48945,95104
16.49758,88522
16.50570,85706
16.51383,84768
16.52195,87039
16.53007,80553
16.53820,79213
16.54632,78242
16.55443,81433
16.56257,86564
16.57068,89517
16.57882,88414
16.58693,98641
16.59505,112171
16.60318,119475
16.61130,117292
16.61943,108243
16.62755,98698
16.63567,87739
16.64380,89064
16.65192,85782
16.66005,80331
16.66817,91527
16.67628,91042
16.68442,102533
16.69253,122878
16.70065,139028
16.70878,160704
16.71690,177479
16.72503,172171
16.73315,158104
16.74127,137352
16.74940,127454
16.75752,101560
16.76565,99893
16.77377,92481
16.78188,95266
16.79002,95463
16.79813,103536
16.80627,110313
16.81438,108000
16.82250,110389
16.83063,102269
16.83875,106503
16.84687,97347
16.85500,92408
16.86312,96886
16.87125,87679
16.87937,84814
16.88748,81755
16.89562,74081
16.90373,80417
16.91187,102686
16.91998,122348
16.92810,152241
16.93623,174288
16.94435,155122
16.95247,120236
16.96060,107637
16.96872,94597
16.97685,86970
16.98497,83556
16.99308,79345
17.00122,70804
17.00933,68728
17.01747,65833
17.02558,63940
17.03370,62472
17.04183,62369
17.04995,62840
17.05808,69516
17.06620,66045
17.07432,66038
17.08245,77428
17.09057,84466
17.09868,91741
17.10682,97477
17.11493,101335
17.12307,97107
17.13118,93354
17.13930,87927
17.14743,90237
17.15555,111884
17.16368,139158
17.17180,171781
17.17992,206016
17.18805,208510
17.19617,208464
17.20430,186914
17.21242,163269
17.22053,136730
17.22867,123659
17.23678,114992
17.24490,99511
17.25303,90714
17.26115,92408
17.26928,84766
17.27740,78374
17.28552,82731
17.29365,71396
17.30177,73352
17.30990,76336
17.31802,66618
17.32613,73104
17.33427,73366
17.34238,73862
17.35052,84380
17.35863,75506
17.36675,79232
17.37488,85273
17.38300,75079
17.39112,71437
17.39925,68822
17.40737,64668
17.41550,63536
17.42362,58354
17.43173,57027
17.43987,53246
17.44798,52456
17.45612,51757
17.46423,49530
17.47235,42770
17.48048,49514
17.48860,61195
17.49672,60231
17.50485,67759
17.51297,91619
17.52110,118453
17.52922,155018
17.53733,204425
17.54547,224622
17.55358,225914
17.56172,199823
17.56983,160266
17.57795,126465
17.58608,106505
17.59420,94238
17.60233,76290
17.61045,82194
17.61857,74359
17.62670,67906
17.63482,69955
17.64293,75069
17.65107,78873
17.65918,85266
17.66732,91264
17.67543,100790
17.68355,117101
17.69168,109862
17.69980,106950
17.70793,102387
17.71605,97718
17.72417,94332
17.73230,85171
17.74042,99541
17.74855,146341
17.75667,228507
17.76478,371544
17.77292,512907
17.78103,582300
17.78915,580076
17.79728,497037
17.80540,419247
17.81353,309883
17.82165,257384
17.82977,211636
17.83790,166454
17.84602,138223
17.85415,144273
17.86227,124905
17.87038,115461
17.87852,111002
17.88663,105838
17.89475,98000
17.90288,100465
17.91100,91766
17.91913,88760
17.92725,84207
17.93537,89012
17.94350,83661
17.95162,86930
17.95975,82600
17.96787,79324
17.97598,69181
17.98412,70710
17.99223,65406
18.00037,69356
18.00848,64094
18.01660,68402
18.02473,57039
18.03285,55683
18.04097,57214
18.04910,61962
18.05722,81175
18.06535,96769
18.07347,129516
18.08158,183026
18.08972,267368
18.09783,358675
18.10597,421095
18.11408,422558
18.12220,362456
18.13033,275404
18.13845,207091
18.14658,141507
18.15470,124287
18.16282,102836
18.17095,97577
18.17907,92245
18.18718,87572
18.19532,79336
18.20343,83127
18.21157,76064
18.21968,76958
18.22780,73057
18.23593,69230
18.24405,69811
18.25218,71326
18.26030,70130
18.26842,70455
18.27655,77272
18.28467,73218
18.29278,76398
18.30092,89990
18.30903,84169
18.31717,4558964
18.32528,4864133
18.33340,4731793
18.34153,4499668
18.34965,4244991
18.35778,3966159
18.36590,3799490
18.37402,3521923
18.38215,3351872
18.39027,3150310
18.39840,2972869
18.40652,2818649
18.41463,2665931
18.42277,2512943
18.43088,2409401
18.43900,2247195
18.44713,2120820
18.45525,2035755
18.46338,1942927
18.47150,1836941
18.47962,1738938
18.48775,1671297
18.49587,1617641
18.50400,1600556
18.51212,1582319
18.52023,1575669
18.52837,1561142
18.53648,1531050
18.54462,1447330
18.55273,1358105
18.56085,1224038
18.56898,1155388
18.57710,1097313
18.58522,1011045
18.59335,975106
18.60147,915027
18.60960,880998
18.61772,833582
18.62583,802851
18.63397,760112
18.64208,724406
18.65022,694607
18.65833,667923
18.66645,643375
18.67458,612657
18.68270,602125
18.69083,582888
18.69895,560837
18.70707,547748
18.71520,527866
18.72332,497464
18.73143,478046
18.73957,456267
18.74768,444017
18.75582,426924
18.76393,394371
18.77205,382043
18.78018,377683
18.78830,369919
18.79643,345800
18.80455,337734
18.81267,335621
18.82080,331701
18.82892,342061
18.83703,344768
18.84517,336235
18.85328,332278
18.86142,322229
18.86953,311680
18.87765,291952
18.88578,276321
18.89390,258324
18.90203,240239
18.91015,228710
18.91827,227596
18.92640,218854
18.93452,232375
18.94265,244228
18.95077,260661
18.95888,269824
18.96702,276363
18.97513,256300
18.98325,237702
18.99138,230934
18.99950,226984
19.00763,250304
19.01575,308139
19.02387,384485
19.03200,490580
19.04012,563789
19.04825,555303
19.05637,523209
19.06448,435341
19.07262,343236
19.08073,269852
19.08887,238152
19.09698,207833
19.10510,194415
19.11323,175899
19.12135,170331
19.12947,160011
19.13760,162707
19.14572,155426
19.15385,163647
19.16197,159865
19.17008,159400
19.17822,166802
19.18633,166784
19.19447,184717
19.20258,215332
19.21070,248751
19.21883,264452
19.22695,251845
19.23507,222405
19.24320,181282
19.25132,160847
19.25945,150389
19.26757,130879
19.27568,119887
19.28382,125618
19.29193,111694
19.30007,108872
19.30818,113115
19.31630,101302
19.32443,104284
19.33255,97218
19.34068,98378
19.34880,105844
19.35692,107542
19.36505,115143
19.37317,121329
19.38128,125471
19.38942,114309
19.39753,111505
19.40567,109713
19.41378,98245
19.42190,110872
19.43003,105988
19.43815,112086
19.44628,115068
19.45440,98320
19.46252,95323
19.47065,91441
19.47877,83246
19.48690,78806
19.49502,85985
19.50313,78418
19.51127,77178
19.51938,83363
19.52750,87490
19.53563,95920
19.54375,130485
19.55188,144326
19.56000,152928
19.56812,163667
19.57625,151664
19.58437,154095
19.59250,146301
19.60062,127806
19.60873,123219
19.61687,109219
19.62498,101707
19.63312,100777
19.64123,95808
19.64935,99781
19.65748,89989
19.66560,85681
19.67372,86583
19.68185,79425
19.68997,86399
19.69810,80818
19.70622,93950
19.71433,86154
19.72247,90610
19.73058,92400
19.73872,89716
19.74683,96396
19.75495,79870
19.76308,81703
19.77120,80523
19.77932,89584
19.78745,97081
19.79557,122825
19.80370,144483
19.81182,160555
19.81993,162459
19.82807,147039
19.83618,119494
19.84432,106960
19.85243,89825
19.86055,81022
19.86868,83904
19.87680,69289
19.88493,67320
19.89305,69368
19.90117,71457
19.90930,71576
19.91742,71201
19.92553,71367
19.93367,64287
19.94178,68071
19.94992,71318
19.95803,72284
19.96615,83289
19.97428,91447
19.98240,105210
19.99053,103844
19.99865,96734
20.00677,100643
20.01490,97556
20.02302,115548
20.03115,146208
20.03927,218280
20.04738,297986
20.05552,378540
20.06363,404451
20.07175,385053
20.07988,313623
20.08800,263300
20.09613,203888
20.10425,173900
20.11237,133484
20.12050,116189
20.12862,110182
20.13675,98967
20.14487,92025
20.15298,84712
20.16112,81575
20.16923,91643
20.17737,86844
20.18548,83654
20.19360,89472
20.20173,86566
20.20985,87913
20.21797,86004
20.22610,79780
20.23422,73504
20.24235,73254
20.25047,73833
20.25858,69817
20.26672,64756
20.27483,78189
20.28297,70180
20.29108,68972
20.29920,69275
20.30733,65035
20.31545,67088
20.32357,74355
20.33170,85746
20.33982,121208
20.34795,192098
20.35607,328811
20.36418,454208
20.37232,566685
20.38043,611749
20.38857,573479
20.39668,487106
20.40480,364547
20.41293,305420
20.42105,248536
20.42918,209487
20.43730,192743
20.44542,182727
20.45355,174501
20.46167,159711
20.46978,157163
20.47792,154207
20.48603,137083
20.49417,130937
20.50228,122756
20.51040,109369
20.51853,110652
20.52665,98193
20.53478,87809
20.54290,78918
20.55102,77171
20.55915,75642
20.56727,73995
20.57540,79466
20.58352,84302
20.59163,101882
20.59977,137214
20.60788,179643
20.61600,245802
20.62413,267612
20.63225,293128
20.64038,269526
20.64850,219840
20.65662,178291
20.66475,147934
20.67287,124999
20.68100,116160
20.68912,99534
20.69723,94085
20.70537,89850
20.71348,84312
20.72160,87239
20.72973,73110
20.73785,72736
20.74598,69941
20.75410,70726
20.76222,77464
20.77035,86724
20.77847,99811
20.78660,110288
20.79472,121093
20.80283,110125
20.81097,104010
20.81908,98071
20.82722,89255
20.83533,83754
20.84345,79713
20.85158,78302
20.85970,74350
20.86782,74736
20.87595,73225
20.88407,71468
20.89220,70454
20.90032,69672
20.90843,75832
20.91657,70595
20.92468,69979
20.93282,74066
20.94093,67589
20.94905,66160
20.95718,59764
20.96530,56464
20.97343,61655
20.98155,61275
20.98967,60841
20.99780,66049
21.00592,64743
21.01403,69394
21.02217,87538
21.03028,129374
21.03842,171049
21.04653,204375
21.05465,207892
21.06278,183541
21.07090,148800
21.07903,113925
21.08715,93025
21.09527,93402
21.10340,81703
21.11152,80759
21.11963,74611
21.12777,72086
21.13588,72891
21.14402,73347
21.15213,72137
21.16025,73411
21.16838,75624
21.17650,70825
21.18463,64639
21.19275,67123
21.20087,71216
21.20900,67520
21.21712,71922
21.22525,82491
21.23337,113940
21.24148,199904
21.24962,334647
21.25773,536317
21.26585,712182
21.27398,775006
21.28210,661581
21.29023,468906
21.29835,303371
21.30647,199649
21.31460,137156
21.32272,112013
21.33085,107956
21.33897,96469
21.34708,89816
21.35522,96989
21.36333,94146
21.37147,91565
21.37958,97642
21.38770,93761
21.39583,103271
21.40395,98565
21.41207,103984
21.42020,103205
21.42832,107627
21.43645,99990
21.44457,100522
21.45268,87441
21.46082,88488
21.46893,84059
21.47707,87248
21.48518,80920
21.49330,80703
21.50143,87196
21.50955,79827
21.51768,79575
21.52580,80137
21.53392,84720
21.54205,78288
21.55017,71612
21.55828,72872
21.56642,73100
21.57453,71376
21.58267,72183
21.59078,77578
21.59890,95878
21.60703,128477
21.61515,166874
21.62328,209497
21.63140,220396
21.63952,211787
21.64765,175635
21.65577,153819
21.66388,112771
21.67202,100703
21.68013,99239
21.68827,87401
21.69638,94361
21.70450,93855
21.71263,93081
21.72075,89044
21.72888,81257
21.73700,80682
21.74512,68502
21.75325,66827
21.76137,70877
21.76950,74836
21.77762,72728
21.78573,76599
21.79387,82706
21.80198,73364
21.81010,73615
21.81823,75641
21.82635,65840
21.83448,66431
21.84260,65869
21.85072,65956
21.85885,60610
21.86697,74150
21.87510,61552
21.88322,69781
21.89133,57440
21.89947,61777
21.90758,59705
21.91572,69223
21.92383,60035
21.93195,69226
21.94008,92285
21.94820,101228
21.95632,107672
21.96445,109908
21.97257,110949
21.98070,98974
21.98882,86740
21.99693,81074
22.00507,77138
22.01318,66186
22.02132,66486
22.02943,63593
22.03755,61765
22.04568,63932
22.05380,67116
22.06192,67547
22.07005,77405
22.07817,81717
22.08630,89479
22.09442,88166
22.10253,86724
22.11067,84532
22.11878,88300
22.12692,113681
22.13503,144977
22.14315,199310
22.15128,247813
22.15940,253279
22.16753,239387
22.17565,196333
22.18377,160983
22.19190,132911
22.20002,114919
22.20813,106711
22.21627,147212
22.22438,200964
22.23252,223421
22.24063,235297
22.24875,243410
22.25688,232404
22.26500,234794
22.27313,219434
22.28125,208883
22.28937,199320
22.29750,187385
22.30562,188435
22.31375,168879
22.32187,163359
22.32998,144876
22.33812,134379
22.34623,130824
22.35435,120571
22.36248,127984
22.37060,123212
22.37873,114010
22.38685,114778
22.39497,101709
22.40310,97925
22.41122,98596
22.41935,96178
22.42747,99759
22.43558,88875
22.44372,89020
22.45183,86773
22.45995,88156
22.46808,83782
22.47620,84071
22.48433,80347
22.49245,75662
22.50057,75842
22.50870,87510
22.51682,75813
22.52495,87343
22.53307,93107
22.54118,132534
22.54932,252995
22.55743,501988
22.56557,965295
22.57368,1589252
22.58180,2148121
22.58993,2298790
22.59805,2028269
22.60617,1501711
22.61430,969019
22.62242,589241
22.63055,365935
22.63867,257561
22.64678,206548
22.65492,183039
22.66303,163766
22.67117,145315
22.67928,133941
22.68740,123384
22.69553,120814
22.70365,114531
22.71178,107523
22.71990,113912
22.72802,97785
22.73615,103163
22.74427,90266
22.75238,102675
22.76052,90885
22.76863,91403
22.77677,82539
22.78488,87710
22.79300,81276
22.80113,86626
22.80925,79842
22.81738,80086
22.82550,78160
22.83362,80812
22.84175,76077
22.84987,80455
22.85800,68021
22.86612,74041
22.87423,71877
22.88237,74008
22.89048,70054
22.89860,63760
22.90673,61208
22.91485,61538
22.92298,62566
22.93110,67354
22.93922,65738
22.94735,71452
22.95547,67598
22.96360,66197
22.97172,68463
22.97983,63696
22.98797,64429
22.99608,68716
23.00420,65928
23.01233,61839
23.02045,58609
23.02858,61010
23.03670,57410
23.04482,60086
23.05295,60918
23.06107,56201
23.06920,55736
23.07732,56866
23.08543,62906
23.09357,57259
23.10168,59828
23.10982,67760
23.11793,63689
23.12605,61583
23.13418,64868
23.14230,64924
23.15042,64264
23.15855,60780
23.16667,67095
23.17480,76392
23.18292,78521
23.19103,81934
23.19917,81605
23.20728,80029
23.21542,77185
23.22353,75747
23.23165,75965
23.23978,71388
23.24790,61915
23.25603,68008
23.26415,60797
23.27227,65852
23.28040,55453
23.28852,57058
23.29663,66127
23.30477,54224
23.31288,69283
23.32102,68910
23.32913,86732
23.33725,100402
23.34538,140754
23.35350,189148
23.36163,252950
23.36975,336957
23.37787,371588
23.38600,382730
23.39412,338767
23.40223,289386
23.41037,224457
23.41848,193050
23.42662,168445
23.43473,159307
23.44285,149250
23.45098,146472
23.45910,158162
23.46723,151953
23.47535,152733
23.48347,136555
23.49160,128353
23.49972,112436
23.50785,103410
23.51597,95768
23.52408,89002
23.53222,95122
23.54033,83826
23.54845,82893
23.55658,91343
23.56470,115345
23.57283,155076
23.58095,242022
23.58907,327562
23.59720,405917
23.60532,447625
23.61345,426375
23.62157,361336
23.62968,297183
23.63782,241052
23.64593,198501
23.65407,164269
23.66218,132941
23.67030,105787
23.67843,91092
23.68655,82578
23.69467,70783
23.70280,62499
23.71092,63388
23.71905,62914
23.72717,59405
23.73528,57225
23.74342,56837
23.75153,57594
23.75967,59185
23.76778,57906
23.77590,59914
23.78403,57099
23.79215,63237
23.80027,57209
23.80840,53689
23.81652,49238
23.82465,60341
23.83277,59374
23.84088,57641
23.84902,61726
23.85713,52351
23.86527,56418
23.87338,54355
23.88150,62568
23.88963,57123
23.89775,60841
23.90588,63882
23.91400,63766
23.92212,70268
23.93025,73633
23.93837,84505
23.94648,77435
23.95462,77893
23.96273,159184
23.97087,259999
23.97898,320000
23.98710,354585
23.99523,367689
24.00335,370373
24.01148,375371
24.01960,379449
24.02772,364569
24.03585,362120
24.04397,337328
24.05210,330729
24.06022,327023
24.06833,298808
24.07647,280770
24.08458,267540
24.09270,245191
24.10083,244424
24.10895,234649
24.11708,218335
24.12520,227791
24.13332,246875
24.14145,282866
24.14957,326366
24.15770,380037
24.16582,456427
24.17393,481079
24.18207,490124
24.19018,437645
24.19832,348066
24.20643,287885
24.21455,234170
24.22268,205350
24.23080,249165
24.23892,411427
24.24705,891006
24.25517,1883141
24.26330,3327423
24.27142,4616151
24.27953,5168862
24.28767,4858357
24.29578,4010743
24.30392,3098879
24.31203,2328448
24.32015,1795488
24.32828,1391297
24.33640,1084653
24.34452,848211
24.35265,681149
24.36077,552517
24.36890,468675
24.37702,420243
24.38513,391936
24.39327,367507
24.40138,351214
24.40952,323695
24.41763,285606
24.42575,244513
24.43388,222966
24.44200,205864
24.45013,189711
24.45825,172096
24.46637,169308
24.47450,148985
24.48262,135963
24.49073,129220
24.49887,124813
24.50698,121451
24.51512,123791
24.52323,123188
24.53135,128026
24.53948,135528
24.54760,119267
24.55573,118392
24.56385,113333
24.57197,110878
24.58010,109186
24.58822,100582
24.59635,104415
24.60447,106408
24.61258,117041
24.62072,115493
24.62883,136550
24.63695,208062
24.64508,415894
24.65320,874998
24.66133,1730764
24.66945,2737141
24.67757,3636230
24.68570,4062796
24.69382,3894743
24.70195,3136816
24.71007,2140207
24.71818,1322835
24.72632,782602
24.73443,527479
24.74255,366102
24.75068,303686
24.75880,255064
24.76693,224142
24.77505,217858
24.78317,194605
24.79130,161775
24.79942,145947
24.80755,134556
24.81567,126044
24.82378,123390
24.83192,116168
24.84003,110095
24.84817,95021
24.85628,82997
24.86440,80694
24.87253,73116
24.88065,78660
24.88877,75408
24.89690,66362
24.90502,65636
24.91315,69608
24.92127,82515
24.92938,83679
24.93752,85536
24.94563,91934
24.95377,92575
24.96188,80950
24.97000,79914
24.97813,72377
24.98625,76374
24.99438,70577
25.00250,70281
25.01062,67707
25.01875,68008
25.02687,65564
25.03498,60775
25.04312,61573
25.05123,61111
25.05937,64436
25.06748,65529
25.07560,70580
25.08373,64422
25.09185,66367
25.09998,70480
25.10810,73186
25.11622,80036
25.12435,84738
25.13247,85642
25.14058,89589
25.14872,93587
25.15683,595788
25.16497,886046
25.17308,1064515
25.18120,1134984
25.18933,1121303
25.19745,1110389
25.20558,1066356
25.21370,1013830
25.22182,958845
25.22995,889396
25.23807,827905
25.24620,773769
25.25432,686255
25.26243,642106
25.27057,595239
25.27868,541001
25.28680,521315
25.29493,463240
25.30305,423286
25.31118,398214
25.31930,365727
25.32742,347050
25.33555,332465
25.34367,304376
25.35180,295695
25.35992,276758
25.36803,268423
25.37617,262852
25.38428,261490
25.39242,268953
25.40053,308345
25.40865,345208
25.41678,365358
25.42490,352604
25.43302,314908
25.44115,254598
25.44927,206350
25.45740,182951
25.46552,149461
25.47363,137492
25.48177,125314
25.48988,132339
25.49802,114126
25.50613,107133
25.51425,106672
25.52238,101475
25.53050,101662
25.53863,105554
25.54675,102730
25.55487,106609
25.56300,99761
25.57112,102983
25.57923,97716
25.58737,98136
25.59548,109703
25.60362,110986
25.61173,133058
25.61985,155823
25.62798,165651
25.63610,200683
25.64423,217792
25.65235,236890
25.66047,222634
25.66860,190478
25.67672,173610
25.68483,129186
25.69297,104822
25.70108,95071
25.70922,90031
25.71733,85932
25.72545,86106
25.73358,81136
25.74170,81439
25.74983,78883
25.75795,76277
25.76607,75633
25.77420,77108
25.78232,80585
25.79045,87963
25.79857,84297
25.80668,87522
25.81482,90060
25.82293,95025
25.83105,88712
25.83918,90537
25.84730,85565
25.85543,82291
25.86355,82747
25.87167,83553
25.87980,82985
25.88792,77554
25.89605,75300
25.90417,75718
25.91228,76946
25.92042,72653
25.92853,70631
25.93667,72917
25.94478,71658
25.95290,67446
25.96103,67530
25.96915,65737
25.97727,67759
25.98540,65237
25.99352,66315
26.00165,66182
26.00977,63234
26.01788,65028
26.02602,70580
26.03413,64699
26.04227,64064
26.05038,68625
26.05850,64181
26.06663,63835
26.07475,64094
26.08287,64835
26.09100,57208
26.09912,53887
26.10725,65522
26.11537,56373
26.12348,58596
26.13162,67070
26.13973,59986
26.14787,58873
26.15598,62251
26.16410,64264
26.17223,68594
26.18035,77862
26.18848,78966
26.19660,92330
26.20472,103575
26.21285,101365
26.22097,112427
26.22908,96320
26.23722,86610
26.24533,77009
26.25347,70628
26.26158,64288
26.26970,63286
26.27783,64725
26.28595,66179
26.29408,75350
26.30220,68510
26.31032,78607
26.31845,87398
26.32657,95864
26.33470,119642
26.34282,155725
26.35093,199657
26.35907,231222
26.36718,260678
26.37530,249246
26.38343,229557
26.39155,194093
26.39968,168110
26.40780,162821
26.41592,201185
26.42405,239754
26.43217,291367
26.44030,301881
26.44842,273500
26.45653,223106
26.46467,165126
26.47278,121024
26.48090,99126
26.48903,76263
26.49715,65220
26.50528,63590
26.51340,62087
26.52152,60126
26.52965,60636
26.53777,60528
26.54590,61677
26.55402,63944
26.56213,59576
26.57027,61488
26.57838,70162
26.58652,58649
26.59463,57374
26.60275,57103
26.61088,58671
26.61900,57448
26.62712,55096
26.63525,60045
26.64337,74962
26.65150,71655
26.65962,87455
26.66773,93559
26.67587,85980
26.68398,90569
26.69212,90192
26.70023,86988
26.70835,85847
26.71648,79093
26.72460,79229
26.73273,60977
26.74085,74610
26.74897,65074
26.75710,62120
26.76522,60517
26.77333,58513
26.78147,56520
26.78958,56252
26.79772,56299
26.80583,54071
26.81395,57847
26.82208,56916
26.83020,56064
26.83833,62854
26.84645,58717
26.85457,54026
26.86270,63651
26.87082,63441
26.87895,59708
26.88707,56374
26.89518,52954
26.90332,58408
26.91143,54550
26.91955,57463
26.92768,55026
26.93580,52424
26.94393,53041
26.95205,51396
26.96017,54524
26.96830,58070
26.97642,57750
26.98455,64335
26.99267,61898
27.00078,69108
27.00892,64244
27.01703,66873
27.02515,62085
27.03328,60438
27.04140,62105
27.04953,65990
27.05765,56157
27.06577,56851
27.07390,57428
27.08202,54574
27.09015,68119
27.09827,60288
27.10638,55599
27.11452,55356
27.12263,59990
27.13077,61059
27.13888,62586
27.14700,57580
27.15513,56307
27.16325,60396
27.17137,58984
27.17950,61950
27.18762,61300
27.19575,70722
27.20387,64051
27.21198,73267
27.22012,74347
27.22823,81909
27.23637,83916
27.24448,84345
27.25260,81007
27.26073,78971
27.26885,74223
27.27698,68063
27.28510,65664
27.29322,70313
27.30135,62340
27.30947,65195
27.31758,63288
27.32572,61985
27.33383,67536
27.34197,63619
27.35008,57094
27.35820,66038
27.36633,55763
27.37445,59445
27.38258,57789
27.39070,59778
27.39882,64545
27.40695,78176
27.41507,106503
27.42318,184716
27.43132,321027
27.43943,514445
27.44757,787282
27.45568,1019162
27.46380,1157496
27.47193,1210837
27.48005,1150023
27.48818,987797
27.49630,836394
27.50442,696124
27.51255,560132
27.52067,444940
27.52880,354394
27.53692,299278
27.54503,252359
27.55317,219280
27.56128,173926
27.56940,163642
27.57753,147762
27.58565,134791
27.59378,116568
27.60190,122499
27.61002,104266
27.61815,96192
27.62627,92328
27.63440,90813
27.64252,99619
27.65063,111018
27.65877,158943
27.66688,240212
27.67502,323387
27.68313,404522
27.69125,447176
27.69938,417753
27.70750,363740
27.71562,269987
27.72375,208771
27.73187,165833
27.74000,127829
27.74812,109375
27.75623,108911
27.76437,89548
27.77248,85488
27.78062,81859
27.78873,78393
27.79685,76089
27.80498,82289
27.81310,68621
27.82122,70996
27.82935,73218
27.83747,70496
27.84560,75565
27.85372,68090
27.86183,75858
27.86997,67983
27.87808,63863
27.88622,66289
27.89433,71850
27.90245,65259
27.91058,62827
27.91870,59148
27.92683,68386
27.93495,62791
27.94307,71028
27.95120,63414
27.95932,57548
27.96743,59957
27.97557,71264
27.98368,68025
27.99182,64712
27.99993,66853
28.00805,67233
28.01618,73787
28.02430,72108
28.03243,66942
28.04055,56877
28.04867,58996
28.05680,58993
28.06492,62458
28.07305,53968
28.08117,56010
28.08928,58179
28.09742,62210
28.10553,65868
28.11365,66992
28.12178,70859
28.12990,80260
28.13803,84542
28.14615,86818
28.15427,88607
28.16240,86470
28.17052,79928
28.17865,70034
28.18677,67632
28.19488,68621
28.20302,57770
28.21113,50934
28.21927,56768
28.22738,55502
28.23550,54395
28.24363,57024
28.25175,55462
28.25987,69021
28.26800,66634
28.27612,77596
28.28425,103372
28.29237,134420
28.30048,168343
28.30862,192037
28.31673,202828
28.32487,176169
28.33298,140005
28.34110,108700
28.34923,84321
28.35735,70597
28.36547,63240
28.37360,64050
28.38172,62131
28.38985,56613
28.39797,59140
28.40608,55316
28.41422,57132
28.42233,56437
28.43047,59233
28.43858,62268
28.44670,64334
28.45483,63513
28.46295,64354
28.47108,65890
28.47920,64914
28.48732,64583
28.49545,67133
28.50357,65343
28.51168,71821
28.51982,67837
28.52793,70043
28.53607,67089
28.54418,64332
28.55230,61348
28.56043,64839
28.56855,60305
28.57668,63068
28.58480,64544
28.59292,64179
28.60105,63076
28.60917,69684
28.61730,72174
28.62542,88064
28.63353,95320
28.64167,109575
28.64978,115256
28.65790,103712
28.66603,96140
28.67415,85059
28.68228,83197
28.69040,76373
28.69852,78736
28.70665,89026
28.71477,104499
28.72290,125672
28.73102,151378
28.73913,184850
28.74727,200781
28.75538,216906
28.76350,242119
28.77163,256501
28.77975,254880
28.78788,263748
28.79600,273509
28.80412,297359
28.81225,302637
28.82037,312195
28.82850,296303
28.83662,281173
28.84473,235173
28.85287,207365
28.86098,180283
28.86912,157835
28.87723,150379
28.88535,133363
28.89348,127749
28.90160,117583
28.90972,122444
28.91785,108778
28.92597,102735
28.93410,113464
28.94222,97080
28.95033,86885
28.95847,89125
28.96658,87879
28.97472,86655
28.98283,85706
28.99095,83557
28.99908,76496
29.00720,82631
29.01533,77329
29.02345,79296
29.03157,72086
29.03970,69137
29.04782,72193
29.05593,74321
29.06407,76272
29.07218,77726
29.08032,80034
29.08843,86414
29.09655,95024
29.10468,84428
29.11280,87312
29.12093,73924
29.12905,67496
29.13717,76193
29.14530,66142
29.15342,63612
29.16153,61250
29.16967,78090
29.17778,72873
29.18592,76108
29.19403,78001
29.20215,74875
29.21028,70046
29.21840,77788
29.22653,68820
29.23465,64048
29.24277,64840
29.25090,73484
29.25902,65228
29.26715,69025
29.27527,60747
29.28338,61327
29.29152,61853
29.29963,71144
29.30775,70011
29.31588,58366
29.32400,59206
29.33213,57505
29.34025,56850
29.34837,54687
29.35650,56271
29.36462,61286
29.37275,55217
29.38087,55118
29.38898,56041
29.39712,55872
29.40523,55798
29.41337,51705
29.42148,57161
29.42960,56311
29.43773,52416
29.44585,59618
29.45397,52509
29.46210,55503
29.47022,60508
29.47835,52387
29.48647,58659
29.49458,60221
29.50272,60305
29.51083,55223
29.51897,59143
29.52708,55991
29.53520,51534
29.54333,52357
29.55145,55601
29.55958,60658
29.56770,53993
29.57582,54158
29.58395,55201
29.59207,56186
29.60018,55185
29.60832,56173
29.61643,54549
29.62457,54811
29.63268,58710
29.64080,56168
29.64893,54948
29.65705,57824
29.66518,58159
29.67330,60493
29.68142,58073
29.68955,59139
29.69767,69626
29.70578,65259
29.71392,62441
29.72203,54960
29.73017,60015
29.73828,64508
29.74640,58661
29.75453,55872
29.76265,58640
29.77078,67980
29.77890,61865
29.78702,61451
29.79515,66563
29.80327,67277
29.81140,66358
29.81952,62548
29.82763,57225
29.83577,55491
29.84388,55291
29.85200,64414
29.86013,54058
29.86825,50717
29.87638,56506
29.88450,58523
29.89262,55137
29.90075,53124
29.90887,55110
29.91700,56704
29.92512,63738
29.93323,72328
29.94137,67008
29.94948,69703
29.95762,68797
29.96573,68644
29.97385,68063
29.98198,63872
29.99010,59862
29.99822,61844
30.00635,53698
30.01447,56387
30.02260,57185
30.03072,64203
30.03883,62691
30.04697,72763
30.05508,60931
30.06322,62511
30.07133,59931
30.07945,62411
30.08758,60121
30.09570,61591
30.10382,59955
30.11195,71015
30.12007,79271
30.12820,82101
30.13632,83650
30.14443,93376
30.15257,94781
30.16068,98653
30.16882,102078
30.17693,103895
30.18505,101171
30.19318,93353
30.20130,99323
30.20943,91364
30.21755,89085
30.22567,83787
30.23380,83719
30.24192,86156
30.25003,90720
30.25817,90997
30.26628,84078
30.27442,82589
30.28253,85885
30.29065,82266
30.29878,81717
30.30690,84354
30.31503,96418
30.32315,105290
30.33127,118432
30.33940,128727
30.34752,137598
30.35565,138746
30.36377,138901
30.37188,149430
30.38002,150433
30.38813,159558
30.39625,171851
30.40438,203394
30.41250,281616
30.42063,406828
30.42875,551923
30.43687,662591
30.44500,667947
30.45312,565475
30.46125,430367
30.46937,283769
30.47748,200103
30.48562,152967
30.49373,127997
30.50185,122055
30.50998,111886
30.51810,116310
30.52623,100946
30.53435,96418
30.54247,96688
30.55060,90744
30.55872,96395
30.56685,96448
30.57497,84994
30.58308,85645
30.59122,86250
30.59933,79202
30.60747,78420
30.61558,84174
30.62370,85595
30.63183,76730
30.63995,77359
30.64807,78725
30.65620,78805
30.66432,81846
30.67245,85558
30.68057,79663
30.68868,70530
30.69682,69517
30.70493,70058
30.71307,74901
30.72118,73499
30.72930,60021
30.73743,60796
30.74555,68933
30.75368,67588
30.76180,66577
30.76992,64384
30.77805,59360
30.78617,71051
30.79428,63912
30.80242,65934
30.81053,74192
30.81867,64942
30.82678,64888
30.83490,63124
30.84303,65765
30.85115,61952
30.85928,62638
30.86740,64521
30.87552,58168
30.88365,58894
30.89177,61095
30.89990,55894
30.90802,54551
30.91613,60541
30.92427,60723
30.93238,59094
30.94050,62194
30.94863,59227
30.95675,56426
30.96488,57313
30.97300,57464
30.98112,55464
30.98925,55540
30.99737,59355
31.00550,56176
31.01362,55124
31.02173,52951
31.02987,54628
31.03798,55205
31.04610,58304
31.05423,57080
31.06235,53874
31.07048,55736
31.07860,57726
31.08672,55081
31.09485,52704
31.10297,53079
31.11110,58262
31.11922,54153
31.12733,60544
31.13547,55961
31.14358,55397
31.15172,58612
31.15983,64010
31.16795,55389
31.17608,59945
31.18420,57414
31.19232,66852
31.20045,54785
31.20857,53140
31.21670,64812
31.22482,58145
31.23293,58707
31.24107,55529
31.24918,56266
31.25732,60429
31.26543,52899
31.27355,53590
31.28168,55195
31.28980,60411
31.29793,59367
31.30605,70405
31.31417,87713
31.32230,136328
31.33042,237237
31.33853,403643
31.34667,580591
31.35478,715643
31.36292,738335
31.37103,600125
31.37915,433256
31.38728,273753
31.39540,176918
31.40353,113689
31.41165,97475
31.41977,84318
31.42790,81412
31.43602,72053
31.44415,73986
31.45227,67864
31.46038,70333
31.46852,61373
31.47663,69703
31.48475,69201
31.49288,64089
31.50100,63439
31.50913,68389
31.51725,73318
31.52537,59843
31.53350,63987
31.54162,63665
31.54975,66165
31.55787,66815
31.56598,62362
31.57412,65165
31.58223,60008
31.59035,68660
31.59848,63641
31.60660,67361
31.61473,77077
31.62285,103686
31.63097,145791
31.63910,202365
31.64722,259117
31.65535,321626
31.66347,353468
31.67158,323362
31.67972,284016
31.68783,208335
31.69597,142981
31.70408,106621
31.71220,87404
31.72033,75726
31.72845,67857
31.73657,68308
31.74470,69951
31.75282,66792
31.76095,60920
31.76907,65796
31.77718,61052
31.78532,74632
31.79343,66390
31.80157,73246
31.80968,63989
31.81780,65901
31.82593,63394
31.83405,62419
31.84218,57791
31.85030,60565
31.85842,58699
31.86655,58421
31.87467,59932
31.88278,55073
31.89092,58839
31.89903,59729
31.90717,59637
31.91528,56097
31.92340,57811
31.93153,58392
31.93965,60041
31.94778,69091
31.95590,62783
31.96402,59654
31.97215,59948
31.98027,61008
31.98838,57673
31.99652,59833
32.00463,61135
32.01277,58168
32.02088,59216
32.02900,55872
32.03713,61118
32.04525,59745
32.05338,61917
32.06150,71322
32.06962,59002
32.07775,70539
32.08587,63633
32.09400,64065
32.10212,74590
32.11023,70035
32.11837,73729
32.12648,68813
32.13460,67104
32.14273,60640
32.15085,72384
32.15898,61930
32.16710,59881
32.17522,59737
32.18335,58862
32.19147,55102
32.19960,61040
32.20772,61484
32.21583,67305
32.22397,60576
32.23208,63841
32.24022,71566
32.24833,67960
32.25645,78210
32.26458,90704
32.27270,97055
32.28082,109856
32.28895,115309
32.29707,121844
32.30520,121686
32.31332,119814
32.32143,113845
32.32957,108046
32.33768,111711
32.34582,107748
32.35393,109878
32.36205,100425
32.37018,101181
32.37830,104967
32.38643,122334
32.39455,125525
32.40267,144040
32.41080,167514
32.41892,185087
32.42703,181638
32.43517,159566
32.44328,142975
32.45142,124138
32.45953,105883
32.46765,91615
32.47578,91036
32.48390,70272
32.49203,70979
32.50015,64983
32.50827,76563
32.51640,71718
32.52452,66305
32.53263,64219
32.54077,66406
32.54888,69910
32.55702,63663
32.56513,61604
32.57325,62889
32.58138,58997
32.58950,62458
32.59763,63072
32.60575,68835
32.61387,65382
32.62200,68030
32.63012,57142
32.63825,60254
32.64637,60547
32.65448,70074
32.66262,59979
32.67073,62352
32.67885,61670
32.68698,60206
32.69510,60411
32.70323,62460
32.71135,58889
32.71947,60208
32.72760,59262
32.73572,62269
32.74385,63041
32.75197,71686
32.76008,60388
32.76822,59950
32.77633,62475
32.78447,64840
32.79258,64722
32.80070,63123
32.80883,64308
32.81695,62815
32.82507,58690
32.83320,59034
32.84132,70988
32.84945,70912
32.85757,62989
32.86568,65959
32.87382,70317
32.88193,63970
32.89007,66401
32.89818,59371
32.90630,61560
32.91443,60246
32.92255,65795
32.93067,58600
32.93880,63604
32.94692,64521
32.95505,69200
32.96317,72090
32.97128,67217
32.97942,68745
32.98753,74778
32.99567,71468
33.00378,79591
33.01190,69577
33.02003,67810
33.02815,67891
33.03628,63825
33.04440,61436
33.05252,64104
33.06065,61001
33.06877,57328
33.07688,69251
33.08502,62115
33.09313,59651
33.10127,58680
33.10938,59017
33.11750,64373
33.12563,58711
33.13375,59853
33.14188,60917
33.15000,60182
33.15812,65171
33.16625,58024
33.17437,59839
33.18250,66625
33.19062,61301
33.19873,58308
33.20687,58721
33.21498,69948
33.22310,67090
33.23123,68920
33.23935,67652
33.24748,67196
33.25560,65914
33.26372,68095
33.27185,73106
33.27997,71931
33.28810,66430
33.29622,71501
33.30433,68846
33.31247,66121
33.32058,64013
33.32870,65080
33.33683,64395
33.34495,70100
33.35308,62542
33.36120,66241
33.36932,69929
33.37745,58167
33.38557,62130
33.39370,62719
33.40182,60432
33.40993,59486
33.41807,56756
33.42618,60370
33.43432,62068
33.44243,60365
33.45055,62250
33.45868,60759
33.46680,65628
33.47492,69617
33.48305,62464
33.49117,61834
33.49930,62877
33.50742,61308
33.51553,64928
33.52367,67034
33.53178,66860
33.53992,72043
33.54803,61667
33.55615,63921
33.56428,63775
33.57240,66787
33.58053,58927
33.58865,60955
33.59677,62466
33.60490,65682
33.61302,72269
33.62113,68548
33.62927,70767
33.63738,91155
33.64552,98960
33.65363,102430
33.66175,111491
33.66988,109090
33.67800,95311
33.68613,84316
33.69425,77548
33.70237,66237
33.71050,62190
33.71862,63326
33.72675,62952
33.73487,64464
33.74298,69274
33.75112,60791
33.75923,66500
33.76735,68458
33.77548,65084
33.78360,66628
33.79173,64360
33.79985,63449
33.80797,65396
33.81610,67008
33.82422,72129
33.83235,63896
33.84047,69674
33.84858,66234
33.85672,70686
33.86483,67050
33.87295,62221
33.88108,65560
33.88920,64461
33.89733,58668
33.90545,63379
33.91357,60989
33.92170,62922
33.92982,59188
33.93795,58056
33.94607,65123
33.95418,70430
33.96232,57874
33.97043,60113
33.97857,62389
33.98668,60459
33.99480,63574
34.00293,65086
34.01105,68805
34.01917,65381
34.02730,62892
34.03542,67652
34.04355,65678
34.05167,63204
34.05978,64981
34.06792,62650
34.07603,65394
34.08417,63608
34.09228,65742
34.10040,62747
34.10853,64840
34.11665,63615
34.12478,63198
34.13290,65252
34.14102,66823
34.14915,67117
34.15727,67887
34.16538,63607
34.17352,67561
34.18163,63675
34.18977,67179
34.19788,69024
34.20600,67609
34.21413,69091
34.22225,70052
34.23038,66725
34.23850,78968
34.24662,75918
34.25475,68608
34.26287,70211
34.27098,67077
34.27912,65661
34.28723,66789
34.29537,70536
34.30348,63917
34.31160,66395
34.31973,69595
34.32785,63116
34.33598,62721
34.34410,64466
34.35222,67381
34.36035,65441
34.36847,66729
34.37660,69648
34.38472,68225
34.39283,66386
34.40097,70072
34.40908,75677
34.41720,78047
34.42533,73254
34.43345,81828
34.44158,74598
34.44970,75117
34.45782,75151
34.46595,73758
34.47407,70287
34.48220,68963
34.49032,64907
34.49843,65648
34.50657,75260
34.51468,64011
34.52282,65227
34.53093,67225
34.53905,68110
34.54718,66184
34.55530,65103
34.56342,66689
34.57155,70481
34.57967,68955
34.58780,68295
34.59592,67721
34.60403,67421
34.61217,63067
34.62028,68244
34.62842,72201
34.63653,68102
34.64465,71701
34.65278,65123
34.66090,66798
34.66902,69668
34.67715,68949
34.68527,69014
34.69340,73717
34.70152,80753
34.70963,80385
34.71777,80913
34.72588,76039
34.73402,74697
34.74213,69051
34.75025,72420
34.75838,73639
34.76650,69910
34.77463,67034
34.78275,65607
34.79087,66062
34.79900,66362
34.80712,75495
34.81523,67798
34.82337,65317
34.83148,66453
34.83962,72988
34.84773,74278
34.85585,81748
34.86398,102641
34.87210,112662
34.88023,122963
34.88835,127149
34.89647,127219
34.90460,128415
34.91272,121646
34.92085,112217
34.92897,103727
34.93708,95502
34.94522,88523
34.95333,85839
34.96145,85049
34.96958,73805
34.97770,76915
34.98583,76114
34.99395,77615
35.00207,73336
35.01020,71642
35.01832,80342
35.02645,75737
35.03457,74199
35.04268,70408
35.05082,68828
35.05893,73219
35.06707,75517
35.07518,67377
35.08330,75587
35.09143,72232
35.09955,72806
35.10767,68073
35.11580,69657
35.12392,72672
35.13205,68460
35.14017,72132
35.14828,65693
35.15642,67818
35.16453,72676
35.17267,70016
35.18078,74188
35.18890,72144
35.19703,72986
35.20515,69120
35.21327,68503
35.22140,72134
35.22952,69112
35.23765,67801
35.24577,66833
35.25388,68522
35.26202,68430
35.27013,73511
35.27827,72007
35.28638,73330
35.29450,72840
35.30263,70393
35.31075,76324
35.31888,72087
35.32700,73878
35.33512,68941
35.34325,81643
35.35137,73016
35.35948,72827
35.36762,86067
35.37573,83040
35.38387,85198
35.39198,85828
35.40010,96344
35.40823,83718
35.41635,85382
35.42448,76168
35.43260,79386
35.44072,74594
35.44885,71679
35.45697,80356
35.46510,73156
35.47322,83521
35.48133,76229
35.48947,87470
35.49758,93236
35.50570,88824
35.51383,85919
35.52195,83503
35.53008,84769
35.53820,82737
35.54632,83655
35.55445,78433
35.56257,78700
35.57070,80760
35.57882,79757
35.58693,77675
35.59507,76768
35.60318,81140
35.61130,86104
35.61943,87554
35.62755,84203
35.63568,78649
35.64380,77823
35.65192,72448
35.66005,75445
35.66817,83798
35.67630,82933
35.68442,78259
35.69253,76438
35.70067,81944
35.70878,78169
35.71692,81903
35.72503,84503
35.73315,74008
35.74128,76769
35.74940,76208
35.75752,76461
35.76565,71200
35.77377,80680
35.78190,75853
35.79002,78121
35.79813,77317
35.80627,88871
35.81438,80419
35.82252,73852
35.83063,83649
35.83875,75838
35.84688,72676
35.85500,72574
35.86313,73914
35.87125,72480
35.87937,71930
35.88750,74338
35.89562,72971
35.90373,71330
35.91187,76269
35.91998,74821
35.92812,76397
35.93623,74830
35.94435,76231
35.95248,71233
35.96060,77590
35.96873,77241
35.97685,84284
35.98497,83657
35.99310,89257
36.00122,93121
36.00933,85055
36.01747,83585
36.02558,86186
36.03372,83358
36.04183,87878
36.04995,84951
36.05808,80858
36.06620,84689
36.07433,88761
36.08245,89290
36.09057,82077
36.09870,76570
36.10682,77837
36.11495,79549
36.12307,88429
36.13118,78955
36.13932,78783
36.14743,87384
36.15555,80715
36.16368,78820
36.17180,80112
36.17993,84847
36.18805,81428
36.19617,83758
36.20430,79254
36.21242,77792
36.22055,80718
36.22867,79157
36.23678,82863
36.24492,83683
36.25303,88577
36.26117,80386
36.26928,85370
36.27740,82309
36.28553,82919
36.29365,83708
36.30177,80919
36.30990,80428
36.31802,78107
36.32615,84290
36.33427,80957
36.34238,80420
36.35052,81696
36.35863,76700
36.36677,79437
36.37488,78733
36.38300,79018
36.39113,78987
36.39925,79220
36.40738,82635
36.41550,85450
36.42362,79109
36.43175,81811
36.43987,76212
36.44798,77302
36.45612,76670
36.46423,76126
36.47237,78541
36.48048,84764
36.48860,78659
36.49673,78665
36.50485,81373
36.51298,83795
36.52110,79131
36.52922,82856
36.53735,79778
36.54547,87855
36.55358,87587
36.56172,84784
36.56983,82959
36.57797,89593
36.58608,86111
36.59420,92234
36.60233,94090
36.61045,96065
36.61858,91175
36.62670,91520
36.63482,92182
36.64295,105519
36.65107,111075
36.65920,138183
36.66732,165852
36.67543,202849
36.68357,215490
36.69168,237792
36.69980,210130
36.70793,171877
36.71605,139427
36.72418,117186
36.73230,99880
36.74042,102202
36.74855,92446
36.75667,91577
36.76480,88595
36.77292,90993
36.78103,81715
36.78917,87609
36.79728,84968
36.80542,87772
36.81353,90538
36.82165,87138
36.82978,90021
36.83790,82647
36.84602,91889
36.85415,84359
36.86227,79445
36.87040,87832
36.87852,90435
36.88663,81137
36.89477,87128
36.90288,90851
36.91102,85470
36.91913,98595
36.92725,88723
36.93538,88208
36.94350,89290
36.95162,99661
36.95975,92993
36.96787,101223
36.97600,109100
36.98412,114927
36.99223,116429
37.00037,115805
37.00848,108426
37.01662,100913
37.02473,95286
37.03285,93933
37.04098,91954
37.04910,88680
37.05723,93258
37.06535,90950
37.07347,96226
37.08160,85651
37.08972,92742
37.09783,89380
37.10597,90877
37.11408,91599
37.12222,92965
37.13033,97656
37.13845,93681
37.14658,88667
37.15470,92684
37.16283,89740
37.17095,94197
37.17907,94970
37.18720,88611
37.19532,91926
37.20345,91084
37.21157,87780
37.21968,86789
37.22782,95015
37.23593,90615
37.24405,86409
37.25218,92100
37.26030,88583
37.26843,88617
37.27655,93701
37.28467,91989
37.29280,87917
37.30092,94836
37.30905,89947
37.31717,90589
37.32528,89242
37.33342,87737
37.34153,86466
37.34965,90858
37.35778,89927
37.36590,93047
37.37403,88367
37.38215,90034
37.39027,91943
37.39840,91216
37.40652,91853
37.41465,92067
37.42277,91587
37.43088,93946
37.43902,92331
37.44713,92001
37.45527,101460
37.46338,95201
37.47150,100668
37.47963,104535
37.48775,105063
