C:\MassHunter\GCMS\1\data\JTB-E18\JTB-E18-030-06.D Wed Oct 02 11:37:02 2019
Start of data points
2.09515	133731
2.10327	127424
2.11138	124540
2.11952	120281
2.12763	121103
2.13577	119556
2.14388	115524
2.15200	116689
2.16013	113351
2.16825	114311
2.17638	110929
2.18450	108682
2.19262	108874
2.20075	101416
2.20887	104343
2.21698	107641
2.22512	99572
2.23323	102115
2.24137	102921
2.24948	99759
2.25760	105464
2.26573	281147
2.27385	1070355
2.28198	1306056
2.29010	678123
2.29822	433671
2.30635	344262
2.31447	293966
2.32260	259642
2.33072	242999
2.33883	234272
2.34697	205824
2.35508	195849
2.36320	179148
2.37133	182936
2.37945	241111
2.38758	221098
2.39570	183523
2.40382	172549
2.41195	169713
2.42007	167018
2.42820	166689
2.43632	161839
2.44443	177138
2.45257	169145
2.46068	155116
2.46880	151652
2.47693	142956
2.48505	148888
2.49318	167181
2.50130	151189
2.50942	143327
2.51755	141365
2.52567	143989
2.53380	143706
2.54192	142704
2.55003	172546
2.55817	198899
2.56628	183110
2.57442	159584
2.58253	147553
2.59065	145915
2.59878	169042
2.60690	385557
2.61502	503697
2.62315	361511
2.63127	255664
2.63940	208445
2.64752	182032
2.65563	180507
2.66377	172398
2.67188	211918
2.68002	216175
2.68813	172954
2.69625	154584
2.70438	152499
2.71250	143837
2.72063	142219
2.72875	142320
2.73687	141366
2.74500	142209
2.75312	136286
2.76123	131569
2.76937	136164
2.77748	154169
2.78562	178768
2.79373	167923
2.80185	168750
2.80998	182368
2.81810	265196
2.82623	563905
2.83435	700593
2.84247	441717
2.85060	272263
2.85872	261495
2.86683	243146
2.87497	194848
2.88308	177205
2.89122	165604
2.89933	158303
2.90745	151074
2.91558	145521
2.92370	139985
2.93183	135104
2.93995	127604
2.94807	136337
2.95620	130075
2.96432	139220
2.97245	133368
2.98057	131843
2.98868	141318
2.99682	151849
3.00493	159790
3.01305	173934
3.02118	308640
3.02930	677462
3.03743	1011854
3.04555	2052971
3.05367	6145240
3.06180	8906761
3.06992	6162924
3.07805	3025500
3.08617	2178739
3.09428	2192170
3.10242	2381867
3.11053	2510949
3.11867	1850165
3.12678	1233544
3.13490	940541
3.14303	789693
3.15115	668965
3.15927	586294
3.16740	582897
3.17552	582734
3.18365	745796
3.19177	1121211
3.19988	1063742
3.20802	755260
3.21613	614049
3.22427	550817
3.23238	486743
3.24050	439148
3.24863	394131
3.25675	354171
3.26487	329692
3.27300	347956
3.28112	490934
3.28925	1059029
3.29737	2086230
3.30548	2804758
3.31362	2605556
3.32173	1976619
3.32987	1532989
3.33798	1245971
3.34610	1080576
3.35423	970010
3.36235	941222
3.37048	1105492
3.37860	1294066
3.38672	1199677
3.39485	1125303
3.40297	1818959
3.41108	3289004
3.41922	3588118
3.42733	2473312
3.43547	1443891
3.44358	1001755
3.45170	799799
3.45983	719807
3.46795	668508
3.47608	603816
3.48420	565487
3.49232	524001
3.50045	494294
3.50857	468054
3.51668	437885
3.52482	437307
3.53293	435044
3.54107	415157
3.54918	396049
3.55730	405655
3.56543	421281
3.57355	485629
3.58168	458808
3.58980	412815
3.59792	376984
3.60605	401805
3.61417	593039
3.62230	1238272
3.63042	2185111
3.63853	2319934
3.64667	1661833
3.65478	1047218
3.66290	1351602
3.67103	2984838
3.67915	4313456
3.68728	3416825
3.69540	1977262
3.70352	1265395
3.71165	988394
3.71977	855244
3.72790	744946
3.73602	680793
3.74413	640415
3.75227	604128
3.76038	568618
3.76852	543638
3.77663	536002
3.78475	506789
3.79288	520357
3.80100	616918
3.80912	887048
3.81725	1036962
3.82537	868592
3.83350	636719
3.84162	529974
3.84973	489220
3.85787	441147
3.86598	409365
3.87412	406517
3.88223	381868
3.89035	377655
3.89848	366410
3.90660	380388
3.91472	422110
3.92285	504452
3.93097	540290
3.93910	526903
3.94722	659628
3.95533	1230251
3.96347	1773232
3.97158	1610765
3.97972	1063836
3.98783	735335
3.99595	860858
4.00408	1497991
4.01220	2026395
4.02033	1768460
4.02845	1141984
4.03657	724791
4.04470	548360
4.05282	472117
4.06093	421472
4.06907	397396
4.07718	379633
4.08532	345681
4.09343	332960
4.10155	324536
4.10968	310417
4.11780	300496
4.12593	305527
4.13405	324865
4.14217	393310
4.15030	440900
4.15842	430731
4.16655	374070
4.17467	332553
4.18278	307024
4.19092	275341
4.19903	294249
4.20715	588732
4.21528	2134180
4.22340	5987589
4.23153	1.029539E+07
4.23965	1.139746E+07
4.24777	8728248
4.25590	5432570
4.26402	3564189
4.27215	2567381
4.28027	1952715
4.28838	1554670
4.29652	1264429
4.30463	1083268
4.31275	928070
4.32088	839669
4.32900	759360
4.33713	715274
4.34525	681338
4.35337	655142
4.36150	628926
4.36962	598128
4.37775	544480
4.38587	503431
4.39398	479857
4.40212	457888
4.41023	441649
4.41837	426570
4.42648	399679
4.43460	395782
4.44273	401146
4.45085	398052
4.45897	389905
4.46710	380170
4.47522	364080
4.48335	346284
4.49147	337208
4.49958	324935
4.50772	319154
4.51583	313247
4.52397	300176
4.53208	299428
4.54020	303861
4.54833	296783
4.55645	283046
4.56458	276792
4.57270	269425
4.58082	264153
4.58895	264297
4.59707	258987
4.60518	255527
4.61332	263208
4.62143	316636
4.62957	430375
4.63768	527421
4.64580	524500
4.65393	420011
4.66205	338341
4.67018	285594
4.67830	285835
4.68642	268350
4.69455	252119
4.70267	242259
4.71078	233593
4.71892	234670
4.72703	224740
4.73517	224696
4.74328	221096
4.75140	218709
4.75953	220767
4.76765	211119
4.77578	209841
4.78390	231803
4.79202	277931
4.80015	363180
4.80827	402270
4.81640	353936
4.82452	311944
4.83263	276176
4.84077	280094
4.84888	264509
4.85700	259779
4.86513	239342
4.87325	227578
4.88138	218658
4.88950	217320
4.89762	217522
4.90575	222095
4.91387	242961
4.92200	342093
4.93012	560860
4.93823	912992
4.94637	1162152
4.95448	1193019
4.96260	1065153
4.97073	892436
4.97885	733191
4.98698	632574
4.99510	565420
5.00322	500647
5.01135	469270
5.01947	513029
5.02760	678071
5.03572	905576
5.04383	973005
5.05197	840838
5.06008	665081
5.06822	553314
5.07633	492176
5.08445	464003
5.09258	453152
5.10070	468230
5.10882	498314
5.11695	519710
5.12507	493759
5.13320	445936
5.14132	405289
5.14943	393863
5.15757	406208
5.16568	443812
5.17382	483320
5.18193	501269
5.19005	501533
5.19818	477109
5.20630	435557
5.21443	411841
5.22255	374890
5.23067	342970
5.23880	331551
5.24692	318286
5.25503	302255
5.26317	285610
5.27128	283805
5.27942	275793
5.28753	270530
5.29565	277979
5.30378	263699
5.31190	262831
5.32003	252964
5.32815	258251
5.33627	267508
5.34440	262525
5.35252	249034
5.36063	251108
5.36877	235139
5.37688	231183
5.38502	230198
5.39313	225891
5.40125	232358
5.40938	228327
5.41750	215605
5.42563	218441
5.43375	212098
5.44187	227457
5.45000	215960
5.45812	215054
5.46625	209556
5.47437	207835
5.48248	201768
5.49062	200234
5.49873	199944
5.50685	204472
5.51498	194644
5.52310	206999
5.53123	197467
5.53935	196581
5.54747	198157
5.55560	203529
5.56372	224691
5.57185	235146
5.57997	234583
5.58808	214602
5.59622	206517
5.60433	199262
5.61247	201353
5.62058	200993
5.62870	215050
5.63683	206495
5.64495	205639
5.65307	196719
5.66120	199872
5.66932	203311
5.67745	213464
5.68557	219804
5.69368	228941
5.70182	233793
5.70993	243113
5.71807	249345
5.72618	258741
5.73430	242453
5.74243	244524
5.75055	245041
5.75867	252249
5.76680	263911
5.77492	259236
5.78305	248673
5.79117	240416
5.79928	276088
5.80742	424045
5.81553	689866
5.82367	1005954
5.83178	1240254
5.83990	1175850
5.84803	915157
5.85615	640357
5.86428	449812
5.87240	350397
5.88052	296844
5.88865	264070
5.89677	264416
5.90488	293074
5.91302	367095
5.92113	483315
5.92927	591021
5.93738	583642
5.94550	491869
5.95363	398486
5.96175	329579
5.96988	303919
5.97800	304680
5.98612	309858
5.99425	290973
6.00237	252781
6.01048	223952
6.01862	194681
6.02673	178781
6.03487	174747
6.04298	163045
6.05110	154996
6.05923	145636
6.06735	147673
6.07548	145789
6.08360	139858
6.09172	140461
6.09985	143368
6.10797	136932
6.11610	150415
6.12422	190649
6.13233	268729
6.14047	357997
6.14858	385828
6.15670	338495
6.16483	269276
6.17295	220217
6.18108	208246
6.18920	196428
6.19732	216728
6.20545	214025
6.21357	199024
6.22170	181464
6.22982	180224
6.23793	176158
6.24607	173957
6.25418	172638
6.26232	177814
6.27043	177356
6.27855	173238
6.28668	164919
6.29480	171461
6.30292	181567
6.31105	186462
6.31917	231501
6.32730	317986
6.33542	432635
6.34353	456534
6.35167	391001
6.35978	320331
6.36792	255407
6.37603	237951
6.38415	220846
6.39228	220168
6.40040	211488
6.40852	217355
6.41665	209243
6.42477	222005
6.43290	220434
6.44102	215254
6.44913	219221
6.45727	216719
6.46538	218044
6.47352	225235
6.48163	222969
6.48975	230153
6.49788	225008
6.50600	225660
6.51413	227219
6.52225	230751
6.53037	228237
6.53850	238610
6.54662	242686
6.55473	240824
6.56287	243574
6.57098	259427
6.57912	265254
6.58723	265948
6.59535	263035
6.60348	248077
6.61160	254419
6.61973	241933
6.62785	247539
6.63597	240482
6.64410	249851
6.65222	283715
6.66035	335720
6.66847	374163
6.67658	407948
6.68472	399267
6.69283	383064
6.70095	338652
6.70908	289571
6.71720	239645
6.72533	190115
6.73345	166709
6.74157	156320
6.74970	147627
6.75782	137724
6.76595	137333
6.77407	142746
6.78218	142131
6.79032	188264
6.79843	275486
6.80655	468337
6.81468	669550
6.82280	832152
6.83093	828070
6.83905	666145
6.84717	472170
6.85530	305971
6.86342	218661
6.87155	168853
6.87967	140185
6.88778	118546
6.89592	116903
6.90403	108757
6.91217	101512
6.92028	92841
6.92840	103362
6.93653	107568
6.94465	137106
6.95277	198458
6.96090	264217
6.96902	330848
6.97715	351420
6.98527	326280
6.99338	266124
7.00152	195692
7.00963	150627
7.01777	124333
7.02588	109687
7.03400	95831
7.04213	94810
7.05025	97575
7.05837	100642
7.06650	98574
7.07462	95995
7.08275	94994
7.09087	88186
7.09898	84660
7.10712	78729
7.11523	80220
7.12337	85644
7.13148	79583
7.13960	88781
7.14773	105039
7.15585	125080
7.16398	137754
7.17210	139004
7.18022	132090
7.18835	159675
7.19647	292190
7.20458	558765
7.21272	919585
7.22083	1095349
7.22897	1011337
7.23708	706678
7.24520	440719
7.25333	303373
7.26145	233563
7.26958	196343
7.27770	160434
7.28582	137095
7.29395	128332
7.30207	118531
7.31020	122219
7.31832	149329
7.32643	191806
7.33457	231774
7.34268	271330
7.35080	267355
7.35893	234317
7.36705	192239
7.37518	150383
7.38330	127409
7.39142	108110
7.39955	106185
7.40767	111335
7.41580	107474
7.42392	119669
7.43203	142555
7.44017	158068
7.44828	193300
7.45642	183253
7.46453	173675
7.47265	143814
7.48078	124583
7.48890	101442
7.49702	95962
7.50515	85013
7.51327	86837
7.52140	93836
7.52952	97204
7.53763	122068
7.54577	146547
7.55388	179101
7.56202	188715
7.57013	195165
7.57825	172666
7.58638	146276
7.59450	118995
7.60262	106943
7.61075	94363
7.61887	90180
7.62700	82598
7.63512	83565
7.64323	81629
7.65137	78624
7.65948	76555
7.66762	75345
7.67573	75843
7.68385	67326
7.69198	73174
7.70010	77449
7.70823	77120
7.71635	72996
7.72447	73790
7.73260	72241
7.74072	73142
7.74883	71731
7.75697	74734
7.76508	72324
7.77322	73684
7.78133	77507
7.78945	76051
7.79758	74768
7.80570	73815
7.81383	79986
7.82195	75676
7.83007	74895
7.83820	69769
7.84632	72433
7.85443	66410
7.86257	77054
7.87068	66305
7.87882	73143
7.88693	75549
7.89505	78805
7.90318	69063
7.91130	71271
7.91943	73560
7.92755	80035
7.93567	91363
7.94380	96663
7.95192	97243
7.96005	89919
7.96817	88775
7.97628	78442
7.98442	74130
7.99253	68536
8.00065	70142
8.00878	64063
8.01690	67254
8.02503	60123
8.03315	58081
8.04127	60382
8.04940	62169
8.05752	61560
8.06565	59090
8.07377	59856
8.08188	58675
8.09002	61735
8.09813	66803
8.10627	62837
8.11438	67999
8.12250	61523
8.13063	68950
8.13875	69932
8.14687	80343
8.15500	75295
8.16312	75073
8.17125	68127
8.17937	63926
8.18748	60956
8.19562	61080
8.20373	57688
8.21187	59455
8.21998	62759
8.22810	57892
8.23623	65946
8.24435	60040
8.25247	60288
8.26060	59854
8.26872	55142
8.27685	54701
8.28497	59606
8.29308	58538
8.30122	59997
8.30933	62682
8.31747	64499
8.32558	70864
8.33370	69665
8.34183	67259
8.34995	68022
8.35808	59833
8.36620	60991
8.37432	56248
8.38245	55608
8.39057	58549
8.39868	56021
8.40682	56692
8.41493	54226
8.42307	60447
8.43118	55559
8.43930	52553
8.44743	57463
8.45555	53450
8.46368	52618
8.47180	54831
8.47992	51917
8.48805	54247
8.49617	58714
8.50430	61190
8.51242	78132
8.52053	108060
8.52867	158740
8.53678	208916
8.54490	220161
8.55303	193174
8.56115	146269
8.56928	101592
8.57740	80258
8.58552	66885
8.59365	72838
8.60177	71039
8.60990	65892
8.61802	64825
8.62613	63820
8.63427	64351
8.64238	61667
8.65050	55352
8.65863	59633
8.66675	63386
8.67488	61995
8.68300	64795
8.69112	62328
8.69925	64179
8.70737	63527
8.71550	74629
8.72362	97753
8.73173	166351
8.73987	278308
8.74798	398577
8.75612	486818
8.76423	470271
8.77235	385036
8.78048	284014
8.78860	204903
8.79672	165559
8.80485	151848
8.81297	148264
8.82110	148277
8.82922	149515
8.83733	136145
8.84547	129612
8.85358	123680
8.86172	118378
8.86983	110244
8.87795	110062
8.88608	103511
8.89420	99574
8.90232	100645
8.91045	94565
8.91857	99096
8.92670	104883
8.93482	106000
8.94293	107077
8.95107	100593
8.95918	97758
8.96732	91456
8.97543	94560
8.98355	94825
8.99168	91948
8.99980	93968
9.00793	87441
9.01605	85095
9.02417	81782
9.03230	77558
9.04042	79812
9.04853	80472
9.05667	76766
9.06478	77017
9.07292	73917
9.08103	76340
9.08915	80478
9.09728	81446
9.10540	86662
9.11353	93832
9.12165	95019
9.12977	84515
9.13790	85032
9.14602	85434
9.15415	69965
9.16227	73076
9.17038	74684
9.17852	65486
9.18663	69842
9.19475	68687
9.20288	70746
9.21100	68582
9.21913	65600
9.22725	63728
9.23537	61052
9.24350	64492
9.25162	62890
9.25975	68521
9.26787	63553
9.27598	69445
9.28412	69720
9.29223	68195
9.30035	69389
9.30848	67725
9.31660	67379
9.32473	66829
9.33285	71296
9.34097	70831
9.34910	72750
9.35722	65643
9.36535	67469
9.37347	65146
9.38158	62888
9.38972	60380
9.39783	61324
9.40597	62844
9.41408	69202
9.42220	71570
9.43033	76839
9.43845	77288
9.44657	78536
9.45470	72044
9.46282	71008
9.47095	65829
9.47907	59886
9.48718	61264
9.49532	66485
9.50343	65941
9.51157	66076
9.51968	68223
9.52780	68022
9.53593	67311
9.54405	59135
9.55218	54547
9.56030	46432
9.56842	50020
9.57655	48620
9.58467	45294
9.59278	45572
9.60092	44330
9.60903	48964
9.61717	44446
9.62528	48208
9.63340	45422
9.64153	45741
9.64965	44048
9.65778	49452
9.66590	40999
9.67402	45284
9.68215	42266
9.69027	41025
9.69838	38220
9.70652	45716
9.71463	37357
9.72277	36785
9.73088	36755
9.73900	37930
9.74713	38301
9.75525	35951
9.76338	33074
9.77150	31673
9.77962	37315
9.78775	36277
9.79587	34165
9.80400	34134
9.81212	33966
9.82023	33770
9.82837	35761
9.83648	40150
9.84460	35253
9.85273	42336
9.86085	37392
9.86898	39456
9.87710	36205
9.88522	36356
9.89335	36833
9.90147	34855
9.90960	34680
9.91772	36989
9.92583	44348
9.93397	55332
9.94208	76323
9.95022	90242
9.95833	92816
9.96645	88795
9.97458	77253
9.98270	62890
9.99082	56112
9.99895	50704
10.00707	43918
10.01520	44115
10.02332	41943
10.03143	39985
10.03957	40722
10.04768	39864
10.05582	42176
10.06393	41787
10.07205	38988
10.08018	41151
10.08830	46749
10.09642	39528
10.10455	42150
10.11267	39028
10.12080	37353
10.12892	40431
10.13703	35849
10.14517	36776
10.15328	36356
10.16142	36885
10.16953	39085
10.17765	38877
10.18578	37295
10.19390	35501
10.20203	36567
10.21015	36225
10.21827	38172
10.22640	40959
10.23452	43698
10.24263	42211
10.25077	56023
10.25888	99711
10.26702	208143
10.27513	418873
10.28325	748851
10.29138	1165376
10.29950	1708535
10.30763	2651150
10.31575	3937031
10.32387	5115591
10.33200	5312756
10.34012	4472083
10.34823	2963524
10.35637	1684505
10.36448	997927
10.37262	665708
10.38073	497285
10.38885	362046
10.39698	292075
10.40510	225209
10.41323	188768
10.42135	168359
10.42947	150258
10.43760	144275
10.44572	133124
10.45385	119717
10.46197	114382
10.47008	105978
10.47822	105392
10.48633	94695
10.49445	97228
10.50258	96157
10.51070	93327
10.51883	94051
10.52695	89287
10.53507	86481
10.54320	79929
10.55132	81888
10.55945	77599
10.56757	74452
10.57568	72686
10.58382	74348
10.59193	69934
10.60007	63196
10.60818	66119
10.61630	63496
10.62443	62547
10.63255	64136
10.64067	59171
10.64880	58852
10.65692	59546
10.66505	59828
10.67317	56881
10.68128	61184
10.68942	61744
10.69753	60331
10.70567	59584
10.71378	60265
10.72190	55575
10.73003	52129
10.73815	57406
10.74627	56304
10.75440	53660
10.76252	58090
10.77065	53578
10.77877	54053
10.78688	52412
10.79502	49884
10.80313	47954
10.81127	52444
10.81938	53296
10.82750	50211
10.83563	47502
10.84375	47277
10.85188	44976
10.86000	44668
10.86812	43391
10.87625	41885
10.88437	40415
10.89248	42031
10.90062	41894
10.90873	44626
10.91687	43580
10.92498	44889
10.93310	41912
10.94123	44878
10.94935	42528
10.95748	46420
10.96560	42959
10.97372	43184
10.98185	46744
10.98997	44534
10.99810	42475
11.00622	41122
11.01433	43165
11.02247	38235
11.03058	36326
11.03870	41046
11.04683	41975
11.05495	39737
11.06308	40562
11.07120	42410
11.07932	44911
11.08745	43651
11.09557	45524
11.10370	48881
11.11182	48959
11.11993	45230
11.12807	42464
11.13618	44855
11.14430	42916
11.15243	38521
11.16055	38875
11.16868	41388
11.17680	39306
11.18492	41570
11.19305	44014
11.20117	47113
11.20930	39403
11.21742	41484
11.22553	39747
11.23367	38227
11.24178	39550
11.24992	43372
11.25803	45972
11.26615	58602
11.27428	79104
11.28240	97648
11.29052	113816
11.29865	123982
11.30677	135113
11.31490	139685
11.32302	179416
11.33113	209253
11.33927	233861
11.34738	235392
11.35552	204753
11.36363	165173
11.37175	132839
11.37988	109168
11.38800	91773
11.39612	84727
11.40425	79801
11.41237	71117
11.42050	68500
11.42862	60721
11.43673	60628
11.44487	54344
11.45298	50942
11.46112	53961
11.46923	57862
11.47735	62167
11.48548	68545
11.49360	77894
11.50173	78459
11.50985	80011
11.51797	74671
11.52610	76390
11.53422	74383
11.54233	74386
11.55047	72197
11.55858	65336
11.56672	61484
11.57483	58045
11.58295	58145
11.59108	62937
11.59920	70521
11.60733	83181
11.61545	83849
11.62357	82642
11.63170	73033
11.63982	64109
11.64795	60627
11.65607	58360
11.66418	51573
11.67232	56728
11.68043	57255
11.68855	63367
11.69668	72116
11.70480	73649
11.71293	73561
11.72105	72363
11.72917	67415
11.73730	65325
11.74542	59605
11.75355	56946
11.76167	54481
11.76978	48674
11.77792	47329
11.78603	45830
11.79417	45880
11.80228	42632
11.81040	45319
11.81853	43249
11.82665	44257
11.83477	41659
11.84290	44744
11.85102	42436
11.85915	40293
11.86727	40636
11.87538	40577
11.88352	39589
11.89163	38625
11.89977	40238
11.90788	45108
11.91600	46230
11.92413	53953
11.93225	59246
11.94037	63081
11.94850	54427
11.95662	52729
11.96475	48680
11.97287	42319
11.98098	46396
11.98912	48336
11.99723	49972
12.00537	55141
12.01348	55048
12.02160	55524
12.02973	49456
12.03785	42265
12.04598	42598
12.05410	40584
12.06222	38952
12.07035	37455
12.07847	35986
12.08658	36955
12.09472	37342
12.10283	40619
12.11097	38970
12.11908	39499
12.12720	40481
12.13533	39646
12.14345	41122
12.15158	39797
12.15970	37000
12.16782	36976
12.17595	35639
12.18407	35089
12.19218	33364
12.20032	33350
12.20843	35912
12.21657	33140
12.22468	34818
12.23280	36153
12.24093	34328
12.24905	34107
12.25718	34766
12.26530	31391
12.27342	33208
12.28155	31248
12.28967	37366
12.29780	35664
12.30592	37299
12.31403	33769
12.32217	35650
12.33028	37558
12.33840	33780
12.34653	32858
12.35465	31615
12.36278	32803
12.37090	32167
12.37902	29530
12.38715	35167
12.39527	36872
12.40340	44462
12.41152	54915
12.41963	56972
12.42777	65162
12.43588	61153
12.44402	55381
12.45213	46549
12.46025	46547
12.46838	40511
12.47650	41629
12.48462	34496
12.49275	40461
12.50087	37768
12.50900	34333
12.51712	34979
12.52523	36521
12.53337	42114
12.54148	49209
12.54962	60780
12.55773	78057
12.56585	74424
12.57398	70717
12.58210	58582
12.59022	52914
12.59835	47347
12.60647	42892
12.61460	42633
12.62272	41877
12.63083	40444
12.63897	39686
12.64708	36425
12.65522	37602
12.66333	34021
12.67145	35771
12.67958	34184
12.68770	34480
12.69583	35022
12.70395	36024
12.71207	37670
12.72020	38575
12.72832	36700
12.73643	36955
12.74457	35930
12.75268	37047
12.76082	37000
12.76893	37840
12.77705	39084
12.78518	38721
12.79330	42187
12.80143	41888
12.80955	38753
12.81767	39156
12.82580	34926
12.83392	34194
12.84205	34932
12.85017	37493
12.85828	34626
12.86642	32892
12.87453	38113
12.88265	31567
12.89078	31693
12.89890	30395
12.90703	34502
12.91515	33785
12.92327	36910
12.93140	43260
12.93952	56997
12.94765	65633
12.95577	80641
12.96388	97576
12.97202	108965
12.98013	111121
12.98825	97059
12.99638	85249
13.00450	76468
13.01263	72182
13.02075	62018
13.02887	58993
13.03700	58194
13.04512	56465
13.05325	49249
13.06137	49776
13.06948	45804
13.07762	43039
13.08573	42077
13.09387	38851
13.10198	40898
13.11010	36944
13.11823	40202
13.12635	39086
13.13447	39450
13.14260	38317
13.15072	37409
13.15885	39449
13.16697	35523
13.17508	34236
13.18322	36506
13.19133	37727
13.19947	38684
13.20758	39345
13.21570	39312
13.22383	39468
13.23195	40335
13.24007	40583
13.24820	47941
13.25632	45177
13.26445	48307
13.27257	50463
13.28068	45866
13.28882	46098
13.29693	46451
13.30507	46095
13.31318	51445
13.32130	49029
13.32943	47309
13.33755	49040
13.34568	46739
13.35380	42559
13.36192	41792
13.37005	41940
13.37817	41221
13.38628	35574
13.39442	37515
13.40253	40283
13.41067	40649
13.41878	34315
13.42690	33654
13.43503	34934
13.44315	36468
13.45128	33468
13.45940	35271
13.46752	35325
13.47565	34563
13.48377	31352
13.49190	32081
13.50002	35130
13.50813	32714
13.51627	33804
13.52438	33250
13.53250	35905
13.54063	41666
13.54875	43651
13.55688	44950
13.56500	42580
13.57312	46111
13.58125	46565
13.58937	49224
13.59750	62134
13.60562	79649
13.61373	90432
13.62187	98853
13.62998	97597
13.63810	92170
13.64623	75700
13.65435	67585
13.66248	57511
13.67060	54232
13.67872	47356
13.68685	47048
13.69497	43496
13.70310	46425
13.71122	40644
13.71933	40824
13.72747	42687
13.73558	41199
13.74372	45931
13.75183	53208
13.75995	67686
13.76808	81117
13.77620	92156
13.78432	107601
13.79245	111016
13.80057	112572
13.80870	110533
13.81682	118582
13.82493	132948
13.83307	132386
13.84118	119938
13.84932	108103
13.85743	93516
13.86555	79211
13.87368	72711
13.88180	62986
13.88993	67111
13.89805	65957
13.90617	60134
13.91430	62613
13.92242	55761
13.93053	53844
13.93867	51035
13.94678	54012
13.95492	53930
13.96303	52325
13.97115	51465
13.97928	49497
13.98740	47596
13.99553	49759
14.00365	48795
14.01177	47294
14.01990	47203
14.02802	48172
14.03613	47227
14.04427	44468
14.05238	44713
14.06052	43730
14.06863	41530
14.07675	45144
14.08488	40405
14.09300	39438
14.10113	42472
14.10925	40975
14.11737	46459
14.12550	58748
14.13362	68385
14.14175	110094
14.14987	163429
14.15798	209510
14.16612	223771
14.17423	221816
14.18235	179178
14.19048	144442
14.19860	119306
14.20673	103935
14.21485	96679
14.22297	88483
14.23110	78933
14.23922	80268
14.24735	71977
14.25547	73880
14.26358	70031
14.27172	63729
14.27983	53874
14.28795	57079
14.29608	55507
14.30420	51058
14.31233	46756
14.32045	42767
14.32857	39084
14.33670	38813
14.34482	41397
14.35295	40274
14.36107	37630
14.36918	42656
14.37732	37291
14.38543	43841
14.39357	53549
14.40168	77091
14.40980	101096
14.41793	122176
14.42605	130161
14.43417	114042
14.44230	91118
14.45042	69494
14.45855	61531
14.46667	51261
14.47478	53617
14.48292	49361
14.49103	48183
14.49917	42887
14.50728	45079
14.51540	41798
14.52353	41318
14.53165	38422
14.53978	37084
14.54790	37361
14.55602	34441
14.56415	36197
14.57227	32490
14.58038	34289
14.58852	36311
14.59663	34199
14.60477	31680
14.61288	33662
14.62100	33435
14.62913	32196
14.63725	33052
14.64538	32061
14.65350	33817
14.66162	32934
14.66975	30593
14.67787	32698
14.68598	30630
14.69412	36154
14.70223	32316
14.71037	31237
14.71848	32956
14.72660	38437
14.73473	34041
14.74285	32119
14.75098	32413
14.75910	35126
14.76722	32072
14.77535	36664
14.78347	54590
14.79160	93854
14.79972	187175
14.80783	389570
14.81597	686280
14.82408	951574
14.83220	1015557
14.84033	898776
14.84845	654840
14.85658	414875
14.86470	264147
14.87282	183296
14.88095	139399
14.88907	117452
14.89720	104145
14.90532	92681
14.91343	85731
14.92157	76944
14.92968	74602
14.93782	71793
14.94593	65013
14.95405	60356
14.96218	63873
14.97030	58162
14.97842	61059
14.98655	59493
14.99467	54319
15.00280	52982
15.01092	49484
15.01903	52566
15.02717	47960
15.03528	45466
15.04342	45868
15.05153	47306
15.05965	49790
15.06778	45363
15.07590	43588
15.08402	43044
15.09215	42884
15.10027	42477
15.10840	40032
15.11652	43991
15.12463	44085
15.13277	49972
15.14088	48846
15.14902	49811
15.15713	45891
15.16525	46853
15.17338	41139
15.18150	45482
15.18963	41492
15.19775	35680
15.20587	38101
15.21400	36698
15.22212	35628
15.23023	36391
15.23837	34750
15.24648	32770
15.25462	31878
15.26273	32124
15.27085	30770
15.27898	31902
15.28710	33892
15.29523	32754
15.30335	32263
15.31147	30383
15.31960	32285
15.32772	31335
15.33585	31309
15.34397	32399
15.35208	30178
15.36022	31090
15.36833	32563
15.37645	30927
15.38458	29769
15.39270	31151
15.40083	34629
15.40895	31663
15.41707	31392
15.42520	30670
15.43332	30395
15.44145	30082
15.44957	33443
15.45768	34760
15.46582	35161
15.47393	42566
15.48205	52167
15.49018	57617
15.49830	66416
15.50643	59946
15.51455	60484
15.52267	56324
15.53080	46768
15.53892	45386
15.54705	44534
15.55517	40824
15.56328	37301
15.57142	38616
15.57953	36710
15.58767	33712
15.59578	32890
15.60390	34306
15.61203	33497
15.62015	32213
15.62827	31013
15.63640	33069
15.64452	32487
15.65265	32529
15.66077	33199
15.66888	28934
15.67702	30423
15.68513	31703
15.69327	29995
15.70138	30573
15.70950	31069
15.71763	31927
15.72575	32224
15.73387	33429
15.74200	33515
15.75012	50293
15.75825	55890
15.76637	78322
15.77448	98178
15.78262	122899
15.79073	126265
15.79887	115119
15.80698	92427
15.81510	67139
15.82323	60921
15.83135	51620
15.83948	45826
15.84760	45129
15.85572	41254
15.86385	43388
15.87197	41425
15.88008	42370
15.88822	44684
15.89633	46426
15.90447	43306
15.91258	44778
15.92070	39591
15.92883	36388
15.93695	41888
15.94508	38571
15.95320	36625
15.96132	37404
15.96945	38139
15.97757	37542
15.98570	39414
15.99382	41511
16.00193	42909
16.01007	45904
16.01818	45573
16.02630	44667
16.03443	46392
16.04255	44142
16.05068	41360
16.05880	40537
16.06692	36208
16.07505	39232
16.08317	38449
16.09130	33481
16.09942	34755
16.10753	34822
16.11567	35048
16.12378	34668
16.13190	34511
16.14003	37477
16.14815	36963
16.15628	36542
16.16440	36236
16.17252	36041
16.18065	30418
16.18877	33648
16.19690	32806
16.20502	31467
16.21313	30644
16.22127	34809
16.22938	33824
16.23752	32063
16.24563	33020
16.25375	29664
16.26188	32601
16.27000	34031
16.27812	33628
16.28625	39462
16.29437	39952
16.30250	35601
16.31062	34095
16.31873	35096
16.32687	36061
16.33498	36009
16.34312	32618
16.35123	36744
16.35935	40886
16.36748	38066
16.37560	34877
16.38373	34489
16.39185	36295
16.39997	35425
16.40810	32953
16.41622	35279
16.42433	34369
16.43247	36925
16.44058	39418
16.44872	51920
16.45683	74947
16.46495	93903
16.47308	124514
16.48120	133660
16.48933	128720
16.49745	101192
16.50557	80885
16.51370	65077
16.52182	53906
16.52993	43892
16.53807	44879
16.54618	40199
16.55432	39766
16.56243	41779
16.57055	38091
16.57868	41079
16.58680	37569
16.59493	36796
16.60305	42535
16.61117	37655
16.61930	39630
16.62742	36365
16.63555	33733
16.64367	35084
16.65178	35136
16.65992	39435
16.66803	34300
16.67615	32029
16.68428	35035
16.69240	32406
16.70053	35680
16.70865	31164
16.71677	32378
16.72490	33769
16.73302	34784
16.74115	33723
16.74927	35450
16.75738	34269
16.76552	33785
16.77363	33518
16.78175	32213
16.78988	30607
16.79800	28765
16.80613	32039
16.81425	32681
16.82237	29663
16.83050	34700
16.83862	31512
16.84675	30177
16.85487	28499
16.86298	30569
16.87112	30621
16.87923	32712
16.88737	28400
16.89548	30776
16.90360	31643
16.91173	31226
16.91985	31061
16.92797	28637
16.93610	31517
16.94422	31022
16.95235	33011
16.96047	29387
16.96858	28132
16.97672	30061
16.98483	32273
16.99297	32687
17.00108	35027
17.00920	30111
17.01733	32615
17.02545	32022
17.03358	32293
17.04170	31260
17.04982	35685
17.05795	32904
17.06607	30505
17.07418	31434
17.08232	31999
17.09043	36339
17.09857	31745
17.10668	30935
17.11480	30431
17.12293	35149
17.13105	36636
17.13918	31969
17.14730	34512
17.15542	32697
17.16355	36874
17.17167	33147
17.17980	31938
17.18792	32455
17.19603	31027
17.20417	30878
17.21228	31224
17.22040	30792
17.22853	28993
17.23665	31434
17.24478	35660
17.25290	31652
17.26102	30240
17.26915	30680
17.27727	29608
17.28540	31213
17.29352	30721
17.30163	31515
17.30977	30695
17.31788	33025
17.32600	32104
17.33413	36448
17.34225	38392
17.35038	34562
17.35850	34347
17.36662	36271
17.37475	40154
17.38287	37067
17.39100	37770
17.39912	36237
17.40723	34066
17.41537	36228
17.42348	33735
17.43162	34121
17.43973	35766
17.44785	34564
17.45598	37115
17.46410	35420
17.47222	32369
17.48035	34107
17.48847	32328
17.49660	33637
17.50472	32736
17.51283	37489
17.52097	41704
17.52908	44562
17.53722	48516
17.54533	53309
17.55345	62390
17.56158	66276
17.56970	79835
17.57782	88198
17.58595	115580
17.59407	139042
17.60220	141246
17.61032	137882
17.61843	121582
17.62657	100220
17.63468	77207
17.64282	66355
17.65093	66005
17.65905	61402
17.66718	54106
17.67530	52641
17.68343	52806
17.69155	51280
17.69967	52015
17.70780	50532
17.71592	48651
17.72403	42566
17.73217	43048
17.74028	42779
17.74842	39538
17.75653	40241
17.76465	42035
17.77278	39282
17.78090	38687
17.78903	41735
17.79715	42965
17.80527	39818
17.81340	42201
17.82152	42761
17.82965	47926
17.83777	47575
17.84588	50324
17.85402	52664
17.86213	48479
17.87025	49302
17.87838	48885
17.88650	44422
17.89463	43002
17.90275	36039
17.91087	36718
17.91900	37169
17.92712	35677
17.93525	34609
17.94337	33589
17.95148	34951
17.95962	34341
17.96773	31654
17.97585	35973
17.98398	33894
17.99210	33563
18.00023	37197
18.00835	42173
18.01647	45041
18.02460	50064
18.03272	56047
18.04085	57481
18.04897	61543
18.05708	81158
18.06522	121709
18.07333	213844
18.08147	326896
18.08958	430327
18.09770	461625
18.10583	412729
18.11395	321779
18.12207	236025
18.13020	169782
18.13832	138192
18.14645	126899
18.15457	139022
18.16268	166044
18.17082	194595
18.17893	207771
18.18707	219325
18.19518	226492
18.20330	225938
18.21143	226185
18.21955	227563
18.22768	226728
18.23580	227881
18.24392	231576
18.25205	230207
18.26017	217746
18.26828	215028
18.27642	209972
18.28453	201721
18.29267	194268
18.30078	193364
18.30890	184023
18.31703	189031
18.32515	183585
18.33328	180291
18.34140	176542
18.34952	168444
18.35765	174128
18.36577	171032
18.37388	165532
18.38202	169681
18.39013	157995
18.39827	162736
18.40638	161479
18.41450	151058
18.42263	151284
18.43075	159581
18.43888	154041
18.44700	161473
18.45512	165117
18.46325	178519
18.47137	177999
18.47950	183943
18.48762	161958
18.49573	163820
18.50387	154079
18.51198	137874
18.52010	133763
18.52823	128004
18.53635	130792
18.54448	119706
18.55260	115755
18.56072	116801
18.56885	111506
18.57697	113955
18.58510	118194
18.59322	115104
18.60133	116501
18.60947	107414
18.61758	111236
18.62570	111802
18.63383	113040
18.64195	103353
18.65008	100431
18.65820	104280
18.66632	93735
18.67445	95478
18.68257	91135
18.69070	90435
18.69882	90446
18.70693	89914
18.71507	89677
18.72318	88916
18.73132	79095
18.73943	79658
18.74755	79544
18.75568	77927
18.76380	78940
18.77192	80383
18.78005	73769
18.78817	75278
18.79630	72357
18.80442	72198
18.81253	69702
18.82067	72113
18.82878	72361
18.83692	65582
18.84503	69416
18.85315	66010
18.86128	69168
18.86940	62904
18.87753	66824
18.88565	67597
18.89377	62037
18.90190	65999
18.91002	69196
18.91813	63281
18.92627	60964
18.93438	67330
18.94252	69252
18.95063	59209
18.95875	63579
18.96688	56849
18.97500	62747
18.98313	57026
18.99125	57780
18.99937	60159
19.00750	58791
19.01562	57903
19.02373	58542
19.03187	56165
19.03998	51853
19.04812	54663
19.05623	59824
19.06435	55000
19.07248	60812
19.08060	62137
19.08873	73423
19.09685	72797
19.10497	75815
19.11310	74007
19.12122	74001
19.12935	69297
19.13747	71651
19.14558	73337
19.15372	72176
19.16183	69418
19.16995	72603
19.17808	68573
19.18620	60629
19.19433	56008
19.20245	55846
19.21057	49921
19.21870	52422
19.22682	54699
19.23495	45676
19.24307	48341
19.25118	47582
19.25932	47128
19.26743	49899
19.27557	45791
19.28368	45828
19.29180	53211
19.29993	50722
19.30805	52043
19.31617	50178
19.32430	49379
19.33242	53177
19.34055	48084
19.34867	51742
19.35678	62837
19.36492	64313
19.37303	62715
19.38117	66134
19.38928	57197
19.39740	56316
19.40553	51244
19.41365	49767
19.42177	54281
19.42990	64212
19.43802	90484
19.44615	114218
19.45427	143612
19.46238	157342
19.47052	145727
19.47863	123195
19.48677	95958
19.49488	78510
19.50300	62799
19.51113	57067
19.51925	51137
19.52738	52978
19.53550	51601
19.54362	51951
19.55175	47383
19.55987	50272
19.56798	46653
19.57612	42065
19.58423	45454
19.59237	43966
19.60048	44752
19.60860	43676
19.61673	43901
19.62485	45823
19.63298	52533
19.64110	69059
19.64922	74484
19.65735	86119
19.66547	93895
19.67358	95386
19.68172	94145
19.68983	94944
19.69797	80739
19.70608	75688
19.71420	71178
19.72233	67704
19.73045	56863
19.73858	54278
19.74670	50720
19.75482	51048
19.76295	52906
19.77107	53900
19.77920	54319
19.78732	62869
19.79543	62960
19.80357	58980
19.81168	55082
19.81980	54000
19.82793	48888
19.83605	50523
19.84418	47995
19.85230	54701
19.86042	83794
19.86855	143978
19.87667	233547
19.88480	355520
19.89292	455649
19.90103	537587
19.90917	492379
19.91728	413072
19.92542	317211
19.93353	230723
19.94165	173034
19.94978	148237
19.95790	131922
19.96602	118273
19.97415	113398
19.98227	105704
19.99040	105657
19.99852	100066
20.00663	103530
20.01477	100902
20.02288	95795
20.03102	85532
20.03913	76645
20.04725	74484
20.05538	72712
20.06350	72642
20.07162	67642
20.07975	68658
20.08787	65175
20.09600	61843
20.10412	60416
20.11223	58769
20.12037	52613
20.12848	52532
20.13662	54592
20.14473	53934
20.15285	52147
20.16098	64014
20.16910	62652
20.17723	67489
20.18535	66309
20.19347	68776
20.20160	69335
20.20972	65675
20.21783	64391
20.22597	63590
20.23408	71352
20.24222	76151
20.25033	85073
20.25845	91674
20.26658	95091
20.27470	92601
20.28283	85614
20.29095	81354
20.29907	67404
20.30720	65582
20.31532	52135
20.32345	49924
20.33157	50417
20.33968	46267
20.34782	43729
20.35593	42247
20.36405	43972
20.37218	43003
20.38030	47983
20.38843	47742
20.39655	46722
20.40467	47345
20.41280	47436
20.42092	46959
20.42905	47567
20.43717	48078
20.44528	47490
20.45342	45516
20.46153	42490
20.46965	40971
20.47778	40674
20.48590	40494
20.49403	41729
20.50215	37762
20.51027	43023
20.51840	40831
20.52652	39013
20.53465	41696
20.54277	39290
20.55088	41222
20.55902	39063
20.56713	36811
20.57527	36609
20.58338	38177
20.59150	36808
20.59963	39809
20.60775	35849
20.61587	36309
20.62400	37393
20.63212	38217
20.64025	38477
20.64837	38077
20.65648	35549
20.66462	37691
20.67273	38809
20.68087	35325
20.68898	35253
20.69710	34451
20.70523	33398
20.71335	35602
20.72148	36642
20.72960	38852
20.73772	37174
20.74585	38634
20.75397	37810
20.76208	38234
20.77022	42233
20.77833	46719
20.78647	58689
20.79458	75857
20.80270	91508
20.81083	105036
20.81895	103210
20.82708	95321
20.83520	79849
20.84332	68523
20.85145	56449
20.85957	49444
20.86768	46874
20.87582	46232
20.88393	43135
20.89207	46379
20.90018	42213
20.90830	44320
20.91643	37865
20.92455	39340
20.93268	39634
20.94080	35959
20.94892	38648
20.95705	39459
20.96517	38961
20.97330	38462
20.98142	36491
20.98953	36580
20.99767	40513
21.00578	35961
21.01390	39638
21.02203	36029
21.03015	35648
21.03828	38975
21.04640	38678
21.05452	39851
21.06265	38233
21.07077	36340
21.07890	39784
21.08702	37557
21.09513	38141
21.10327	38424
21.11138	41901
21.11950	39230
21.12763	44125
21.13575	55690
21.14388	62433
21.15200	75306
21.16012	79934
21.16825	73840
21.17637	66971
21.18450	67626
21.19262	62136
21.20073	55835
21.20887	56247
21.21698	56198
21.22512	54554
21.23323	53894
21.24135	51401
21.24948	57470
21.25760	51453
21.26572	51598
21.27385	49147
21.28197	51522
21.29010	50507
21.29822	50028
21.30633	48632
21.31447	48151
21.32258	50365
21.33072	48879
21.33883	45940
21.34695	50352
21.35508	50756
21.36320	48938
21.37133	49315
21.37945	49955
21.38757	47141
21.39570	49771
21.40382	50754
21.41193	54383
21.42007	52998
21.42818	52870
21.43632	50368
21.44443	49218
21.45255	48425
21.46068	43791
21.46880	45694
21.47693	47145
21.48505	47096
21.49317	48979
21.50130	46321
21.50942	45233
21.51753	44181
21.52567	45241
21.53378	43826
21.54192	42286
21.55003	42443
21.55815	41571
21.56628	38435
21.57440	43485
21.58253	48247
21.59065	51068
21.59877	55486
21.60690	55954
21.61502	55762
21.62315	52196
21.63127	51198
21.63938	50613
21.64752	44059
21.65563	45805
21.66375	50270
21.67188	48401
21.68000	49446
21.68813	45579
21.69625	42321
21.70437	44113
21.71250	43409
21.72062	42331
21.72875	40956
21.73687	38494
21.74498	39961
21.75312	40408
21.76123	39609
21.76937	37273
21.77748	43765
21.78560	44474
21.79373	48748
21.80185	49008
21.80997	48256
21.81810	44068
21.82622	44380
21.83435	42632
21.84247	44423
21.85058	39684
21.85872	42211
21.86683	43532
21.87497	51432
21.88308	65534
21.89120	84082
21.89933	94605
21.90745	103494
21.91557	112637
21.92370	112942
21.93182	111421
21.93995	116286
21.94807	114436
21.95618	116274
21.96432	117129
21.97243	117045
21.98057	116284
21.98868	114802
21.99680	114483
22.00493	109966
22.01305	107908
22.02118	111643
22.02930	111108
22.03742	105503
22.04555	109694
22.05367	110328
22.06178	101261
22.06992	94338
22.07803	102193
22.08617	91737
22.09428	96113
22.10240	96470
22.11053	88829
22.11865	89475
22.12678	88334
22.13490	83728
22.14302	82150
22.15115	76898
22.15927	79478
22.16738	74809
22.17552	75118
22.18363	72943
22.19177	78634
22.19988	74863
22.20800	69308
22.21613	68424
22.22425	64348
22.23238	65839
22.24050	64264
22.24862	63663
22.25675	61134
22.26487	63403
22.27300	60694
22.28112	60219
22.28923	66186
22.29737	64946
22.30548	61834
22.31360	61006
22.32173	60253
22.32985	58471
22.33798	56635
22.34610	50967
22.35422	53415
22.36235	58155
22.37047	50330
22.37860	53359
22.38672	56204
22.39483	63877
22.40297	65485
22.41108	71599
22.41922	70436
22.42733	74688
22.43545	66784
22.44358	59304
22.45170	57340
22.45982	54189
22.46795	49803
22.47607	58570
22.48420	59118
22.49232	58067
22.50043	57850
22.50857	62645
22.51668	59327
22.52482	51452
22.53293	53834
22.54105	48503
22.54918	48203
22.55730	50099
22.56543	48733
22.57355	46084
22.58167	46782
22.58980	46554
22.59792	40490
22.60603	38708
22.61417	39747
22.62228	42224
22.63042	40550
22.63853	44240
22.64665	38965
22.65478	39579
22.66290	40813
22.67103	48213
22.67915	44257
22.68727	47953
22.69540	59269
22.70352	62790
22.71163	66118
22.71977	69312
22.72788	58817
22.73602	55380
22.74413	50704
22.75225	52491
22.76038	49388
22.76850	49562
22.77663	53110
22.78475	52010
22.79287	56418
22.80100	59257
22.80912	67810
22.81725	60987
22.82537	63666
22.83348	55333
22.84162	48539
22.84973	49333
22.85785	51670
22.86598	47994
22.87410	54277
22.88223	56510
22.89035	61769
22.89847	68347
22.90660	87295
22.91472	88484
22.92285	104122
22.93097	106025
22.93908	92009
22.94722	82964
22.95533	72241
22.96345	65262
22.97158	59021
22.97970	55011
22.98783	54324
22.99595	47429
23.00407	52623
23.01220	44588
23.02032	44047
23.02845	41831
23.03657	43425
23.04468	40096
23.05282	41844
23.06093	44683
23.06907	39676
23.07718	42811
23.08530	38958
23.09343	40349
23.10155	39339
23.10967	40306
23.11780	40351
23.12592	37428
23.13405	39780
23.14217	37609
23.15028	39123
23.15842	39321
23.16653	35583
23.17467	38875
23.18278	37966
23.19090	35225
23.19903	35674
23.20715	35486
23.21528	34931
23.22340	40083
23.23152	34028
23.23965	35943
23.24777	37944
23.25588	37334
23.26402	40601
23.27213	38438
23.28027	38561
23.28838	38546
23.29650	38182
23.30463	40210
23.31275	38448
23.32088	40412
23.32900	45255
23.33712	42363
23.34525	46803
23.35337	54737
23.36148	53858
23.36962	53715
23.37773	57115
23.38587	56786
23.39398	49654
23.40210	48242
23.41023	51146
23.41835	44129
23.42648	43433
23.43460	43150
23.44272	40379
23.45085	41946
23.45897	40070
23.46710	37707
23.47522	39780
23.48333	36316
23.49147	36941
23.49958	36086
23.50770	35274
23.51583	32901
23.52395	36672
23.53208	43715
23.54020	45904
23.54832	44854
23.55645	45675
23.56457	51581
23.57270	55590
23.58082	64648
23.58893	72045
23.59707	73540
23.60518	75869
23.61332	70253
23.62143	73760
23.62955	64314
23.63768	71306
23.64580	90091
23.65392	106206
23.66205	116602
23.67017	128808
23.67830	133776
23.68642	135376
23.69453	139999
23.70267	140463
23.71078	140105
23.71892	143851
23.72703	148648
23.73515	176248
23.74328	237533
23.75140	396637
23.75952	711162
23.76765	1118173
23.77577	1623822
23.78390	1917211
23.79202	1961819
23.80013	1724476
23.80827	1408427
23.81638	1103030
23.82452	839912
23.83263	670693
23.84075	533275
23.84888	450287
23.85700	383150
23.86513	344909
23.87325	302101
23.88137	280796
23.88950	253658
23.89762	241284
23.90573	231158
23.91387	212530
23.92198	199903
23.93012	188154
23.93823	188961
23.94635	176690
23.95448	162059
23.96260	157792
23.97073	150556
23.97885	138259
23.98697	139110
23.99510	135313
24.00322	131309
24.01133	138201
24.01947	137153
24.02758	145086
24.03572	142892
24.04383	136501
24.05195	122071
24.06008	117907
24.06820	112609
24.07633	105688
24.08445	105361
24.09257	101359
24.10070	101081
24.10882	100273
24.11695	100135
24.12507	103947
24.13318	102576
24.14132	110093
24.14943	108534
24.15755	106250
24.16568	107305
24.17380	109645
24.18193	100371
24.19005	101917
24.19817	98361
24.20630	92148
24.21442	85766
24.22255	84453
24.23067	74051
24.23878	73932
24.24692	69344
24.25503	71657
24.26317	64843
24.27128	65342
24.27940	71421
24.28753	71151
24.29565	68234
24.30377	68526
24.31190	71552
24.32002	84814
24.32815	98772
24.33627	120921
24.34438	135838
24.35252	133929
24.36063	117842
24.36877	94433
24.37688	76492
24.38500	66915
24.39313	63734
24.40125	60416
24.40937	61064
24.41750	59561
24.42562	60493
24.43375	56776
24.44187	57600
24.44998	64116
24.45812	65023
24.46623	70722
24.47437	63107
24.48248	65152
24.49060	64133
24.49873	59186
24.50685	65128
24.51498	62174
24.52310	63335
24.53122	65243
24.53935	68935
24.54747	70823
24.55558	75710
24.56372	70631
24.57183	70629
24.57997	61719
24.58808	55490
24.59620	51829
24.60433	52084
24.61245	51319
24.62058	50746
24.62870	54124
24.63682	49272
24.64495	45752
24.65307	48492
24.66120	47824
24.66932	45730
24.67743	49787
24.68557	45183
24.69368	45052
24.70180	48451
24.70993	44338
24.71805	44547
24.72618	45439
24.73430	42719
24.74242	47302
24.75055	47793
24.75867	46138
24.76680	44784
24.77492	46177
24.78303	47201
24.79117	52235
24.79928	50876
24.80740	50801
24.81553	49867
24.82365	51950
24.83178	56745
24.83990	63603
24.84802	73230
24.85615	88707
24.86427	100511
24.87240	118454
24.88052	139653
24.88863	148596
24.89677	154190
24.90488	154434
24.91302	149531
24.92113	145412
24.92925	135948
24.93738	132795
24.94550	133721
24.95362	127020
24.96175	130452
24.96987	127504
24.97800	126909
24.98612	123118
24.99423	130811
25.00237	128605
25.01048	126395
25.01862	119900
25.02673	125778
25.03485	117658
25.04298	114666
25.05110	112324
25.05922	117824
25.06735	114111
25.07547	117348
25.08360	116343
25.09172	127198
25.09983	159454
25.10797	219324
25.11608	327689
25.12422	477993
25.13233	653228
25.14045	761665
25.14858	757779
25.15670	661970
25.16483	490473
25.17295	352554
25.18107	251095
25.18920	180811
25.19732	150133
25.20543	128352
25.21357	120061
25.22168	111111
25.22982	123880
25.23793	140791
25.24605	175758
25.25418	223988
25.26230	257093
25.27043	267284
25.27855	260786
25.28667	216177
25.29480	176294
25.30292	141361
25.31105	113951
25.31917	100825
25.32728	96075
25.33542	83466
25.34353	83564
25.35165	76909
25.35978	69778
25.36790	68763
25.37603	65947
25.38415	67473
25.39227	62184
25.40040	67132
25.40852	61868
25.41665	67699
25.42477	65125
25.43288	68183
25.44102	61665
25.44913	57059
25.45725	60611
25.46538	60084
25.47350	60291
25.48163	53422
25.48975	55327
25.49787	54788
25.50600	51964
25.51412	55669
25.52225	52102
25.53037	52185
25.53848	48351
25.54662	51679
25.55473	46419
25.56287	51920
25.57098	50233
25.57910	52698
25.58723	48834
25.59535	49720
25.60347	48681
25.61160	48885
25.61972	48746
25.62785	51446
25.63597	49516
25.64408	53110
25.65222	48874
25.66033	49678
25.66847	45661
25.67658	44834
25.68470	44310
25.69283	46184
25.70095	45624
25.70908	48034
25.71720	46751
25.72532	43963
25.73345	48089
25.74157	44324
25.74968	43027
25.75782	42737
25.76593	42358
25.77407	43372
25.78218	41111
25.79030	41769
25.79843	45119
25.80655	42126
25.81468	41297
25.82280	44054
25.83092	47462
25.83905	44897
25.84717	47204
25.85528	43442
25.86342	43353
25.87153	44548
25.87967	41339
25.88778	46607
25.89590	40603
25.90403	40813
25.91215	40020
25.92028	40352
25.92840	40900
25.93652	41265
25.94465	34984
25.95277	37144
25.96090	41209
25.96902	40435
25.97713	43320
25.98527	38143
25.99338	40891
26.00150	37087
26.00963	40571
26.01775	40144
26.02588	35439
26.03400	36360
26.04212	39893
26.05025	39321
26.05837	38713
26.06650	41169
26.07462	39746
26.08273	38489
26.09087	40476
26.09898	41517
26.10712	43059
26.11523	43692
26.12335	46428
26.13148	41284
26.13960	47152
26.14772	48335
26.15585	46931
26.16397	42669
26.17210	41546
26.18022	42397
26.18833	44280
26.19647	40202
26.20458	41028
26.21272	38462
26.22083	39259
26.22895	39914
26.23708	37560
26.24520	38101
26.25332	36139
26.26145	36461
26.26957	33614
26.27770	36485
26.28582	37122
26.29393	37331
26.30207	35460
26.31018	32330
26.31832	36893
26.32643	32548
26.33455	35044
26.34268	37872
26.35080	38013
26.35893	36264
26.36705	40684
26.37517	42985
26.38330	48111
26.39142	44415
26.39953	42168
26.40767	40904
26.41578	44403
26.42392	41671
26.43203	36714
26.44015	37392
26.44828	35250
26.45640	34923
26.46453	36434
26.47265	37486
26.48077	38631
26.48890	34990
26.49702	33937
26.50513	37151
26.51327	40534
26.52138	35192
26.52952	39057
26.53763	33935
26.54575	34098
26.55388	35534
26.56200	38079
26.57013	33807
26.57825	34633
26.58637	36714
26.59450	31369
26.60262	34756
26.61075	32303
26.61887	33081
26.62698	33865
26.63512	31931
26.64323	34374
26.65135	31092
26.65948	35686
26.66760	35019
26.67573	35013
26.68385	33574
26.69197	38349
26.70010	37967
26.70822	33529
26.71635	35599
26.72447	34284
26.73258	37749
26.74072	35116
26.74883	35086
26.75697	34820
26.76508	35660
26.77320	32968
26.78133	36420
26.78945	38786
26.79757	37245
26.80570	37822
26.81382	38323
26.82195	38436
26.83007	35198
26.83818	33225
26.84632	36585
26.85443	34696
26.86257	36164
26.87068	32890
26.87880	34449
26.88693	34823
26.89505	33790
26.90317	33014
26.91130	33152
26.91942	34049
26.92755	34331
26.93567	37197
26.94378	39509
26.95192	53171
26.96003	74029
26.96817	111013
26.97628	161548
26.98440	218347
26.99253	271211
27.00065	295249
27.00878	297767
27.01690	281291
27.02502	247865
27.03315	208856
27.04127	165816
27.04938	129905
27.05752	117002
27.06563	99445
27.07377	88101
27.08188	76544
27.09000	73697
27.09813	66086
27.10625	66427
27.11438	67534
27.12250	61927
27.13062	63763
27.13875	60390
27.14687	62048
27.15500	64477
27.16312	66560
27.17123	72801
27.17937	67651
27.18748	61658
27.19560	63568
27.20373	57547
27.21185	56315
27.21998	51359
27.22810	46462
27.23622	48264
27.24435	47231
27.25247	45301
27.26060	44361
27.26872	45392
27.27683	42372
27.28497	40757
27.29308	38941
27.30120	41773
27.30933	41874
27.31745	42333
27.32558	39482
27.33370	40666
27.34182	40870
27.34995	43370
27.35807	45538
27.36620	42752
27.37432	42008
27.38243	41685
27.39057	43539
27.39868	41929
27.40682	39357
27.41493	39643
27.42305	39044
27.43118	36592
27.43930	40143
27.44742	37777
27.45555	39163
27.46367	37338
27.47180	39022
27.47992	38550
27.48803	36086
27.49617	34283
27.50428	38003
27.51242	38665
27.52053	38058
27.52865	33605
27.53678	36646
27.54490	34207
27.55302	38023
27.56115	41259
27.56927	37335
27.57740	40155
27.58552	39010
27.59363	44889
27.60177	40881
27.60988	38803
27.61802	40591
27.62613	37917
27.63425	39795
27.64238	41200
27.65050	38258
27.65863	36292
27.66675	38072
27.67487	41710
27.68300	44826
27.69112	40176
27.69923	38062
27.70737	40829
27.71548	39426
27.72362	38449
27.73173	40173
27.73985	43708
27.74798	48235
27.75610	47108
27.76423	44498
27.77235	46255
27.78047	49997
27.78860	46173
27.79672	40854
27.80485	40728
27.81297	37041
27.82108	36288
27.82922	34895
27.83733	39253
27.84545	37820
27.85358	37968
27.86170	36318
27.86983	33303
27.87795	34652
27.88607	35432
27.89420	34185
27.90232	32312
27.91045	35551
27.91857	35011
27.92668	35150
27.93482	33022
27.94293	30154
27.95107	30699
27.95918	35621
27.96730	35898
27.97543	38178
27.98355	38660
27.99167	44937
27.99980	43433
28.00792	46943
28.01605	48994
28.02417	43984
28.03228	53452
28.04042	54833
28.04853	53737
28.05667	48281
28.06478	49351
28.07290	42556
28.08103	43625
28.08915	46678
28.09727	49809
28.10540	53132
28.11352	48588
28.12165	47649
28.12977	45429
28.13788	42225
28.14602	42621
28.15413	42221
28.16227	41305
28.17038	41835
28.17850	39310
28.18663	35812
28.19475	38289
28.20288	38915
28.21100	43721
28.21912	38491
28.22725	41571
28.23537	40767
28.24348	40815
28.25162	40183
28.25973	51719
28.26787	63532
28.27598	83763
28.28410	102104
28.29223	126222
28.30035	145528
28.30848	162004
28.31660	167389
28.32472	182626
28.33285	181446
28.34097	170813
28.34908	158627
28.35722	146752
28.36533	133495
28.37347	124835
28.38158	105888
28.38970	102021
28.39783	89495
28.40595	78828
28.41408	79532
28.42220	70806
28.43032	66782
28.43845	62492
28.44657	58848
28.45470	55147
28.46282	55575
28.47093	54568
28.47907	54887
28.48718	53346
28.49530	51968
28.50343	47826
28.51155	52791
28.51968	50612
28.52780	45053
28.53592	46819
28.54405	45654
28.55217	46928
28.56030	44883
28.56842	45543
28.57653	40785
28.58467	41074
28.59278	42524
28.60090	45500
28.60903	45945
28.61715	46284
28.62528	42666
28.63340	43949
28.64152	46008
28.64965	50299
28.65777	48048
28.66590	47383
28.67402	48325
28.68213	48240
28.69027	55692
28.69838	62158
28.70652	70578
28.71463	75221
28.72275	70095
28.73088	62677
28.73900	57301
28.74712	46210
28.75525	43540
28.76337	37750
28.77150	40153
28.77962	36795
28.78773	39786
28.79587	39934
28.80398	40261
28.81212	43037
28.82023	37526
28.82835	38477
28.83648	34997
28.84460	39177
28.85273	39355
28.86085	39737
28.86897	38064
28.87710	41532
28.88522	42881
28.89333	40745
28.90147	43374
28.90958	43851
28.91772	37930
28.92583	42972
28.93395	39153
28.94208	44924
28.95020	42096
28.95833	42726
28.96645	42617
28.97457	41998
28.98270	39841
28.99082	37007
28.99895	38652
29.00707	36784
29.01518	34327
29.02332	36978
29.03143	34557
29.03955	37755
29.04768	36385
29.05580	38246
29.06393	45442
29.07205	42741
29.08017	43646
29.08830	39377
29.09642	38962
29.10455	41990
29.11267	38805
29.12078	38230
29.12892	34077
29.13703	32831
29.14515	33749
29.15328	36457
29.16140	42419
29.16953	34042
29.17765	35085
29.18577	38007
29.19390	41024
29.20202	40854
29.21015	46616
29.21827	47374
29.22638	46479
29.23452	46045
29.24263	46107
29.25077	46208
29.25888	46437
29.26700	46225
29.27513	42966
29.28325	41530
29.29137	39735
29.29950	36570
29.30762	35069
29.31575	36803
29.32387	34383
29.33198	39296
29.34012	37223
29.34823	34940
29.35637	32288
29.36448	34507
29.37260	34957
29.38073	30145
29.38885	35001
29.39697	37575
29.40510	32597
29.41322	36277
29.42135	34152
29.42947	36191
29.43758	35444
29.44572	33497
29.45383	34155
29.46197	34175
29.47008	32548
29.47820	32521
29.48633	35865
29.49445	36514
29.50258	36379
29.51070	38615
29.51882	37759
29.52695	33431
29.53507	36739
29.54318	33074
29.55132	31701
29.55943	31952
29.56757	37204
29.57568	41125
29.58380	36960
29.59193	40608
29.60005	42860
29.60818	42932
29.61630	39566
29.62442	36455
29.63255	35866
29.64067	37147
29.64880	39323
29.65692	36121
29.66503	34824
29.67317	36598
29.68128	35130
29.68940	38777
29.69753	38110
29.70565	31898
29.71378	36169
29.72190	30736
29.73002	34085
29.73815	33303
29.74627	34049
29.75440	33700
29.76252	32761
29.77063	32188
29.77877	30929
29.78688	28689
29.79500	31549
29.80313	29415
29.81125	29820
29.81938	33218
29.82750	33020
29.83562	35891
29.84375	33705
29.85187	32300
29.86000	37145
29.86812	40399
29.87623	52608
29.88437	65374
29.89248	73108
29.90062	82985
29.90873	94702
29.91685	101769
29.92498	113625
29.93310	122511
29.94122	132827
29.94935	140442
29.95747	141244
29.96560	141093
29.97372	141537
29.98183	140692
29.98997	130729
29.99808	123376
30.00622	113901
30.01433	114221
30.02245	99434
30.03058	95345
30.03870	91325
30.04683	90045
30.05495	86472
30.06307	81702
30.07120	73012
30.07932	74182
30.08743	74021
30.09557	70048
30.10368	66610
30.11182	63043
30.11993	65557
30.12805	57085
30.13618	58641
30.14430	58236
30.15243	53085
30.16055	56573
30.16867	53819
30.17680	53209
30.18492	53581
30.19303	51812
30.20117	53907
30.20928	49497
30.21742	46401
30.22553	52171
30.23365	45783
30.24178	48469
30.24990	44007
30.25803	44996
30.26615	45587
30.27427	44175
30.28240	42488
30.29052	42528
30.29865	39791
30.30677	40946
30.31488	42423
30.32302	41560
30.33113	41123
30.33925	42386
30.34738	42484
30.35550	40164
30.36363	37690
30.37175	35902
30.37987	37674
30.38800	40155
30.39612	40816
30.40425	43006
30.41237	44824
30.42048	38190
30.42862	38701
30.43673	37923
30.44485	36645
30.45298	39716
30.46110	37282
30.46923	36732
30.47735	39808
30.48547	36264
30.49360	39064
30.50172	37602
30.50985	36737
30.51797	38285
30.52608	35939
30.53422	41171
30.54233	34703
30.55047	37105
30.55858	36342
30.56670	40671
30.57483	40394
30.58295	38457
30.59107	39418
30.59920	35920
30.60732	37099
30.61545	36054
30.62357	38431
30.63168	33598
30.63982	35941
30.64793	35337
30.65607	36505
30.66418	38473
30.67230	36771
30.68043	33606
30.68855	33038
30.69668	33037
30.70480	36798
30.71292	32119
30.72105	33959
30.72917	33149
30.73728	36774
30.74542	38558
30.75353	39225
30.76167	42818
30.76978	46221
30.77790	58148
30.78603	67767
30.79415	82956
30.80228	86305
30.81040	84672
30.81852	78385
30.82665	71165
30.83477	60522
30.84288	49648
30.85102	43307
30.85913	41260
30.86727	42203
30.87538	38390
30.88350	35275
30.89163	39962
30.89975	34796
30.90788	35418
30.91600	37301
30.92412	37123
30.93225	35021
30.94037	36165
30.94850	34027
30.95662	36005
30.96473	36972
30.97287	36077
30.98098	36075
30.98910	38664
30.99723	34018
31.00535	33283
31.01348	35928
31.02160	37139
31.02972	35794
31.03785	36426
31.04597	35440
31.05410	37440
31.06222	38747
31.07033	37412
31.07847	38272
31.08658	41400
31.09472	44360
31.10283	43546
31.11095	43063
31.11908	42043
31.12720	38222
31.13532	36504
31.14345	38009
31.15157	35972
31.15970	43004
31.16782	48657
31.17593	55207
31.18407	70157
31.19218	92228
31.20032	108619
31.20843	114079
31.21655	114071
31.22468	103946
31.23280	88602
31.24092	67615
31.24905	50593
31.25717	50603
31.26530	44835
31.27342	40167
31.28153	39728
31.28967	40931
31.29778	35608
31.30592	37246
31.31403	37460
31.32215	35533
31.33028	39769
31.33840	38184
31.34653	34146
31.35465	38219
31.36277	41564
31.37090	36082
31.37902	39263
31.38713	35976
31.39527	34702
31.40338	35842
31.41152	35148
31.41963	35183
31.42775	34818
31.43588	37282
31.44400	35921
31.45213	36666
31.46025	38617
31.46837	40291
31.47650	39984
31.48462	46222
31.49275	40602
31.50087	41991
31.50898	40574
31.51712	39626
31.52523	39863
31.53335	38997
31.54148	42687
31.54960	45176
31.55773	41608
31.56585	44958
31.57397	42107
31.58210	39081
31.59022	39504
31.59835	37790
31.60647	36656
31.61458	38365
31.62272	33389
31.63083	34999
31.63895	40140
31.64708	35116
31.65520	33846
31.66333	38640
31.67145	39855
31.67957	45638
31.68770	46272
31.69582	45337
31.70395	48642
31.71207	44785
31.72018	42098
31.72832	38378
31.73643	36149
31.74457	37967
31.75268	33578
31.76080	36301
31.76893	34243
31.77705	37756
31.78517	37036
31.79330	37663
31.80142	39281
31.80955	38223
31.81767	39790
31.82578	46725
31.83392	53626
31.84203	60826
31.85017	71077
31.85828	87610
31.86640	96306
31.87453	106974
31.88265	109430
31.89077	109405
31.89890	111839
31.90702	116239
31.91515	110084
31.92327	108427
31.93138	100257
31.93952	97088
31.94763	88616
31.95577	79896
31.96388	77193
31.97200	74266
31.98013	69192
31.98825	72736
31.99638	64740
32.00450	66278
32.01262	56687
32.02075	58334
32.02887	60678
32.03698	54213
32.04512	52762
32.05323	49458
32.06137	49240
32.06948	45642
32.07760	45691
32.08573	45816
32.09385	44251
32.10198	43684
32.11010	42148
32.11822	42718
32.12635	41600
32.13447	43697
32.14260	41481
32.15072	40628
32.15883	41796
32.16697	40836
32.17508	41080
32.18320	43286
32.19133	37148
32.19945	36779
32.20758	41047
32.21570	43171
32.22382	43501
32.23195	43882
32.24007	40018
32.24820	41892
32.25632	40262
32.26443	40394
32.27257	44075
32.28068	39981
32.28880	41541
32.29693	37201
32.30505	38266
32.31318	41967
32.32130	41529
32.32942	41706
32.33755	37965
32.34567	46378
32.35380	42385
32.36192	39342
32.37003	40058
32.37817	40139
32.38628	39692
32.39442	43217
32.40253	35339
32.41065	36512
32.41878	39251
32.42690	36805
32.43502	36778
32.44315	37862
32.45127	37580
32.45940	37908
32.46752	39146
32.47563	38608
32.48377	42479
32.49188	37855
32.50002	39192
32.50813	39312
32.51625	36498
32.52438	37893
32.53250	38023
32.54063	37016
32.54875	38466
32.55687	39977
32.56500	40365
32.57312	42599
32.58123	51438
32.58937	58471
32.59748	66612
32.60562	64729
32.61373	57145
32.62185	54748
32.62998	49824
32.63810	41778
32.64623	45014
32.65435	39705
32.66247	39717
32.67060	37295
32.67872	40115
32.68683	38623
32.69497	40139
32.70308	44995
32.71122	41060
32.71933	41271
32.72745	40016
32.73558	44877
32.74370	39775
32.75183	38924
32.75995	37059
32.76807	36851
32.77620	34838
32.78432	36243
32.79245	38138
32.80057	34991
32.80868	36493
32.81682	38718
32.82493	34294
32.83305	37974
32.84118	34731
32.84930	41051
32.85743	35309
32.86555	34254
32.87367	38635
32.88180	38230
32.88992	45005
32.89805	39118
32.90617	39506
32.91428	37923
32.92242	36995
32.93053	35195
32.93865	39389
32.94678	37796
32.95490	40339
32.96303	42784
32.97115	48685
32.97927	57096
32.98740	60976
32.99552	63320
33.00365	63023
33.01177	57156
33.01988	58785
33.02802	57272
33.03613	44875
33.04427	43498
33.05238	42588
33.06050	45035
33.06863	41538
33.07675	40255
33.08487	41745
33.09300	45526
33.10112	48465
33.10925	51371
33.11737	50817
33.12548	49200
33.13362	47329
33.14173	47481
33.14987	41864
33.15798	41674
33.16610	41189
33.17423	38377
33.18235	41833
33.19048	39219
33.19860	40796
33.20672	39984
33.21485	39822
33.22297	37798
33.23108	40062
33.23922	38938
33.24733	40074
33.25547	39994
33.26358	41245
33.27170	39496
33.27983	40780
33.28795	40345
33.29608	39109
33.30420	38774
33.31232	41979
33.32045	39754
33.32857	40550
33.33670	40680
33.34482	39249
33.35293	40719
33.36107	37246
33.36918	39411
33.37730	36772
33.38543	37150
33.39355	39051
33.40168	37143
33.40980	36974
33.41792	38527
33.42605	38227
33.43417	36887
33.44230	35465
33.45042	38711
33.45853	37310
33.46667	38928
33.47478	36218
33.48290	37890
33.49103	36196
33.49915	37703
33.50728	39096
33.51540	38795
33.52352	40798
33.53165	42091
33.53977	37893
33.54790	39396
33.55602	41179
33.56413	42092
33.57227	40138
33.58038	39724
33.58852	37253
33.59663	34394
33.60475	36646
33.61288	38801
33.62100	35976
33.62912	35338
33.63725	38627
33.64537	42904
33.65350	38020
33.66162	39934
33.66973	40365
33.67787	40962
33.68598	39151
33.69412	42386
33.70223	43230
33.71035	42068
33.71848	45792
33.72660	43080
33.73472	42476
33.74285	43650
33.75097	43556
33.75910	45859
33.76722	46676
33.77533	45763
33.78347	49542
33.79158	49661
33.79972	48778
33.80783	48382
33.81595	50110
33.82408	52469
33.83220	50205
33.84033	49499
33.84845	49201
33.85657	50800
33.86470	51000
33.87282	49559
33.88093	58062
33.88907	49241
33.89718	50956
33.90532	53657
33.91343	50210
33.92155	47588
33.92968	47258
33.93780	48038
33.94593	45882
33.95405	44663
33.96217	48230
33.97030	47174
33.97842	44135
33.98655	46152
33.99467	45856
34.00278	47114
34.01092	44263
34.01903	42814
34.02715	43568
34.03528	44066
34.04340	44161
34.05153	46628
34.05965	43597
34.06777	43236
34.07590	43455
34.08402	43667
34.09215	41984
34.10027	42745
34.10838	43349
34.11652	41528
34.12463	42330
34.13275	39304
34.14088	42728
34.14900	42376
34.15713	42173
34.16525	41742
34.17337	39156
34.18150	39997
34.18962	40250
34.19775	40206
34.20587	40596
34.21398	42192
34.22212	38831
34.23023	40942
34.23837	41736
34.24648	41116
34.25460	39633
34.26273	43364
34.27085	42906
34.27897	38773
34.28710	37771
34.29522	39881
34.30335	44998
34.31147	42607
34.31958	43386
34.32772	43178
34.33583	42463
34.34397	46294
34.35208	38888
34.36020	45401
34.36833	38863
34.37645	43541
34.38458	42439
34.39270	37807
34.40082	40681
34.40895	37505
34.41707	44707
34.42518	45098
34.43332	46022
34.44143	57242
34.44957	69226
34.45768	82797
34.46580	98562
34.47393	111759
34.48205	124941
34.49018	125913
34.49830	128129
34.50642	120780
34.51455	111637
34.52267	103316
34.53078	93380
34.53892	91884
34.54703	80275
34.55517	78835
34.56328	72317
34.57140	72442
34.57953	67452
34.58765	64397
34.59578	61269
34.60390	65879
34.61202	61957
34.62015	62145
34.62827	61270
34.63640	63683
34.64452	59742
34.65263	62430
34.66077	60199
34.66888	61147
34.67700	58813
34.68513	62453
34.69325	57343
34.70138	62379
34.70950	54143
34.71762	54507
34.72575	53766
34.73387	52254
34.74200	54239
34.75012	55226
34.75823	51377
34.76637	51819
34.77448	48958
34.78260	46954
34.79073	46133
34.79885	51268
34.80698	52877
34.81510	45285
34.82322	46737
34.83135	51905
34.83947	52348
34.84760	48891
34.85572	47943
34.86383	49634
34.87197	47735
34.88008	50542
34.88822	47381
34.89633	51215
34.90445	49255
34.91258	46075
34.92070	44540
34.92882	44683
34.93695	47433
34.94507	48108
34.95320	51643
34.96132	49811
34.96943	47560
34.97757	51914
34.98568	50453
34.99382	46930
35.00193	44984
35.01005	44958
35.01818	46814
35.02630	45992
35.03443	45034
35.04255	45931
35.05067	44321
35.05880	44977
35.06692	48304
35.07503	47245
35.08317	49193
35.09128	46971
35.09942	48854
35.10753	50038
35.11565	47275
35.12378	47230
35.13190	45079
35.14003	44486
35.14815	42676
35.15627	44117
35.16440	46044
35.17252	51085
35.18063	46469
35.18877	44699
35.19688	44268
35.20502	44105
35.21313	44429
35.22125	49505
35.22938	46727
35.23750	45837
35.24563	46131
35.25375	47989
35.26187	45695
35.27000	45221
35.27812	45524
35.28625	47861
35.29437	48785
35.30248	44753
35.31062	43833
35.31873	48302
35.32685	48826
35.33498	46378
35.34310	46213
35.35123	46391
35.35935	48057
35.36747	46227
35.37560	47916
35.38372	51252
35.39185	51415
35.39997	55610
35.40808	55495
35.41622	59418
35.42433	61765
35.43247	61604
35.44058	55422
35.44870	53023
35.45683	54238
35.46495	60264
35.47307	55656
35.48120	53231
35.48932	52217
35.49745	53023
35.50557	59456
35.51368	55598
35.52182	58565
35.52993	58834
35.53807	54344
35.54618	54131
35.55430	52075
35.56243	48870
35.57055	54079
35.57867	52810
35.58680	52504
35.59492	49584
35.60305	54182
35.61117	54189
35.61928	51582
35.62742	51723
35.63553	53289
35.64367	49009
35.65178	46535
35.65990	50332
35.66803	47212
35.67615	49167
35.68428	46379
35.69240	50866
35.70052	45933
35.70865	45179
35.71677	48250
35.72488	45473
35.73302	50504
35.74113	51613
35.74927	53198
35.75738	51405
35.76550	51314
35.77363	52252
35.78175	49619
35.78988	51550
35.79800	47506
35.80612	49384
35.81425	46591
35.82237	51391
35.83050	46376
35.83862	50469
35.84673	45408
35.85487	45039
35.86298	48569
35.87110	48256
35.87923	50717
35.88735	51858
35.89548	49666
35.90360	49361
35.91172	46645
35.91985	47936
35.92797	49887
35.93610	48264
35.94422	48411
35.95233	52135
35.96047	47476
35.96858	51803
35.97670	49876
35.98483	45751
35.99295	51658
36.00108	49285
36.00920	51393
36.01732	54548
36.02545	52456
36.03357	51647
36.04170	52832
36.04982	53856
36.05793	51699
36.06607	53507
36.07418	48063
36.08232	49203
36.09043	51122
36.09855	45324
36.10668	50184
36.11480	49688
36.12292	53556
36.13105	50689
36.13917	49426
36.14730	52242
36.15542	53906
36.16353	48846
36.17167	50645
36.17978	47676
36.18792	49696
36.19603	49258
36.20415	50383
36.21228	53547
36.22040	60330
36.22852	70139
36.23665	80800
36.24477	86043
36.25290	86740
36.26102	79763
36.26913	71346
36.27727	66351
36.28538	58001
36.29352	51768
36.30163	56075
36.30975	52582
36.31788	54916
36.32600	52713
36.33413	55499
36.34225	51194
36.35037	51777
36.35850	55353
36.36662	53512
36.37473	56486
36.38287	55797
36.39098	53565
36.39912	54393
36.40723	54004
36.41535	56663
36.42348	55495
36.43160	54694
36.43973	51067
36.44785	50872
36.45597	48062
36.46410	53643
36.47222	50958
36.48035	52841
36.48847	50891
36.49658	49252
36.50472	56125
36.51283	56879
36.52095	49970
36.52908	51936
36.53720	50988
36.54533	49639
36.55345	55775
36.56157	59529
36.56970	53705
36.57782	54850
36.58595	59518
36.59407	56604
36.60218	54063
36.61032	54858
36.61843	56675
36.62655	50792
36.63468	49144
36.64280	53771
36.65093	53408
36.65905	52122
36.66717	54801
36.67530	52512
36.68342	52450
36.69155	53905
36.69967	53775
36.70778	54689
36.71592	54812
36.72403	53637
36.73217	58055
36.74028	52957
36.74840	55712
36.75653	51245
36.76465	56923
36.77277	55408
36.78090	52121
36.78902	52388
36.79715	50545
36.80527	52021
36.81338	55287
36.82152	52386
36.82963	55443
36.83777	57276
36.84588	52664
36.85400	58725
36.86213	54394
36.87025	56595
36.87838	55210
36.88650	54759
36.89462	55124
36.90275	55178
36.91087	58138
36.91898	61690
36.92712	58365
36.93523	62051
36.94337	62440
36.95148	64467
36.95960	70098
36.96773	67068
36.97585	65332
36.98398	68912
36.99210	69437
37.00022	72619
37.00835	77416
37.01647	86805
37.02458	86545
37.03272	87447
37.04083	90653
37.04897	77413
37.05708	70805
37.06520	68177
37.07333	61338
37.08145	58534
37.08958	61201
37.09770	59491
37.10582	65174
37.11395	65320
37.12207	60492
37.13020	63065
37.13832	59563
37.14643	63823
37.15457	60880
37.16268	62383
37.17080	62001
37.17893	59278
37.18705	59920
37.19518	60747
37.20330	58024
37.21142	63875
37.21955	61169
37.22767	63613
37.23580	66426
37.24392	72505
37.25203	83444
37.26017	109978
37.26828	125505
37.27640	141785
37.28453	151472
37.29265	143811
37.30078	140803
37.30890	127044
37.31702	121027
37.32515	106228
37.33327	95358
37.34140	91291
37.34952	89887
37.35763	81101
37.36577	84115
37.37388	85959
37.38202	81750
37.39013	77973
37.39825	82172
37.40638	76418
37.41450	76318
37.42262	76613
37.43075	76732
37.43887	79132
37.44700	76208
37.45512	77320
37.46323	70699
37.47137	70266
37.47948	75404
37.48762	72494
