C:\MassHunter\GCMS\1\data\JTB-E02\BACandBLUE\JTB-E18-022-04.D Thu Jul 11 08:46:57 2019
Start of data points
2.09525,29273
2.10337,30446
2.11148,30943
2.11962,30630
2.12773,34865
2.13587,31437
2.14398,34134
2.15210,35559
2.16023,39338
2.16835,37358
2.17647,35539
2.18460,37426
2.19272,37657
2.20085,40785
2.20897,37013
2.21708,31709
2.22522,36196
2.23333,34930
2.24147,33167
2.24958,29630
2.25770,35142
2.26583,90241
2.27395,1005163
2.28207,2765413
2.29020,1812633
2.29832,684530
2.30645,390069
2.31457,293160
2.32268,255765
2.33082,223917
2.33893,191094
2.34707,172033
2.35518,157270
2.36330,141023
2.37143,128033
2.37955,118371
2.38768,121781
2.39580,110337
2.40392,106268
2.41205,105605
2.42017,98560
2.42828,109129
2.43642,95514
2.44453,100587
2.45267,108519
2.46078,98074
2.46890,86210
2.47703,85214
2.48515,88046
2.49328,110131
2.50140,124105
2.50952,101250
2.51765,89863
2.52577,87624
2.53390,87097
2.54202,77103
2.55013,83500
2.55827,80512
2.56638,76965
2.57450,76452
2.58263,70771
2.59075,68083
2.59888,66787
2.60700,69059
2.61512,79214
2.62325,83499
2.63137,73869
2.63950,66800
2.64762,69707
2.65573,65602
2.66387,68595
2.67198,61585
2.68010,62180
2.68823,63421
2.69635,59594
2.70448,57395
2.71260,58246
2.72072,56680
2.72885,55117
2.73697,56619
2.74510,55923
2.75322,56158
2.76133,54576
2.76947,57077
2.77758,54056
2.78572,56376
2.79383,56187
2.80195,56253
2.81008,54004
2.81820,50337
2.82632,53775
2.83445,54601
2.84257,54446
2.85070,55087
2.85882,53251
2.86693,53931
2.87507,51030
2.88318,52498
2.89132,52335
2.89943,49628
2.90755,49607
2.91568,51841
2.92380,49553
2.93193,49259
2.94005,53229
2.94817,49433
2.95630,50406
2.96442,50250
2.97253,51986
2.98067,49822
2.98878,49892
2.99692,47034
3.00503,48316
3.01315,47001
3.02128,50918
3.02940,47593
3.03753,48303
3.04565,46233
3.05377,49523
3.06190,48982
3.07002,49369
3.07813,51185
3.08627,50076
3.09438,48957
3.10252,53774
3.11063,71643
3.11875,76504
3.12688,65370
3.13500,63380
3.14313,60631
3.15125,52952
3.15937,55514
3.16750,52783
3.17562,51244
3.18375,51889
3.19187,49265
3.19998,50960
3.20812,51081
3.21623,46229
3.22435,51527
3.23248,52617
3.24060,49423
3.24873,50296
3.25685,48327
3.26497,44763
3.27310,51164
3.28122,70015
3.28935,312318
3.29747,1623140
3.30558,5213080
3.31372,9140155
3.32183,9892536
3.32995,7752639
3.33808,5400090
3.34620,3969643
3.35433,3135117
3.36245,2536146
3.37057,2130626
3.37870,1833381
3.38682,1581515
3.39495,1420547
3.40307,1269803
3.41118,1159243
3.41932,1053330
3.42743,984899
3.43557,908139
3.44368,859645
3.45180,791801
3.45993,770382
3.46805,726507
3.47617,686244
3.48430,675183
3.49242,638514
3.50055,603807
3.50867,593915
3.51678,562627
3.52492,542977
3.53303,518206
3.54117,497709
3.54928,484924
3.55740,456236
3.56553,458264
3.57365,439588
3.58178,432452
3.58990,427112
3.59802,424597
3.60615,413438
3.61427,409659
3.62238,397841
3.63052,392364
3.63863,382301
3.64677,371061
3.65488,358536
3.66300,354165
3.67113,338483
3.67925,343958
3.68738,341344
3.69550,329395
3.70362,329478
3.71175,321845
3.71987,323521
3.72800,318020
3.73612,307955
3.74423,300977
3.75237,294920
3.76048,285127
3.76860,294260
3.77673,293825
3.78485,291363
3.79298,270897
3.80110,285246
3.80922,276112
3.81735,271601
3.82547,275782
3.83360,280047
3.84172,264237
3.84983,260095
3.85797,255690
3.86608,252563
3.87420,246932
3.88233,252688
3.89045,242320
3.89858,243463
3.90670,239686
3.91482,242463
3.92295,237767
3.93107,228919
3.93920,229927
3.94732,234090
3.95543,227364
3.96357,227136
3.97168,212841
3.97982,221883
3.98793,221569
3.99605,218298
4.00418,212431
4.01230,222102
4.02042,222312
4.02855,220812
4.03667,219374
4.04480,211218
4.05292,212511
4.06103,210130
4.06917,207165
4.07728,203867
4.08542,203261
4.09353,201144
4.10165,196370
4.10978,198089
4.11790,201824
4.12602,200814
4.13415,199180
4.14227,225051
4.15040,273648
4.15852,276558
4.16663,258392
4.17477,225526
4.18288,215708
4.19102,205434
4.19913,194743
4.20725,191747
4.21538,197325
4.22350,204705
4.23163,216782
4.23975,226292
4.24787,222207
4.25600,207491
4.26412,197367
4.27223,198446
4.28037,189023
4.28848,191666
4.29662,187905
4.30473,184146
4.31285,180325
4.32098,182382
4.32910,187546
4.33723,178724
4.34535,179507
4.35347,172606
4.36160,178230
4.36972,177768
4.37783,172391
4.38597,173056
4.39408,174588
4.40222,168502
4.41033,167931
4.41845,166739
4.42658,161380
4.43470,168909
4.44283,163557
4.45095,164025
4.45907,160879
4.46720,157514
4.47532,163814
4.48345,159083
4.49157,156386
4.49968,158290
4.50782,154956
4.51593,153113
4.52405,153555
4.53218,148822
4.54030,152338
4.54843,150977
4.55655,153196
4.56467,151669
4.57280,149050
4.58092,154200
4.58905,148441
4.59717,143768
4.60528,143762
4.61342,145585
4.62153,148726
4.62967,148919
4.63778,143419
4.64590,143670
4.65403,141042
4.66215,147227
4.67027,144137
4.67840,143933
4.68652,145424
4.69465,137647
4.70277,139813
4.71088,139685
4.71902,137998
4.72713,133381
4.73527,142061
4.74338,134935
4.75150,135665
4.75963,139746
4.76775,133442
4.77588,135430
4.78400,128392
4.79212,131706
4.80025,126859
4.80837,133329
4.81648,132332
4.82462,135384
4.83273,131966
4.84087,133333
4.84898,131239
4.85710,132377
4.86523,132096
4.87335,138444
4.88148,130509
4.88960,126529
4.89772,131810
4.90585,128257
4.91397,131413
4.92208,144273
4.93022,218304
4.93833,545380
4.94647,1484824
4.95458,3144491
4.96270,4891411
4.97083,5410001
4.97895,4764887
4.98708,3563251
4.99520,2547940
5.00332,1845414
5.01145,1454615
5.01957,1184496
5.02770,1021687
5.03582,884978
5.04393,794998
5.05207,727116
5.06018,672033
5.06830,615746
5.07643,584201
5.08455,543805
5.09268,506625
5.10080,492565
5.10892,475260
5.11705,457939
5.12517,444081
5.13330,420948
5.14142,411677
5.14953,402259
5.15767,395418
5.16578,387811
5.17390,361128
5.18203,362911
5.19015,353275
5.19828,350048
5.20640,344953
5.21452,324100
5.22265,323746
5.23077,332632
5.23890,346262
5.24702,344554
5.25513,343254
5.26327,329896
5.27138,312459
5.27952,308424
5.28763,289546
5.29575,277450
5.30388,277582
5.31200,269255
5.32012,273384
5.32825,268920
5.33637,262108
5.34450,261185
5.35262,265824
5.36073,261154
5.36887,241766
5.37698,248068
5.38512,247800
5.39323,249114
5.40135,237960
5.40948,243437
5.41760,238601
5.42573,230015
5.43385,223435
5.44197,229500
5.45010,221358
5.45822,231003
5.46633,223279
5.47447,219608
5.48258,223177
5.49072,220141
5.49883,210616
5.50695,210470
5.51508,205318
5.52320,211667
5.53133,217253
5.53945,210733
5.54757,208975
5.55570,209409
5.56382,208771
5.57193,198599
5.58007,203636
5.58818,202061
5.59632,206924
5.60443,201313
5.61255,204210
5.62068,202501
5.62880,207486
5.63693,205967
5.64505,209512
5.65317,208919
5.66130,205755
5.66942,203892
5.67755,214982
5.68567,229298
5.69378,249092
5.70192,236964
5.71003,229763
5.71815,206129
5.72628,193344
5.73440,198205
5.74253,192663
5.75065,189766
5.75877,182466
5.76690,176796
5.77502,184359
5.78315,180855
5.79127,177870
5.79938,172958
5.80752,174832
5.81563,174813
5.82377,175177
5.83188,171517
5.84000,167979
5.84813,168019
5.85625,178958
5.86437,166689
5.87250,165392
5.88062,168497
5.88875,165464
5.89687,166199
5.90498,162528
5.91312,149549
5.92123,127675
5.92937,111310
5.93748,110171
5.94560,113977
5.95373,114406
5.96185,109857
5.96997,110666
5.97810,111673
5.98622,116400
5.99435,121618
6.00247,112873
6.01058,110591
6.01872,114774
6.02683,105458
6.03497,109352
6.04308,106726
6.05120,106620
6.05933,106856
6.06745,110047
6.07558,110376
6.08370,109975
6.09182,103339
6.09995,109314
6.10807,105711
6.11618,110644
6.12432,110547
6.13243,111495
6.14057,106498
6.14868,110068
6.15680,112575
6.16493,115866
6.17305,118664
6.18118,114251
6.18930,122576
6.19742,122429
6.20555,122705
6.21367,118419
6.22178,115610
6.22992,117682
6.23803,124576
6.24617,122210
6.25428,122545
6.26240,124548
6.27053,124186
6.27865,130397
6.28678,134247
6.29490,134036
6.30302,125799
6.31115,129312
6.31927,134737
6.32740,133469
6.33552,133438
6.34363,143584
6.35177,139727
6.35988,140775
6.36800,139001
6.37613,141737
6.38425,138184
6.39238,147186
6.40050,140943
6.40862,151328
6.41675,142856
6.42487,147233
6.43300,152709
6.44112,151809
6.44923,149347
6.45737,154911
6.46548,156063
6.47362,157553
6.48173,156423
6.48985,156218
6.49798,158535
6.50610,165082
6.51422,160463
6.52235,150333
6.53047,140140
6.53860,133364
6.54672,128330
6.55483,119800
6.56297,117724
6.57108,126298
6.57922,115093
6.58733,114206
6.59545,114412
6.60358,107663
6.61170,112857
6.61982,112405
6.62795,111230
6.63607,106992
6.64420,106971
6.65232,107755
6.66043,106769
6.66857,105449
6.67668,107007
6.68482,104446
6.69293,96896
6.70105,106124
6.70918,106913
6.71730,100356
6.72543,98141
6.73355,103385
6.74167,95721
6.74980,100698
6.75792,97833
6.76603,95077
6.77417,96764
6.78228,92226
6.79042,90096
6.79853,97877
6.80665,102948
6.81478,94383
6.82290,94163
6.83103,102553
6.83915,89068
6.84727,88923
6.85540,84818
6.86352,72713
6.87165,66862
6.87977,54881
6.88788,50411
6.89602,52365
6.90413,54172
6.91225,54355
6.92038,54158
6.92850,47853
6.93663,51130
6.94475,50048
6.95287,56897
6.96100,49710
6.96912,50160
6.97725,47601
6.98537,51803
6.99348,48270
7.00162,47824
7.00973,48346
7.01785,47775
7.02598,48775
7.03410,49077
7.04223,49734
7.05035,49159
7.05847,48974
7.06660,50276
7.07472,52985
7.08285,49488
7.09097,51986
7.09908,50150
7.10722,52811
7.11533,54263
7.12347,52027
7.13158,50875
7.13970,49345
7.14783,51458
7.15595,50010
7.16407,49013
7.17220,53588
7.18032,52374
7.18845,57645
7.19657,51605
7.20468,52256
7.21282,52404
7.22093,50653
7.22907,51511
7.23718,52685
7.24530,53852
7.25343,55291
7.26155,50642
7.26968,55504
7.27780,52718
7.28592,52100
7.29405,48246
7.30217,49882
7.31028,51842
7.31842,51560
7.32653,53521
7.33467,49632
7.34278,46478
7.35090,49684
7.35903,49710
7.36715,49693
7.37528,50139
7.38340,49110
7.39152,53492
7.39965,50358
7.40777,49573
7.41588,52044
7.42402,51613
7.43213,52298
7.44027,50431
7.44838,54818
7.45650,56838
7.46463,59439
7.47275,59807
7.48088,56248
7.48900,51709
7.49712,51503
7.50525,50861
7.51337,49443
7.52150,50344
7.52962,48991
7.53773,47520
7.54587,53056
7.55398,47651
7.56210,51913
7.57023,50758
7.57835,47872
7.58648,49562
7.59460,50566
7.60272,47651
7.61085,46141
7.61897,46270
7.62710,45835
7.63522,51590
7.64333,48360
7.65147,46950
7.65958,45916
7.66770,45119
7.67583,47522
7.68395,51068
7.69208,44951
7.70020,48184
7.70832,48856
7.71645,47363
7.72457,51096
7.73270,49271
7.74082,49131
7.74893,48184
7.75707,46276
7.76518,48511
7.77332,47881
7.78143,43745
7.78955,47067
7.79768,48774
7.80580,48548
7.81392,49631
7.82205,45120
7.83017,45998
7.83830,46113
7.84642,44651
7.85453,46003
7.86267,45629
7.87078,44628
7.87892,46380
7.88703,43439
7.89515,44292
7.90328,46649
7.91140,44743
7.91953,40836
7.92765,44978
7.93577,40971
7.94390,43209
7.95202,42350
7.96013,39321
7.96827,39101
7.97638,41511
7.98452,44269
7.99263,43513
8.00075,40753
8.00888,42301
8.01700,41213
8.02513,41308
8.03325,41425
8.04137,42414
8.04950,36875
8.05762,39846
8.06573,40427
8.07387,48843
8.08198,41929
8.09012,40013
8.09823,41620
8.10635,42498
8.11448,42226
8.12260,43921
8.13073,43322
8.13885,41687
8.14697,44421
8.15510,40896
8.16322,45018
8.17135,44496
8.17947,41630
8.18758,43061
8.19572,42200
8.20383,44517
8.21195,40179
8.22008,46767
8.22820,41227
8.23633,41504
8.24445,39949
8.25257,40588
8.26070,38912
8.26882,38139
8.27695,38565
8.28507,43233
8.29318,38554
8.30132,41424
8.30943,36493
8.31757,42020
8.32568,39587
8.33380,41220
8.34193,41712
8.35005,45183
8.35817,42540
8.36630,44284
8.37442,43862
8.38255,43516
8.39067,43839
8.39878,61052
8.40692,304197
8.41503,548215
8.42317,322440
8.43128,130591
8.43940,80999
8.44753,67026
8.45565,65505
8.46377,59008
8.47190,55597
8.48002,56322
8.48815,54010
8.49627,53664
8.50438,57078
8.51252,57889
8.52063,59704
8.52877,59230
8.53688,58931
8.54500,58497
8.55313,55298
8.56125,54043
8.56938,51708
8.57750,51471
8.58562,53447
8.59375,53738
8.60187,53722
8.60998,51739
8.61812,50496
8.62623,50407
8.63437,48798
8.64248,47465
8.65060,48060
8.65873,46895
8.66685,50158
8.67498,50032
8.68310,46832
8.69122,48910
8.69935,45964
8.70747,45830
8.71558,47382
8.72372,47247
8.73183,46718
8.73997,54065
8.74808,66899
8.75620,132544
8.76433,312427
8.77245,657122
8.78058,1149838
8.78870,1531207
8.79682,1559145
8.80495,1287628
8.81307,1123364
8.82120,2140386
8.82932,3446321
8.83743,2614950
8.84557,1541901
8.85368,1090814
8.86180,854504
8.86993,693449
8.87805,588857
8.88618,507555
8.89430,455459
8.90242,399655
8.91055,365873
8.91867,323452
8.92680,302955
8.93492,282254
8.94303,268212
8.95117,246860
8.95928,236621
8.96742,229905
8.97553,208665
8.98365,213393
8.99178,197402
8.99990,192202
9.00802,183777
9.01615,181448
9.02427,174233
9.03240,173410
9.04052,164558
9.04863,158312
9.05677,156830
9.06488,155802
9.07302,158203
9.08113,150097
9.08925,148611
9.09738,142216
9.10550,135455
9.11362,136217
9.12175,134140
9.12987,133492
9.13800,132160
9.14612,128898
9.15423,127782
9.16237,123491
9.17048,123827
9.17862,122317
9.18673,125339
9.19485,126074
9.20298,128420
9.21110,124610
9.21923,122001
9.22735,122535
9.23547,120851
9.24360,125642
9.25172,142063
9.25983,139867
9.26797,128870
9.27608,119651
9.28422,112303
9.29233,106467
9.30045,108793
9.30858,105109
9.31670,129338
9.32483,360846
9.33295,1124859
9.34107,1718809
9.34920,1441943
9.35732,945137
9.36545,638341
9.37357,490333
9.38168,403710
9.38982,344040
9.39793,301759
9.40605,265532
9.41418,227888
9.42230,213129
9.43043,197159
9.43855,183542
9.44667,172945
9.45480,161698
9.46292,154300
9.47105,142555
9.47917,147772
9.48728,137042
9.49542,130110
9.50353,121064
9.51165,123778
9.51978,116973
9.52790,115357
9.53603,110679
9.54415,110672
9.55227,97461
9.56040,90005
9.56852,82696
9.57665,81385
9.58477,74589
9.59288,81615
9.60102,74267
9.60913,74140
9.61727,73389
9.62538,70312
9.63350,73543
9.64163,66527
9.64975,71242
9.65787,68825
9.66600,65024
9.67412,61906
9.68225,64324
9.69037,65699
9.69848,61151
9.70662,59604
9.71473,59944
9.72287,62928
9.73098,61362
9.73910,56663
9.74723,59436
9.75535,62741
9.76347,67479
9.77160,64978
9.77972,64707
9.78785,66136
9.79597,62582
9.80408,64606
9.81222,61347
9.82033,57383
9.82847,57963
9.83658,62318
9.84470,65700
9.85283,68733
9.86095,69478
9.86908,63248
9.87720,59923
9.88532,58457
9.89345,56533
9.90157,56239
9.90968,57764
9.91782,60062
9.92593,58066
9.93407,57020
9.94218,59345
9.95030,55325
9.95843,59628
9.96655,56850
9.97468,57791
9.98280,57723
9.99092,62709
9.99905,61372
10.00717,69989
10.01530,75765
10.02342,75455
10.03153,78207
10.03967,85456
10.04778,86313
10.05590,93387
10.06403,93241
10.07215,100465
10.08028,99933
10.08840,108472
10.09652,112473
10.10465,100881
10.11277,84312
10.12090,78058
10.12902,77504
10.13713,71115
10.14527,74491
10.15338,67772
10.16152,70488
10.16963,65284
10.17775,63617
10.18588,68288
10.19400,62130
10.20212,68092
10.21025,65901
10.21837,66784
10.22650,65334
10.23462,69264
10.24273,70932
10.25087,71168
10.25898,69141
10.26712,63409
10.27523,65244
10.28335,63124
10.29148,60671
10.29960,60528
10.30772,65932
10.31585,66205
10.32397,72844
10.33210,66145
10.34022,66597
10.34833,62178
10.35647,63797
10.36458,63515
10.37272,63444
10.38083,62658
10.38895,62850
10.39708,63748
10.40520,59263
10.41333,56758
10.42145,54436
10.42957,55063
10.43770,58171
10.44582,55917
10.45393,55748
10.46207,53569
10.47018,56768
10.47832,57618
10.48643,57379
10.49455,60320
10.50268,54419
10.51080,56359
10.51893,50749
10.52705,60240
10.53517,53871
10.54330,53412
10.55142,56362
10.55953,57544
10.56767,53894
10.57578,54272
10.58392,55470
10.59203,51679
10.60015,50862
10.60828,51352
10.61640,53240
10.62453,52521
10.63265,50636
10.64077,58459
10.64890,54440
10.65702,47643
10.66515,56549
10.67327,50800
10.68138,52909
10.68952,51191
10.69763,51015
10.70575,53931
10.71388,50742
10.72200,51679
10.73013,48784
10.73825,49261
10.74637,52160
10.75450,53036
10.76262,54833
10.77075,51427
10.77887,53264
10.78698,51351
10.79512,51619
10.80323,47962
10.81137,49304
10.81948,51470
10.82760,49736
10.83573,50618
10.84385,46778
10.85197,51139
10.86010,48784
10.86822,50489
10.87635,49823
10.88447,51142
10.89258,49802
10.90072,44715
10.90883,49044
10.91697,50464
10.92508,47405
10.93320,48245
10.94133,53023
10.94945,69547
10.95757,128515
10.96570,252328
10.97382,395347
10.98195,422923
10.99007,351283
10.99818,250256
11.00632,197102
11.01443,154774
11.02257,127391
11.03068,115426
11.03880,105656
11.04693,84092
11.05505,91217
11.06318,77631
11.07130,69765
11.07942,68520
11.08755,60934
11.09567,62133
11.10378,62588
11.11192,58459
11.12003,57939
11.12817,54526
11.13628,56800
11.14440,55320
11.15253,56701
11.16065,57098
11.16878,56361
11.17690,62017
11.18502,66960
11.19315,74462
11.20127,72461
11.20940,69204
11.21752,67168
11.22563,60495
11.23377,56974
11.24188,58775
11.25000,54583
11.25813,53567
11.26625,52893
11.27438,54852
11.28250,48880
11.29062,51162
11.29875,54722
11.30687,51895
11.31500,52382
11.32312,50795
11.33123,51782
11.33937,52418
11.34748,49408
11.35560,53352
11.36373,50093
11.37185,45092
11.37998,51811
11.38810,47171
11.39622,49380
11.40435,44849
11.41247,47425
11.42060,50102
11.42872,48588
11.43683,46226
11.44497,43961
11.45308,48095
11.46122,45113
11.46933,49423
11.47745,43761
11.48558,47635
11.49370,45737
11.50182,49089
11.50995,54047
11.51807,49205
11.52620,46500
11.53432,45219
11.54243,47720
11.55057,44737
11.55868,46180
11.56682,46182
11.57493,45696
11.58305,44956
11.59118,46766
11.59930,47299
11.60742,46289
11.61555,47110
11.62367,44506
11.63180,45834
11.63992,43530
11.64803,45357
11.65617,44696
11.66428,44115
11.67242,46701
11.68053,46856
11.68865,47909
11.69678,50883
11.70490,48946
11.71303,42680
11.72115,48973
11.72927,48384
11.73740,49450
11.74552,48556
11.75363,48966
11.76177,47126
11.76988,44608
11.77802,48503
11.78613,50542
11.79425,48758
11.80238,48955
11.81050,47751
11.81863,44115
11.82675,46767
11.83487,46803
11.84300,46161
11.85112,48843
11.85925,43955
11.86737,49797
11.87548,44872
11.88362,44441
11.89173,44148
11.89985,45609
11.90798,46139
11.91610,49392
11.92423,44273
11.93235,45864
11.94047,43458
11.94860,46474
11.95672,43182
11.96485,43468
11.97297,44380
11.98108,45844
11.98922,47412
11.99733,44805
12.00545,44159
12.01358,46401
12.02170,45225
12.02983,43561
12.03795,42100
12.04607,43083
12.05420,46045
12.06232,45727
12.07045,46585
12.07857,51021
12.08668,45668
12.09482,45990
12.10293,44858
12.11107,43125
12.11918,45005
12.12730,44357
12.13543,45524
12.14355,47804
12.15167,44965
12.15980,46339
12.16792,48613
12.17605,46478
12.18417,48001
12.19228,47026
12.20042,44615
12.20853,48537
12.21667,43396
12.22478,43951
12.23290,45615
12.24103,45433
12.24915,47498
12.25728,41249
12.26540,44378
12.27352,41264
12.28165,43286
12.28977,45535
12.29788,43750
12.30602,44373
12.31413,44946
12.32227,42769
12.33038,41436
12.33850,45858
12.34663,43828
12.35475,45284
12.36288,40109
12.37100,41780
12.37912,47154
12.38725,43086
12.39537,42023
12.40348,41253
12.41162,41406
12.41973,46534
12.42787,45412
12.43598,41972
12.44410,47306
12.45223,44500
12.46035,52072
12.46848,46968
12.47660,46263
12.48472,46351
12.49285,47193
12.50097,45369
12.50910,43356
12.51722,43352
12.52533,40102
12.53347,42902
12.54158,44053
12.54970,44861
12.55783,42104
12.56595,43656
12.57408,41715
12.58220,43980
12.59032,40962
12.59845,42763
12.60657,42347
12.61470,40983
12.62282,46601
12.63093,41504
12.63907,43505
12.64718,40597
12.65532,41854
12.66343,40995
12.67155,38320
12.67968,39231
12.68780,39224
12.69592,41364
12.70405,44884
12.71217,42365
12.72030,43483
12.72842,45125
12.73653,46730
12.74467,44048
12.75278,43455
12.76092,41113
12.76903,41361
12.77715,41197
12.78528,46101
12.79340,42873
12.80152,40627
12.80965,41749
12.81777,42523
12.82590,42647
12.83402,40480
12.84213,41931
12.85027,37917
12.85838,37139
12.86652,40873
12.87463,40235
12.88275,40209
12.89088,44458
12.89900,42321
12.90713,37364
12.91525,38950
12.92337,37744
12.93150,39738
12.93962,40032
12.94773,38584
12.95587,39627
12.96398,40043
12.97212,41905
12.98023,40163
12.98835,40844
12.99648,42158
13.00460,41847
13.01273,38979
13.02085,39889
13.02897,39780
13.03710,40365
13.04522,38230
13.05333,39444
13.06147,41316
13.06958,42439
13.07772,40904
13.08583,40011
13.09395,40098
13.10208,39458
13.11020,39496
13.11833,41420
13.12645,38990
13.13457,37458
13.14270,38852
13.15082,38940
13.15895,40304
13.16707,42111
13.17518,42316
13.18332,44051
13.19143,48182
13.19955,44694
13.20768,43852
13.21580,47406
13.22393,47722
13.23205,42934
13.24017,40193
13.24830,36916
13.25642,43335
13.26455,42331
13.27267,39551
13.28078,38070
13.28892,41352
13.29703,39777
13.30517,40285
13.31328,39491
13.32140,41258
13.32953,38630
13.33765,40622
13.34577,37341
13.35390,38759
13.36202,40263
13.37015,44431
13.37827,40526
13.38638,45834
13.39452,39432
13.40263,41539
13.41077,41056
13.41888,36972
13.42700,40757
13.43513,40140
13.44325,41312
13.45137,40877
13.45950,42517
13.46762,39805
13.47575,37919
13.48387,38859
13.49198,37887
13.50012,38453
13.50823,37145
13.51637,41597
13.52448,36736
13.53260,37816
13.54073,41462
13.54885,39369
13.55698,39768
13.56510,38995
13.57322,37279
13.58135,36050
13.58947,41755
13.59758,38933
13.60572,41738
13.61383,40850
13.62197,37858
13.63008,38810
13.63820,39508
13.64633,40049
13.65445,39896
13.66258,40623
13.67070,40134
13.67882,36541
13.68695,38510
13.69507,38963
13.70320,38339
13.71132,37261
13.71943,40020
13.72757,40717
13.73568,38927
13.74380,42190
13.75193,42124
13.76005,42602
13.76818,47083
13.77630,53334
13.78442,50977
13.79255,58358
13.80067,53860
13.80880,52968
13.81692,54330
13.82503,55236
13.83317,52967
13.84128,59302
13.84940,54749
13.85753,55079
13.86565,59675
13.87378,56581
13.88190,54789
13.89002,56322
13.89815,57546
13.90627,58989
13.91440,56252
13.92252,57048
13.93063,56328
13.93877,56332
13.94688,58456
13.95502,56692
13.96313,56960
13.97125,54064
13.97938,53130
13.98750,56469
13.99562,53325
14.00375,54318
14.01187,55407
14.02000,54377
14.02812,60992
14.03623,58571
14.04437,56427
14.05248,57349
14.06062,53594
14.06873,60575
14.07685,54476
14.08498,54045
14.09310,48793
14.10122,53556
14.10935,55698
14.11747,54761
14.12560,56159
14.13372,52114
14.14183,53708
14.14997,52071
14.15808,70457
14.16622,103839
14.17433,171291
14.18245,265330
14.19058,385585
14.19870,463448
14.20683,454791
14.21495,377866
14.22307,289048
14.23120,222681
14.23932,183394
14.24743,158758
14.25557,139249
14.26368,127787
14.27182,125165
14.27993,119539
14.28805,110902
14.29618,101991
14.30430,103267
14.31243,98828
14.32055,92504
14.32867,94520
14.33680,81560
14.34492,80594
14.35305,77441
14.36117,62784
14.36928,59998
14.37742,57306
14.38553,57133
14.39365,57122
14.40178,58691
14.40990,53066
14.41803,49920
14.42615,48335
14.43427,53649
14.44240,52404
14.45052,51909
14.45865,48898
14.46677,54002
14.47488,52900
14.48302,46154
14.49113,52053
14.49927,52767
14.50738,46386
14.51550,52502
14.52363,53783
14.53175,66372
14.53987,301840
14.54800,540515
14.55612,335145
14.56425,138523
14.57237,100432
14.58048,82775
14.58862,74178
14.59673,73718
14.60487,71852
14.61298,66299
14.62110,71797
14.62923,65584
14.63735,64183
14.64547,62344
14.65360,61462
14.66172,59936
14.66985,60878
14.67797,62252
14.68608,54547
14.69422,60700
14.70233,58686
14.71047,59237
14.71858,57952
14.72670,223600
14.73483,2585284
14.74295,4450441
14.75108,2293675
14.75920,1240537
14.76732,887448
14.77545,684156
14.78357,509064
14.79168,404207
14.79982,338560
14.80793,282737
14.81607,245572
14.82418,235285
14.83230,207898
14.84043,186483
14.84855,186939
14.85668,169668
14.86480,164094
14.87292,160218
14.88105,152950
14.88917,418524
14.89728,2294510
14.90542,3067683
14.91353,1651687
14.92167,914656
14.92978,632711
14.93790,471608
14.94603,388683
14.95415,332531
14.96228,286490
14.97040,255822
14.97852,227230
14.98665,215659
14.99477,194364
15.00290,186307
15.01102,163058
15.01913,158700
15.02727,154603
15.03538,143588
15.04350,140827
15.05163,135706
15.05975,134835
15.06788,128623
15.07600,127756
15.08412,118368
15.09225,118669
15.10037,111633
15.10850,113406
15.11662,105295
15.12473,104040
15.13287,101061
15.14098,102504
15.14912,103776
15.15723,96377
15.16535,103053
15.17348,107273
15.18160,105954
15.18972,99910
15.19785,98385
15.20597,99495
15.21410,102302
15.22222,97851
15.23033,91747
15.23847,89511
15.24658,101915
15.25472,117016
15.26283,132907
15.27095,136105
15.27908,133381
15.28720,118548
15.29532,107768
15.30345,107607
15.31157,93820
15.31970,96170
15.32782,94750
15.33593,92167
15.34407,93845
15.35218,94059
15.36032,91018
15.36843,89637
15.37655,82324
15.38468,87632
15.39280,81843
15.40093,90582
15.40905,172867
15.41717,544800
15.42530,878258
15.43342,726409
15.44153,449119
15.44967,311355
15.45778,234685
15.46592,195736
15.47403,163297
15.48215,142100
15.49028,128311
15.49840,122840
15.50653,113763
15.51465,113381
15.52277,102556
15.53090,97441
15.53902,96420
15.54715,91246
15.55527,84337
15.56338,88107
15.57152,78925
15.57963,81192
15.58775,75644
15.59588,80441
15.60400,78699
15.61213,80720
15.62025,79272
15.62837,75667
15.63650,72845
15.64462,70211
15.65275,70049
15.66087,69079
15.66898,68382
15.67712,72070
15.68523,69369
15.69335,63025
15.70148,72251
15.70960,70421
15.71773,67395
15.72585,69396
15.73397,67886
15.74210,64852
15.75022,68572
15.75835,66989
15.76647,65394
15.77458,68577
15.78272,67189
15.79083,67019
15.79897,64092
15.80708,68714
15.81520,64012
15.82333,66237
15.83145,66638
15.83957,63086
15.84770,69667
15.85582,68641
15.86395,64129
15.87207,66449
15.88018,64659
15.88832,63233
15.89643,63241
15.90457,63090
15.91268,66282
15.92080,66703
15.92893,63632
15.93705,63951
15.94517,62507
15.95330,62356
15.96142,62992
15.96955,62746
15.97767,62851
15.98578,65431
15.99392,63517
16.00203,62398
16.01017,61235
16.01828,65105
16.02640,64871
16.03453,65924
16.04265,65114
16.05078,62116
16.05890,64442
16.06702,66481
16.07515,65997
16.08327,61582
16.09138,60667
16.09952,59409
16.10763,65465
16.11577,61192
16.12388,64532
16.13200,60241
16.14013,63453
16.14825,59887
16.15638,62194
16.16450,53874
16.17262,63055
16.18075,58121
16.18887,59356
16.19700,61651
16.20512,55615
16.21323,59686
16.22137,59123
16.22948,57034
16.23760,56842
16.24573,55734
16.25385,57353
16.26198,59718
16.27010,55376
16.27822,60031
16.28635,55846
16.29447,60993
16.30260,64335
16.31072,60761
16.31883,58811
16.32697,56190
16.33508,52919
16.34320,60863
16.35133,57592
16.35945,55784
16.36758,59103
16.37570,55638
16.38382,55002
16.39195,57855
16.40007,57419
16.40820,54419
16.41632,55372
16.42443,56776
16.43257,52837
16.44068,57369
16.44882,57411
16.45693,55110
16.46505,55906
16.47318,53550
16.48130,54246
16.48942,54424
16.49755,58494
16.50567,54648
16.51380,54819
16.52192,60833
16.53003,57186
16.53817,55324
16.54628,56097
16.55442,53333
16.56253,56349
16.57065,55848
16.57878,56845
16.58690,55091
16.59503,50393
16.60315,58263
16.61127,56748
16.61940,55093
16.62752,53046
16.63563,53505
16.64377,57330
16.65188,54588
16.66002,55054
16.66813,50967
16.67625,55071
16.68438,50612
16.69250,55318
16.70063,53830
16.70875,49022
16.71687,50992
16.72500,55992
16.73312,49819
16.74123,53133
16.74937,51510
16.75748,50421
16.76562,51947
16.77373,54084
16.78185,51840
16.78998,55589
16.79810,55022
16.80623,52701
16.81435,50966
16.82247,51271
16.83060,50765
16.83872,55060
16.84685,55476
16.85497,54210
16.86308,53671
16.87122,50805
16.87933,54435
16.88745,56208
16.89558,52812
16.90370,52769
16.91183,54248
16.91995,52554
16.92807,51148
16.93620,49533
16.94432,49205
16.95245,53292
16.96057,50848
16.96868,52087
16.97682,53118
16.98493,53700
16.99307,54561
17.00118,54037
17.00930,53554
17.01743,55785
17.02555,50392
17.03367,53182
17.04180,59602
17.04992,92384
17.05805,152226
17.06617,192487
17.07428,171104
17.08242,138690
17.09053,103609
17.09867,94609
17.10678,78992
17.11490,73754
17.12303,71526
17.13115,68426
17.13927,63255
17.14740,62026
17.15552,61849
17.16365,64329
17.17177,58583
17.17988,57317
17.18802,56985
17.19613,53714
17.20427,53002
17.21238,54952
17.22050,55412
17.22863,55831
17.23675,53512
17.24488,52123
17.25300,51893
17.26112,53172
17.26925,51785
17.27737,52619
17.28548,50262
17.29362,51380
17.30173,50929
17.30987,52255
17.31798,55996
17.32610,52040
17.33423,55079
17.34235,52788
17.35048,54786
17.35860,55367
17.36672,61069
17.37485,59324
17.38297,60536
17.39108,56882
17.39922,57474
17.40733,54186
17.41547,55291
17.42358,56593
17.43170,61600
17.43983,56841
17.44795,52205
17.45608,54526
17.46420,54793
17.47232,60584
17.48045,54837
17.48857,54122
17.49670,54797
17.50482,57986
17.51293,53150
17.52107,55107
17.52918,51761
17.53730,53319
17.54543,53974
17.55355,47181
17.56168,52261
17.56980,49806
17.57792,53763
17.58605,53837
17.59417,49422
17.60230,47296
17.61042,50004
17.61853,46671
17.62667,48932
17.63478,45155
17.64292,44913
17.65103,46205
17.65915,45165
17.66728,51053
17.67540,49057
17.68352,54249
17.69165,52260
17.69977,51550
17.70790,52693
17.71602,51589
17.72413,48694
17.73227,52354
17.74038,48380
17.74852,46966
17.75663,49793
17.76475,45072
17.77288,51699
17.78100,45414
17.78912,46686
17.79725,43859
17.80537,48593
17.81350,44128
17.82162,46891
17.82973,46467
17.83787,45265
17.84598,48245
17.85412,45606
17.86223,49287
17.87035,46319
17.87848,49336
17.88660,43902
17.89473,45866
17.90285,47153
17.91097,41639
17.91910,44425
17.92722,41124
17.93533,40666
17.94347,45309
17.95158,44212
17.95972,46664
17.96783,42210
17.97595,44194
17.98408,43069
17.99220,44891
18.00033,46584
18.00845,40053
18.01657,43348
18.02470,39600
18.03282,41700
18.04095,41276
18.04907,48036
18.05718,45816
18.06532,49923
18.07343,51972
18.08155,53421
18.08968,55374
18.09780,54175
18.10593,61692
18.11405,59692
18.12217,64683
18.13030,60679
18.13842,65812
18.14655,59912
18.15467,54883
18.16278,57767
18.17092,57280
18.17903,58805
18.18715,55074
18.19528,58084
18.20340,57645
18.21153,55524
18.21965,56119
18.22777,54515
18.23590,54313
18.24402,56158
18.25215,51132
18.26027,54252
18.26838,53211
18.27652,51435
18.28463,50068
18.29277,49134
18.30088,49530
18.30900,46312
18.31713,45511
18.32525,49117
18.33337,46613
18.34150,46704
18.34962,44651
18.35775,46118
18.36587,47496
18.37398,44368
18.38212,46772
18.39023,45148
18.39837,44405
18.40648,46544
18.41460,45741
18.42273,45764
18.43085,47686
18.43897,44129
18.44710,44991
18.45522,44281
18.46335,46356
18.47147,41630
18.47958,42760
18.48772,43003
18.49583,42865
18.50397,44637
18.51208,43306
18.52020,41874
18.52833,43923
18.53645,43573
18.54458,41783
18.55270,42260
18.56082,42146
18.56895,40485
18.57707,42322
18.58518,43336
18.59332,47714
18.60143,44065
18.60957,43150
18.61768,47898
18.62580,47502
18.63393,43948
18.64205,46641
18.65018,43195
18.65830,45671
18.66642,43038
18.67455,44297
18.68267,43652
18.69080,43477
18.69892,40064
18.70703,42944
18.71517,40960
18.72328,48052
18.73140,43863
18.73953,41305
18.74765,43207
18.75578,42582
18.76390,42347
18.77202,45310
18.78015,42364
18.78827,45512
18.79640,42232
18.80452,42291
18.81263,40681
18.82077,46398
18.82888,41687
18.83702,44321
18.84513,40375
18.85325,42033
18.86138,42135
18.86950,44021
18.87762,42288
18.88575,41870
18.89387,39858
18.90200,41638
18.91012,39911
18.91823,43242
18.92637,41783
18.93448,39750
18.94262,38869
18.95073,41243
18.95885,43180
18.96698,44807
18.97510,52412
18.98322,60803
18.99135,69188
18.99947,70674
19.00760,74078
19.01572,79167
19.02383,81685
19.03197,78801
19.04008,84201
19.04822,86829
19.05633,87310
19.06445,94873
19.07258,95446
19.08070,93478
19.08883,97140
19.09695,100431
19.10507,96372
19.11320,101654
19.12132,104466
19.12943,102140
19.13757,99263
19.14568,99387
19.15382,99193
19.16193,104999
19.17005,99294
19.17818,97856
19.18630,101163
19.19443,97221
19.20255,102535
19.21067,98690
19.21880,103068
19.22692,102274
19.23503,96906
19.24317,102092
19.25128,102106
19.25942,100585
19.26753,98383
19.27565,97285
19.28378,102190
19.29190,101043
19.30003,98877
19.30815,102766
19.31627,99479
19.32440,97477
19.33252,101169
19.34065,96060
19.34877,101840
19.35688,98981
19.36502,93222
19.37313,94399
19.38125,96011
19.38938,94127
19.39750,89493
19.40563,93526
19.41375,99392
19.42187,96023
19.43000,95880
19.43812,88235
19.44625,92487
19.45437,96309
19.46248,111714
19.47062,128529
19.47873,176086
19.48685,225784
19.49498,269800
19.50310,288814
19.51123,262379
19.51935,215618
19.52747,164672
19.53560,129735
19.54372,111535
19.55185,96169
19.55997,92169
19.56808,96779
19.57622,99160
19.58433,105738
19.59247,117386
19.60058,126575
19.60870,127174
19.61683,121439
19.62495,118361
19.63307,117960
19.64120,138948
19.64932,179375
19.65745,235935
19.66557,274558
19.67368,309905
19.68182,291536
19.68993,270105
19.69807,232947
19.70618,184406
19.71430,160001
19.72243,142339
19.73055,124214
19.73868,114146
19.74680,111178
19.75492,106004
19.76305,96577
19.77117,98680
19.77928,90694
19.78742,91424
19.79553,93359
19.80367,94059
19.81178,85472
19.81990,88714
19.82803,90461
19.83615,90745
19.84428,82492
19.85240,87141
19.86052,88498
19.86865,94629
19.87677,106180
19.88490,123300
19.89302,144387
19.90113,179002
19.90927,217793
19.91738,253772
19.92550,272537
19.93363,279151
19.94175,285394
19.94988,268783
19.95800,264179
19.96612,257156
19.97425,247377
19.98237,224912
19.99050,225858
19.99862,217384
20.00673,222655
20.01487,205605
20.02298,197697
20.03110,193297
20.03923,178024
20.04735,171473
20.05548,148942
20.06360,131301
20.07172,118926
20.07985,109469
20.08797,104727
20.09610,100604
20.10422,96025
20.11233,99120
20.12047,97157
20.12858,96223
20.13672,94012
20.14483,94148
20.15295,92721
20.16108,93073
20.16920,93032
20.17732,90878
20.18545,93359
20.19357,84115
20.20170,91820
20.20982,90828
20.21793,87678
20.22607,88275
20.23418,92956
20.24232,106629
20.25043,128859
20.25855,158662
20.26668,192325
20.27480,233021
20.28292,237605
20.29105,237366
20.29917,206423
20.30730,183853
20.31542,159519
20.32353,149725
20.33167,151156
20.33978,141252
20.34792,145230
20.35603,131425
20.36415,111301
20.37228,106622
20.38040,104757
20.38853,98008
20.39665,99441
20.40477,97784
20.41290,97981
20.42102,113144
20.42913,121627
20.43727,125752
20.44538,132753
20.45352,131003
20.46163,123974
20.46975,111470
20.47788,114028
20.48600,97165
20.49413,91873
20.50225,85792
20.51037,88340
20.51850,80121
20.52662,77512
20.53475,77008
20.54287,74632
20.55098,75007
20.55912,79466
20.56723,74588
20.57535,71626
20.58348,70742
20.59160,72645
20.59973,73610
20.60785,76131
20.61597,73624
20.62410,72489
20.63222,73867
20.64035,69028
20.64847,73384
20.65658,69578
20.66472,67141
20.67283,68177
20.68095,65565
20.68908,65679
20.69720,65472
20.70533,63380
20.71345,65294
20.72157,64085
20.72970,58984
20.73782,58329
20.74595,60010
20.75407,60581
20.76218,61844
20.77032,60617
20.77843,56018
20.78657,61044
20.79468,61538
20.80280,58824
20.81093,58980
20.81905,57049
20.82717,60487
20.83530,60511
20.84342,60461
20.85155,54131
20.85967,55277
20.86778,64157
20.87592,56537
20.88403,56743
20.89217,56655
20.90028,59582
20.90840,56852
20.91653,56909
20.92465,53835
20.93278,51593
20.94090,54311
20.94902,52175
20.95715,52299
20.96527,53532
20.97338,57888
20.98152,56734
20.98963,60475
20.99777,67401
21.00588,71695
21.01400,68521
21.02213,67886
21.03025,64200
21.03838,60483
21.04650,57395
21.05462,56670
21.06275,58061
21.07087,53096
21.07898,52127
21.08712,57304
21.09523,51180
21.10337,53678
21.11148,51426
21.11960,54257
21.12773,54740
21.13585,52336
21.14398,51979
21.15210,57427
21.16022,51002
21.16835,56677
21.17647,54104
21.18460,54786
21.19272,50895
21.20083,51367
21.20897,47996
21.21708,50378
21.22520,48369
21.23333,51580
21.24145,47762
21.24958,54052
21.25770,52247
21.26582,56309
21.27395,53955
21.28207,60301
21.29020,58717
21.29832,64831
21.30643,56177
21.31457,59535
21.32268,57047
21.33080,53201
21.33893,52410
21.34705,54921
21.35518,50052
21.36330,49819
21.37142,48750
21.37955,50149
21.38767,49275
21.39580,48765
21.40392,49150
21.41203,52646
21.42017,48460
21.42828,51647
21.43642,49387
21.44453,48513
21.45265,50553
21.46078,49094
21.46890,49016
21.47702,47679
21.48515,47961
21.49327,43183
21.50140,45788
21.50952,47497
21.51763,49106
21.52577,48369
21.53388,53313
21.54202,51603
21.55013,52728
21.55825,47702
21.56638,49361
21.57450,52596
21.58263,52358
21.59075,58072
21.59887,59563
21.60700,70048
21.61512,82218
21.62323,93071
21.63137,97032
21.63948,103887
21.64762,93076
21.65573,87475
21.66385,74883
21.67198,75017
21.68010,70080
21.68823,65304
21.69635,61888
21.70447,57732
21.71260,64270
21.72072,61825
21.72883,63013
21.73697,59757
21.74508,59577
21.75322,59322
21.76133,57923
21.76945,61044
21.77758,61431
21.78570,62768
21.79383,65073
21.80195,69444
21.81007,76463
21.81820,81121
21.82632,89270
21.83445,89767
21.84257,84072
21.85068,79255
21.85882,68015
21.86693,62576
21.87505,60304
21.88318,62772
21.89130,57822
21.89943,56485
21.90755,60171
21.91567,58633
21.92380,54532
21.93192,57112
21.94005,57929
21.94817,55865
21.95628,51509
21.96442,52149
21.97253,50570
21.98067,49259
21.98878,49984
21.99690,49072
22.00503,51002
22.01315,47865
22.02127,53333
22.02940,45370
22.03752,47677
22.04565,50112
22.05377,53452
22.06188,54557
22.07002,47412
22.07813,49722
22.08627,52518
22.09438,46720
22.10250,50089
22.11063,49325
22.11875,49883
22.12687,51416
22.13500,51300
22.14312,46049
22.15125,52452
22.15937,51476
22.16748,49021
22.17562,48987
22.18373,46722
22.19187,53358
22.19998,52446
22.20810,48395
22.21623,50192
22.22435,52322
22.23248,52047
22.24060,52906
22.24872,49045
22.25685,50581
22.26497,52202
22.27308,45106
22.28122,49462
22.28933,46771
22.29747,44417
22.30558,49104
22.31370,44405
22.32183,45161
22.32995,45750
22.33808,50274
22.34620,46139
22.35432,44091
22.36245,43312
22.37057,45597
22.37870,42944
22.38682,38064
22.39493,40175
22.40307,43037
22.41118,46491
22.41930,43059
22.42743,42013
22.43555,43422
22.44368,42806
22.45180,44504
22.45992,44010
22.46805,45538
22.47617,45908
22.48430,48735
22.49242,40305
22.50053,42520
22.50867,42716
22.51678,41381
22.52490,44724
22.53303,41945
22.54115,41118
22.54928,42754
22.55740,38475
22.56552,42744
22.57365,42090
22.58177,43480
22.58990,42036
22.59802,42139
22.60613,40915
22.61427,38093
22.62238,41330
22.63052,39292
22.63863,39052
22.64675,39895
22.65488,40205
22.66300,35290
22.67112,44751
22.67925,40011
22.68737,38344
22.69550,37222
22.70362,40973
22.71173,40603
22.71987,40269
22.72798,42309
22.73612,39918
22.74423,40319
22.75235,39377
22.76048,38887
22.76860,37562
22.77672,38375
22.78485,38651
22.79297,39822
22.80110,38556
22.80922,42455
22.81733,41717
22.82547,39234
22.83358,41850
22.84172,41509
22.84983,39809
22.85795,40689
22.86608,41608
22.87420,46276
22.88233,40713
22.89045,45455
22.89857,46231
22.90670,50222
22.91482,58067
22.92293,58563
22.93107,60559
22.93918,62172
22.94732,69743
22.95543,62837
22.96355,61132
22.97168,57103
22.97980,51308
22.98793,52841
22.99605,50230
23.00417,47593
23.01230,43446
23.02042,40224
23.02855,43331
23.03667,38193
23.04478,41083
23.05292,37698
23.06103,40091
23.06915,40714
23.07728,39912
23.08540,40502
23.09353,39574
23.10165,39751
23.10977,35679
23.11790,31487
23.12602,39583
23.13415,38201
23.14227,37288
23.15038,36501
23.15852,39195
23.16663,41963
23.17475,42119
23.18288,40297
23.19100,35941
23.19913,37965
23.20725,36478
23.21537,40736
23.22350,37470
23.23162,37356
23.23975,37401
23.24787,40626
23.25598,37453
23.26412,36251
23.27223,40536
23.28037,39140
23.28848,36863
23.29660,37257
23.30473,37013
23.31285,40889
23.32097,40707
23.32910,37237
23.33722,37841
23.34535,40424
23.35347,43616
23.36158,38693
23.36972,40756
23.37783,41028
23.38597,42400
23.39408,45547
23.40220,42748
23.41033,45533
23.41845,45899
23.42658,45778
23.43470,48018
23.44282,44631
23.45095,48357
23.45907,43956
23.46718,44019
23.47532,47622
23.48343,45642
23.49157,42682
23.49968,45407
23.50780,41296
23.51593,44987
23.52405,44009
23.53218,43410
23.54030,43016
23.54842,45175
23.55655,43171
23.56467,43708
23.57278,46642
23.58092,44587
23.58903,41541
23.59717,47269
23.60528,54253
23.61340,44909
23.62153,48775
23.62965,53422
23.63778,50685
23.64590,48033
23.65402,49647
23.66215,49873
23.67027,54489
23.67840,50512
23.68652,49024
23.69463,49763
23.70277,48520
23.71088,46975
23.71900,52108
23.72713,65325
23.73525,97137
23.74338,212486
23.75150,537770
23.75962,1258338
23.76775,2583288
23.77587,4000220
23.78400,5092086
23.79212,5455960
23.80023,4772144
23.80837,3925103
23.81648,2955278
23.82460,2145269
23.83273,1569191
23.84085,1186188
23.84898,949181
23.85710,837732
23.86522,837585
23.87335,917506
23.88147,1043784
23.88960,1139316
23.89772,1135411
23.90583,1034804
23.91397,897447
23.92208,753337
23.93022,611033
23.93833,504626
23.94645,425902
23.95458,366526
23.96270,323305
23.97082,292839
23.97895,260124
23.98707,234697
23.99520,219515
24.00332,209527
24.01143,201039
24.01957,189527
24.02768,171050
24.03582,179412
24.04393,169949
24.05205,166363
24.06018,151512
24.06830,145438
24.07643,140554
24.08455,133826
24.09267,131835
24.10080,134370
24.10892,137492
24.11703,132640
24.12517,140034
24.13328,130095
24.14142,128617
24.14953,122528
24.15765,115974
24.16578,116814
24.17390,111560
24.18203,111852
24.19015,117037
24.19827,117129
24.20640,119238
24.21452,116372
24.22263,116762
24.23077,110026
24.23888,107517
24.24702,98957
24.25513,94949
24.26325,97573
24.27138,92234
24.27950,91095
24.28763,87711
24.29575,87030
24.30387,81602
24.31200,83183
24.32012,81712
24.32825,80592
24.33637,85994
24.34448,95609
24.35262,130636
24.36073,214660
24.36885,379472
24.37698,622263
24.38510,901530
24.39323,1047337
24.40135,1078799
24.40947,968459
24.41760,820698
24.42572,643786
24.43385,497854
24.44197,391906
24.45008,326950
24.45822,262893
24.46633,234130
24.47447,215037
24.48258,200189
24.49070,188357
24.49883,172895
24.50695,172291
24.51507,157432
24.52320,146216
24.53132,134392
24.53945,129473
24.54757,122821
24.55568,119697
24.56382,118972
24.57193,126362
24.58007,125138
24.58818,125443
24.59630,122508
24.60443,110576
24.61255,102472
24.62067,99978
24.62880,92731
24.63692,92908
24.64505,99613
24.65317,98342
24.66128,98581
24.66942,94604
24.67753,92974
24.68567,84333
24.69378,88446
24.70190,82259
24.71003,79928
24.71815,75774
24.72628,77105
24.73440,72268
24.74252,76580
24.75065,72324
24.75877,70130
24.76688,73841
24.77502,70423
24.78313,68740
24.79127,68957
24.79938,69923
24.80750,68612
24.81563,68758
24.82375,68411
24.83188,65432
24.84000,63337
24.84812,67502
24.85625,68973
24.86437,63519
24.87248,69109
24.88062,69681
24.88873,60987
24.89687,68180
24.90498,63278
24.91310,70503
24.92123,67194
24.92935,62687
24.93748,60870
24.94560,61721
24.95372,62537
24.96185,56092
24.96997,55447
24.97810,57237
24.98622,60219
24.99433,58616
25.00247,55071
25.01058,53309
25.01870,57006
25.02683,55681
25.03495,52244
25.04308,52056
25.05120,54633
25.05932,55069
25.06745,54053
25.07557,53235
25.08370,52614
25.09182,51960
25.09993,53253
25.10807,58342
25.11618,64186
25.12432,71531
25.13243,81545
25.14055,96616
25.14868,110337
25.15680,114142
25.16492,113192
25.17305,105409
25.18117,90369
25.18930,83850
25.19742,80398
25.20553,72371
25.21367,71702
25.22178,62301
25.22992,64627
25.23803,63159
25.24615,63652
25.25428,65276
25.26240,62451
25.27053,67942
25.27865,66022
25.28677,64832
25.29490,63591
25.30302,68160
25.31113,62574
25.31927,68965
25.32738,68059
25.33552,66821
25.34363,61579
25.35175,64616
25.35988,62274
25.36800,56554
25.37613,53742
25.38425,53895
25.39237,57497
25.40050,53379
25.40862,51167
25.41673,53525
25.42487,55562
25.43298,57024
25.44112,56548
25.44923,59476
25.45735,57245
25.46548,55889
25.47360,61171
25.48173,60464
25.48985,54516
25.49797,56235
25.50610,56633
25.51422,51178
25.52235,53170
25.53047,52686
25.53858,48749
25.54672,50743
25.55483,51381
25.56295,47245
25.57108,47555
25.57920,49807
25.58733,47176
25.59545,47892
25.60357,48584
25.61170,48459
25.61982,48473
25.62795,46388
25.63607,48301
25.64418,46780
25.65232,47334
25.66043,46081
25.66855,42591
25.67668,44788
25.68480,44720
25.69293,46751
25.70105,47061
25.70917,46858
25.71730,46025
25.72542,45544
25.73355,42944
25.74167,43905
25.74978,43574
25.75792,47608
25.76603,49560
25.77417,46461
25.78228,48536
25.79040,44400
25.79853,48124
25.80665,47362
25.81477,47735
25.82290,47297
25.83102,47642
25.83915,48037
25.84727,47120
25.85538,44540
25.86352,48369
25.87163,45715
25.87977,48257
25.88788,45166
25.89600,43878
25.90413,49923
25.91225,42788
25.92038,40211
25.92850,40307
25.93662,41957
25.94475,44866
25.95287,42330
25.96098,37891
25.96912,39744
25.97723,44108
25.98537,40921
25.99348,40063
26.00160,37237
26.00973,45738
26.01785,40683
26.02598,39016
26.03410,41468
26.04222,42944
26.05035,39403
26.05847,41009
26.06658,40635
26.07472,42586
26.08283,44906
26.09097,41018
26.09908,44685
26.10720,45767
26.11533,43633
26.12345,47747
26.13158,49225
26.13970,48581
26.14782,50249
26.15595,46686
26.16407,48484
26.17220,47280
26.18032,45664
26.18843,46452
26.19657,44585
26.20468,44672
26.21280,43740
26.22093,41704
26.22905,44991
26.23718,46630
26.24530,47945
26.25342,46559
26.26155,42840
26.26967,46873
26.27780,46011
26.28592,43458
26.29403,44716
26.30217,47725
26.31028,45447
26.31842,48139
26.32653,44362
26.33465,47497
26.34278,43798
26.35090,44104
26.35902,46922
26.36715,43211
26.37527,45221
26.38340,45010
26.39152,48505
26.39963,48091
26.40777,48075
26.41588,49272
26.42402,49984
26.43213,47989
26.44025,47696
26.44838,46549
26.45650,45937
26.46462,47532
26.47275,43518
26.48087,45388
26.48900,41735
26.49712,48706
26.50523,45715
26.51337,44698
26.52148,40822
26.52962,41524
26.53773,43904
26.54585,43594
26.55398,41405
26.56210,41800
26.57023,41498
26.57835,39280
26.58647,39977
26.59460,42741
26.60272,40766
26.61083,40828
26.61897,40513
26.62708,42792
26.63522,41704
26.64333,39299
26.65145,41717
26.65958,42765
26.66770,40377
26.67583,42787
26.68395,44432
26.69207,41644
26.70020,43340
26.70832,45121
26.71643,43220
26.72457,45036
26.73268,43438
26.74082,45627
26.74893,42393
26.75705,40701
26.76518,43837
26.77330,47977
26.78143,43860
26.78955,40202
26.79767,47015
26.80580,48141
26.81392,43783
26.82205,45846
26.83017,45476
26.83828,44767
26.84642,45358
26.85453,47535
26.86265,45253
26.87078,46088
26.87890,45462
26.88703,45530
26.89515,45871
26.90327,48505
26.91140,47641
26.91952,47332
26.92765,42984
26.93577,46737
26.94388,53698
26.95202,72932
26.96013,111354
26.96827,201268
26.97638,378128
26.98450,701887
26.99263,1290696
27.00075,2096662
27.00887,3265801
27.01700,4016775
27.02512,4325113
27.03325,4151344
27.04137,3667752
27.04948,3194683
27.05762,2670802
27.06573,2107529
27.07387,1630016
27.08198,1275115
27.09010,989299
27.09823,799429
27.10635,640129
27.11447,535515
27.12260,449789
27.13072,387358
27.13885,350345
27.14697,319172
27.15508,281445
27.16322,259978
27.17133,240143
27.17947,220002
27.18758,212147
27.19570,214488
27.20383,218091
27.21195,245736
27.22008,297460
27.22820,364286
27.23632,458056
27.24445,553057
27.25257,621946
27.26068,649012
27.26882,635503
27.27693,592222
27.28507,548476
27.29318,474291
27.30130,398751
27.30943,349837
27.31755,304529
27.32568,264365
27.33380,227930
27.34192,203645
27.35005,190312
27.35817,171771
27.36630,162087
27.37442,153713
27.38253,141613
27.39067,140238
27.39878,126644
27.40690,127794
27.41503,124879
27.42315,114054
27.43128,111750
27.43940,112245
27.44752,102800
27.45565,105486
27.46377,96527
27.47190,100942
27.48002,95473
27.48813,95463
27.49627,99743
27.50438,95767
27.51250,99406
27.52063,88471
27.52875,90339
27.53688,89101
27.54500,88616
27.55312,83029
27.56125,87228
27.56937,81415
27.57750,83072
27.58562,78090
27.59373,82943
27.60187,81533
27.60998,77361
27.61812,75115
27.62623,75656
27.63435,69977
27.64248,74058
27.65060,70787
27.65872,69312
27.66685,65847
27.67497,70631
27.68310,68550
27.69122,67032
27.69933,68148
27.70747,66407
27.71558,64458
27.72372,62545
27.73183,65069
27.73995,66932
27.74808,66997
27.75620,64197
27.76432,66362
27.77245,63213
27.78057,59854
27.78870,58939
27.79682,60610
27.80493,58638
27.81307,60798
27.82118,58994
27.82932,57061
27.83743,58672
27.84555,62190
27.85368,60472
27.86180,62475
27.86993,62869
27.87805,56587
27.88617,58537
27.89430,54483
27.90242,58041
27.91053,61417
27.91867,56275
27.92678,55766
27.93492,58960
27.94303,56326
27.95115,50788
27.95928,54024
27.96740,54563
27.97553,55829
27.98365,52465
27.99177,56616
27.99990,52355
28.00802,49450
28.01615,54400
28.02427,57097
28.03238,56661
28.04052,55642
28.04863,51950
28.05675,61405
28.06488,54892
28.07300,54911
28.08113,55004
28.08925,55801
28.09737,48952
28.10550,52054
28.11362,51907
28.12175,51325
28.12987,53579
28.13798,48338
28.14612,50775
28.15423,44513
28.16235,54555
28.17048,54494
28.17860,59576
28.18673,62397
28.19485,61034
28.20297,57575
28.21110,57528
28.21922,54645
28.22735,57811
28.23547,51772
28.24358,52078
28.25172,53392
28.25983,55293
28.26797,59036
28.27608,76399
28.28420,105358
28.29233,151366
28.30045,224042
28.30857,341410
28.31670,483931
28.32482,685325
28.33295,877408
28.34107,1070479
28.34918,1252190
28.35732,1378471
28.36543,1526614
28.37357,1632025
28.38168,1606890
28.38980,1579559
28.39793,1535983
28.40605,1429639
28.41418,1332671
28.42230,1171970
28.43042,1053813
28.43855,946038
28.44667,846945
28.45478,780610
28.46292,693099
28.47103,631239
28.47917,572357
28.48728,544305
28.49540,539494
28.50353,532150
28.51165,494007
28.51978,500521
28.52790,471243
28.53602,474762
28.54415,450542
28.55227,412114
28.56038,390696
28.56852,370713
28.57663,356185
28.58477,340644
28.59288,324493
28.60100,307633
28.60913,278370
28.61725,254045
28.62538,253422
28.63350,236116
28.64162,223968
28.64975,219235
28.65787,208680
28.66600,188882
28.67412,184996
28.68223,179935
28.69037,169893
28.69848,161388
28.70660,158018
28.71473,156922
28.72285,151953
28.73098,158889
28.73910,156952
28.74722,170414
28.75535,183727
28.76347,179031
28.77160,162855
28.77972,152844
28.78783,139109
28.79597,135832
28.80408,127053
28.81222,126267
28.82033,120945
28.82845,117221
28.83658,107659
28.84470,110382
28.85282,99355
28.86095,100133
28.86907,100377
28.87720,101623
28.88532,99681
28.89343,93272
28.90157,92818
28.90968,99305
28.91782,95231
28.92593,90429
28.93405,87391
28.94218,92029
28.95030,86124
28.95842,87551
28.96655,84711
28.97467,89458
28.98280,87048
28.99092,84286
28.99903,84013
29.00717,85953
29.01528,82342
29.02342,79374
29.03153,76505
29.03965,83160
29.04778,80539
29.05590,77934
29.06403,76793
29.07215,70078
29.08027,79559
29.08840,73103
29.09652,75111
29.10463,75528
29.11277,75390
29.12088,74713
29.12902,70768
29.13713,76654
29.14525,75889
29.15338,73531
29.16150,77443
29.16963,75452
29.17775,71753
29.18587,67644
29.19400,71592
29.20212,71984
29.21023,70067
29.21837,71084
29.22648,75510
29.23462,68654
29.24273,75714
29.25085,74752
29.25898,76877
29.26710,83703
29.27523,82432
29.28335,73694
29.29147,73454
29.29960,73073
29.30772,74681
29.31585,71128
29.32397,67382
29.33208,68397
29.34022,69396
29.34833,69024
29.35645,66167
29.36458,68809
29.37270,63191
29.38083,67787
29.38895,62109
29.39707,67590
29.40520,67968
29.41332,63051
29.42145,65591
29.42957,69129
29.43768,61481
29.44582,64379
29.45393,64154
29.46207,67614
29.47018,66504
29.47830,66660
29.48643,65474
29.49455,66827
29.50267,62660
29.51080,62650
29.51892,66775
29.52705,58543
29.53517,63204
29.54328,59274
29.55142,56219
29.55953,56002
29.56767,56683
29.57578,57502
29.58390,56895
29.59203,57875
29.60015,56461
29.60827,52736
29.61640,57396
29.62452,54792
29.63265,54884
29.64077,56249
29.64888,54454
29.65702,57093
29.66513,54931
29.67327,50832
29.68138,54240
29.68950,52220
29.69763,52138
29.70575,50300
29.71388,55307
29.72200,50116
29.73012,53189
29.73825,52969
29.74637,49232
29.75448,48831
29.76262,47385
29.77073,50181
29.77887,48607
29.78698,48791
29.79510,48459
29.80323,46499
29.81135,49470
29.81948,50085
29.82760,50222
29.83572,49632
29.84385,47031
29.85197,46496
29.86010,48182
29.86822,49428
29.87633,49308
29.88447,52390
29.89258,53596
29.90070,60557
29.90883,68738
29.91695,80322
29.92508,99448
29.93320,117264
29.94132,143279
29.94945,174611
29.95757,213172
29.96570,266649
29.97382,309114
29.98193,379792
29.99007,413074
29.99818,454954
30.00630,479428
30.01443,530912
30.02255,548251
30.03068,577957
30.03880,599567
30.04692,601243
30.05505,588346
30.06317,587044
30.07130,578858
30.07942,560384
30.08753,532147
30.09567,509334
30.10378,498600
30.11192,474853
30.12003,445583
30.12815,419698
30.13628,409265
30.14440,379352
30.15252,348545
30.16065,329963
30.16877,316103
30.17690,297177
30.18502,283114
30.19313,268475
30.20127,246253
30.20938,222456
30.21752,227570
30.22563,203971
30.23375,202953
30.24188,187529
30.25000,170115
30.25812,160888
30.26625,160201
30.27437,147042
30.28250,142791
30.29062,139249
30.29873,133696
30.30687,131724
30.31498,119418
30.32312,118769
30.33123,112394
30.33935,107951
30.34748,109548
30.35560,109925
30.36373,100078
30.37185,98494
30.37997,97252
30.38810,93120
30.39622,91281
30.40433,89417
30.41247,94225
30.42058,89425
30.42872,85314
30.43683,79365
30.44495,83093
30.45308,84979
30.46120,84819
30.46933,79993
30.47745,82727
30.48557,77482
30.49370,80859
30.50182,76868
30.50995,69679
30.51807,72036
30.52618,70497
30.53432,69842
30.54243,68203
30.55055,71580
30.55868,66743
30.56680,67471
30.57493,73615
30.58305,61147
30.59117,69085
30.59930,69308
30.60742,67949
30.61555,68302
30.62367,58625
30.63178,61976
30.63992,60610
30.64803,65131
30.65615,61617
30.66428,59635
30.67240,63321
30.68053,62844
30.68865,61868
30.69677,58815
30.70490,60272
30.71302,58181
30.72115,61409
30.72927,63664
30.73738,58368
30.74552,56889
30.75363,55029
30.76177,58231
30.76988,60314
30.77800,61678
30.78613,60312
30.79425,65927
30.80237,62790
30.81050,66227
30.81862,62282
30.82675,63985
30.83487,61218
30.84298,59564
30.85112,56347
30.85923,56961
30.86737,55949
30.87548,55349
30.88360,59055
30.89173,54609
30.89985,58852
30.90798,52200
30.91610,54707
30.92422,53261
30.93235,53308
30.94047,50447
30.94858,51153
30.95672,57068
30.96483,52076
30.97297,51282
30.98108,51309
30.98920,53062
30.99733,52187
31.00545,50472
31.01358,49046
31.02170,51893
31.02982,53598
31.03795,52822
31.04607,50548
31.05418,48603
31.06232,53677
31.07043,57133
31.07857,52602
31.08668,63757
31.09480,61296
31.10293,60323
31.11105,61647
31.11918,60509
31.12730,56122
31.13542,55425
31.14355,53704
31.15167,54958
31.15980,56327
31.16792,54735
31.17603,59861
31.18417,68763
31.19228,80946
31.20040,95263
31.20853,110404
31.21665,125849
31.22478,138851
31.23290,135866
31.24102,130259
31.24915,111187
31.25727,92673
31.26540,74697
31.27352,67466
31.28163,63993
31.28977,58393
31.29788,57296
31.30600,56409
31.31413,56333
31.32225,55937
31.33038,50912
31.33850,55178
31.34662,56185
31.35475,60684
31.36287,60960
31.37100,66788
31.37912,68082
31.38723,65666
31.39537,58789
31.40348,61352
31.41162,54543
31.41973,59533
31.42785,51791
31.43598,53359
31.44410,52680
31.45222,58569
31.46035,52119
31.46847,50470
31.47660,47826
31.48472,49806
31.49283,47008
31.50097,47262
31.50908,48470
31.51722,48251
31.52533,49769
31.53345,50266
31.54158,45454
31.54970,48945
31.55783,45376
31.56595,47347
31.57407,47885
31.58220,45557
31.59032,48066
31.59843,47985
31.60657,45532
31.61468,46817
31.62282,45120
31.63093,47227
31.63905,42353
31.64718,48115
31.65530,49588
31.66343,50900
31.67155,45681
31.67967,47862
31.68780,43244
31.69592,44570
31.70405,45246
31.71217,47683
31.72028,46542
31.72842,42636
31.73653,41201
31.74465,46382
31.75278,46033
31.76090,45035
31.76903,49604
31.77715,49063
31.78527,46632
31.79340,46355
31.80152,49085
31.80965,47306
31.81777,41995
31.82588,47833
31.83402,45544
31.84213,45345
31.85025,50933
31.85838,53505
31.86650,60287
31.87463,67445
31.88275,82833
31.89087,106951
31.89900,123970
31.90712,153884
31.91525,190175
31.92337,218912
31.93148,248924
31.93962,280793
31.94773,300906
31.95587,328356
31.96398,338700
31.97210,332497
31.98023,348338
31.98835,343025
31.99647,330990
32.00460,322966
32.01272,304931
32.02085,306087
32.02897,277289
32.03708,264925
32.04522,254838
32.05333,238984
32.06147,220896
32.06958,214259
32.07770,197238
32.08583,188017
32.09395,169915
32.10207,162133
32.11020,144166
32.11832,138815
32.12645,136590
32.13457,126961
32.14268,117279
32.15082,111600
32.15893,106844
32.16707,106290
32.17518,99463
32.18330,92266
32.19143,97556
32.19955,89643
32.20768,92739
32.21580,81715
32.22392,83098
32.23205,81715
32.24017,82129
32.24828,79842
32.25642,77196
32.26453,76949
32.27267,68112
32.28078,74649
32.28890,69436
32.29703,70422
32.30515,68129
32.31328,67952
32.32140,66259
32.32952,68036
32.33765,67799
32.34577,67239
32.35390,63669
32.36202,67510
32.37013,61452
32.37827,66730
32.38638,60555
32.39450,62768
32.40263,58118
32.41075,57927
32.41888,57443
32.42700,59824
32.43512,55903
32.44325,59923
32.45137,56879
32.45950,59379
32.46762,55696
32.47573,58953
32.48387,58711
32.49198,54380
32.50010,53345
32.50823,57940
32.51635,58458
32.52448,54877
32.53260,60499
32.54072,54951
32.54885,55975
32.55697,52002
32.56510,50413
32.57322,52349
32.58133,52991
32.58947,57605
32.59758,54512
32.60572,51950
32.61383,53333
32.62195,60599
32.63008,70770
32.63820,78768
32.64632,85505
32.65445,88735
32.66257,89220
32.67070,78045
32.67882,69534
32.68693,61984
32.69507,60292
32.70318,60515
32.71132,58820
32.71943,56706
32.72755,54399
32.73568,54345
32.74380,53883
32.75193,49824
32.76005,48075
32.76817,51327
32.77630,51263
32.78442,48858
32.79253,48198
32.80067,46388
32.80878,49606
32.81692,50484
32.82503,46933
32.83315,48343
32.84128,46658
32.84940,51639
32.85753,46975
32.86565,49155
32.87377,47784
32.88190,48669
32.89002,47290
32.89813,51443
32.90627,52195
32.91438,50377
32.92252,47359
32.93063,50645
32.93875,45770
32.94688,51123
32.95500,50089
32.96313,47297
32.97125,44054
32.97937,45514
32.98750,47602
32.99562,47347
33.00375,48832
33.01187,49140
33.01998,47943
33.02812,49347
33.03623,49075
33.04435,48013
33.05248,46204
33.06060,47418
33.06873,45623
33.07685,51156
33.08497,48339
33.09310,54700
33.10122,53276
33.10935,54553
33.11747,51796
33.12558,58726
33.13372,53220
33.14183,52346
33.14995,50352
33.15808,54766
33.16620,51736
33.17433,49390
33.18245,50599
33.19057,47194
33.19870,49610
33.20682,47054
33.21495,52118
33.22307,48111
33.23118,44632
33.23932,48344
33.24743,46886
33.25557,47219
33.26368,44867
33.27180,43951
33.27993,46455
33.28805,44759
33.29617,46657
33.30430,42674
33.31242,44571
33.32055,44473
33.32867,46070
33.33678,45321
33.34492,47091
33.35303,44045
33.36117,45301
33.36928,45890
33.37740,45219
33.38553,46993
33.39365,45711
33.40178,45922
33.40990,52196
33.41802,43774
33.42615,47836
33.43427,45280
33.44238,42098
33.45052,44786
33.45863,42881
33.46677,44930
33.47488,42383
33.48300,45644
33.49113,47778
33.49925,45956
33.50738,45209
33.51550,43144
33.52362,45249
33.53175,43704
33.53987,49674
33.54798,44333
33.55612,46895
33.56423,45168
33.57237,48250
33.58048,44529
33.58860,43873
33.59673,48626
33.60485,43931
33.61298,43104
33.62110,39918
33.62922,43641
33.63735,46250
33.64547,45744
33.65360,43825
33.66172,44952
33.66983,42098
33.67797,44609
33.68608,41284
33.69420,47748
33.70233,46892
33.71045,43551
33.71858,42489
33.72670,42405
33.73482,38710
33.74295,42324
33.75107,44959
33.75920,42565
33.76732,46087
33.77543,42599
33.78357,40234
33.79168,42184
33.79982,42019
33.80793,42375
33.81605,46797
33.82418,43447
33.83230,45367
33.84042,42099
33.84855,41826
33.85667,44193
33.86480,45482
33.87292,47317
33.88103,45596
33.88917,45570
33.89728,47366
33.90542,43053
33.91353,44047
33.92165,47633
33.92978,47764
33.93790,48723
33.94602,45530
33.95415,48393
33.96227,42830
33.97040,43503
33.97852,44603
33.98663,45079
33.99477,43835
34.00288,39265
34.01102,46506
34.01913,44385
34.02725,42114
34.03538,41564
34.04350,42669
34.05163,40031
34.05975,45101
34.06787,44997
34.07600,43191
34.08412,43189
34.09223,44090
34.10037,47492
34.10848,44947
34.11662,46277
34.12473,45396
34.13285,39388
34.14098,46269
34.14910,42109
34.15723,46241
34.16535,47021
34.17347,47691
34.18160,45010
34.18972,45801
34.19785,44619
34.20597,44463
34.21408,42667
34.22222,44928
34.23033,39677
34.23845,42811
34.24658,44661
34.25470,43143
34.26283,42139
34.27095,43619
34.27907,42104
34.28720,42399
34.29532,41362
34.30345,41817
34.31157,42367
34.31968,42572
34.32782,43729
34.33593,41703
34.34405,42818
34.35218,41031
34.36030,41290
34.36843,42518
34.37655,43606
34.38467,45300
34.39280,39560
34.40092,40222
34.40905,42884
34.41717,40668
34.42528,45401
34.43342,42897
34.44153,43093
34.44967,42114
34.45778,43912
34.46590,46400
34.47403,54777
34.48215,68366
34.49027,80231
34.49840,114768
34.50652,149205
34.51465,188334
34.52277,227024
34.53088,255095
34.53902,283283
34.54713,299811
34.55527,289034
34.56338,271280
34.57150,251276
34.57963,229984
34.58775,205830
34.59587,180918
34.60400,171070
34.61212,142813
34.62025,136649
34.62837,124902
34.63648,119713
34.64462,112294
34.65273,105032
34.66087,98556
34.66898,92369
34.67710,91071
34.68523,90120
34.69335,85466
34.70148,80944
34.70960,79833
34.71772,79093
34.72585,81903
34.73397,78709
34.74208,80635
34.75022,72981
34.75833,73413
34.76647,69792
34.77458,65866
34.78270,66947
34.79083,72322
34.79895,65886
34.80708,64198
34.81520,67440
34.82332,66177
34.83145,64937
34.83957,65248
34.84770,62595
34.85582,65626
34.86393,65607
34.87207,68508
34.88018,64197
34.88830,60554
34.89643,63794
34.90455,59990
34.91268,57247
34.92080,66461
34.92892,58923
34.93705,63098
34.94517,62737
34.95330,60934
34.96142,63733
34.96953,60737
34.97767,61854
34.98578,56575
34.99390,55565
35.00203,54529
35.01015,53040
35.01828,57750
35.02640,53172
35.03452,56239
35.04265,53739
35.05077,54497
35.05890,55711
35.06702,51926
35.07513,52997
35.08327,51701
35.09138,55483
35.09952,50186
35.10763,54509
35.11575,52744
35.12388,55059
35.13200,56371
35.14012,59927
35.14825,55972
35.15637,56337
35.16450,54970
35.17262,58355
35.18073,52735
35.18887,57612
35.19698,54049
35.20512,53421
35.21323,51378
35.22135,53253
35.22948,49310
35.23760,55347
35.24573,54272
35.25385,53790
35.26197,51902
35.27010,50372
35.27822,51098
35.28633,51216
35.29447,53636
35.30258,48198
35.31072,49486
35.31883,51844
35.32695,49820
35.33508,51769
35.34320,50027
35.35133,52477
35.35945,50072
35.36757,53946
35.37570,53091
35.38382,48947
35.39193,52468
35.40007,46935
35.40818,49090
35.41632,50644
35.42443,45260
35.43255,55850
35.44068,53154
35.44880,55419
35.45693,59638
35.46505,55387
35.47317,50441
35.48130,52447
35.48942,54748
35.49755,53027
35.50567,53274
35.51378,50428
35.52192,49141
35.53003,51601
35.53815,53374
35.54628,50894
35.55440,49209
35.56253,52084
35.57065,51189
35.57877,51531
35.58690,53820
35.59502,53813
35.60315,51951
35.61127,53215
35.61938,51657
35.62752,52362
35.63563,56914
35.64375,53600
35.65188,55463
35.66000,59385
35.66813,57196
35.67625,54102
35.68437,52649
35.69250,54019
35.70062,56151
35.70875,49158
35.71687,50068
35.72498,49649
35.73312,46520
35.74123,46538
35.74937,51961
35.75748,53878
35.76560,49985
35.77373,49711
35.78185,49766
35.78997,50115
35.79810,53969
35.80622,45552
35.81435,46741
35.82247,47697
35.83058,48429
35.83872,49093
35.84683,46118
35.85497,50365
35.86308,50114
35.87120,47681
35.87933,49265
35.88745,44487
35.89558,50742
35.90370,49325
35.91182,48502
35.91995,46961
35.92807,47134
35.93618,48385
35.94432,47569
35.95243,48400
35.96057,51852
35.96868,45880
35.97680,48541
35.98493,48249
35.99305,52624
36.00118,53902
36.00930,50695
36.01742,53972
36.02555,53826
36.03367,56758
36.04178,52827
36.04992,51338
36.05803,48021
36.06617,52475
36.07428,51848
36.08240,52485
36.09053,51422
36.09865,49854
36.10678,51936
36.11490,44867
36.12302,51135
36.13115,48913
36.13927,55953
36.14740,51744
36.15552,55750
36.16363,51285
36.17177,50737
36.17988,52488
36.18800,49133
36.19613,51798
36.20425,50007
36.21238,46450
36.22050,50372
36.22862,49016
36.23675,48535
36.24487,47244
36.25300,51495
36.26112,55560
36.26923,60309
36.27737,63107
36.28548,73582
36.29362,84822
36.30173,83603
36.30985,78046
36.31798,69987
36.32610,70935
36.33422,60510
36.34235,55611
36.35047,58792
36.35860,55062
36.36672,52988
36.37483,50714
36.38297,51992
36.39108,52721
36.39922,48255
36.40733,55543
36.41545,50606
36.42358,51784
36.43170,51476
36.43982,46059
36.44795,50281
36.45607,48642
36.46420,47598
36.47232,47204
36.48043,46760
36.48857,49398
36.49668,51468
36.50482,50136
36.51293,50862
36.52105,45555
36.52918,51843
36.53730,48789
36.54543,48742
36.55355,48699
36.56167,48629
36.56980,46701
36.57792,46979
36.58603,52594
36.59417,47720
36.60228,49479
36.61042,49059
36.61853,49904
36.62665,55462
36.63478,56127
36.64290,51518
36.65103,53792
36.65915,53266
36.66727,57433
36.67540,54636
36.68352,53648
36.69163,54697
36.69977,59989
36.70788,58566
36.71602,63365
36.72413,67903
36.73225,67174
36.74038,69351
36.74850,70825
36.75663,71701
36.76475,71410
36.77287,74490
36.78100,69818
36.78912,74209
36.79725,72024
36.80537,70344
36.81348,69739
36.82162,74866
36.82973,64101
36.83785,66200
36.84598,59566
36.85410,60032
36.86223,60181
36.87035,54345
36.87847,54743
36.88660,58270
36.89472,54174
36.90285,56143
36.91097,55298
36.91908,51973
36.92722,54982
36.93533,53524
36.94347,50873
36.95158,53810
36.95970,55969
36.96783,55264
36.97595,54841
36.98407,54356
36.99220,51046
37.00032,50547
37.00845,50707
37.01657,51685
37.02468,54716
37.03282,48571
37.04093,51229
37.04907,54105
37.05718,50493
37.06530,52181
37.07343,52981
37.08155,52244
37.08968,49013
37.09780,50694
37.10592,52572
37.11405,52577
37.12217,52442
37.13028,52665
37.13842,51934
37.14653,53425
37.15467,53085
37.16278,57080
37.17090,53622
37.17903,53560
37.18715,57423
37.19528,53386
37.20340,54137
37.21152,50281
37.21965,52974
37.22777,49207
37.23588,53613
37.24402,53694
37.25213,59080
37.26027,57156
37.26838,54999
37.27650,58523
37.28463,60169
37.29275,77152
37.30088,105355
37.30900,135090
37.31712,170560
37.32525,207565
37.33337,215532
37.34150,224053
37.34962,215663
37.35773,198595
37.36587,176483
37.37398,165018
37.38210,149594
37.39023,129925
37.39835,120238
37.40648,106292
37.41460,106361
37.42272,102562
37.43085,98797
37.43897,96688
37.44710,89371
37.45522,92420
37.46333,85246
37.47147,84550
37.47958,81060
37.48770,80571
