C:\MassHunter\GCMS\1\data\JTB-E18\JTB-E18-031-10.D Thu Oct 03 15:01:36 2019
Start of data points
2.09530,127315
2.10343,123281
2.11155,114078
2.11968,112207
2.12780,114798
2.13592,113158
2.14405,108056
2.15217,108007
2.16028,109105
2.16842,102769
2.17653,100039
2.18467,97888
2.19278,105036
2.20090,93481
2.20903,93368
2.21715,92051
2.22528,87632
2.23340,94783
2.24152,85988
2.24965,85027
2.25777,86898
2.26590,90594
2.27402,227642
2.28213,962279
2.29027,1282151
2.29838,665333
2.30650,371988
2.31463,286832
2.32275,256066
2.33088,228045
2.33900,210210
2.34712,199264
2.35525,193853
2.36337,172173
2.37150,162247
2.37962,165247
2.38773,183834
2.39587,202118
2.40398,158785
2.41212,157685
2.42023,143326
2.42835,148198
2.43648,150633
2.44460,142543
2.45272,152688
2.46085,148924
2.46897,139242
2.47710,132382
2.48522,126259
2.49333,129204
2.50147,139542
2.50958,135374
2.51772,131504
2.52583,127448
2.53395,116345
2.54208,117211
2.55020,118730
2.55832,125168
2.56645,144893
2.57457,136170
2.58270,119422
2.59082,109751
2.59893,110725
2.60707,109371
2.61518,187656
2.62332,310176
2.63143,276792
2.63955,204468
2.64768,161390
2.65580,144674
2.66393,137841
2.67205,131246
2.68017,134056
2.68830,160456
2.69642,150962
2.70453,123184
2.71267,111521
2.72078,112431
2.72892,105646
2.73703,101378
2.74515,108444
2.75328,108909
2.76140,104987
2.76953,100755
2.77765,103798
2.78577,105914
2.79390,145694
2.80202,147570
2.81015,130390
2.81827,127505
2.82638,147622
2.83452,249789
2.84263,445809
2.85075,412487
2.85888,249540
2.86700,188658
2.87513,186482
2.88325,162066
2.89137,132000
2.89950,127711
2.90762,121880
2.91575,113205
2.92387,104691
2.93198,101981
2.94012,94701
2.94823,97443
2.95635,95123
2.96448,93681
2.97260,94698
2.98073,94660
2.98885,96875
2.99697,91393
3.00510,99907
3.01322,103856
3.02135,118325
3.02947,135853
3.03758,278066
3.04572,536078
3.05383,776217
3.06197,2007289
3.07008,5042556
3.07820,5849917
3.08633,3667604
3.09445,2003023
3.10257,1719577
3.11070,1967071
3.11882,2718347
3.12695,2855710
3.13507,1978019
3.14318,1330960
3.15132,1009948
3.15943,813427
3.16757,656292
3.17568,574143
3.18380,536428
3.19193,542442
3.20005,794432
3.20817,1082987
3.21630,958020
3.22442,718903
3.23255,600048
3.24067,515887
3.24878,443851
3.25692,397750
3.26503,348064
3.27317,314482
3.28128,288888
3.28940,315872
3.29753,602251
3.30565,1616339
3.31378,3261232
3.32190,4212993
3.33002,3726210
3.33815,2666120
3.34627,1885823
3.35438,1434448
3.36252,1149142
3.37063,958476
3.37877,889780
3.38688,956246
3.39500,1031639
3.40313,950635
3.41125,917950
3.41938,1485797
3.42750,2438756
3.43562,2485562
3.44375,1706131
3.45187,1047734
3.46000,770052
3.46812,625196
3.47623,557064
3.48437,503195
3.49248,440777
3.50060,399255
3.50873,361845
3.51685,334452
3.52498,306629
3.53310,293589
3.54122,270492
3.54935,278464
3.55747,266203
3.56560,240362
3.57372,238369
3.58183,228464
3.58997,239415
3.59808,236821
3.60620,225870
3.61433,229616
3.62245,254244
3.63058,409821
3.63870,852760
3.64682,1448241
3.65495,1523721
3.66307,1088633
3.67120,754089
3.67932,1086419
3.68743,2409007
3.69557,3425903
3.70368,2822746
3.71182,1820488
3.71993,1261317
3.72805,1008280
3.73618,860123
3.74430,757345
3.75242,682443
3.76055,613889
3.76867,583802
3.77680,551078
3.78492,543417
3.79303,525458
3.80117,489885
3.80928,495690
3.81742,581515
3.82553,816532
3.83365,948916
3.84178,809862
3.84990,641447
3.85803,533001
3.86615,475845
3.87427,419191
3.88240,387147
3.89052,360685
3.89863,336071
3.90677,322189
3.91488,310968
3.92302,321470
3.93113,382900
3.93925,482333
3.94738,517146
3.95550,478669
3.96363,596077
3.97175,1049551
3.97987,1476757
3.98800,1366040
3.99612,912187
4.00423,682616
4.01237,1049676
4.02048,2133391
4.02862,3053659
4.03673,2641607
4.04485,1592416
4.05298,912920
4.06110,620160
4.06923,483643
4.07735,401463
4.08547,362176
4.09360,329564
4.10172,299987
4.10985,280580
4.11797,270226
4.12608,252029
4.13422,244663
4.14233,245255
4.15045,265876
4.15858,319214
4.16670,362365
4.17483,346181
4.18295,296274
4.19107,268359
4.19920,242868
4.20732,220186
4.21545,257739
4.22357,713659
4.23168,2976777
4.23982,8010139
4.24793,1.347586E+07
4.25605,1.567326E+07
4.26418,1.271383E+07
4.27230,7803477
4.28043,4760109
4.28855,3244284
4.29667,2382107
4.30480,1846012
4.31292,1488576
4.32105,1252146
4.32917,1074181
4.33728,955239
4.34542,850128
4.35353,792483
4.36167,745783
4.36978,728589
4.37790,677570
4.38603,621863
4.39415,557382
4.40227,509055
4.41040,459451
4.41852,435380
4.42665,387622
4.43477,357333
4.44288,330767
4.45102,302212
4.45913,279031
4.46727,284804
4.47538,289082
4.48350,270774
4.49163,266905
4.49975,262911
4.50788,261903
4.51600,251256
4.52412,259456
4.53225,258216
4.54037,259507
4.54848,258341
4.55662,260911
4.56473,245088
4.57287,241715
4.58098,222267
4.58910,225532
4.59723,214807
4.60535,208501
4.61348,208933
4.62160,194695
4.62972,206320
4.63785,260048
4.64597,377155
4.65410,469350
4.66222,487945
4.67033,400362
4.67847,313313
4.68658,267366
4.69470,243834
4.70283,229139
4.71095,216945
4.71908,205369
4.72720,194889
4.73532,187818
4.74345,190927
4.75157,184197
4.75970,175720
4.76782,180184
4.77593,165715
4.78407,172997
4.79218,169158
4.80030,175877
4.80843,218818
4.81655,302203
4.82468,357511
4.83280,338368
4.84092,291972
4.84905,262095
4.85717,255033
4.86530,244533
4.87342,231842
4.88153,223638
4.88967,205598
4.89778,198122
4.90592,186077
4.91403,183178
4.92215,196784
4.93028,220437
4.93840,371315
4.94652,718002
4.95465,1305060
4.96277,1842179
4.97090,1999395
4.97902,1700993
4.98713,1270195
4.99527,951461
5.00338,726714
5.01152,593761
5.01963,520581
5.02775,466154
5.03588,469442
5.04400,574723
5.05212,788641
5.06025,909152
5.06837,854309
5.07650,701504
5.08462,581400
5.09273,488503
5.10087,453704
5.10898,427949
5.11712,427964
5.12523,444100
5.13335,462600
5.14148,454617
5.14960,410853
5.15773,377153
5.16585,371240
5.17397,375692
5.18210,393488
5.19022,415589
5.19833,433760
5.20647,424845
5.21458,400532
5.22272,374392
5.23083,346989
5.23895,311328
5.24708,306138
5.25520,311053
5.26333,295244
5.27145,274960
5.27957,249058
5.28770,236391
5.29582,226548
5.30395,224943
5.31207,221659
5.32018,212892
5.32832,210959
5.33643,203253
5.34455,203543
5.35268,211131
5.36080,220611
5.36893,204050
5.37705,197350
5.38517,185556
5.39330,191768
5.40142,188984
5.40955,191651
5.41767,181587
5.42578,182642
5.43392,182134
5.44203,171442
5.45015,173010
5.45828,171561
5.46640,177738
5.47453,177486
5.48265,169106
5.49077,162281
5.49890,164200
5.50702,154954
5.51515,156625
5.52327,162301
5.53138,163261
5.53952,160858
5.54763,166100
5.55577,158169
5.56388,154389
5.57200,162357
5.58013,168014
5.58825,173724
5.59637,183510
5.60450,182326
5.61262,167734
5.62075,165726
5.62887,162607
5.63698,174253
5.64512,180147
5.65323,190467
5.66137,183680
5.66948,182655
5.67760,164064
5.68573,167748
5.69385,173161
5.70198,192309
5.71010,207046
5.71822,210090
5.72635,214163
5.73447,212782
5.74258,216269
5.75072,210378
5.75883,200944
5.76697,199938
5.77508,194021
5.78320,208368
5.79133,206577
5.79945,201921
5.80758,196838
5.81570,211422
5.82382,293694
5.83195,478029
5.84007,731777
5.84818,935360
5.85632,938251
5.86443,780997
5.87257,575129
5.88068,398730
5.88880,301289
5.89693,251714
5.90505,218990
5.91318,198996
5.92130,207759
5.92942,251044
5.93755,356031
5.94567,422942
5.95380,449232
5.96192,408971
5.97003,331200
5.97817,289242
5.98628,275715
5.99440,289913
6.00253,312185
6.01065,302787
6.01878,262781
6.02690,215248
6.03502,183333
6.04315,160329
6.05127,145091
6.05940,139487
6.06752,129515
6.07563,127742
6.08377,131196
6.09188,124634
6.10000,116727
6.10813,118173
6.11625,113769
6.12438,105422
6.13250,118332
6.14062,149666
6.14875,211130
6.15687,305679
6.16500,336979
6.17312,311033
6.18123,263392
6.18937,216439
6.19748,189729
6.20562,189471
6.21373,193984
6.22185,200476
6.22998,188196
6.23810,182969
6.24622,170569
6.25435,163302
6.26247,161425
6.27060,158304
6.27872,158432
6.28683,161140
6.29497,158883
6.30308,159826
6.31122,157848
6.31933,163649
6.32745,168227
6.33558,183736
6.34370,211398
6.35183,234128
6.35995,250912
6.36807,235462
6.37620,220097
6.38432,207689
6.39243,204711
6.40057,198406
6.40868,192326
6.41682,190259
6.42493,192277
6.43305,192061
6.44118,189117
6.44930,194654
6.45743,199993
6.46555,191798
6.47367,198383
6.48180,197875
6.48992,202696
6.49803,208853
6.50617,205089
6.51428,209967
6.52242,209638
6.53053,222998
6.53865,221844
6.54678,215476
6.55490,224191
6.56303,224812
6.57115,220914
6.57927,230808
6.58740,233007
6.59552,231030
6.60365,238028
6.61177,233849
6.61988,233519
6.62802,230570
6.63613,228247
6.64425,228652
6.65238,200628
6.66050,157059
6.66863,147782
6.67675,148229
6.68487,158416
6.69300,155762
6.70112,170527
6.70925,174114
6.71737,191080
6.72548,202199
6.73362,208974
6.74173,183616
6.74987,156451
6.75798,131496
6.76610,120804
6.77423,111204
6.78235,107505
6.79047,106678
6.79860,107173
6.80672,101866
6.81485,108753
6.82297,133236
6.83108,179825
6.83922,286303
6.84733,424395
6.85547,548230
6.86358,598412
6.87170,544538
6.87983,422681
6.88795,307428
6.89607,207462
6.90420,150555
6.91232,124881
6.92045,110291
6.92857,98648
6.93668,91105
6.94482,82904
6.95293,79333
6.96107,79179
6.96918,86016
6.97730,98219
6.98543,129461
6.99355,172664
7.00168,221479
7.00980,254227
7.01792,268479
7.02605,240846
7.03417,200930
7.04228,156713
7.05042,124665
7.05853,104997
7.06667,99610
7.07478,90875
7.08290,82028
7.09103,87630
7.09915,86214
7.10728,87956
7.11540,81985
7.12352,82537
7.13165,76375
7.13977,76437
7.14790,79085
7.15602,81682
7.16413,89699
7.17227,104838
7.18038,117755
7.18850,156650
7.19663,283649
7.20475,628986
7.21288,1127033
7.22100,1451072
7.22912,1377735
7.23725,991813
7.24537,614889
7.25350,363098
7.26162,238272
7.26973,166183
7.27787,137215
7.28598,122817
7.29410,120062
7.30223,117463
7.31035,116325
7.31848,119948
7.32660,112354
7.33472,104815
7.34285,100655
7.35097,112373
7.35910,135501
7.36722,158437
7.37533,191599
7.38347,211820
7.39158,212923
7.39972,192548
7.40783,148820
7.41595,125480
7.42408,111034
7.43220,100063
7.44032,95939
7.44845,100892
7.45657,99140
7.46470,104576
7.47282,119525
7.48093,137502
7.48907,151352
7.49718,151126
7.50532,130490
7.51343,122407
7.52155,102699
7.52968,88298
7.53780,85914
7.54592,82620
7.55405,84417
7.56217,91023
7.57030,105343
7.57842,125020
7.58653,138280
7.59467,143261
7.60278,142293
7.61092,118682
7.61903,104804
7.62715,87747
7.63528,90515
7.64340,74286
7.65153,71226
7.65965,70420
7.66777,69313
7.67590,68319
7.68402,68846
7.69213,66814
7.70027,67326
7.70838,66183
7.71652,60319
7.72463,67659
7.73275,67662
7.74088,62208
7.74900,64994
7.75713,59759
7.76525,64103
7.77337,62304
7.78150,66685
7.78962,65488
7.79775,64198
7.80587,66041
7.81398,62324
7.82212,64315
7.83023,61957
7.83835,66904
7.84648,66159
7.85460,65064
7.86273,59559
7.87085,58530
7.87897,57172
7.88710,64015
7.89522,65556
7.90335,64415
7.91147,66124
7.91958,69516
7.92772,70153
7.93583,70771
7.94395,72057
7.95208,79860
7.96020,89400
7.96833,88914
7.97645,87914
7.98457,83701
7.99270,76762
8.00082,67042
8.00895,61723
8.01707,58017
8.02518,57218
8.03332,54343
8.04143,58933
8.04957,53797
8.05768,53491
8.06580,54788
8.07393,49889
8.08205,53867
8.09017,59307
8.09830,53309
8.10642,54636
8.11455,55479
8.12267,55555
8.13078,55370
8.13892,55908
8.14703,61139
8.15517,66835
8.16328,69484
8.17140,70357
8.17953,70783
8.18765,67236
8.19578,67673
8.20390,59376
8.21202,53465
8.22015,54741
8.22827,54753
8.23638,52810
8.24452,59445
8.25263,56099
8.26077,51309
8.26888,53511
8.27700,55891
8.28513,52143
8.29325,53017
8.30138,52828
8.30950,50984
8.31762,52219
8.32575,56468
8.33387,61654
8.34198,67045
8.35012,69198
8.35823,69438
8.36637,63407
8.37448,61238
8.38260,59920
8.39073,55935
8.39885,50764
8.40698,51785
8.41510,47167
8.42322,48907
8.43135,48775
8.43947,48643
8.44760,47187
8.45572,54910
8.46383,51244
8.47197,51204
8.48008,46676
8.48820,47747
8.49633,48837
8.50445,48223
8.51258,53506
8.52070,62645
8.52882,91113
8.53695,144448
8.54507,200418
8.55320,225344
8.56132,203796
8.56943,151822
8.57757,105627
8.58568,76670
8.59380,66717
8.60193,61940
8.61005,61540
8.61818,59515
8.62630,60813
8.63442,56593
8.64255,57074
8.65067,58179
8.65880,55176
8.66692,53249
8.67503,54893
8.68317,52895
8.69128,53431
8.69942,56152
8.70753,55274
8.71565,57871
8.72378,63581
8.73190,70853
8.74002,100103
8.74815,169866
8.75627,285153
8.76440,427215
8.77252,521351
8.78063,483344
8.78877,383908
8.79688,258842
8.80502,185442
8.81313,146581
8.82125,123621
8.82938,113102
8.83750,109238
8.84563,100672
8.85375,100231
8.86187,93384
8.87000,87918
8.87812,84743
8.88623,85515
8.89437,81254
8.90248,79789
8.91062,74235
8.91873,72770
8.92685,77920
8.93498,80379
8.94310,86163
8.95123,92480
8.95935,89673
8.96747,81588
8.97560,79423
8.98372,70241
8.99185,70056
8.99997,73595
9.00808,68946
9.01622,68634
9.02433,68877
9.03245,69973
9.04058,66813
9.04870,67404
9.05683,65289
9.06495,61934
9.07307,65235
9.08120,67533
9.08932,60374
9.09745,64632
9.10557,59973
9.11368,66730
9.12182,67222
9.12993,69616
9.13805,75172
9.14618,70082
9.15430,71390
9.16243,68507
9.17055,66045
9.17867,60298
9.18680,60303
9.19492,59323
9.20305,58155
9.21117,59841
9.21928,59356
9.22742,56993
9.23553,52509
9.24367,56598
9.25178,55341
9.25990,60018
9.26803,59823
9.27615,59879
9.28427,65201
9.29240,67269
9.30052,69348
9.30865,75691
9.31677,67881
9.32488,73549
9.33302,60975
9.34113,62234
9.34927,64306
9.35738,63225
9.36550,64377
9.37363,57808
9.38175,61139
9.38987,59588
9.39800,55123
9.40612,54076
9.41425,56853
9.42237,55797
9.43048,57216
9.43862,65328
9.44673,71075
9.45487,70219
9.46298,75799
9.47110,73613
9.47923,65323
9.48735,58839
9.49548,56964
9.50360,53384
9.51172,58804
9.51985,61885
9.52797,61967
9.53608,65100
9.54422,62872
9.55233,62092
9.56047,56409
9.56858,58327
9.57670,51562
9.58483,46915
9.59295,46074
9.60108,46732
9.60920,50566
9.61732,46287
9.62545,46382
9.63357,43558
9.64170,48678
9.64982,48404
9.65793,48214
9.66607,53645
9.67418,51278
9.68230,47984
9.69043,46093
9.69855,43953
9.70668,38356
9.71480,42623
9.72292,43352
9.73105,38365
9.73917,38062
9.74730,38892
9.75542,38484
9.76353,38608
9.77167,38472
9.77978,37891
9.78790,38335
9.79603,37771
9.80415,37120
9.81228,37456
9.82040,34970
9.82852,39041
9.83665,37263
9.84477,40661
9.85290,36734
9.86102,37495
9.86913,40651
9.87727,41433
9.88538,39491
9.89352,39830
9.90163,38699
9.90975,36184
9.91788,36161
9.92600,36489
9.93412,43017
9.94225,47715
9.95037,66157
9.95850,83755
9.96662,97736
9.97473,112760
9.98287,116427
9.99098,101900
9.99912,89007
10.00723,77399
10.01535,62317
10.02348,56414
10.03160,54427
10.03973,48807
10.04785,49956
10.05597,47243
10.06410,49541
10.07222,45318
10.08033,50065
10.08847,50996
10.09658,46122
10.10472,46149
10.11283,45913
10.12095,42251
10.12908,47885
10.13720,42854
10.14533,43135
10.15345,44327
10.16157,43694
10.16970,40015
10.17782,39820
10.18593,37226
10.19407,40013
10.20218,38150
10.21032,38354
10.21843,37678
10.22655,39294
10.23468,43999
10.24280,43704
10.25093,45237
10.25905,59292
10.26717,95364
10.27530,195316
10.28342,424233
10.29155,827508
10.29967,1395542
10.30778,2026207
10.31592,3061103
10.32403,4689394
10.33215,6501161
10.34028,7433942
10.34840,6788798
10.35653,4826243
10.36465,2725272
10.37277,1413102
10.38090,794653
10.38902,564909
10.39715,444185
10.40527,352002
10.41338,278288
10.42152,231514
10.42963,195129
10.43775,162306
10.44588,151501
10.45400,143176
10.46213,127950
10.47025,115002
10.47837,114952
10.48650,110786
10.49462,103297
10.50275,100016
10.51087,89485
10.51898,89535
10.52712,88401
10.53523,89862
10.54337,88612
10.55148,95107
10.55960,89912
10.56773,85532
10.57585,76384
10.58397,78999
10.59210,80667
10.60022,73320
10.60835,71156
10.61647,68938
10.62458,65143
10.63272,68586
10.64083,69286
10.64897,65851
10.65708,61670
10.66520,66243
10.67333,57520
10.68145,54434
10.68958,56376
10.69770,56044
10.70582,61212
10.71395,61564
10.72207,60485
10.73018,60491
10.73832,62684
10.74643,59196
10.75457,60540
10.76268,60489
10.77080,58725
10.77893,59860
10.78705,57431
10.79518,54064
10.80330,52207
10.81142,54534
10.81955,51397
10.82767,54701
10.83578,47728
10.84392,47544
10.85203,50220
10.86017,44762
10.86828,51149
10.87640,46983
10.88453,48769
10.89265,47248
10.90078,45787
10.90890,46084
10.91702,45085
10.92515,44672
10.93327,44633
10.94140,45062
10.94952,44933
10.95763,42202
10.96577,44517
10.97388,44960
10.98200,43117
10.99013,47673
10.99825,47109
11.00638,47455
11.01450,45046
11.02262,45503
11.03075,48764
11.03887,43511
11.04700,47435
11.05512,44901
11.06323,43479
11.07137,43278
11.07948,42113
11.08762,41916
11.09573,47579
11.10385,43218
11.11198,43265
11.12010,43333
11.12822,44140
11.13635,42990
11.14447,40991
11.15260,41291
11.16072,42195
11.16883,42092
11.17697,42595
11.18508,46858
11.19322,40817
11.20133,44515
11.20945,45705
11.21758,41554
11.22570,41317
11.23382,38992
11.24195,35794
11.25007,37588
11.25820,37386
11.26632,38629
11.27443,40513
11.28257,48243
11.29068,55247
11.29882,66279
11.30693,78457
11.31505,89517
11.32318,94452
11.33130,109340
11.33943,137565
11.34755,172451
11.35567,194799
11.36380,197273
11.37192,180275
11.38003,154332
11.38817,124252
11.39628,105743
11.40442,86629
11.41253,79557
11.42065,72051
11.42878,63151
11.43690,57185
11.44503,51819
11.45315,48587
11.46127,45561
11.46940,47513
11.47752,48052
11.48565,53097
11.49377,50696
11.50188,67290
11.51002,72882
11.51813,75108
11.52625,73042
11.53438,70731
11.54250,71240
11.55063,68137
11.55875,63844
11.56687,62255
11.57500,56692
11.58312,59583
11.59125,56732
11.59937,62281
11.60748,70212
11.61562,81658
11.62373,92981
11.63185,94690
11.63998,84206
11.64810,68560
11.65623,56189
11.66435,49605
11.67247,46663
11.68060,52549
11.68872,50311
11.69685,50073
11.70497,54876
11.71308,58040
11.72122,60177
11.72933,62640
11.73747,66567
11.74558,60402
11.75370,57098
11.76183,53129
11.76995,51304
11.77807,51215
11.78620,46885
11.79432,48281
11.80245,47011
11.81057,42838
11.81868,45178
11.82682,42094
11.83493,42927
11.84307,39660
11.85118,42644
11.85930,41441
11.86743,38173
11.87555,37606
11.88367,36712
11.89180,38581
11.89992,37888
11.90805,39355
11.91617,41282
11.92428,39206
11.93242,43616
11.94053,47794
11.94867,48900
11.95678,51030
11.96490,52227
11.97303,50201
11.98115,44299
11.98928,44585
11.99740,43709
12.00552,54382
12.01365,52050
12.02177,53029
12.02988,52203
12.03802,50153
12.04613,46770
12.05427,38523
12.06238,40258
12.07050,37025
12.07863,40482
12.08675,39426
12.09488,35696
12.10300,38443
12.11112,35374
12.11925,36142
12.12737,37498
12.13550,37300
12.14362,40088
12.15173,37286
12.15987,42375
12.16798,34896
12.17610,36101
12.18423,39986
12.19235,34726
12.20048,37067
12.20860,38547
12.21672,33327
12.22485,34507
12.23297,34580
12.24110,35886
12.24922,38357
12.25733,35378
12.26547,35787
12.27358,36938
12.28170,31603
12.28983,38503
12.29795,32749
12.30608,33282
12.31420,32166
12.32232,32584
12.33045,30645
12.33857,31318
12.34670,31250
12.35482,28929
12.36293,32751
12.37107,29970
12.37918,35113
12.38732,35701
12.39543,38403
12.40355,43484
12.41168,58605
12.41980,76980
12.42792,85236
12.43605,89138
12.44417,81996
12.45230,64193
12.46042,58298
12.46853,46957
12.47667,45178
12.48478,45738
12.49292,38892
12.50103,37095
12.50915,37892
12.51728,34729
12.52540,37384
12.53353,38080
12.54165,44924
12.54977,53825
12.55790,72506
12.56602,93331
12.57413,95260
12.58227,88164
12.59038,74172
12.59852,60562
12.60663,51964
12.61475,45710
12.62288,46521
12.63100,44045
12.63913,43210
12.64725,36280
12.65537,34543
12.66350,36915
12.67162,37339
12.67973,35347
12.68787,35273
12.69598,33259
12.70412,34796
12.71223,33213
12.72035,34703
12.72848,33559
12.73660,36655
12.74473,39258
12.75285,37913
12.76097,37945
12.76910,40943
12.77722,36942
12.78535,36736
12.79347,33874
12.80158,37333
12.80972,38171
12.81783,36567
12.82595,35763
12.83408,35733
12.84220,34926
12.85033,37672
12.85845,35660
12.86657,35162
12.87470,37031
12.88282,32020
12.89095,31741
12.89907,31303
12.90718,28866
12.91532,31082
12.92343,31741
12.93155,32673
12.93968,29974
12.94780,34936
12.95593,44063
12.96405,56414
12.97217,69805
12.98030,81507
12.98842,84920
12.99655,85957
13.00467,77506
13.01278,71150
13.02092,63692
13.02903,63632
13.03717,56200
13.04528,58484
13.05340,48521
13.06153,44605
13.06965,46794
13.07777,43340
13.08590,39871
13.09402,41257
13.10215,40748
13.11027,40381
13.11838,34698
13.12652,37994
13.13463,35524
13.14277,35085
13.15088,33979
13.15900,35095
13.16713,34110
13.17525,38473
13.18338,37763
13.19150,35251
13.19962,34579
13.20775,31862
13.21587,34180
13.22398,33963
13.23212,37411
13.24023,35406
13.24837,35394
13.25648,36787
13.26460,38325
13.27273,40658
13.28085,41515
13.28898,41138
13.29710,38353
13.30522,38429
13.31335,40384
13.32147,40165
13.32958,40680
13.33772,41302
13.34583,38465
13.35397,39193
13.36208,37214
13.37020,34687
13.37833,36473
13.38645,36549
13.39458,34843
13.40270,36552
13.41082,35050
13.41895,33592
13.42707,34612
13.43520,31268
13.44332,30836
13.45143,32388
13.45957,29933
13.46768,30728
13.47580,30523
13.48393,32989
13.49205,35163
13.50018,31651
13.50830,29970
13.51642,29127
13.52455,31864
13.53267,34648
13.54080,31779
13.54892,35222
13.55703,34535
13.56517,36700
13.57328,37804
13.58142,36791
13.58953,40997
13.59765,44124
13.60578,58619
13.61390,72852
13.62202,91975
13.63015,100863
13.63827,107532
13.64640,94005
13.65452,85280
13.66263,63807
13.67077,59231
13.67888,54019
13.68702,45890
13.69513,46350
13.70325,44258
13.71138,42827
13.71950,42543
13.72762,40050
13.73575,40043
13.74387,36837
13.75200,42087
13.76012,45817
13.76823,62981
13.77637,74921
13.78448,89831
13.79262,99052
13.80073,98415
13.80885,104516
13.81698,100290
13.82510,106623
13.83323,116456
13.84135,116916
13.84947,124541
13.85760,110814
13.86572,95811
13.87383,82761
13.88197,71325
13.89008,60402
13.89822,51017
13.90633,55315
13.91445,50932
13.92258,50399
13.93070,49141
13.93883,51136
13.94695,45329
13.95507,43734
13.96320,43594
13.97132,44628
13.97943,47624
13.98757,44748
13.99568,42942
14.00382,41890
14.01193,44295
14.02005,41938
14.02818,41884
14.03630,38297
14.04443,39943
14.05255,42308
14.06067,38906
14.06880,36168
14.07692,39110
14.08505,37354
14.09317,34940
14.10128,36748
14.10942,33038
14.11753,33387
14.12565,35399
14.13378,42594
14.14190,69960
14.15003,87942
14.15815,122802
14.16627,151873
14.17440,156834
14.18252,137750
14.19065,112530
14.19877,86911
14.20688,81294
14.21502,71040
14.22313,67563
14.23127,63811
14.23938,60247
14.24750,59052
14.25563,58846
14.26375,56836
14.27187,53351
14.28000,48550
14.28812,52834
14.29625,47699
14.30437,46404
14.31248,41732
14.32062,38890
14.32873,33996
14.33687,32232
14.34498,32914
14.35310,37090
14.36123,38489
14.36935,34705
14.37748,36548
14.38560,37132
14.39372,45409
14.40185,62864
14.40997,94024
14.41808,136010
14.42622,164861
14.43433,180072
14.44247,161858
14.45058,122128
14.45870,92901
14.46683,71977
14.47495,57701
14.48308,51977
14.49120,46638
14.49932,50866
14.50745,44909
14.51557,46207
14.52368,44228
14.53182,37871
14.53993,40841
14.54807,36765
14.55618,37976
14.56430,38520
14.57243,34263
14.58055,32732
14.58868,39886
14.59680,34979
14.60492,36395
14.61305,35653
14.62117,35078
14.62930,32244
14.63742,32703
14.64553,31415
14.65367,33287
14.66178,35493
14.66990,34403
14.67803,32848
14.68615,33126
14.69428,28236
14.70240,33900
14.71052,30293
14.71865,32639
14.72677,34076
14.73490,31659
14.74302,33199
14.75113,33979
14.75927,34649
14.76738,32137
14.77550,34910
14.78363,35198
14.79175,50236
14.79988,92853
14.80800,212723
14.81612,427038
14.82425,799292
14.83237,1151002
14.84050,1297216
14.84862,1157444
14.85673,856765
14.86487,549706
14.87298,356629
14.88112,240632
14.88923,174312
14.89735,138079
14.90548,119868
14.91360,104874
14.92172,97555
14.92985,86560
14.93797,83407
14.94610,74032
14.95422,72653
14.96233,67326
14.97047,66117
14.97858,63541
14.98672,59280
14.99483,61156
15.00295,58979
15.01108,55779
15.01920,50732
15.02733,57218
15.03545,50101
15.04357,48218
15.05170,50976
15.05982,53927
15.06793,45573
15.07607,47000
15.08418,47679
15.09232,46648
15.10043,44057
15.10855,41066
15.11668,42247
15.12480,43701
15.13293,44185
15.14105,45504
15.14917,48457
15.15730,45528
15.16542,46243
15.17353,43491
15.18167,43493
15.18978,40819
15.19792,39703
15.20603,35954
15.21415,37037
15.22228,35349
15.23040,36188
15.23853,34631
15.24665,34979
15.25477,37345
15.26290,36314
15.27102,34008
15.27915,35633
15.28727,34984
15.29538,34067
15.30352,33429
15.31163,35995
15.31975,32970
15.32788,29909
15.33600,32948
15.34413,33243
15.35225,32177
15.36037,32265
15.36850,34073
15.37662,29823
15.38475,32400
15.39287,31254
15.40098,31864
15.40912,30482
15.41723,30062
15.42537,28922
15.43348,35010
15.44160,30189
15.44973,30797
15.45785,31622
15.46597,35837
15.47410,34573
15.48222,39497
15.49035,45429
15.49847,50163
15.50658,54071
15.51472,61919
15.52283,59832
15.53097,55436
15.53908,49714
15.54720,42622
15.55533,40298
15.56345,39231
15.57157,35906
15.57970,39125
15.58782,33437
15.59595,31162
15.60407,30962
15.61218,28862
15.62032,33251
15.62843,31727
15.63657,31899
15.64468,28829
15.65280,29730
15.66093,29635
15.66905,26681
15.67718,32328
15.68530,30132
15.69342,30901
15.70155,30160
15.70967,28245
15.71778,29298
15.72592,29564
15.73403,31853
15.74217,32583
15.75028,33755
15.75840,45075
15.76653,58999
15.77465,79676
15.78278,107330
15.79090,134618
15.79902,132940
15.80715,114252
15.81527,102137
15.82338,77834
15.83152,58949
15.83963,53721
15.84777,50201
15.85588,42614
15.86400,45143
15.87213,46500
15.88025,48746
15.88838,44962
15.89650,47444
15.90462,46420
15.91275,47550
15.92087,41510
15.92900,39873
15.93712,37656
15.94523,42075
15.95337,40752
15.96148,36367
15.96960,36897
15.97773,39578
15.98585,40030
15.99398,37035
16.00210,43522
16.01022,44856
16.01835,43440
16.02647,47876
16.03460,49542
16.04272,46938
16.05083,44027
16.05897,42771
16.06708,38919
16.07522,38303
16.08333,38412
16.09145,35590
16.09958,32170
16.10770,32396
16.11582,32957
16.12395,32978
16.13207,35262
16.14020,36256
16.14832,33545
16.15643,37056
16.16457,34753
16.17268,32951
16.18082,32558
16.18893,32003
16.19705,35059
16.20518,30646
16.21330,34813
16.22142,32865
16.22955,36588
16.23767,34902
16.24580,33476
16.25392,31084
16.26203,30598
16.27017,32742
16.27828,34211
16.28642,30801
16.29453,32775
16.30265,32120
16.31078,33104
16.31890,35789
16.32703,35839
16.33515,31271
16.34327,34024
16.35140,32329
16.35952,32089
16.36763,35523
16.37577,33510
16.38388,33947
16.39202,33647
16.40013,33912
16.40825,32374
16.41638,33366
16.42450,32556
16.43263,34101
16.44075,36131
16.44887,45890
16.45700,54862
16.46512,76021
16.47325,106545
16.48137,142587
16.48948,155361
16.49762,152238
16.50573,121817
16.51385,90692
16.52198,69103
16.53010,57543
16.53823,52517
16.54635,53280
16.55447,49335
16.56260,43869
16.57072,41921
16.57885,39899
16.58697,39760
16.59508,40605
16.60322,39012
16.61133,39230
16.61945,38985
16.62758,38682
16.63570,36911
16.64383,36604
16.65195,35485
16.66007,38632
16.66820,35225
16.67632,36420
16.68445,32170
16.69257,34380
16.70068,33071
16.70882,33349
16.71693,35320
16.72507,33051
16.73318,30638
16.74130,34307
16.74943,34278
16.75755,32030
16.76567,39641
16.77380,33839
16.78192,32388
16.79005,31222
16.79817,37087
16.80628,31925
16.81442,33768
16.82253,34103
16.83067,30491
16.83878,33151
16.84690,30735
16.85503,30817
16.86315,32350
16.87128,29661
16.87940,30640
16.88752,31272
16.89565,33489
16.90377,32751
16.91188,30577
16.92002,31353
16.92813,29899
16.93627,28771
16.94438,30522
16.95250,30521
16.96063,31088
16.96875,30685
16.97688,29656
16.98500,31570
16.99312,29383
17.00125,29490
17.00937,30525
17.01748,34222
17.02562,31175
17.03373,28990
17.04187,31369
17.04998,34889
17.05810,32491
17.06623,31861
17.07435,33867
17.08248,31424
17.09060,30563
17.09872,34502
17.10685,37142
17.11497,33496
17.12310,34408
17.13122,33450
17.13933,30291
17.14747,31649
17.15558,33899
17.16370,34409
17.17183,30715
17.17995,33900
17.18808,32316
17.19620,31229
17.20432,32599
17.21245,30867
17.22057,27996
17.22870,29036
17.23682,34019
17.24493,27306
17.25307,33035
17.26118,28679
17.26930,28607
17.27743,31891
17.28555,29769
17.29368,30452
17.30180,29862
17.30992,32656
17.31805,27885
17.32617,29978
17.33430,33592
17.34242,33707
17.35053,32430
17.35867,35631
17.36678,38042
17.37492,36258
17.38303,35657
17.39115,35887
17.39928,35602
17.40740,34715
17.41552,37595
17.42365,37915
17.43177,37475
17.43990,34792
17.44802,32454
17.45613,32374
17.46427,33574
17.47238,34541
17.48052,35610
17.48863,32193
17.49675,31128
17.50488,34377
17.51300,33319
17.52113,33805
17.52925,40559
17.53737,40322
17.54550,42328
17.55362,48514
17.56173,52190
17.56987,65892
17.57798,80024
17.58612,116093
17.59423,141701
17.60235,168725
17.61048,182913
17.61860,176223
17.62673,149855
17.63485,122022
17.64297,93033
17.65110,77845
17.65922,63514
17.66733,67342
17.67547,54802
17.68358,54122
17.69172,51165
17.69983,51267
17.70795,46059
17.71608,49987
17.72420,45455
17.73233,41336
17.74045,43682
17.74857,43200
17.75670,41897
17.76482,41144
17.77295,37162
17.78107,42361
17.78918,36850
17.79732,37046
17.80543,41166
17.81355,41144
17.82168,43766
17.82980,46047
17.83793,50063
17.84605,49508
17.85417,52246
17.86230,49730
17.87042,50862
17.87855,52963
17.88667,49524
17.89478,40667
17.90292,41022
17.91103,40341
17.91917,36995
17.92728,36342
17.93540,34273
17.94353,36544
17.95165,36185
17.95977,35895
17.96790,34052
17.97602,33255
17.98415,36112
17.99227,34688
18.00038,35815
18.00852,41800
18.01663,42230
18.02477,46415
18.03288,48409
18.04100,50879
18.04913,62244
18.05725,64484
18.06537,92037
18.07350,147941
18.08162,275472
18.08975,469063
18.09787,672425
18.10598,781982
18.11412,776660
18.12223,665416
18.13037,559844
18.13848,497697
18.14660,446707
18.15473,411667
18.16285,404186
18.17098,384754
18.17910,376925
18.18722,363446
18.19535,348375
18.20347,338850
18.21158,333777
18.21972,313346
18.22783,316782
18.23597,307013
18.24408,299745
18.25220,290101
18.26033,289690
18.26845,273579
18.27658,267909
18.28470,260568
18.29282,241769
18.30095,237513
18.30907,222920
18.31718,226267
18.32532,225665
18.33343,211659
18.34157,211264
18.34968,203036
18.35780,193545
18.36593,195599
18.37405,193076
18.38218,189379
18.39030,186876
18.39842,182675
18.40655,180037
18.41467,184394
18.42280,175775
18.43092,173279
18.43903,170379
18.44717,174713
18.45528,187935
18.46340,202421
18.47153,209446
18.47965,211260
18.48778,214622
18.49590,204613
18.50402,189359
18.51215,175001
18.52027,159654
18.52840,152412
18.53652,142173
18.54463,145390
18.55277,141752
18.56088,134655
18.56902,132658
18.57713,129627
18.58525,126315
18.59338,126485
18.60150,127122
18.60962,124124
18.61775,126366
18.62587,122724
18.63400,119983
18.64212,117125
18.65023,116803
18.65837,110698
18.66648,109707
18.67462,107561
18.68273,104419
18.69085,103062
18.69898,100286
18.70710,98346
18.71523,93253
18.72335,93333
18.73147,89881
18.73960,93247
18.74772,89310
18.75583,88906
18.76397,90289
18.77208,86935
18.78022,89356
18.78833,87180
18.79645,83469
18.80458,81376
18.81270,81847
18.82083,79851
18.82895,78703
18.83707,68876
18.84520,77111
18.85332,72742
18.86143,73940
18.86957,75454
18.87768,73388
18.88582,75972
18.89393,71908
18.90205,73018
18.91018,71585
18.91830,72226
18.92643,76192
18.93455,75437
18.94267,69115
18.95080,71731
18.95892,71991
18.96705,73630
18.97517,68595
18.98328,63822
18.99142,65090
18.99953,66556
19.00765,60219
19.01578,62267
19.02390,62240
19.03203,54881
19.04015,57977
19.04827,61239
19.05640,58165
19.06452,65433
19.07265,63161
19.08077,73039
19.08888,84230
19.09702,88697
19.10513,98876
19.11325,94859
19.12138,91240
19.12950,85723
19.13763,72065
19.14575,79326
19.15387,70021
19.16200,70267
19.17012,65833
19.17825,68987
19.18637,63832
19.19448,64727
19.20262,61740
19.21073,58398
19.21887,55010
19.22698,57037
19.23510,57227
19.24323,55433
19.25135,51527
19.25947,47785
19.26760,53526
19.27572,55203
19.28385,54861
19.29197,58778
19.30008,54153
19.30822,55076
19.31633,56089
19.32447,52239
19.33258,49217
19.34070,49359
19.34883,53299
19.35695,50522
19.36508,59546
19.37320,64262
19.38132,63968
19.38945,64085
19.39757,66621
19.40568,62333
19.41382,54634
19.42193,56230
19.43007,61188
19.43818,71243
19.44630,92631
19.45443,109097
19.46255,117437
19.47068,114545
19.47880,101218
19.48692,83281
19.49505,68307
19.50317,58058
19.51128,52134
19.51942,54883
19.52753,51596
19.53567,49564
19.54378,54969
19.55190,48862
19.56003,48983
19.56815,45160
19.57628,42950
19.58440,43893
19.59252,47176
19.60065,39837
19.60877,44147
19.61690,47312
19.62502,46200
19.63313,52953
19.64127,61149
19.64938,70974
19.65750,88292
19.66563,97115
19.67375,96172
19.68188,92429
19.69000,93868
19.69812,83678
19.70625,75551
19.71437,73022
19.72250,65453
19.73062,58903
19.73873,54220
19.74687,51588
19.75498,51045
19.76312,52044
19.77123,50143
19.77935,51841
19.78748,52555
19.79560,56091
19.80372,51802
19.81185,52199
19.81997,51246
19.82810,51162
19.83622,49073
19.84433,46582
19.85247,52930
19.86058,61693
19.86872,85098
19.87683,139414
19.88495,235810
19.89308,324839
19.90120,418979
19.90932,461076
19.91745,433088
19.92557,360327
19.93370,288444
19.94182,210603
19.94993,167541
19.95807,151731
19.96618,130041
19.97432,119114
19.98243,118178
19.99055,112119
19.99868,110258
20.00680,99057
20.01493,99567
20.02305,96233
20.03117,90649
20.03930,84574
20.04742,80727
20.05553,71273
20.06367,69101
20.07178,64530
20.07992,60547
20.08803,59145
20.09615,58241
20.10428,58111
20.11240,53350
20.12053,53368
20.12865,51591
20.13677,49793
20.14490,49208
20.15302,49847
20.16113,54314
20.16927,56353
20.17738,63270
20.18552,57772
20.19363,62813
20.20175,69622
20.20988,62110
20.21800,59341
20.22613,61266
20.23425,65880
20.24237,73685
20.25050,75978
20.25862,81575
20.26675,89904
20.27487,86423
20.28298,91890
20.29112,72700
20.29923,68739
20.30735,56748
20.31548,52845
20.32360,52090
20.33173,44178
20.33985,45069
20.34797,43321
20.35610,40831
20.36422,42123
20.37235,46284
20.38047,41309
20.38858,43481
20.39672,38476
20.40483,45907
20.41297,46276
20.42108,46847
20.42920,43888
20.43733,44242
20.44545,44033
20.45357,43986
20.46170,43374
20.46982,42129
20.47795,38441
20.48607,36739
20.49418,36043
20.50232,40279
20.51043,38031
20.51857,36318
20.52668,39796
20.53480,38436
20.54293,42546
20.55105,40236
20.55917,40552
20.56730,39611
20.57542,35532
20.58355,37334
20.59167,37752
20.59978,38522
20.60792,35635
20.61603,36801
20.62417,37071
20.63228,36137
20.64040,37559
20.64853,37748
20.65665,36322
20.66478,37256
20.67290,38619
20.68102,40209
20.68915,40820
20.69727,33771
20.70538,34351
20.71352,39244
20.72163,35757
20.72977,36990
20.73788,34453
20.74600,38478
20.75413,39899
20.76225,40660
20.77038,43604
20.77850,41967
20.78662,53046
20.79475,64916
20.80287,81719
20.81100,103430
20.81912,109474
20.82723,108166
20.83537,92415
20.84348,72953
20.85160,60102
20.85973,54610
20.86785,47723
20.87598,42699
20.88410,42084
20.89222,42806
20.90035,40270
20.90847,40587
20.91660,38376
20.92472,42169
20.93283,37684
20.94097,39297
20.94908,38778
20.95720,39633
20.96533,38075
20.97345,39532
20.98158,37489
20.98970,38212
20.99782,37688
21.00595,35319
21.01407,42736
21.02220,38394
21.03032,34967
21.03843,37563
21.04657,34610
21.05468,38321
21.06282,39406
21.07093,36468
21.07905,38930
21.08718,39851
21.09530,38640
21.10342,35676
21.11155,38902
21.11967,33077
21.12780,38145
21.13592,45779
21.14403,47614
21.15217,53479
21.16028,59596
21.16842,55424
21.17653,54246
21.18465,46498
21.19278,44519
21.20090,46085
21.20902,48582
21.21715,44493
21.22527,46702
21.23340,48055
21.24152,46842
21.24963,49327
21.25777,50434
21.26588,48773
21.27402,48684
21.28213,47540
21.29025,50458
21.29838,47016
21.30650,50677
21.31463,47030
21.32275,47680
21.33087,47594
21.33900,44236
21.34712,51111
21.35523,47352
21.36337,46336
21.37148,43712
21.37962,47632
21.38773,46100
21.39585,51809
21.40398,55628
21.41210,59721
21.42023,57880
21.42835,54738
21.43647,59165
21.44460,48933
21.45272,53354
21.46085,53123
21.46897,47542
21.47708,47410
21.48522,46610
21.49333,50159
21.50145,50991
21.50958,50423
21.51770,50000
21.52583,47044
21.53395,45789
21.54207,44874
21.55020,48808
21.55832,47339
21.56645,43587
21.57457,49949
21.58268,52362
21.59082,59738
21.59893,54479
21.60705,62103
21.61518,57239
21.62330,59152
21.63143,54229
21.63955,54912
21.64767,50256
21.65580,52128
21.66392,54522
21.67205,51876
21.68017,50542
21.68828,54307
21.69642,45743
21.70453,47127
21.71267,43272
21.72078,41609
21.72890,41603
21.73703,41972
21.74515,45816
21.75327,40322
21.76140,43219
21.76952,40508
21.77765,45301
21.78577,48941
21.79388,50146
21.80202,45812
21.81013,44935
21.81827,44742
21.82638,46650
21.83450,41729
21.84263,41405
21.85075,39245
21.85888,38666
21.86700,39850
21.87512,37011
21.88325,39029
21.89137,37500
21.89948,35617
21.90762,39876
21.91573,48328
21.92387,59164
21.93198,73474
21.94010,82985
21.94823,99689
21.95635,102686
21.96448,100852
21.97260,104012
21.98072,106981
21.98885,108938
21.99697,106313
22.00508,108702
22.01322,109869
22.02133,113843
22.02947,113801
22.03758,112130
22.04570,112866
22.05383,114561
22.06195,105808
22.07008,110916
22.07820,107107
22.08632,109239
22.09445,106329
22.10257,101157
22.11070,97299
22.11882,98159
22.12693,96262
22.13507,91646
22.14318,92570
22.15130,92069
22.15943,92137
22.16755,87425
22.17568,88499
22.18380,84953
22.19192,81497
22.20005,83563
22.20817,76893
22.21630,76032
22.22442,76923
22.23253,72093
22.24067,70912
22.24878,68063
22.25692,70635
22.26503,73084
22.27315,67778
22.28128,67452
22.28940,67281
22.29752,71101
22.30565,65619
22.31377,66850
22.32190,61605
22.33002,63827
22.33813,64086
22.34627,61037
22.35438,58722
22.36252,57137
22.37063,53576
22.37875,57194
22.38688,60572
22.39500,62456
22.40312,67407
22.41125,74688
22.41937,77025
22.42750,75904
22.43562,75272
22.44373,70722
22.45187,63179
22.45998,58529
22.46812,56023
22.47623,53152
22.48435,57067
22.49248,65239
22.50060,60866
22.50873,61009
22.51685,66375
22.52497,60539
22.53310,52756
22.54122,54963
22.54933,52469
22.55747,56649
22.56558,53119
22.57372,45914
22.58183,44819
22.58995,42923
22.59808,40936
22.60620,43760
22.61433,41474
22.62245,40594
22.63057,37151
22.63870,44321
22.64682,42438
22.65493,42939
22.66307,42245
22.67118,41820
22.67932,40419
22.68743,44866
22.69555,48030
22.70368,57176
22.71180,55927
22.71993,58457
22.72805,56642
22.73617,50906
22.74430,50219
22.75242,46968
22.76055,46958
22.76867,46945
22.77678,48842
22.78492,49030
22.79303,53406
22.80115,61062
22.80928,56865
22.81740,57368
22.82553,59373
22.83365,50249
22.84177,49742
22.84990,49075
22.85802,47529
22.86615,46385
22.87427,49376
22.88238,54055
22.89052,54462
22.89863,65385
22.90677,75451
22.91488,92035
22.92300,108202
22.93113,119470
22.93925,118406
22.94737,105063
22.95550,96563
22.96362,77136
22.97175,65514
22.97987,56906
22.98798,56237
22.99612,55602
23.00423,50048
23.01237,53008
23.02048,45820
23.02860,43700
23.03673,39150
23.04485,44432
23.05297,43485
23.06110,44015
23.06922,39772
23.07735,41441
23.08547,40182
23.09358,37939
23.10172,39328
23.10983,43443
23.11797,40960
23.12608,43489
23.13420,39622
23.14233,35861
23.15045,38999
23.15858,35563
23.16670,34632
23.17482,37355
23.18295,37641
23.19107,37109
23.19918,34208
23.20732,35827
23.21543,38991
23.22357,36433
23.23168,34610
23.23980,35269
23.24793,38275
23.25605,38432
23.26418,37302
23.27230,38620
23.28042,40151
23.28855,38996
23.29667,38118
23.30480,35731
23.31292,36455
23.32103,36939
23.32917,39647
23.33728,42918
23.34540,46122
23.35353,53341
23.36165,52028
23.36978,56905
23.37790,59799
23.38602,60350
23.39415,60520
23.40227,54941
23.41040,51704
23.41852,48965
23.42663,50700
23.43477,51051
23.44288,49170
23.45100,44954
23.45913,47943
23.46725,42414
23.47538,45897
23.48350,45979
23.49162,37780
23.49975,40694
23.50787,39068
23.51600,42896
23.52412,37770
23.53223,38723
23.54037,39215
23.54848,36475
23.55662,42384
23.56473,45491
23.57285,49373
23.58098,53513
23.58910,62323
23.59722,69704
23.60535,68984
23.61347,69285
23.62160,69535
23.62972,60997
23.63783,58620
23.64597,52488
23.65408,52171
23.66222,57352
23.67033,62628
23.67845,77399
23.68658,86285
23.69470,102018
23.70282,112181
23.71095,114575
23.71907,121865
23.72720,133563
23.73532,152246
23.74343,203682
23.75157,314212
23.75968,555500
23.76782,989196
23.77593,1552453
23.78405,1995212
23.79218,2187282
23.80030,1994670
23.80843,1693636
23.81655,1365267
23.82467,1048147
23.83280,815503
23.84092,643918
23.84903,518462
23.85717,448036
23.86528,392411
23.87342,353875
23.88153,314385
23.88965,300419
23.89778,273801
23.90590,260670
23.91403,241651
23.92215,228625
23.93027,217207
23.93840,210318
23.94652,197093
23.95465,193924
23.96277,180992
23.97088,176917
23.97902,166593
23.98713,160036
23.99525,153169
24.00338,152829
24.01150,150426
24.01963,152779
24.02775,156017
24.03587,164281
24.04400,151708
24.05212,143204
24.06025,137129
24.06837,127029
24.07648,124439
24.08462,119380
24.09273,118703
24.10087,111216
24.10898,106410
24.11710,108230
24.12523,104426
24.13335,107121
24.14147,107623
24.14960,104760
24.15772,111090
24.16585,104350
24.17397,108315
24.18208,102471
24.19022,96342
24.19833,99691
24.20647,88900
24.21458,91811
24.22270,94094
24.23083,83781
24.23895,82691
24.24707,77079
24.25520,80160
24.26332,74490
24.27145,71845
24.27957,75347
24.28768,74244
24.29582,77522
24.30393,72788
24.31207,74490
24.32018,82782
24.32830,90011
24.33643,104007
24.34455,110726
24.35268,112709
24.36080,100089
24.36892,85780
24.37705,73179
24.38517,68490
24.39328,65330
24.40142,61245
24.40953,59998
24.41767,58435
24.42578,62827
24.43390,60158
24.44203,64666
24.45015,64275
24.45828,73415
24.46640,68533
24.47452,72381
24.48265,65102
24.49077,64972
24.49888,61312
24.50702,58194
24.51513,61251
24.52327,61514
24.53138,63011
24.53950,63506
24.54763,71413
24.55575,68608
24.56388,66044
24.57200,69457
24.58012,60472
24.58825,57783
24.59637,52096
24.60450,57184
24.61262,50568
24.62073,51224
24.62887,50385
24.63698,45997
24.64510,48121
24.65323,46798
24.66135,47206
24.66948,48826
24.67760,48675
24.68572,45349
24.69385,42743
24.70197,43653
24.71010,43002
24.71822,46519
24.72633,43818
24.73447,44263
24.74258,42102
24.75072,46137
24.75883,49499
24.76695,47593
24.77508,50052
24.78320,48020
24.79132,50009
24.79945,47198
24.80757,53028
24.81570,51021
24.82382,52145
24.83193,58136
24.84007,59375
24.84818,71544
24.85632,83825
24.86443,101233
24.87255,124995
24.88068,143358
24.88880,157698
24.89692,171233
24.90505,172786
24.91317,160369
24.92130,155220
24.92942,147211
24.93753,154337
24.94567,140206
24.95378,142434
24.96192,144225
24.97003,142476
24.97815,142433
24.98628,138864
24.99440,139756
25.00253,145972
25.01065,143728
25.01877,138316
25.02690,138185
25.03502,136842
25.04313,134768
25.05127,132288
25.05938,133870
25.06752,134532
25.07563,128027
25.08375,128318
25.09188,142617
25.10000,160604
25.10813,214645
25.11625,349727
25.12437,502291
25.13250,735435
25.14062,928171
25.14875,1015531
25.15687,899958
25.16498,695614
25.17312,484891
25.18123,323396
25.18935,226305
25.19748,175371
25.20560,147298
25.21373,140758
25.22185,124781
25.22997,132065
25.23810,136608
25.24622,160384
25.25435,199052
25.26247,222148
25.27058,241082
25.27872,241438
25.28683,221385
25.29495,183585
25.30308,155144
25.31120,127504
25.31933,111937
25.32745,105472
25.33557,95666
25.34370,90900
25.35182,84509
25.35995,84914
25.36807,79952
25.37618,77492
25.38432,75607
25.39243,72234
25.40057,72570
25.40868,70301
25.41680,68214
25.42493,67992
25.43305,67622
25.44117,60595
25.44930,67860
25.45742,60696
25.46555,63065
25.47367,56519
25.48178,58446
25.48992,59996
25.49803,58856
25.50617,58112
25.51428,58083
25.52240,55314
25.53053,54260
25.53865,55776
25.54677,54224
25.55490,52791
25.56302,52783
25.57115,53321
25.57927,57184
25.58738,50915
25.59552,53048
25.60363,47395
25.61177,49196
25.61988,50297
25.62800,50752
25.63613,52939
25.64425,52799
25.65238,55163
25.66050,49031
25.66862,51740
25.67675,52046
25.68487,47835
25.69298,49304
25.70112,48999
25.70923,53124
25.71737,44298
25.72548,45727
25.73360,47153
25.74173,47962
25.74985,46761
25.75798,44080
25.76610,46014
25.77422,47996
25.78235,46069
25.79047,45277
25.79860,46370
25.80672,44895
25.81483,46194
25.82297,45677
25.83108,42154
25.83920,45613
25.84733,45563
25.85545,42871
25.86358,44194
25.87170,42046
25.87982,38568
25.88795,38547
25.89607,41715
25.90420,39610
25.91232,39696
25.92043,41523
25.92857,37485
25.93668,40577
25.94480,36689
25.95293,41640
25.96105,38859
25.96918,42776
25.97730,40178
25.98542,36940
25.99355,39313
26.00167,38127
26.00980,38295
26.01792,38063
26.02603,37777
26.03417,38264
26.04228,38061
26.05042,35220
26.05853,40905
26.06665,40598
26.07478,39407
26.08290,39144
26.09102,38063
26.09915,43331
26.10727,41486
26.11540,41643
26.12352,44867
26.13163,43431
26.13977,45556
26.14788,46758
26.15602,44402
26.16413,50051
26.17225,43472
26.18038,41506
26.18850,39941
26.19663,43601
26.20475,39947
26.21287,39959
26.22100,37888
26.22912,36621
26.23723,39549
26.24537,38747
26.25348,37694
26.26162,37079
26.26973,39398
26.27785,38262
26.28598,44740
26.29410,37013
26.30223,35911
26.31035,39484
26.31847,38184
26.32660,39493
26.33472,37167
26.34283,41641
26.35097,34035
26.35908,36938
26.36722,38709
26.37533,40757
26.38345,44704
26.39158,40219
26.39970,43244
26.40783,42249
26.41595,43083
26.42407,43951
26.43220,36267
26.44032,39482
26.44845,33840
26.45657,37421
26.46468,38696
26.47282,39810
26.48093,39860
26.48905,38327
26.49718,38285
26.50530,41282
26.51343,36627
26.52155,37772
26.52967,39004
26.53780,35487
26.54592,34105
26.55405,34069
26.56217,37990
26.57028,36263
26.57842,34635
26.58653,35816
26.59465,33165
26.60278,35477
26.61090,32223
26.61903,35780
26.62715,33963
26.63527,33846
26.64340,37457
26.65152,38066
26.65965,35323
26.66777,38314
26.67588,35707
26.68402,36819
26.69213,35016
26.70027,39171
26.70838,34172
26.71650,35328
26.72463,35284
26.73275,35230
26.74087,32255
26.74900,38369
26.75712,35312
26.76525,33823
26.77337,34739
26.78148,35638
26.78962,37066
26.79773,35635
26.80587,38188
26.81398,38399
26.82210,36681
26.83023,35779
26.83835,35057
26.84648,38456
26.85460,35854
26.86272,32004
26.87085,33224
26.87897,33361
26.88708,33673
26.89522,29820
26.90333,33657
26.91147,33192
26.91958,33009
26.92770,33620
26.93583,34575
26.94395,37979
26.95208,46015
26.96020,69353
26.96832,106207
26.97645,153364
26.98457,212550
26.99268,282409
27.00082,330716
27.00893,338629
27.01707,337437
27.02518,292036
27.03330,240950
27.04143,198374
27.04955,159857
27.05768,132227
27.06580,115084
27.07392,101193
27.08205,90289
27.09017,85602
27.09830,77630
27.10642,72122
27.11453,72049
27.12267,65627
27.13078,66040
27.13890,62378
27.14703,63940
27.15515,59955
27.16328,63371
27.17140,62154
27.17952,63088
27.18765,59391
27.19577,55057
27.20390,52254
27.21202,50482
27.22013,51720
27.22827,48678
27.23638,49246
27.24452,48070
27.25263,48364
27.26075,45550
27.26888,45684
27.27700,43980
27.28512,45683
27.29325,42273
27.30137,41813
27.30950,43146
27.31762,41319
27.32573,42179
27.33387,41361
27.34198,42285
27.35012,44494
27.35823,44555
27.36635,42435
27.37448,38071
27.38260,40172
27.39072,38481
27.39885,42237
27.40697,35844
27.41510,35730
27.42322,37812
27.43133,37306
27.43947,37108
27.44758,39980
27.45572,35363
27.46383,37174
27.47195,37293
27.48008,39520
27.48820,36087
27.49633,36480
27.50445,38381
27.51257,36751
27.52070,42659
27.52882,38119
27.53693,38269
27.54507,35248
27.55318,35388
27.56132,37204
27.56943,37973
27.57755,36973
27.58568,40910
27.59380,43353
27.60193,41242
27.61005,40626
27.61817,39721
27.62630,38041
27.63442,38055
27.64255,36880
27.65067,36333
27.65878,34630
27.66692,33926
27.67503,36033
27.68315,37760
27.69128,38530
27.69940,37499
27.70753,41524
27.71565,37498
27.72377,36948
27.73190,36196
27.74002,41059
27.74815,41057
27.75627,40546
27.76438,41306
27.77252,46079
27.78063,42479
27.78875,38110
27.79688,42787
27.80500,37314
27.81313,36257
27.82125,38869
27.82937,36389
27.83750,35672
27.84562,34656
27.85375,33931
27.86187,31386
27.86998,29914
27.87812,34225
27.88623,33789
27.89437,32715
27.90248,33306
27.91060,31650
27.91873,31242
27.92685,30965
27.93497,32822
27.94310,32961
27.95122,32663
27.95935,34133
27.96747,35709
27.97558,34407
27.98372,34477
27.99183,36010
27.99997,39529
28.00808,35562
28.01620,41013
28.02433,43000
28.03245,44103
28.04057,42569
28.04870,42453
28.05682,40091
28.06495,39965
28.07307,34832
28.08118,42497
28.08932,40554
28.09743,40129
28.10557,37848
28.11368,42546
28.12180,45198
28.12993,39321
28.13805,42571
28.14618,38341
28.15430,36707
28.16242,33655
28.17055,36040
28.17867,35758
28.18678,36991
28.19492,37116
28.20303,40730
28.21117,37459
28.21928,40641
28.22740,43754
28.23553,39486
28.24365,45256
28.25178,41707
28.25990,47037
28.26802,50719
28.27615,66624
28.28427,85519
28.29240,103560
28.30052,122749
28.30863,140318
28.31677,152218
28.32488,152961
28.33300,153596
28.34113,144731
28.34925,140850
28.35738,137732
28.36550,119450
28.37362,105203
28.38175,98262
28.38987,93590
28.39800,85123
28.40612,78021
28.41423,75785
28.42237,65825
28.43048,60282
28.43860,60739
28.44673,55099
28.45485,53530
28.46298,58012
28.47110,50743
28.47922,49200
28.48735,47255
28.49547,45871
28.50360,45948
28.51172,42725
28.51983,43862
28.52797,44412
28.53608,42803
28.54422,45436
28.55233,41783
28.56045,43770
28.56858,39907
28.57670,43347
28.58482,40100
28.59295,42430
28.60107,42819
28.60920,40413
28.61732,45720
28.62543,42128
28.63357,44082
28.64168,42475
28.64982,45238
28.65793,42216
28.66605,41819
28.67418,42994
28.68230,46563
28.69043,51703
28.69855,55174
28.70667,56162
28.71480,58470
28.72292,50467
28.73103,49634
28.73917,43801
28.74728,41747
28.75542,39821
28.76353,36514
28.77165,37564
28.77978,35693
28.78790,37647
28.79603,39263
28.80415,37952
28.81227,38797
28.82040,36960
28.82852,40915
28.83663,36241
28.84477,38002
28.85288,38249
28.86102,37199
28.86913,39673
28.87725,40194
28.88538,39456
28.89350,46281
28.90163,44253
28.90975,41188
28.91787,41254
28.92600,34141
28.93412,37757
28.94225,38874
28.95037,40211
28.95848,38287
28.96662,38740
28.97473,37216
28.98285,36404
28.99098,35826
28.99910,34129
29.00723,39468
29.01535,33948
29.02347,34617
29.03160,37858
29.03972,34431
29.04785,35089
29.05597,31820
29.06408,38274
29.07222,37534
29.08033,39289
29.08845,36476
29.09658,35151
29.10470,38164
29.11283,35571
29.12095,35836
29.12907,33793
29.13720,30644
29.14532,36640
29.15345,31845
29.16157,34569
29.16968,33626
29.17782,35365
29.18593,34771
29.19407,39481
29.20218,45852
29.21030,48220
29.21843,41789
29.22655,44294
29.23467,46245
29.24280,46260
29.25092,42792
29.25905,42273
29.26717,39376
29.27528,41958
29.28342,39920
29.29153,36634
29.29967,34245
29.30778,36361
29.31590,32398
29.32403,35243
29.33215,33212
29.34028,31764
29.34840,32757
29.35652,29999
29.36465,34549
29.37277,33113
29.38088,32226
29.38902,34086
29.39713,31387
29.40527,32392
29.41338,34211
29.42150,35996
29.42963,33161
29.43775,33119
29.44588,32470
29.45400,33585
29.46212,34998
29.47025,33169
29.47837,32365
29.48650,33498
29.49462,32824
29.50273,31644
29.51087,33821
29.51898,34983
29.52710,32795
29.53523,31988
29.54335,33752
29.55148,32675
29.55960,35171
29.56772,32989
29.57585,33774
29.58397,36406
29.59210,35192
29.60022,38019
29.60833,39472
29.61647,29970
29.62458,34296
29.63270,34322
29.64083,32166
29.64895,33336
29.65708,31875
29.66520,33737
29.67332,30618
29.68145,32814
29.68957,32146
29.69770,32871
29.70582,31393
29.71393,32663
29.72207,33050
29.73018,32203
29.73832,29816
29.74643,33140
29.75455,31792
29.76268,33674
29.77080,30404
29.77892,31753
29.78705,28905
29.79517,27979
29.80330,29813
29.81142,31524
29.81953,30760
29.82767,29424
29.83578,27360
29.84392,28349
29.85203,27719
29.86015,30129
29.86828,38665
29.87640,46441
29.88452,53967
29.89265,56539
29.90077,65926
29.90890,72727
29.91702,72792
29.92513,79531
29.93327,77310
29.94138,81893
29.94952,84824
29.95763,85549
29.96575,85285
29.97388,80240
29.98200,88113
29.99013,83990
29.99825,80032
30.00637,84009
30.01450,77922
30.02262,76081
30.03073,73878
30.03887,71219
30.04698,65775
30.05512,70038
30.06323,62795
30.07135,64546
30.07948,59895
30.08760,61000
30.09573,60901
30.10385,58865
30.11197,54375
30.12010,59314
30.12822,53185
30.13635,49660
30.14447,49818
30.15258,48760
30.16072,53774
30.16883,52197
30.17695,44941
30.18508,47029
30.19320,45143
30.20133,41372
30.20945,45163
30.21757,44619
30.22570,43528
30.23382,42433
30.24195,43149
30.25007,43143
30.25818,42509
30.26632,37891
30.27443,42806
30.28255,40942
30.29068,46451
30.29880,41281
30.30693,40910
30.31505,40164
30.32317,37734
30.33130,37156
30.33942,37549
30.34755,41022
30.35567,38599
30.36378,40254
30.37192,37846
30.38003,37254
30.38817,37162
30.39628,39030
30.40440,38488
30.41253,36441
30.42065,37621
30.42877,37296
30.43690,31759
30.44502,36997
30.45315,33720
30.46127,35136
30.46938,33992
30.47752,36372
30.48563,33387
30.49377,31610
30.50188,35331
30.51000,34060
30.51813,35723
30.52625,36522
30.53438,33675
30.54250,36871
30.55062,36270
30.55875,32032
30.56687,36268
30.57498,37147
30.58312,31959
30.59123,33611
30.59937,35627
30.60748,32510
30.61560,32193
30.62373,38507
30.63185,34671
30.63998,34373
30.64810,32993
30.65622,32637
30.66435,33417
30.67247,33758
30.68058,35336
30.68872,33366
30.69683,35443
30.70497,35405
30.71308,35445
30.72120,31912
30.72933,33876
30.73745,35020
30.74558,33077
30.75370,37790
30.76182,41190
30.76995,43741
30.77807,54521
30.78620,66653
30.79432,81515
30.80243,98113
30.81057,93318
30.81868,94267
30.82680,77836
30.83493,62451
30.84305,54248
30.85118,46487
30.85930,40100
30.86742,37714
30.87555,38851
30.88367,32754
30.89180,37244
30.89992,38540
30.90803,34802
30.91617,34244
30.92428,34630
30.93240,33645
30.94053,34556
30.94865,32870
30.95678,35383
30.96490,34143
30.97302,35981
30.98115,31416
30.98927,32754
30.99740,31503
31.00552,31330
31.01363,33564
31.02177,35034
31.02988,31490
31.03802,32274
31.04613,31409
31.05425,29947
31.06238,33508
31.07050,32770
31.07862,36722
31.08675,40478
31.09487,41145
31.10300,43086
31.11112,44607
31.11923,42581
31.12737,39768
31.13548,38438
31.14362,35027
31.15173,34820
31.15985,37624
31.16798,39713
31.17610,45359
31.18423,56395
31.19235,66338
31.20047,82844
31.20860,87779
31.21672,85828
31.22483,83727
31.23297,67455
31.24108,54771
31.24922,46431
31.25733,45105
31.26545,37045
31.27358,36169
31.28170,33780
31.28983,34963
31.29795,34892
31.30607,32042
31.31420,33891
31.32232,35638
31.33043,36825
31.33857,34854
31.34668,34915
31.35482,33381
31.36293,32428
31.37105,36354
31.37918,36746
31.38730,35625
31.39543,33070
31.40355,33218
31.41167,34633
31.41980,33422
31.42792,32923
31.43605,33134
31.44417,33939
31.45228,38229
31.46042,33981
31.46853,36589
31.47665,36169
31.48478,36255
31.49290,37824
31.50103,41912
31.50915,35023
31.51727,40090
31.52540,36599
31.53352,40634
31.54165,35962
31.54977,41194
31.55788,39297
31.56602,42938
31.57413,43677
31.58227,38780
31.59038,35996
31.59850,34208
31.60663,36588
31.61475,34366
31.62287,36976
31.63100,37025
31.63912,35130
31.64725,32313
31.65537,34760
31.66348,32375
31.67162,37707
31.67973,36858
31.68787,37086
31.69598,39944
31.70410,38250
31.71223,36424
31.72035,34107
31.72847,34647
31.73660,33572
31.74472,37835
31.75285,37318
31.76097,31493
31.76908,30516
31.77722,33376
31.78533,32665
31.79347,34437
31.80158,34173
31.80970,34352
31.81783,35512
31.82595,36944
31.83408,41800
31.84220,43777
31.85032,45562
31.85845,54959
31.86657,61204
31.87468,66634
31.88282,69752
31.89093,68580
31.89907,66727
31.90718,70980
31.91530,65446
31.92343,67585
31.93155,61030
31.93968,54485
31.94780,57235
31.95592,56855
31.96405,56826
31.97217,49727
31.98030,55645
31.98842,47220
31.99653,47462
32.00467,47658
32.01278,49212
32.02090,44704
32.02903,42958
32.03715,45430
32.04528,43677
32.05340,39941
32.06152,43604
32.06965,42240
32.07777,37263
32.08590,38456
32.09402,35984
32.10213,35452
32.11027,35491
32.11838,40406
32.12650,35722
32.13463,37720
32.14275,39903
32.15088,36619
32.15900,36425
32.16712,34859
32.17525,36357
32.18337,33799
32.19150,37091
32.19962,34401
32.20773,35528
32.21587,34623
32.22398,35168
32.23212,35642
32.24023,37907
32.24835,37120
32.25648,38730
32.26460,35832
32.27272,34156
32.28085,35134
32.28897,37367
32.29710,33725
32.30522,35841
32.31333,33745
32.32147,33359
32.32958,36988
32.33772,36828
32.34583,35743
32.35395,34163
32.36208,35086
32.37020,34566
32.37832,34629
32.38645,35022
32.39457,38005
32.40270,35118
32.41082,32638
32.41893,32214
32.42707,34434
32.43518,35484
32.44332,33280
32.45143,32816
32.45955,35729
32.46768,33848
32.47580,34086
32.48393,35462
32.49205,32068
32.50017,33149
32.50830,32927
32.51642,36080
32.52453,33314
32.53267,33486
32.54078,32496
32.54892,33120
32.55703,36095
32.56515,35435
32.57328,34696
32.58140,37746
32.58953,48515
32.59765,53891
32.60577,48905
32.61390,45946
32.62202,43037
32.63015,38147
32.63827,37133
32.64638,33529
32.65452,34209
32.66263,33069
32.67075,33359
32.67888,33367
32.68700,33653
32.69513,38016
32.70325,37733
32.71137,38356
32.71950,36800
32.72762,32298
32.73575,34686
32.74387,36934
32.75198,32659
32.76012,35820
32.76823,31229
32.77635,31923
32.78448,35030
32.79260,32793
32.80073,34455
32.80885,36278
32.81697,36172
32.82510,36192
32.83322,31545
32.84135,34638
32.84947,32397
32.85758,37362
32.86572,33269
32.87383,34090
32.88197,36052
32.89008,33008
32.89820,34098
32.90633,33077
32.91445,36007
32.92257,33972
32.93070,34622
32.93882,33263
32.94695,37440
32.95507,37136
32.96318,37850
32.97132,44021
32.97943,51507
32.98757,55293
32.99568,60614
33.00380,59413
33.01193,61448
33.02005,53713
33.02818,46683
33.03630,44175
33.04442,38031
33.05255,37191
33.06067,37844
33.06878,39143
33.07692,38994
33.08503,39543
33.09317,37918
33.10128,44215
33.10940,46808
33.11753,47278
33.12565,44173
33.13378,40425
33.14190,40358
33.15002,40409
33.15815,38387
33.16627,41169
33.17438,35213
33.18252,33905
33.19063,34858
33.19877,39195
33.20688,34804
33.21500,35458
33.22313,34888
33.23125,34881
33.23938,36906
33.24750,35647
33.25562,36689
33.26375,38089
33.27187,34457
33.28000,37367
33.28812,38019
33.29623,31730
33.30437,34293
33.31248,33337
33.32060,35255
33.32873,33530
33.33685,36349
33.34498,34122
33.35310,40002
33.36122,38163
33.36935,33613
33.37747,36902
33.38560,34576
33.39372,34517
33.40183,32770
33.40997,39026
33.41808,35007
33.42620,35303
33.43433,33762
33.44245,35874
33.45058,36628
33.45870,34520
33.46682,38965
33.47495,36605
33.48307,37190
33.49120,36297
33.49932,36751
33.50743,39704
33.51557,33393
33.52368,36939
33.53182,37305
33.53993,40299
33.54805,42140
33.55618,38815
33.56430,37240
33.57242,42307
33.58055,38977
33.58867,41044
33.59680,40171
33.60492,34640
33.61303,35875
33.62117,36083
33.62928,36851
33.63742,40261
33.64553,37804
33.65365,35657
33.66178,37795
33.66990,36370
33.67803,35477
33.68615,34520
33.69427,36597
33.70240,37134
33.71052,39914
33.71863,32216
33.72677,34583
33.73488,39334
33.74302,39757
33.75113,40537
33.75925,46558
33.76738,38289
33.77550,41135
33.78363,39936
33.79175,36412
33.79987,41238
33.80800,38448
33.81612,35215
33.82423,40261
33.83237,38987
33.84048,37789
33.84862,39785
33.85673,38159
33.86485,37006
33.87298,38981
33.88110,40109
33.88923,40724
33.89735,37093
33.90547,38033
33.91360,37750
33.92172,37510
33.92985,39745
33.93797,36778
33.94608,38978
33.95422,36055
33.96233,40526
33.97045,41537
33.97858,39962
33.98670,39469
33.99483,35143
34.00295,39517
34.01107,39085
34.01920,38938
34.02732,37905
34.03545,37698
34.04357,37848
34.05168,37529
34.05982,37751
34.06793,39032
34.07607,39731
34.08418,37220
34.09230,39121
34.10043,40378
34.10855,36314
34.11667,36396
34.12480,38608
34.13292,39240
34.14105,34579
34.14917,38258
34.15728,34637
34.16542,36837
34.17353,35611
34.18167,39355
34.18978,35444
34.19790,36258
34.20603,35863
34.21415,36445
34.22227,35543
34.23040,37287
34.23852,35105
34.24665,36102
34.25477,37006
34.26288,35224
34.27102,35162
34.27913,38749
34.28727,36479
34.29538,37666
34.30350,36692
34.31163,33547
34.31975,35197
34.32788,34831
34.33600,33134
34.34412,40234
34.35225,35091
34.36037,38036
34.36848,38662
34.37662,37418
34.38473,38003
34.39287,35514
34.40098,40625
34.40910,39296
34.41723,37896
34.42535,40695
34.43348,38947
34.44160,43694
34.44972,49585
34.45785,54307
34.46597,58958
34.47410,65090
34.48222,68075
34.49033,74246
34.49847,68850
34.50658,69183
34.51470,70501
34.52283,69812
34.53095,63371
34.53908,57285
34.54720,55678
34.55532,57064
34.56345,54878
34.57157,50811
34.57970,48259
34.58782,48169
34.59593,44484
34.60407,48909
34.61218,46542
34.62030,45454
34.62843,47040
34.63655,45902
34.64468,47466
34.65280,50709
34.66092,44112
34.66905,46481
34.67717,44114
34.68530,44946
34.69342,44363
34.70153,41021
34.70967,39490
34.71778,41596
34.72592,43269
34.73403,40476
34.74215,40525
34.75028,41418
34.75840,38998
34.76652,41803
34.77465,39133
34.78277,40843
34.79090,42869
34.79902,45417
34.80713,35600
34.81527,40456
34.82338,39391
34.83152,37912
34.83963,40479
34.84775,43884
34.85588,42914
34.86400,42034
34.87213,42999
34.88025,42428
34.88837,40010
34.89650,38976
34.90462,40228
34.91273,41344
34.92087,42781
34.92898,45026
34.93712,41150
34.94523,41237
34.95335,42899
34.96148,42777
34.96960,42385
34.97773,45129
34.98585,41343
34.99397,41424
35.00210,39326
35.01022,43136
35.01833,39988
35.02647,38329
35.03458,36806
35.04272,41049
35.05083,41060
35.05895,41684
35.06708,39190
35.07520,37585
35.08333,41226
35.09145,44955
35.09957,42064
35.10770,45309
35.11582,43310
35.12395,39224
35.13207,40330
35.14018,41760
35.14832,39652
35.15643,39100
35.16455,45566
35.17268,38404
35.18080,40368
35.18893,40297
35.19705,38175
35.20517,37579
35.21330,39536
35.22142,40526
35.22955,37172
35.23767,42927
35.24578,42998
35.25392,43438
35.26203,41528
35.27015,41228
35.27828,43601
35.28640,41964
35.29453,42905
35.30265,40913
35.31077,39222
35.31890,40690
35.32702,38859
35.33515,38367
35.34327,44665
35.35138,40789
35.35952,38959
35.36763,39627
35.37577,41054
35.38388,41116
35.39200,39442
35.40013,43784
35.40825,42879
35.41637,38773
35.42450,42375
35.43262,42418
35.44075,43511
35.44887,44266
35.45698,43474
35.46512,41849
35.47323,45568
35.48137,47963
35.48948,44586
35.49760,46273
35.50573,51361
35.51385,47307
35.52198,45021
35.53010,45953
35.53822,45919
35.54635,48297
35.55447,49020
35.56258,44306
35.57072,44274
35.57883,46265
35.58697,50929
35.59508,51411
35.60320,48669
35.61133,47496
35.61945,46316
35.62758,44043
35.63570,47160
35.64382,45761
35.65195,45854
35.66007,44567
35.66818,45441
35.67632,42820
35.68443,46550
35.69257,41257
35.70068,44477
35.70880,43302
35.71693,41598
35.72505,44585
35.73318,43361
35.74130,45549
35.74942,47103
35.75755,46270
35.76567,46075
35.77380,50092
35.78192,46462
35.79003,44653
35.79817,47928
35.80628,46232
35.81440,42373
35.82253,43099
35.83065,45133
35.83878,45168
35.84690,41362
35.85502,43806
35.86315,43082
35.87127,44074
35.87940,42845
35.88752,43611
35.89563,44194
35.90377,44048
35.91188,43861
35.92002,41626
35.92813,43478
35.93625,42327
35.94438,47118
35.95250,43776
35.96062,45879
35.96875,43297
35.97687,44155
35.98500,46370
35.99312,45482
36.00123,51866
36.00937,46636
36.01748,47442
36.02562,47578
36.03373,47766
36.04185,45803
36.04998,45895
36.05810,45297
36.06622,46302
36.07435,46523
36.08247,43176
36.09060,42807
36.09872,44966
36.10683,42968
36.11497,46330
36.12308,44738
36.13122,48978
36.13933,43831
36.14745,47678
36.15558,45419
36.16370,51339
36.17183,44561
36.17995,47086
36.18807,49574
36.19620,45911
36.20432,46670
36.21243,48054
36.22057,48673
36.22868,54961
36.23682,62517
36.24493,61778
36.25305,61298
36.26118,54639
36.26930,52522
36.27743,51736
36.28555,46990
36.29367,47242
36.30180,46387
36.30992,45134
36.31803,46315
36.32617,48121
36.33428,47163
36.34242,44815
36.35053,45511
36.35865,46529
36.36678,48459
36.37490,49775
36.38303,51215
36.39115,53577
36.39927,48306
36.40740,53479
36.41552,53337
36.42365,51696
36.43177,48493
36.43988,45967
36.44802,50418
36.45613,48502
36.46425,45290
36.47238,47369
36.48050,47130
36.48863,45320
36.49675,49326
36.50487,51089
36.51300,44927
36.52112,46486
36.52925,48628
36.53737,47149
36.54548,46793
36.55362,47243
36.56173,50331
36.56987,47250
36.57798,44927
36.58610,48603
36.59423,46414
36.60235,43942
36.61047,50173
36.61860,49566
36.62672,47740
36.63485,45715
36.64297,47478
36.65108,48820
36.65922,48897
36.66733,47221
36.67547,49646
36.68358,50496
36.69170,47783
36.69983,46696
36.70795,50198
36.71607,47450
36.72420,49420
36.73232,46567
36.74045,45608
36.74857,47682
36.75668,48975
36.76482,43536
36.77293,47799
36.78107,51854
36.78918,50636
36.79730,47266
36.80543,53359
36.81355,46164
36.82168,51469
36.82980,48200
36.83792,45941
36.84605,51508
36.85417,51279
36.86228,52852
36.87042,48186
36.87853,48381
36.88667,51466
36.89478,54414
36.90290,49633
36.91103,47433
36.91915,51977
36.92728,56821
36.93540,55595
36.94352,56954
36.95165,57784
36.95977,57898
36.96790,59809
36.97602,62108
36.98413,60919
36.99227,64200
37.00038,63233
37.00850,67188
37.01663,71570
37.02475,71996
37.03288,76018
37.04100,73288
37.04912,60325
37.05725,63518
37.06537,58685
37.07350,57940
37.08162,56016
37.08973,55835
37.09787,53903
37.10598,52197
37.11410,55687
37.12223,53383
37.13035,55248
37.13848,54692
37.14660,56658
37.15472,53429
37.16285,53318
37.17097,48961
37.17910,55231
37.18722,52058
37.19533,52413
37.20347,53368
37.21158,53033
37.21972,54686
37.22783,58927
37.23595,55274
37.24408,59292
37.25220,63908
37.26032,68243
37.26845,75033
37.27657,79694
37.28470,85885
37.29282,86488
37.30093,84155
37.30907,81519
37.31718,76709
37.32532,73756
37.33343,72163
37.34155,62327
37.34968,67008
37.35780,63148
37.36593,63683
37.37405,61825
37.38217,64242
37.39030,63522
37.39842,61749
37.40653,59351
37.41467,63871
37.42278,61117
37.43092,59110
37.43903,59242
37.44715,57685
37.45528,57710
37.46340,60455
37.47153,59923
37.47965,62192
37.48777,60161
