Z:\data\JTB-E02\BACandBLUE\JTB-E02-192-16.D Tue Dec 18 15:57:52 2018
Start of data points
2.09528	87215
2.10342	81188
2.11153	87455
2.11965	86579
2.12778	89085
2.13590	91689
2.14402	87962
2.15215	83231
2.16027	81505
2.16840	82066
2.17652	79343
2.18463	83172
2.19277	85882
2.20088	74695
2.20902	79621
2.21713	78444
2.22525	75232
2.23338	71714
2.24150	76393
2.24963	79061
2.25775	119045
2.26587	551321
2.27400	956421
2.28212	1244383
2.29023	1219321
2.29837	710596
2.30648	503627
2.31462	393413
2.32273	349142
2.33085	303738
2.33898	276334
2.34710	255420
2.35523	239363
2.36335	226154
2.37147	223728
2.37960	216517
2.38772	201335
2.39583	203978
2.40397	195639
2.41208	208154
2.42022	197630
2.42833	180853
2.43645	176642
2.44458	177072
2.45270	168382
2.46083	165439
2.46895	158612
2.47707	159103
2.48520	171567
2.49332	171514
2.50145	177189
2.50957	166302
2.51768	167015
2.52582	162041
2.53393	155035
2.54205	155061
2.55018	171566
2.55830	165893
2.56643	164345
2.57455	158718
2.58267	148964
2.59080	151842
2.59892	227382
2.60705	356291
2.61517	457948
2.62328	463567
2.63142	353934
2.63953	268197
2.64765	216295
2.65578	188679
2.66390	172397
2.67203	171713
2.68015	154220
2.68827	150461
2.69640	147341
2.70452	147706
2.71265	140024
2.72077	140278
2.72888	136423
2.73702	136139
2.74513	132877
2.75327	137199
2.76138	167235
2.76950	1140089
2.77763	4856208
2.78575	7112272
2.79387	7533715
2.80200	5785422
2.81012	3459835
2.81825	2358610
2.82637	1789080
2.83448	1387299
2.84262	1077034
2.85073	906716
2.85887	747868
2.86698	640149
2.87510	551599
2.88323	488916
2.89135	439997
2.89948	399067
2.90760	365011
2.91572	336130
2.92385	315101
2.93197	294132
2.94008	274421
2.94822	267366
2.95633	257041
2.96447	247966
2.97258	242460
2.98070	241856
2.98883	244530
2.99695	250409
3.00508	249472
3.01320	235833
3.02132	234645
3.02945	221683
3.03757	202803
3.04570	185874
3.05382	184534
3.06193	178705
3.07007	192703
3.07818	339721
3.08630	746591
3.09443	1447876
3.10255	2667775
3.11068	3407637
3.11880	3511308
3.12692	2753565
3.13505	1832076
3.14317	1309580
3.15130	995546
3.15942	882722
3.16753	944000
3.17567	1453265
3.18378	3601174
3.19190	6356686
3.20003	7868667
3.20815	7433848
3.21628	5505139
3.22440	3851132
3.23252	2966934
3.24065	2349166
3.24877	1916005
3.25690	1584295
3.26502	1390889
3.27313	1195101
3.28127	1119195
3.28938	1515374
3.29752	2968299
3.30563	5401479
3.31375	7426260
3.32188	7752516
3.33000	6353877
3.33812	4650333
3.34625	3379880
3.35437	2640575
3.36250	2149091
3.37062	1848743
3.37873	1601560
3.38687	1435009
3.39498	1289051
3.40312	1174218
3.41123	1075445
3.41935	1008396
3.42748	1029503
3.43560	1026705
3.44372	1023724
3.45185	955424
3.45997	1013556
3.46810	1156024
3.47622	1214299
3.48433	1140769
3.49247	951307
3.50058	781636
3.50872	686214
3.51683	630225
3.52495	629168
3.53308	675313
3.54120	722755
3.54933	703260
3.55745	668258
3.56557	571831
3.57370	520391
3.58182	483943
3.58993	458666
3.59807	458031
3.60618	431697
3.61432	440249
3.62243	438159
3.63055	467100
3.63868	479435
3.64680	533544
3.65493	1816983
3.66305	1.128759E+07
3.67117	3.331586E+07
3.67930	5.158713E+07
3.68742	5.858813E+07
3.69555	5.67423E+07
3.70367	4.631601E+07
3.71178	3.424928E+07
3.71992	2.620612E+07
3.72803	2.144125E+07
3.73615	1.792786E+07
3.74428	1.547707E+07
3.75240	1.341165E+07
3.76053	1.176419E+07
3.76865	1.039751E+07
3.77677	9247679
3.78490	8339888
3.79302	7710099
3.80115	7277881
3.80927	7209668
3.81738	7310177
3.82552	7189181
3.83363	6617778
3.84175	5885365
3.84988	5258617
3.85800	4844206
3.86613	4435757
3.87425	4154542
3.88237	3929594
3.89050	3678061
3.89862	3496376
3.90675	3384739
3.91487	3531610
3.92298	4081375
3.93112	4518224
3.93923	4514610
3.94737	4119231
3.95548	3942971
3.96360	4186357
3.97173	4325506
3.97985	4014466
3.98797	3357561
3.99610	2984857
4.00422	3288822
4.01235	4031766
4.02047	4504532
4.02858	4131892
4.03672	3315372
4.04483	2554812
4.05297	2116600
4.06108	1909897
4.06920	1782108
4.07733	1704078
4.08545	1661805
4.09358	1628239
4.10170	1574336
4.10982	1537231
4.11795	1484472
4.12607	1387662
4.13418	1382368
4.14232	1361214
4.15043	1362143
4.15857	1342384
4.16668	1317146
4.17480	1301201
4.18293	1295045
4.19105	1262151
4.19918	1278654
4.20730	1960119
4.21542	5327246
4.22355	1.329709E+07
4.23167	2.235076E+07
4.23978	2.910272E+07
4.24792	3.320084E+07
4.25603	3.551878E+07
4.26417	3.588067E+07
4.27228	3.013206E+07
4.28040	1.803782E+07
4.28853	1.060931E+07
4.29665	7771804
4.30478	6047815
4.31290	4960069
4.32102	4155189
4.32915	3547641
4.33727	3099825
4.34540	2780440
4.35352	2669748
4.36163	2844945
4.36977	3266828
4.37788	3434685
4.38600	3147853
4.39413	2564857
4.40225	2044129
4.41038	1737891
4.41850	1563218
4.42662	1440596
4.43475	1351031
4.44287	1287437
4.45100	1202280
4.45912	1161527
4.46723	1123744
4.47537	1069699
4.48348	1030966
4.49160	1016679
4.49973	991917
4.50785	959146
4.51598	965749
4.52410	952872
4.53222	949684
4.54035	968872
4.54847	1061087
4.55660	1118572
4.56472	1074941
4.57283	973012
4.58097	898645
4.58908	823489
4.59722	801582
4.60533	802053
4.61345	824501
4.62158	1019791
4.62970	1671705
4.63782	2950114
4.64595	4233275
4.65407	4526089
4.66220	3775046
4.67032	2738917
4.67843	2115000
4.68657	1747200
4.69468	1511035
4.70282	1280026
4.71093	1029011
4.71905	900204
4.72718	796326
4.73530	752861
4.74343	714340
4.75155	708018
4.75967	668386
4.76780	650144
4.77592	627998
4.78403	641621
4.79217	723483
4.80028	870305
4.80842	1057664
4.81653	1143444
4.82465	1032823
4.83278	941854
4.84090	951761
4.84903	1062867
4.85715	1158795
4.86527	1119618
4.87340	982542
4.88152	847062
4.88963	749253
4.89777	686277
4.90588	644019
4.91402	619516
4.92213	593508
4.93025	574374
4.93838	605685
4.94650	743840
4.95463	1080461
4.96275	1658969
4.97087	2262009
4.97900	2509099
4.98712	2367032
4.99525	2012683
5.00337	1711809
5.01148	1505182
5.01962	1406677
5.02773	1581733
5.03585	2063132
5.04398	2678664
5.05210	3067861
5.06023	2845830
5.06835	2359051
5.07647	1950470
5.08460	1683371
5.09272	1516282
5.10085	1371479
5.10897	1269184
5.11708	1192324
5.12522	1119774
5.13333	1050928
5.14147	1040546
5.14958	1123107
5.15770	1423812
5.16583	1905063
5.17395	2286272
5.18207	2341143
5.19020	2010485
5.19832	1839824
5.20645	1977729
5.21457	2201369
5.22268	2171825
5.23082	1920449
5.23893	1544166
5.24707	1226316
5.25518	1024011
5.26330	874295
5.27143	774348
5.27955	698532
5.28767	663421
5.29580	651714
5.30392	625872
5.31205	589258
5.32017	601108
5.32828	606547
5.33642	632737
5.34453	666712
5.35267	690373
5.36078	653331
5.36890	609004
5.37703	571366
5.38515	623997
5.39328	718921
5.40140	870517
5.40952	976139
5.41765	971447
5.42577	806636
5.43388	682869
5.44202	661725
5.45013	772827
5.45827	959816
5.46638	1107131
5.47450	1069158
5.48263	883440
5.49075	699986
5.49888	579448
5.50700	505690
5.51512	480917
5.52325	476877
5.53137	476305
5.53950	475647
5.54762	543579
5.55573	881612
5.56387	1708223
5.57198	3008109
5.58010	4152643
5.58823	4408888
5.59635	3609451
5.60448	2420356
5.61260	1521897
5.62072	1012930
5.62885	783090
5.63697	655806
5.64510	591974
5.65322	544824
5.66133	512300
5.66947	492474
5.67758	490612
5.68570	535442
5.69383	606804
5.70195	666055
5.71008	716901
5.71820	723367
5.72632	674711
5.73445	588846
5.74257	504657
5.75070	457583
5.75882	419210
5.76693	412681
5.77507	399536
5.78318	392623
5.79132	386514
5.79943	373334
5.80755	380203
5.81568	377174
5.82380	370520
5.83192	370975
5.84005	361215
5.84817	351477
5.85630	358287
5.86442	350650
5.87253	341515
5.88067	344879
5.88878	342419
5.89692	350268
5.90503	379491
5.91315	451183
5.92128	540506
5.92940	614471
5.93752	608526
5.94565	542833
5.95377	507065
5.96190	522719
5.97002	636696
5.97813	808135
5.98627	1051619
5.99438	1248769
6.00252	1298396
6.01063	1203095
6.01875	996893
6.02688	806746
6.03500	616150
6.04313	493162
6.05125	416222
6.05937	379123
6.06750	362773
6.07562	358066
6.08373	357168
6.09187	352592
6.09998	325045
6.10812	311557
6.11623	309402
6.12435	417304
6.13248	769619
6.14060	1505674
6.14873	2387948
6.15685	2837437
6.16497	2643374
6.17310	1982964
6.18122	1419575
6.18935	1064931
6.19747	880512
6.20558	769048
6.21372	668315
6.22183	605157
6.22995	561736
6.23808	564597
6.24620	583224
6.25433	706724
6.26245	929757
6.27057	1057480
6.27870	1033932
6.28682	845010
6.29495	669109
6.30307	569843
6.31118	516915
6.31932	494591
6.32743	473301
6.33555	465533
6.34368	445667
6.35180	434136
6.35993	413114
6.36805	393761
6.37617	392434
6.38430	410480
6.39242	427760
6.40055	421602
6.40867	388695
6.41678	370086
6.42492	349312
6.43303	353715
6.44117	358336
6.44928	371373
6.45740	398632
6.46553	422050
6.47365	400854
6.48177	394661
6.48990	365552
6.49802	364179
6.50615	361493
6.51427	362500
6.52238	394996
6.53052	391866
6.53863	404917
6.54677	392448
6.55488	405677
6.56300	623294
6.57113	1349837
6.57925	2688439
6.58738	4077023
6.59550	4577381
6.60362	3626574
6.61175	2326762
6.61987	1339290
6.62798	884766
6.63612	659544
6.64423	562662
6.65237	463753
6.66048	410132
6.66860	420557
6.67673	413882
6.68485	402184
6.69298	363869
6.70110	327919
6.70922	294941
6.71735	281099
6.72547	289082
6.73358	281766
6.74172	281425
6.74983	275551
6.75797	269853
6.76608	253658
6.77420	257546
6.78233	258243
6.79045	264630
6.79858	254703
6.80670	236608
6.81482	221621
6.82295	204426
6.83107	205063
6.83920	205068
6.84732	227055
6.85543	237672
6.86357	249027
6.87168	264274
6.87980	276760
6.88793	272304
6.89605	255881
6.90418	236146
6.91230	209768
6.92042	198468
6.92855	188120
6.93667	182842
6.94480	175075
6.95292	178581
6.96103	170572
6.96917	186185
6.97728	217805
6.98540	249693
6.99353	267013
7.00165	252058
7.00978	237188
7.01790	218273
7.02602	224530
7.03415	218410
7.04227	207741
7.05040	195913
7.05852	239142
7.06663	330553
7.07477	550439
7.08288	846862
7.09102	1132227
7.09913	1275442
7.10725	1151436
7.11538	909156
7.12350	654230
7.13162	459868
7.13975	377622
7.14787	349341
7.15600	385522
7.16412	437889
7.17223	537324
7.18037	892056
7.18848	2023635
7.19662	4484864
7.20473	7925027
7.21285	1.055396E+07
7.22098	1.077054E+07
7.22910	7881930
7.23723	4170520
7.24535	1727695
7.25347	661787
7.26160	310987
7.26972	237800
7.27783	223812
7.28597	226227
7.29408	243175
7.30222	251470
7.31033	241838
7.31845	241740
7.32658	242002
7.33470	268150
7.34283	326271
7.35095	406745
7.35907	502764
7.36720	539177
7.37532	536430
7.38343	454742
7.39157	374119
7.39968	304672
7.40782	270412
7.41593	239978
7.42405	207526
7.43218	192343
7.44030	190612
7.44843	175581
7.45655	175260
7.46467	185371
7.47280	199384
7.48092	214118
7.48905	215169
7.49717	213825
7.50528	192297
7.51342	183930
7.52153	199574
7.52965	245735
7.53778	443250
7.54590	1007925
7.55403	2552213
7.56215	5553221
7.57027	1.032123E+07
7.57840	1.620346E+07
7.58652	2.131185E+07
7.59465	2.384604E+07
7.60277	2.231012E+07
7.61088	1.751844E+07
7.61902	1.165164E+07
7.62713	6802627
7.63527	3695555
7.64338	1996316
7.65150	1210407
7.65963	802160
7.66775	570134
7.67587	428937
7.68400	329933
7.69212	253381
7.70025	222669
7.70837	237171
7.71648	285445
7.72462	385730
7.73273	506374
7.74087	593801
7.74898	636000
7.75710	599662
7.76523	535004
7.77335	438453
7.78147	372756
7.78960	329866
7.79772	312708
7.80585	331241
7.81397	403444
7.82208	484928
7.83022	535460
7.83833	499222
7.84647	412188
7.85458	352725
7.86270	333518
7.87083	377425
7.87895	463231
7.88708	594365
7.89520	811954
7.90332	1032270
7.91145	1158117
7.91957	1085641
7.92768	845806
7.93582	621974
7.94393	509148
7.95207	471301
7.96018	476860
7.96830	455949
7.97643	428682
7.98455	354354
7.99268	301891
8.00080	247326
8.00892	211792
8.01705	205315
8.02517	189976
8.03328	178874
8.04142	173659
8.04953	158621
8.05767	162027
8.06578	170647
8.07390	172693
8.08203	185402
8.09015	183932
8.09828	171595
8.10640	164468
8.11452	153065
8.12265	162220
8.13077	169380
8.13890	218110
8.14702	316899
8.15513	446967
8.16327	551172
8.17138	565280
8.17950	507552
8.18763	408429
8.19575	317736
8.20388	258208
8.21200	221551
8.22012	196071
8.22825	186041
8.23637	175795
8.24450	167935
8.25262	161543
8.26073	147132
8.26887	148040
8.27698	145417
8.28512	132679
8.29323	139044
8.30135	132012
8.30948	139143
8.31760	160063
8.32572	181466
8.33385	249772
8.34197	295935
8.35010	322216
8.35822	290111
8.36633	247254
8.37447	188291
8.38258	154514
8.39072	147120
8.39883	127333
8.40695	122404
8.41508	118512
8.42320	114339
8.43133	114130
8.43945	114244
8.44757	121355
8.45570	119040
8.46382	119538
8.47193	120698
8.48007	119542
8.48818	112720
8.49632	110435
8.50443	114224
8.51255	127780
8.52068	159449
8.52880	219089
8.53693	304586
8.54505	361050
8.55317	339034
8.56130	248780
8.56942	187012
8.57753	143299
8.58567	122516
8.59378	118416
8.60192	116961
8.61003	127098
8.61815	142474
8.62628	170490
8.63440	190707
8.64253	201699
8.65065	201223
8.65877	183527
8.66690	159551
8.67502	135652
8.68315	122237
8.69127	111875
8.69938	117389
8.70752	115412
8.71563	118511
8.72375	112924
8.73188	114859
8.74000	113956
8.74813	103440
8.75625	102780
8.76437	107223
8.77250	130588
8.78062	169476
8.78875	262268
8.79687	448703
8.80498	625437
8.81312	766386
8.82123	718751
8.82935	622462
8.83748	497654
8.84560	408187
8.85373	379123
8.86185	349454
8.86997	308281
8.87810	298547
8.88622	280135
8.89435	263693
8.90247	243636
8.91058	256857
8.91872	273970
8.92683	331007
8.93497	456178
8.94308	557500
8.95120	576650
8.95933	521709
8.96745	427106
8.97557	369883
8.98370	420041
8.99182	494810
8.99995	597239
9.00807	603294
9.01618	528313
9.02432	455458
9.03243	344361
9.04057	286553
9.04868	251904
9.05680	226549
9.06493	214256
9.07305	208987
9.08118	211614
9.08930	210568
9.09742	249668
9.10555	347722
9.11367	528943
9.12178	763045
9.12992	959236
9.13803	1027818
9.14617	911322
9.15428	687090
9.16240	493733
9.17053	381165
9.17865	327982
9.18678	315981
9.19490	286173
9.20302	268722
9.21115	262028
9.21927	240615
9.22738	244142
9.23552	236421
9.24363	251726
9.25177	260120
9.25988	267825
9.26800	267186
9.27613	259772
9.28425	242150
9.29238	217341
9.30050	209100
9.30862	208010
9.31675	205081
9.32487	192774
9.33300	199830
9.34112	192228
9.34923	188261
9.35737	182900
9.36548	180586
9.37360	172135
9.38173	176844
9.38985	201500
9.39798	269121
9.40610	425670
9.41422	650829
9.42235	932438
9.43047	1196691
9.43860	1436918
9.44672	1663745
9.45483	1828444
9.46297	1775642
9.47108	1554655
9.47922	1213372
9.48733	851288
9.49545	568825
9.50358	422235
9.51170	370745
9.51982	399938
9.52795	477027
9.53607	547558
9.54420	596652
9.55232	586851
9.56043	538173
9.56857	441607
9.57668	342599
9.58482	245433
9.59293	218045
9.60105	187910
9.60918	183762
9.61730	174618
9.62542	170909
9.63355	159928
9.64167	154217
9.64980	155467
9.65792	151325
9.66603	154022
9.67417	156448
9.68228	153461
9.69042	164005
9.69853	159736
9.70665	162232
9.71478	154994
9.72290	150020
9.73103	148479
9.73915	148808
9.74727	134715
9.75540	126580
9.76352	122927
9.77163	121457
9.77977	111705
9.78788	117611
9.79602	119145
9.80413	115235
9.81225	120407
9.82038	114267
9.82850	117708
9.83663	114365
9.84475	113162
9.85287	117276
9.86100	116678
9.86912	114743
9.87723	104250
9.88537	100514
9.89348	101527
9.90162	107451
9.90973	105118
9.91785	110391
9.92598	117571
9.93410	132132
9.94223	185099
9.95035	322954
9.95847	592716
9.96660	1016988
9.97472	1469678
9.98285	1723861
9.99097	1692704
9.99908	1381175
10.00722	935057
10.01533	575778
10.02345	354891
10.03158	262717
10.03970	252004
10.04783	284363
10.05595	323233
10.06407	367358
10.07220	381367
10.08032	385152
10.08845	355907
10.09657	344502
10.10468	318489
10.11282	307399
10.12093	277114
10.12907	260860
10.13718	257877
10.14530	247665
10.15343	227905
10.16155	233896
10.16967	231696
10.17780	211883
10.18592	203557
10.19405	200801
10.20217	185606
10.21028	186827
10.21842	180932
10.22653	174428
10.23467	177066
10.24278	181073
10.25090	205927
10.25903	273921
10.26715	493796
10.27527	1151586
10.28340	2632307
10.29152	5182617
10.29965	8704155
10.30777	1.283682E+07
10.31588	1.72437E+07
10.32402	2.22854E+07
10.33213	2.801872E+07
10.34027	3.520644E+07
10.34838	4.426062E+07
10.35650	5.240235E+07
10.36463	5.962441E+07
10.37275	6.073237E+07
10.38088	5.137718E+07
10.38900	3.36664E+07
10.39712	2.422712E+07
10.40525	1.923398E+07
10.41337	1.42766E+07
10.42148	9253406
10.42962	5625088
10.43773	3715822
10.44587	3130512
10.45398	3071328
10.46210	3138847
10.47023	3150968
10.47835	2953201
10.48648	2498094
10.49460	1958554
10.50272	1479885
10.51085	1166934
10.51897	974027
10.52710	856576
10.53522	819887
10.54333	798706
10.55147	802149
10.55958	777153
10.56770	733127
10.57583	702165
10.58395	663451
10.59208	625007
10.60020	580797
10.60832	553345
10.61645	517695
10.62457	489588
10.63270	461327
10.64082	455483
10.64893	440143
10.65707	427629
10.66518	407052
10.67330	388327
10.68143	372108
10.68955	367260
10.69768	391884
10.70580	424206
10.71392	468422
10.72205	518725
10.73017	531308
10.73830	480112
10.74642	456175
10.75453	407832
10.76267	359572
10.77078	332745
10.77892	304491
10.78703	300493
10.79515	296790
10.80328	310475
10.81140	344142
10.81952	421707
10.82765	485727
10.83577	537415
10.84390	500013
10.85202	440141
10.86013	361699
10.86827	296156
10.87638	251083
10.88452	240934
10.89263	230285
10.90075	224946
10.90888	228492
10.91700	223629
10.92513	219119
10.93325	224688
10.94137	219476
10.94950	212701
10.95762	206902
10.96573	190033
10.97387	198710
10.98198	200120
10.99012	204309
10.99823	221090
11.00635	248083
11.01448	308219
11.02260	382651
11.03073	445647
11.03885	445807
11.04697	408581
11.05510	362619
11.06322	311683
11.07133	296653
11.07947	327234
11.08758	398260
11.09572	466799
11.10383	552722
11.11195	558743
11.12008	564087
11.12820	529575
11.13633	461322
11.14445	390029
11.15257	329128
11.16070	286467
11.16882	276474
11.17695	260988
11.18507	250287
11.19318	226942
11.20132	206018
11.20943	191593
11.21755	174029
11.22568	157480
11.23380	150759
11.24193	137195
11.25005	132319
11.25817	125448
11.26630	117465
11.27442	115658
11.28255	112082
11.29067	113538
11.29878	128104
11.30692	188757
11.31503	459010
11.32315	1208211
11.33128	2998982
11.33940	6228978
11.34753	1.06299E+07
11.35565	1.519811E+07
11.36377	1.870651E+07
11.37190	1.906146E+07
11.38002	1.626198E+07
11.38815	1.257926E+07
11.39627	8896361
11.40438	6389546
11.41252	4696659
11.42063	3572305
11.42877	2691059
11.43688	2046415
11.44500	1587524
11.45313	1265062
11.46125	1044751
11.46937	858991
11.47750	730756
11.48562	666876
11.49375	625169
11.50187	665304
11.50998	753138
11.51812	883622
11.52623	995615
11.53437	1004163
11.54248	933620
11.55060	862677
11.55873	755367
11.56685	699890
11.57498	659077
11.58310	661497
11.59122	661171
11.59935	690773
11.60747	744315
11.61558	903440
11.62372	1050981
11.63183	1118044
11.63997	1021714
11.64808	825362
11.65620	621611
11.66433	455227
11.67245	348626
11.68058	302035
11.68870	279724
11.69682	296661
11.70495	290274
11.71307	305143
11.72118	322341
11.72932	324162
11.73743	336364
11.74557	308383
11.75368	277877
11.76180	240547
11.76993	194939
11.77805	183944
11.78618	168311
11.79430	156973
11.80242	154364
11.81055	136986
11.81867	140707
11.82680	136107
11.83492	132836
11.84303	128432
11.85117	130536
11.85928	125030
11.86740	119441
11.87553	125420
11.88365	119988
11.89178	109689
11.89990	107426
11.90802	108486
11.91615	110236
11.92427	117200
11.93240	122777
11.94052	130681
11.94863	125400
11.95677	122186
11.96488	112206
11.97302	102126
11.98113	93111
11.98925	95078
11.99738	95257
12.00550	99055
12.01362	93376
12.02175	94553
12.02987	94176
12.03800	88746
12.04612	85142
12.05423	96154
12.06237	97330
12.07048	110154
12.07862	130082
12.08673	148773
12.09485	202369
12.10298	298342
12.11110	523786
12.11922	1043222
12.12735	2095161
12.13547	3758646
12.14360	5942558
12.15172	7798640
12.15983	8406397
12.16797	7551898
12.17608	5936562
12.18422	4172964
12.19233	2980696
12.20045	2293930
12.20858	1913207
12.21670	1691376
12.22483	1486004
12.23295	1283284
12.24107	1145012
12.24920	1038786
12.25732	947128
12.26543	883756
12.27357	840448
12.28168	801133
12.28982	758347
12.29793	703628
12.30605	658336
12.31418	604705
12.32230	559676
12.33043	524117
12.33855	505191
12.34667	483411
12.35480	456896
12.36292	441010
12.37103	444735
12.37917	421844
12.38728	424856
12.39542	430854
12.40353	481732
12.41165	587752
12.41978	839619
12.42790	1183308
12.43603	1426982
12.44415	1438640
12.45227	1232753
12.46040	982490
12.46852	744292
12.47665	588330
12.48477	528296
12.49288	472065
12.50102	440737
12.50913	414911
12.51725	396861
12.52538	378126
12.53350	393331
12.54163	471441
12.54975	594824
12.55787	725741
12.56600	825453
12.57412	863031
12.58225	791435
12.59037	672134
12.59848	555366
12.60662	473253
12.61473	408883
12.62287	388712
12.63098	360176
12.63910	327043
12.64723	315333
12.65535	288282
12.66347	280171
12.67160	261336
12.67972	253970
12.68785	232777
12.69597	233788
12.70408	227330
12.71222	226516
12.72033	229629
12.72847	228197
12.73658	220324
12.74470	225147
12.75283	218816
12.76095	228022
12.76907	220806
12.77720	209216
12.78532	197890
12.79345	187048
12.80157	181174
12.80968	172823
12.81782	171906
12.82593	152057
12.83407	139209
12.84218	122759
12.85030	107947
12.85843	99121
12.86655	93913
12.87468	94464
12.88280	91155
12.89092	90719
12.89905	95883
12.90717	96380
12.91528	95286
12.92342	97064
12.93153	88773
12.93967	89090
12.94778	92650
12.95590	98304
12.96403	98707
12.97215	109216
12.98028	120067
12.98840	127565
12.99652	129938
13.00465	132585
13.01277	122124
13.02090	101994
13.02902	97080
13.03713	97019
13.04527	89281
13.05338	85690
13.06150	86801
13.06963	92033
13.07775	92931
13.08588	94362
13.09400	104437
13.10212	99238
13.11025	104972
13.11837	101164
13.12650	88945
13.13462	86842
13.14273	88519
13.15087	93753
13.15898	88839
13.16710	90749
13.17523	97301
13.18335	103542
13.19148	121482
13.19960	109666
13.20772	111984
13.21585	119408
13.22397	132497
13.23210	143096
13.24022	155208
13.24833	156136
13.25647	156519
13.26458	156189
13.27272	151565
13.28083	142144
13.28895	124658
13.29708	115990
13.30520	107983
13.31332	99652
13.32145	88051
13.32957	82921
13.33770	75458
13.34582	79011
13.35393	82161
13.36207	80303
13.37018	70146
13.37832	77126
13.38643	81930
13.39455	82306
13.40268	79724
13.41080	82972
13.41892	82131
13.42705	83629
13.43517	81981
13.44330	79682
13.45142	82396
13.45953	92690
13.46767	104106
13.47578	119183
13.48392	139858
13.49203	140232
13.50015	140271
13.50828	136227
13.51640	127073
13.52453	122835
13.53265	118896
13.54077	121190
13.54890	111307
13.55702	101532
13.56513	89569
13.57327	93514
13.58138	108058
13.58952	130306
13.59763	167310
13.60575	206715
13.61388	255293
13.62200	277789
13.63013	278805
13.63825	270698
13.64637	232464
13.65450	197942
13.66262	157391
13.67075	127389
13.67887	104813
13.68698	92146
13.69512	73854
13.70323	73946
13.71135	70302
13.71948	68435
13.72760	67327
13.73573	70077
13.74385	70805
13.75197	76775
13.76010	92721
13.76822	133495
13.77635	189961
13.78447	289916
13.79258	438702
13.80072	665300
13.80883	915817
13.81697	1159385
13.82508	1528989
13.83320	2009771
13.84133	2611700
13.84945	3260145
13.85757	3535153
13.86570	3350480
13.87382	2755252
13.88195	2080800
13.89007	1386350
13.89818	879069
13.90632	550667
13.91443	370489
13.92257	261662
13.93068	206574
13.93880	173771
13.94693	155342
13.95505	144097
13.96317	124031
13.97130	121314
13.97942	106531
13.98755	107183
13.99567	110926
14.00378	111819
14.01192	130000
14.02003	120799
14.02817	122495
14.03628	117761
14.04440	110719
14.05253	104604
14.06065	96190
14.06878	97784
14.07690	96388
14.08502	107388
14.09315	110638
14.10127	102489
14.10938	99590
14.11752	94410
14.12563	91545
14.13377	97833
14.14188	101300
14.15000	122684
14.15813	150858
14.16625	187864
14.17438	242834
14.18250	277523
14.19062	292060
14.19875	291390
14.20687	278344
14.21498	298688
14.22312	329007
14.23123	374963
14.23937	401131
14.24748	466082
14.25560	511218
14.26373	581546
14.27185	613811
14.27998	601310
14.28810	517548
14.29622	417521
14.30435	322677
14.31247	269419
14.32060	224740
14.32872	200454
14.33683	180416
14.34497	179701
14.35308	166858
14.36120	162055
14.36933	160373
14.37745	150669
14.38558	143329
14.39370	134079
14.40182	134094
14.40995	150653
14.41807	197773
14.42620	255205
14.43432	300796
14.44243	335631
14.45057	305387
14.45868	262687
14.46682	228375
14.47493	211792
14.48305	228112
14.49118	251125
14.49930	275216
14.50742	280314
14.51555	269962
14.52367	240921
14.53180	212433
14.53992	185439
14.54803	169825
14.55617	164479
14.56428	150770
14.57242	135809
14.58053	129020
14.58865	120665
14.59678	104955
14.60490	97261
14.61302	91762
14.62115	86914
14.62927	76189
14.63740	77417
14.64552	81500
14.65363	76180
14.66177	72222
14.66988	74269
14.67802	69048
14.68613	71951
14.69425	80284
14.70238	74013
14.71050	79423
14.71863	76313
14.72675	83587
14.73487	87892
14.74300	93161
14.75112	104525
14.75923	114441
14.76737	130016
14.77548	132329
14.78362	136100
14.79173	168429
14.79985	281161
14.80798	675418
14.81610	1830783
14.82423	4462381
14.83235	8692155
14.84047	1.49482E+07
14.84860	2.161121E+07
14.85672	2.734217E+07
14.86485	2.982071E+07
14.87297	2.663999E+07
14.88108	1.866583E+07
14.88922	1.040653E+07
14.89733	5500756
14.90545	3240497
14.91358	2369831
14.92170	1903327
14.92983	1660760
14.93795	1469845
14.94607	1361365
14.95420	1226898
14.96232	1144598
14.97045	1039384
14.97857	933928
14.98668	850917
14.99482	799721
15.00293	728542
15.01105	689252
15.01918	675525
15.02730	639909
15.03543	619671
15.04355	616615
15.05167	591081
15.05980	582186
15.06792	554022
15.07605	522789
15.08417	481910
15.09228	443121
15.10042	409354
15.10853	381645
15.11667	374004
15.12478	361216
15.13290	363054
15.14103	405971
15.14915	476172
15.15727	541054
15.16540	565758
15.17352	516406
15.18165	424378
15.18977	314002
15.19788	238810
15.20602	188952
15.21413	164026
15.22227	158908
15.23038	157031
15.23850	147549
15.24663	147430
15.25475	144608
15.26287	138736
15.27100	146881
15.27912	137211
15.28725	116842
15.29537	119848
15.30348	118001
15.31162	111102
15.31973	109305
15.32787	107188
15.33598	100407
15.34410	100279
15.35223	102933
15.36035	92135
15.36848	94353
15.37660	100820
15.38472	107488
15.39285	117362
15.40097	128286
15.40908	119434
15.41722	116019
15.42533	109572
15.43347	105966
15.44158	106896
15.44970	106864
15.45783	111910
15.46595	124002
15.47408	196724
15.48220	349552
15.49032	676940
15.49845	1237689
15.50657	2000944
15.51470	2806599
15.52282	3323970
15.53093	3384570
15.53907	3111648
15.54718	2483868
15.55530	1850271
15.56343	1334072
15.57155	898877
15.57968	617399
15.58780	462302
15.59592	355101
15.60405	291636
15.61217	269212
15.62030	245609
15.62842	223621
15.63653	202826
15.64467	201262
15.65278	181593
15.66090	175119
15.66903	154780
15.67715	151621
15.68528	142370
15.69340	129501
15.70152	121497
15.70965	111357
15.71777	105567
15.72590	103153
15.73402	98334
15.74213	101433
15.75027	109860
15.75838	136580
15.76652	208944
15.77463	403573
15.78275	803494
15.79088	1397843
15.79900	1993905
15.80712	2352527
15.81525	2223569
15.82337	1749603
15.83150	1174199
15.83962	761924
15.84773	497208
15.85587	367691
15.86398	305178
15.87212	277543
15.88023	248986
15.88835	239934
15.89648	226361
15.90460	218392
15.91273	205123
15.92085	196370
15.92897	188423
15.93710	180737
15.94522	177301
15.95333	170694
15.96147	166833
15.96958	164984
15.97772	157487
15.98583	152271
15.99395	144337
16.00208	152334
16.01020	162675
16.01833	186906
16.02645	218199
16.03457	236706
16.04270	248469
16.05082	241649
16.05893	223727
16.06707	200443
16.07518	165642
16.08332	148492
16.09143	131519
16.09955	122291
16.10768	126832
16.11580	119445
16.12393	127122
16.13205	149255
16.14017	181047
16.14830	213452
16.15642	268344
16.16455	301448
16.17267	326640
16.18078	302275
16.18892	260443
16.19703	212449
16.20515	183509
16.21328	160462
16.22140	154009
16.22953	148876
16.23765	148859
16.24577	153840
16.25390	139565
16.26202	126972
16.27015	117674
16.27827	110472
16.28638	126716
16.29452	151264
16.30263	193660
16.31077	245913
16.31888	279806
16.32700	298903
16.33513	293145
16.34325	256258
16.35137	224521
16.35950	191070
16.36762	181450
16.37575	170128
16.38387	158438
16.39198	147277
16.40012	140697
16.40823	133048
16.41637	126614
16.42448	126506
16.43260	118611
16.44073	124227
16.44885	160203
16.45697	263462
16.46510	608318
16.47322	1457909
16.48135	2921648
16.48947	4768436
16.49758	6359911
16.50572	6889940
16.51383	6084603
16.52197	4364162
16.53008	2764036
16.53820	1629088
16.54633	981895
16.55445	679269
16.56258	514106
16.57070	456506
16.57882	396094
16.58695	372355
16.59507	345939
16.60318	335771
16.61132	318284
16.61943	305570
16.62757	296315
16.63568	278215
16.64380	256081
16.65193	241284
16.66005	215851
16.66818	200360
16.67630	193835
16.68442	181061
16.69255	182998
16.70067	175311
16.70878	164849
16.71692	156869
16.72503	145683
16.73317	136178
16.74128	130636
16.74940	129618
16.75753	141032
16.76565	162452
16.77378	190934
16.78190	213022
16.79002	224097
16.79815	202402
16.80627	166405
16.81440	133332
16.82252	111920
16.83063	101233
16.83877	89861
16.84688	93172
16.85500	87266
16.86313	87785
16.87125	89588
16.87938	86362
16.88750	80211
16.89562	78441
16.90375	81133
16.91187	83742
16.92000	77418
16.92812	81047
16.93623	86499
16.94437	83752
16.95248	93359
16.96062	88890
16.96873	88937
16.97685	81951
16.98498	84011
16.99310	90579
17.00122	92227
17.00935	97291
17.01747	99758
17.02560	104831
17.03372	105166
17.04183	123888
17.04997	142293
17.05808	163721
17.06622	197128
17.07433	217426
17.08245	216422
17.09058	192755
17.09870	158985
17.10682	125494
17.11495	120767
17.12307	111106
17.13120	124159
17.13932	130892
17.14743	144753
17.15557	157745
17.16368	167338
17.17182	156292
17.17993	149643
17.18805	139342
17.19618	130892
17.20430	112348
17.21243	105418
17.22055	102627
17.22867	90584
17.23680	85211
17.24492	85519
17.25303	90555
17.26117	96211
17.26928	106016
17.27742	100158
17.28553	105067
17.29365	98843
17.30178	91282
17.30990	91996
17.31803	89841
17.32615	109005
17.33427	142097
17.34240	204675
17.35052	260040
17.35865	331591
17.36677	373036
17.37488	369415
17.38302	346549
17.39113	317964
17.39925	303204
17.40738	293703
17.41550	281847
17.42363	295594
17.43175	299220
17.43987	307393
17.44800	322618
17.45612	298911
17.46425	280370
17.47237	241386
17.48048	202787
17.48862	169596
17.49673	148551
17.50485	138878
17.51298	129984
17.52110	125644
17.52923	130613
17.53735	133179
17.54547	125912
17.55360	128331
17.56172	139693
17.56985	198113
17.57797	337819
17.58608	767020
17.59422	1642421
17.60233	3147735
17.61047	4899683
17.61858	6251356
17.62670	6992214
17.63483	6325707
17.64295	4877429
17.65107	3258587
17.65920	1954494
17.66732	1080737
17.67545	622610
17.68357	380777
17.69168	307602
17.69982	263204
17.70793	256951
17.71607	254282
17.72418	263989
17.73230	272207
17.74043	282816
17.74855	289382
17.75667	292788
17.76480	296973
17.77292	277697
17.78105	254286
17.78917	223811
17.79728	187652
17.80542	169201
17.81353	149886
17.82167	144237
17.82978	148204
17.83790	158801
17.84603	181952
17.85415	232885
17.86228	319190
17.87040	411440
17.87852	513496
17.88665	560655
17.89477	550539
17.90288	445686
17.91102	326453
17.91913	232949
17.92727	181375
17.93538	149991
17.94350	124458
17.95163	134308
17.95975	121122
17.96788	116287
17.97600	109210
17.98412	105699
17.99225	108658
18.00037	102390
18.00850	105912
18.01662	121346
18.02473	161752
18.03287	243427
18.04098	391283
18.04910	551230
18.05723	705898
18.06535	828834
18.07348	1106747
18.08160	1890088
18.08972	3361449
18.09785	5623131
18.10597	7893895
18.11410	8950170
18.12222	8705954
18.13033	7416136
18.13847	5715041
18.14658	4211376
18.15472	3190229
18.16283	2549190
18.17095	2167441
18.17908	1832323
18.18720	1581414
18.19532	1382320
18.20345	1230208
18.21157	1072363
18.21970	975343
18.22782	888058
18.23593	821322
18.24407	762022
18.25218	710644
18.26032	645647
18.26843	589053
18.27655	554957
18.28468	500274
18.29280	428664
18.30092	341236
18.30905	275073
18.31717	217632
18.32530	183936
18.33342	153790
18.34153	141814
18.34967	142358
18.35778	131301
18.36592	131864
18.37403	128287
18.38215	127545
18.39028	124025
18.39840	128117
18.40653	134329
18.41465	146582
18.42277	195316
18.43090	298197
18.43902	430293
18.44713	635460
18.45527	850649
18.46338	1102428
18.47152	1378711
18.47963	1772458
18.48775	2216086
18.49588	2545624
18.50400	2575697
18.51213	2255523
18.52025	1729061
18.52837	1194124
18.53650	764564
18.54462	478575
18.55273	319738
18.56087	233424
18.56898	196085
18.57712	179285
18.58523	163954
18.59335	159750
18.60148	174456
18.60960	194726
18.61773	236033
18.62585	281184
18.63397	324328
18.64210	368874
18.65022	377018
18.65835	357311
18.66647	322989
18.67458	255937
18.68272	201836
18.69083	170945
18.69895	147686
18.70708	140522
18.71520	140525
18.72333	151967
18.73145	164841
18.73957	150604
18.74770	148314
18.75582	138226
18.76395	130521
18.77207	121842
18.78018	114041
18.78832	114616
18.79643	115145
18.80457	109690
18.81268	114017
18.82080	122180
18.82893	119588
18.83705	115474
18.84517	113341
18.85330	108928
18.86142	121242
18.86955	139708
18.87767	178433
18.88578	219539
18.89392	251784
18.90203	283517
18.91017	278659
18.91828	261493
18.92640	234832
18.93453	214007
18.94265	214369
18.95077	235311
18.95890	264607
18.96702	292205
18.97515	309054
18.98327	325001
18.99138	307093
18.99952	273288
19.00763	241331
19.01577	203807
19.02388	172449
19.03200	158033
19.04013	139524
19.04825	137613
19.05638	136633
19.06450	127453
19.07262	130437
19.08075	124693
19.08887	123564
19.09698	152326
19.10512	204897
19.11323	267575
19.12137	313518
19.12948	341305
19.13760	301199
19.14573	262953
19.15385	207449
19.16198	162105
19.17010	132440
19.17822	115749
19.18635	105371
19.19447	98029
19.20260	96404
19.21072	91551
19.21883	92574
19.22697	88956
19.23508	98646
19.24320	95676
19.25133	97033
19.25945	98732
19.26758	100308
19.27570	95842
19.28382	109686
19.29195	157063
19.30007	228509
19.30820	266416
19.31632	315722
19.32443	316876
19.33257	317617
19.34068	295725
19.34880	271112
19.35693	292573
19.36505	314966
19.37318	373897
19.38130	470364
19.38942	554179
19.39755	597132
19.40567	580506
19.41380	524083
19.42192	455628
19.43003	380264
19.43817	339198
19.44628	322753
19.45442	299212
19.46253	289378
19.47065	288450
19.47878	278294
19.48690	276853
19.49502	282509
19.50315	308827
19.51127	331314
19.51940	382320
19.52752	421579
19.53563	503153
19.54377	553579
19.55188	583423
19.56002	580510
19.56813	551441
19.57625	507898
19.58438	441545
19.59250	375122
19.60062	323270
19.60875	280367
19.61687	254581
19.62500	246417
19.63312	235464
19.64123	248547
19.64937	282608
19.65748	389272
19.66562	601831
19.67373	906055
19.68185	1250935
19.68998	1545920
19.69810	1670628
19.70623	1629221
19.71435	1433778
19.72247	1204777
19.73060	986944
19.73872	831982
19.74683	690861
19.75497	590850
19.76308	506114
19.77122	462521
19.77933	461169
19.78745	528786
19.79558	665504
19.80370	843516
19.81183	1077654
19.81995	1258303
19.82807	1285813
19.83620	1162464
19.84432	941367
19.85245	743332
19.86057	569973
19.86868	451541
19.87682	397810
19.88493	399784
19.89305	435593
19.90118	516039
19.90930	601919
19.91743	685342
19.92555	662651
19.93367	608752
19.94180	550207
19.94992	476375
19.95805	409352
19.96617	371376
19.97428	340422
19.98242	333022
19.99053	313069
19.99865	296399
20.00678	297109
20.01490	295334
20.02303	314154
20.03115	341464
20.03927	347871
20.04740	358167
20.05552	379687
20.06365	427093
20.07177	580739
20.07988	818758
20.08802	1181570
20.09613	1548925
20.10427	1784581
20.11238	1841204
20.12050	1673162
20.12863	1387000
20.13675	1056302
20.14487	859662
20.15300	822554
20.16112	1133665
20.16925	1923601
20.17737	3534953
20.18548	6069962
20.19362	8883640
20.20173	1.171749E+07
20.20987	1.358523E+07
20.21798	1.408535E+07
20.22610	1.290669E+07
20.23423	1.042317E+07
20.24235	7777068
20.25048	5885666
20.25860	5027108
20.26672	5315471
20.27485	6478978
20.28297	7989755
20.29108	9337988
20.29922	9352152
20.30733	8429975
20.31547	6920515
20.32358	5087013
20.33170	3449251
20.33983	2212258
20.34795	1370878
20.35608	928211
20.36420	649978
20.37232	511512
20.38045	414720
20.38857	369419
20.39668	322671
20.40482	297751
20.41293	294408
20.42107	275578
20.42918	261439
20.43730	275347
20.44543	297171
20.45355	340252
20.46168	380771
20.46980	420864
20.47792	434603
20.48605	412299
20.49417	363412
20.50230	315393
20.51042	284873
20.51853	254305
20.52667	233031
20.53478	219841
20.54290	221167
20.55103	218774
20.55915	236979
20.56728	239002
20.57540	230327
20.58352	245061
20.59165	221803
20.59977	213381
20.60790	195104
20.61602	196528
20.62413	197113
20.63227	206230
20.64038	216384
20.64852	251353
20.65663	267411
20.66475	310570
20.67288	326717
20.68100	320477
20.68912	301582
20.69725	257620
20.70537	228582
20.71350	212437
20.72162	192865
20.72973	181720
20.73787	186710
20.74598	185344
20.75412	195891
20.76223	217479
20.77035	268386
20.77848	293352
20.78660	362312
20.79472	513192
20.80285	823846
20.81097	1583918
20.81910	2718397
20.82722	4017394
20.83533	4925511
20.84347	5104340
20.85158	4329640
20.85972	3041371
20.86783	1904171
20.87595	1040626
20.88408	593454
20.89220	396513
20.90033	317912
20.90845	297066
20.91657	305285
20.92470	367242
20.93282	430086
20.94093	509532
20.94907	571956
20.95718	598369
20.96532	570745
20.97343	509513
20.98155	433917
20.98968	350447
20.99780	293167
21.00593	240926
21.01405	216480
21.02217	220296
21.03030	225784
21.03842	230897
21.04653	241955
21.05467	250014
21.06278	248319
21.07092	236209
21.07903	226767
21.08715	199315
21.09528	191787
21.10340	179468
21.11153	172814
21.11965	167137
21.12777	173130
21.13590	194172
21.14402	259299
21.15215	413684
21.16027	684131
21.16838	1052430
21.17652	1362487
21.18463	1484190
21.19275	1435621
21.20088	1196662
21.20900	861203
21.21713	620659
21.22525	456127
21.23337	357260
21.24150	292144
21.24962	264333
21.25775	224652
21.26587	214970
21.27398	197409
21.28212	186276
21.29023	182410
21.29837	168884
21.30648	167170
21.31460	163501
21.32273	160218
21.33085	162883
21.33897	150039
21.34710	155799
21.35522	151310
21.36335	158375
21.37147	160657
21.37958	167407
21.38772	180826
21.39583	192237
21.40397	234426
21.41208	282092
21.42020	355708
21.42833	423675
21.43645	493672
21.44457	529549
21.45270	533351
21.46082	493636
21.46895	429752
21.47707	366008
21.48518	313592
21.49332	266433
21.50143	234479
21.50957	220118
21.51768	194617
21.52580	182684
21.53393	173287
21.54205	168342
21.55018	165380
21.55830	160774
21.56642	157143
21.57455	162545
21.58267	162192
21.59078	179476
21.59892	205650
21.60703	231346
21.61517	258808
21.62328	250054
21.63140	245550
21.63953	238110
21.64765	243362
21.65578	286893
21.66390	338522
21.67202	399912
21.68015	471824
21.68827	509076
21.69640	554524
21.70452	530307
21.71263	492509
21.72077	409248
21.72888	321669
21.73700	257019
21.74513	216958
21.75325	183622
21.76138	173915
21.76950	168078
21.77762	163457
21.78575	166618
21.79387	165847
21.80200	176016
21.81012	190310
21.81823	198856
21.82637	209862
21.83448	216597
21.84260	231630
21.85073	258795
21.85885	272094
21.86698	316029
21.87510	327332
21.88322	321145
21.89135	292668
21.89947	262786
21.90760	226237
21.91572	212524
21.92383	207756
21.93197	196847
21.94008	180268
21.94822	165893
21.95633	150592
21.96445	141256
21.97258	132623
21.98070	125810
21.98882	122671
21.99695	117508
22.00507	109670
22.01320	125179
22.02132	128839
22.02943	133982
22.03757	153120
22.04568	171878
22.05382	182404
22.06193	193625
22.07005	190622
22.07818	183198
22.08630	178993
22.09442	174826
22.10255	166331
22.11067	156756
22.11880	136002
22.12692	132681
22.13503	126181
22.14317	117678
22.15128	123022
22.15942	110260
22.16753	113346
22.17565	112902
22.18378	110943
22.19190	114827
22.20003	109441
22.20815	116066
22.21627	110553
22.22440	122783
22.23252	123025
22.24063	128118
22.24877	138683
22.25688	158280
22.26502	159832
22.27313	172859
22.28125	181352
22.28938	207880
22.29750	223298
22.30563	254631
22.31375	268659
22.32187	276206
22.33000	255436
22.33812	223276
22.34625	198697
22.35437	174188
22.36248	148482
22.37062	138145
22.37873	139889
22.38685	144982
22.39498	176964
22.40310	257958
22.41123	418228
22.41935	651356
22.42747	909361
22.43560	1143346
22.44372	1225891
22.45185	1128457
22.45997	931560
22.46808	659438
22.47622	466629
22.48433	336468
22.49245	294127
22.50058	310408
22.50870	375759
22.51683	465910
22.52495	583777
22.53307	669530
22.54120	712876
22.54932	664466
22.55745	581723
22.56557	487084
22.57368	396761
22.58182	330012
22.58993	260858
22.59807	225966
22.60618	201321
22.61430	182891
22.62243	169546
22.63055	150384
22.63867	138923
22.64680	140325
22.65492	143572
22.66305	156716
22.67117	173267
22.67928	173316
22.68742	181632
22.69553	186740
22.70367	209634
22.71178	250552
22.71990	329303
22.72803	394660
22.73615	434867
22.74428	431143
22.75240	426137
22.76052	349168
22.76865	281324
22.77677	255754
22.78488	234493
22.79302	245271
22.80113	288711
22.80927	373759
22.81738	460447
22.82550	554885
22.83363	575445
22.84175	565275
22.84988	482034
22.85800	410376
22.86612	370745
22.87425	373210
22.88237	432387
22.89048	554099
22.89862	721547
22.90673	863336
22.91487	931774
22.92298	949847
22.93110	908450
22.93923	843198
22.94735	811752
22.95548	689091
22.96360	599192
22.97172	464821
22.97985	341499
22.98797	279613
22.99610	207218
23.00422	189590
23.01233	160632
23.02047	144171
23.02858	132329
23.03670	130370
23.04483	128426
23.05295	123678
23.06108	138283
23.06920	150845
23.07732	170973
23.08545	197485
23.09357	214324
23.10170	221639
23.10982	206493
23.11793	185224
23.12607	169747
23.13418	155897
23.14230	153721
23.15043	144148
23.15855	155307
23.16668	141409
23.17480	136615
23.18292	135372
23.19105	128255
23.19917	117737
23.20730	105480
23.21542	105312
23.22353	102668
23.23167	95794
23.23978	100362
23.24792	108790
23.25603	131248
23.26415	165866
23.27228	206573
23.28040	270659
23.28852	282316
23.29665	277689
23.30477	255421
23.31290	204891
23.32102	176668
23.32913	153714
23.33727	164574
23.34538	194467
23.35352	287853
23.36163	410799
23.36975	567043
23.37788	711322
23.38600	815025
23.39413	811272
23.40225	683326
23.41037	539714
23.41850	385168
23.42662	267413
23.43473	193948
23.44287	152665
23.45098	125201
23.45912	113934
23.46723	103731
23.47535	102830
23.48348	106307
23.49160	99255
23.49973	100285
23.50785	96079
23.51597	99395
23.52410	98505
23.53222	98420
23.54035	102519
23.54847	114727
23.55658	133424
23.56472	160473
23.57283	208113
23.58095	316390
23.58908	489389
23.59720	758948
23.60533	1105031
23.61345	1439386
23.62157	1543375
23.62970	1504469
23.63782	1269651
23.64595	912990
23.65407	604917
23.66218	387883
23.67032	266610
23.67843	213650
23.68655	195760
23.69468	167484
23.70280	149422
23.71093	137833
23.71905	132597
23.72717	125223
23.73530	119607
23.74342	117878
23.75155	116231
23.75967	130467
23.76778	211666
23.77592	445654
23.78403	1005725
23.79217	1928169
23.80028	3084281
23.80840	3943778
23.81653	4226031
23.82465	3961934
23.83277	3206670
23.84090	2364981
23.84902	1680651
23.85715	1189141
23.86527	908145
23.87338	706958
23.88152	596122
23.88963	524377
23.89777	488605
23.90588	493838
23.91400	555539
23.92213	647456
23.93025	746132
23.93837	823692
23.94650	807101
23.95462	689420
23.96275	561069
23.97087	441879
23.97898	352813
23.98712	306437
23.99523	269148
24.00337	267129
24.01148	249889
24.01960	253221
24.02773	284965
24.03585	315864
24.04398	364669
24.05210	399246
24.06022	398953
24.06835	354507
24.07647	294550
24.08458	244773
24.09272	206839
24.10083	194893
24.10897	169895
24.11708	169603
24.12520	172465
24.13333	180740
24.14145	207405
24.14958	265412
24.15770	359081
24.16582	455941
24.17395	525966
24.18207	543080
24.19020	539243
24.19832	532093
24.20643	509814
24.21457	491652
24.22268	442431
24.23080	416264
24.23893	366155
24.24705	328277
24.25518	282553
24.26330	248141
24.27142	223715
24.27955	199960
24.28767	181759
24.29580	165331
24.30392	170024
24.31203	173381
24.32017	183179
24.32828	188373
24.33640	202553
24.34453	219473
24.35265	212240
24.36078	196396
24.36890	189444
24.37702	171364
24.38515	156841
24.39327	148036
24.40140	151948
24.40952	156817
24.41763	169780
24.42577	191151
24.43388	204954
24.44202	211042
24.45013	197873
24.45825	189164
24.46638	168820
24.47450	160539
24.48262	164564
24.49075	169653
24.49887	176017
24.50700	187899
24.51512	193618
24.52323	198250
24.53137	212095
24.53948	249517
24.54762	302176
24.55573	391026
24.56385	479236
24.57198	569181
24.58010	627735
24.58823	591123
24.59635	538724
24.60447	474599
24.61260	374498
24.62072	317984
24.62883	265722
24.63697	228652
24.64508	198741
24.65322	182187
24.66133	179249
24.66945	180895
24.67758	174854
24.68570	182715
24.69383	171879
24.70195	174901
24.71007	166442
24.71820	163732
24.72632	161209
24.73443	155583
24.74257	164107
24.75068	161303
24.75882	154820
24.76693	157751
24.77505	157310
24.78318	179763
24.79130	197016
24.79943	220749
24.80755	236349
24.81567	246479
24.82380	244904
24.83192	261115
24.84005	283905
24.84817	344539
24.85628	483762
24.86442	701817
24.87253	947004
24.88065	1393854
24.88878	1967272
24.89690	2745111
24.90503	3587479
24.91315	3913361
24.92127	3832916
24.92940	3123792
24.93752	2249256
24.94565	1415722
24.95377	853388
24.96188	511692
24.97002	322319
24.97813	246748
24.98625	204706
24.99438	183594
25.00250	175232
25.01063	171929
25.01875	153028
25.02687	143080
25.03500	154178
25.04312	146103
25.05125	155491
25.05937	155777
25.06748	155451
25.07562	155117
25.08373	166760
25.09187	165266
25.09998	188311
25.10810	258030
25.11623	499107
25.12435	1208076
25.13247	2887173
25.14060	6144406
25.14872	1.111148E+07
25.15685	1.654114E+07
25.16497	2.065335E+07
25.17308	2.150923E+07
25.18122	1.900099E+07
25.18933	1.446154E+07
25.19747	9612579
25.20558	5341254
25.21370	2805098
25.22183	1422761
25.22995	779381
25.23808	490756
25.24620	414525
25.25432	419424
25.26245	554868
25.27057	753672
25.27868	972899
25.28682	1113725
25.29493	1142939
25.30307	1060162
25.31118	835179
25.31930	611631
25.32743	435145
25.33555	318231
25.34368	257523
25.35180	214498
25.35992	185538
25.36805	170196
25.37617	160598
25.38428	143646
25.39242	142070
25.40053	137000
25.40867	135248
25.41678	128145
25.42490	117753
25.43303	119295
25.44115	116432
25.44928	127068
25.45740	118867
25.46552	127763
25.47365	124582
25.48177	126307
25.48990	127347
25.49802	134324
25.50613	135511
25.51427	141024
25.52238	133150
25.53050	129662
25.53863	123829
25.54675	117813
25.55488	109645
25.56300	108028
25.57112	106694
25.57925	112249
25.58737	122692
25.59550	117620
25.60362	120879
25.61173	122432
25.61987	117119
25.62798	113215
25.63612	109221
25.64423	106673
25.65235	109871
25.66048	103794
25.66860	110535
25.67672	117340
25.68485	127216
25.69297	159041
25.70110	181336
25.70922	207158
25.71733	215075
25.72547	211014
25.73358	196472
25.74172	177423
25.74983	160886
25.75795	148006
25.76608	131871
25.77420	122221
25.78232	110649
25.79045	110474
25.79857	110147
25.80670	107702
25.81482	109034
25.82293	111150
25.83107	104529
25.83918	109561
25.84732	113056
25.85543	113222
25.86355	119023
25.87168	108951
25.87980	117769
25.88793	116860
25.89605	122936
25.90417	124251
25.91230	131187
25.92042	141321
25.92853	159681
25.93667	159237
25.94478	163260
25.95292	158902
25.96103	164958
25.96915	155837
25.97728	152278
25.98540	142655
25.99353	146572
26.00165	135100
26.00977	126324
26.01790	117987
26.02602	107452
26.03415	108295
26.04227	103715
26.05038	99007
26.05852	107780
26.06663	106976
26.07475	118312
26.08288	132972
26.09100	140403
26.09913	163934
26.10725	165290
26.11537	174247
26.12350	174270
26.13162	159400
26.13975	151127
26.14787	140888
26.15598	145969
26.16412	160540
26.17223	180487
26.18035	189804
26.18848	193221
26.19660	190432
26.20473	184737
26.21285	175998
26.22097	161817
26.22910	154479
26.23722	139440
26.24535	138391
26.25347	127032
26.26158	119825
26.26972	116319
26.27783	108362
26.28597	101196
26.29408	100850
26.30220	98799
26.31033	105133
26.31845	122791
26.32657	161240
26.33470	220451
26.34282	278288
26.35095	324337
26.35907	393163
26.36718	563917
26.37532	833137
26.38343	1436471
26.39157	2379039
26.39968	3613049
26.40780	4714124
26.41593	5441113
26.42405	5515530
26.43217	4790689
26.44030	3872791
26.44842	2755064
26.45655	1845964
26.46467	1260354
26.47278	887542
26.48092	668377
26.48903	550229
26.49717	497831
26.50528	453769
26.51340	436317
26.52153	410225
26.52965	382859
26.53778	353173
26.54590	350363
26.55402	357640
26.56215	337823
26.57027	345443
26.57838	340270
26.58652	341155
26.59463	337022
26.60277	334261
26.61088	335831
26.61900	338067
26.62713	333314
26.63525	336133
26.64338	343592
26.65150	334671
26.65962	346263
26.66775	335488
26.67587	332918
26.68400	330001
26.69212	325596
26.70023	329413
26.70837	326897
26.71648	327573
26.72460	316602
26.73273	328660
26.74085	313880
26.74898	322718
26.75710	310494
26.76522	324747
26.77335	331398
26.78147	322531
26.78960	325305
26.79772	326729
26.80583	331214
26.81397	324820
26.82208	341167
26.83020	333505
26.83833	329322
26.84645	312960
26.85458	319525
26.86270	303180
26.87082	294465
26.87895	289136
26.88707	275703
26.89520	305481
26.90332	297167
26.91143	285761
26.91957	292249
26.92768	290896
26.93582	283823
26.94393	264718
26.95205	263196
26.96018	268400
26.96830	269549
26.97642	293835
26.98455	344902
26.99267	484434
27.00080	712475
27.00892	1190267
27.01703	1870871
27.02517	2644636
27.03328	3310021
27.04142	3449011
27.04953	3237620
27.05765	2663174
27.06578	2063664
27.07390	1568226
27.08203	1204647
27.09015	950552
27.09827	771583
27.10640	663199
27.11452	603801
27.12263	555115
27.13077	534247
27.13888	503124
27.14702	487278
27.15513	464982
27.16325	449521
27.17138	448999
27.17950	500741
27.18763	572263
27.19575	665068
27.20387	755349
27.21200	797634
27.22012	781695
27.22823	704107
27.23637	618471
27.24448	529590
27.25262	473898
27.26073	418776
27.26885	364771
27.27698	344552
27.28510	315733
27.29323	309785
27.30135	302736
27.30947	313324
27.31760	301914
27.32572	301151
27.33385	309062
27.34197	310085
27.35008	313422
27.35822	318617
27.36633	320034
27.37445	323974
27.38258	313587
27.39070	309940
27.39883	297732
27.40695	298584
27.41507	283381
27.42320	284788
27.43132	291464
27.43945	281931
27.44757	283558
27.45568	289871
27.46382	279205
27.47193	266957
27.48005	252124
27.48818	246141
27.49630	233795
27.50443	222648
27.51255	219472
27.52067	212873
27.52880	219110
27.53692	220602
27.54505	230894
27.55317	222604
27.56128	215681
27.56942	219808
27.57753	234813
27.58567	261137
27.59378	301621
27.60190	370136
27.61003	419145
27.61815	455116
27.62627	470425
27.63440	423778
27.64252	378228
27.65065	332274
27.65877	299872
27.66688	284682
27.67502	277278
27.68313	269107
27.69127	279451
27.69938	291910
27.70750	311145
27.71563	323840
27.72375	313892
27.73188	292807
27.74000	252381
27.74812	222504
27.75625	206444
27.76437	188754
27.77248	184857
27.78062	191704
27.78873	195510
27.79687	205956
27.80498	218158
27.81310	215836
27.82123	211207
27.82935	203613
27.83748	193887
27.84560	186141
27.85372	181037
27.86185	180587
27.86997	168019
27.87808	166696
27.88622	163983
27.89433	160978
27.90247	161807
27.91058	168615
27.91870	160756
27.92683	164228
27.93495	166958
27.94308	163224
27.95120	167307
27.95932	158984
27.96745	157398
27.97557	166715
27.98370	151158
27.99182	155139
27.99993	161361
28.00807	170033
28.01618	189684
28.02430	199431
28.03243	246787
28.04055	320375
28.04868	418296
28.05680	551276
28.06492	662037
28.07305	686541
28.08117	616473
28.08930	526969
28.09742	420690
28.10553	309096
28.11367	239483
28.12178	188388
28.12992	169645
28.13803	155881
28.14615	156152
28.15428	146593
28.16240	154465
28.17052	147582
28.17865	138617
28.18677	154047
28.19490	151616
28.20302	180678
28.21113	217315
28.21927	281588
28.22738	355260
28.23552	385080
28.24363	432977
28.25175	417677
28.25988	377682
28.26800	314256
28.27612	254527
28.28425	203203
28.29237	173532
28.30050	161314
28.30862	171669
28.31673	195506
28.32487	248801
28.33298	305341
28.34112	356991
28.34923	400343
28.35735	431558
28.36548	430310
28.37360	453176
28.38173	471710
28.38985	488301
28.39797	508657
28.40610	497546
28.41422	492759
28.42233	472687
28.43047	444144
28.43858	399029
28.44672	351788
28.45483	322859
28.46295	291659
28.47108	264146
28.47920	270251
28.48733	270672
28.49545	289022
28.50357	311092
28.51170	364253
28.51982	412402
28.52793	439407
28.53607	421812
28.54418	382842
28.55232	325016
28.56043	264286
28.56855	210034
28.57668	175053
28.58480	155219
28.59293	150471
28.60105	148612
28.60917	143717
28.61730	149886
28.62542	173479
28.63355	190328
28.64167	210048
28.64978	238991
28.65792	244560
28.66603	249024
28.67415	230743
28.68228	210589
28.69040	182241
28.69853	177743
28.70665	158842
28.71477	146333
28.72290	133520
28.73102	136465
28.73915	126033
28.74727	129944
28.75538	123076
28.76352	123937
28.77163	125793
28.77977	132838
28.78788	138526
28.79600	150257
28.80413	173033
28.81225	183283
28.82037	206841
28.82850	211729
28.83662	213697
28.84475	200925
28.85287	175011
28.86098	165119
28.86912	160502
28.87723	153115
28.88537	160359
28.89348	181888
28.90160	215634
28.90973	238242
28.91785	271953
28.92598	273349
28.93410	251884
28.94222	237832
28.95035	213657
28.95847	189794
28.96658	183061
28.97472	166788
28.98283	158090
28.99097	141222
28.99908	128444
29.00720	121539
29.01533	120230
29.02345	120106
29.03158	120286
29.03970	121077
29.04782	120825
29.05595	125266
29.06407	124130
29.07218	113487
29.08032	121127
29.08843	124835
29.09657	130513
29.10468	136717
29.11280	140787
29.12093	133630
29.12905	130994
29.13718	124274
29.14530	109985
29.15342	99026
29.16155	101688
29.16967	101572
29.17780	104939
29.18592	107321
29.19403	120600
29.20217	150179
29.21028	194794
29.21840	261527
29.22653	333101
29.23465	395020
29.24278	410692
29.25090	385645
29.25902	351002
29.26715	334334
29.27527	311322
29.28340	295460
29.29152	259582
29.29963	219012
29.30777	185280
29.31588	154395
29.32400	135253
29.33213	117665
29.34025	109992
29.34838	102269
29.35650	103207
29.36462	98561
29.37275	101980
29.38087	98020
29.38900	103854
29.39712	107463
29.40523	116361
29.41337	116108
29.42148	120076
29.42962	122603
29.43773	127314
29.44585	128523
29.45398	128624
29.46210	122033
29.47022	121582
29.47835	111343
29.48647	104296
29.49460	106331
29.50272	108586
29.51083	107452
29.51897	118156
29.52708	117957
29.53522	122815
29.54333	121161
29.55145	115792
29.55958	111321
29.56770	106750
29.57583	106041
29.58395	105915
29.59207	99566
29.60020	98843
29.60832	95285
29.61643	90501
29.62457	93905
29.63268	94886
29.64082	93110
29.64893	100264
29.65705	94747
29.66518	91847
29.67330	99600
29.68143	94410
29.68955	102428
29.69767	123422
29.70580	138447
29.71392	152708
29.72203	154283
29.73017	157248
29.73828	143930
29.74642	128821
29.75453	116024
29.76265	109492
29.77078	98714
29.77890	96862
29.78703	93574
29.79515	91395
29.80327	83105
29.81140	84456
29.81952	88097
29.82765	86128
29.83577	87147
29.84388	84637
29.85202	81976
29.86013	91046
29.86825	85585
29.87638	88524
29.88450	105415
29.89263	136497
29.90075	168500
29.90887	216640
29.91700	259034
29.92512	266010
29.93325	257430
29.94137	206646
29.94948	167184
29.95762	131956
29.96573	119430
29.97387	101565
29.98198	111621
29.99010	123686
29.99823	132076
30.00635	141175
30.01447	154563
30.02260	177704
30.03072	203491
30.03885	215972
30.04697	215233
30.05508	224929
30.06322	229557
30.07133	222995
30.07947	217203
30.08758	211409
30.09570	209333
30.10383	201351
30.11195	202976
30.12007	184889
30.12820	176598
30.13632	169059
30.14445	157714
30.15257	154159
30.16068	153126
30.16882	149149
30.17693	153303
30.18507	162329
30.19318	163154
30.20130	181849
30.20943	206334
30.21755	223262
30.22568	229730
30.23380	223867
30.24192	207223
30.25005	179483
30.25817	151701
30.26628	134558
30.27442	120002
30.28253	115339
30.29067	109707
30.29878	104846
30.30690	108252
30.31503	105679
30.32315	102951
30.33128	96666
30.33940	103474
30.34752	104426
30.35565	107642
30.36377	110031
30.37188	111720
30.38002	114536
30.38813	108111
30.39627	106186
30.40438	102894
30.41250	99309
30.42063	96828
30.42875	95807
30.43688	94080
30.44500	95495
30.45312	91242
30.46125	91269
30.46937	92405
30.47750	93866
30.48562	93645
30.49373	101744
30.50187	109631
30.50998	104609
30.51810	114341
30.52623	107781
30.53435	108212
30.54248	103130
30.55060	96706
30.55872	98738
30.56685	104951
30.57497	104865
30.58310	114879
30.59122	122636
30.59933	120035
30.60747	118624
30.61558	117039
30.62372	118231
30.63183	114327
30.63995	110126
30.64808	107168
30.65620	105356
30.66432	107469
30.67245	96753
30.68057	98379
30.68870	91758
30.69682	89630
30.70493	88398
30.71307	83835
30.72118	85746
30.72932	89852
30.73743	90273
30.74555	95670
30.75368	97032
30.76180	99151
30.76992	94531
30.77805	98922
30.78617	97214
30.79430	124081
30.80242	164008
30.81053	223641
30.81867	314353
30.82678	367193
30.83492	377776
30.84303	357103
30.85115	299359
30.85928	233856
30.86740	188744
30.87553	160408
30.88365	154797
30.89177	156077
30.89990	152788
30.90802	157513
30.91613	156256
30.92427	144861
30.93238	134301
30.94052	115792
30.94863	114458
30.95675	99088
30.96488	109938
30.97300	105520
30.98113	116431
30.98925	113984
30.99737	108280
31.00550	108425
31.01362	98542
31.02175	93435
31.02987	96724
31.03798	91769
31.04612	93327
31.05423	94239
31.06235	95181
31.07048	98693
31.07860	94637
31.08673	101404
31.09485	111666
31.10297	117933
31.11110	139592
31.11922	165986
31.12735	181920
31.13547	180349
31.14358	167807
31.15172	157109
31.15983	148678
31.16795	147789
31.17608	155791
31.18420	162069
31.19233	164758
31.20045	177557
31.20857	205109
31.21670	252662
31.22482	324005
31.23295	371310
31.24107	428959
31.24918	419730
31.25732	397071
31.26543	318223
31.27357	235318
31.28168	173878
31.28980	136028
31.29793	114886
31.30605	107013
31.31417	104697
31.32230	105854
31.33042	115238
31.33855	126997
31.34667	136299
31.35478	148940
31.36292	147581
31.37103	149007
31.37917	142477
31.38728	123557
31.39540	111718
31.40353	99315
31.41165	97950
31.41977	97538
31.42790	96274
31.43602	93567
31.44415	91087
31.45227	101401
31.46038	101936
31.46852	95537
31.47663	92866
31.48477	95034
31.49288	101869
31.50100	104032
31.50913	120783
31.51725	138217
31.52538	150999
31.53350	171880
31.54162	190734
31.54975	210964
31.55787	205982
31.56598	198626
31.57412	174284
31.58223	152226
31.59037	140363
31.59848	125624
31.60660	111713
31.61473	104167
31.62285	98477
31.63098	89857
31.63910	99340
31.64722	99028
31.65535	105934
31.66347	108447
31.67160	123090
31.67972	142264
31.68783	156734
31.69597	162683
31.70408	175338
31.71220	157810
31.72033	143819
31.72845	121913
31.73658	110894
31.74470	102855
31.75282	88759
31.76095	90928
31.76907	84083
31.77720	88704
31.78532	87984
31.79343	90672
31.80157	93738
31.80968	90238
31.81780	94084
31.82593	97262
31.83405	94866
31.84218	93508
31.85030	93372
31.85842	98665
31.86655	100196
31.87467	99243
31.88280	104889
31.89092	105695
31.89903	107524
31.90717	105404
31.91528	100619
31.92342	92288
31.93153	96664
31.93965	99911
31.94778	109826
31.95590	114225
31.96402	125939
31.97215	138908
31.98027	150965
31.98840	165294
31.99652	183196
32.00463	204021
32.01277	216568
32.02088	239027
32.02902	262243
32.03713	258994
32.04525	236822
32.05338	214244
32.06150	190240
32.06963	168166
32.07775	137898
32.08587	128416
32.09400	128960
32.10212	125712
32.11023	122399
32.11837	125250
32.12648	121908
32.13462	115588
32.14273	108339
32.15085	107833
32.15898	107211
32.16710	100514
32.17523	88646
32.18335	96366
32.19147	98388
32.19960	98583
32.20772	101499
32.21583	96377
32.22397	100572
32.23208	97870
32.24022	96737
32.24833	99007
32.25645	98016
32.26458	95659
32.27270	91141
32.28083	100246
32.28895	101578
32.29707	100068
32.30520	103332
32.31332	99341
32.32145	93981
32.32957	98218
32.33768	94379
32.34582	92251
32.35393	96266
32.36205	96511
32.37018	97666
32.37830	104863
32.38643	100789
32.39455	95157
32.40267	98866
32.41080	90175
32.41892	92004
32.42705	88274
32.43517	82641
32.44328	91749
32.45142	87416
32.45953	85944
32.46767	87059
32.47578	91605
32.48390	89316
32.49203	89661
32.50015	91414
32.50827	99194
32.51640	93072
32.52452	101530
32.53265	100138
32.54077	106295
32.54888	106502
32.55702	106259
32.56513	105852
32.57327	107587
32.58138	106418
32.58950	99002
32.59763	105873
32.60575	101763
32.61387	103266
32.62200	97704
32.63012	97753
32.63825	93704
32.64637	96231
32.65448	103194
32.66262	90322
32.67073	94192
32.67887	99940
32.68698	103370
32.69510	108098
32.70323	111094
32.71135	118313
32.71948	118129
32.72760	112713
32.73572	104581
32.74385	109629
32.75197	100574
32.76008	97405
32.76822	95442
32.77633	90950
32.78447	89916
32.79258	94539
32.80070	93233
32.80883	97341
32.81695	102114
32.82508	96808
32.83320	97889
32.84132	100780
32.84945	107143
32.85757	108538
32.86568	106669
32.87382	99594
32.88193	100811
32.89007	104975
32.89818	109010
32.90630	113797
32.91443	125354
32.92255	127514
32.93068	123170
32.93880	131303
32.94692	114873
32.95505	107242
32.96317	105374
32.97130	92020
32.97942	104655
32.98753	116097
32.99567	145647
33.00378	190658
33.01190	250628
33.02003	300239
33.02815	320148
33.03628	298542
33.04440	249298
33.05252	211124
33.06065	181277
33.06877	175742
33.07690	183331
33.08502	229520
33.09313	277845
33.10127	348507
33.10938	430205
33.11752	497320
33.12563	530293
33.13375	532943
33.14188	473339
33.15000	380269
33.15812	306944
33.16625	244538
33.17437	210265
33.18250	180902
33.19062	161160
33.19873	143320
33.20687	121763
33.21498	117777
33.22312	116077
33.23123	119269
33.23935	125533
33.24748	122660
33.25560	128951
33.26372	122916
33.27185	121147
33.27997	119749
33.28810	106932
33.29622	111285
33.30433	112386
33.31247	118343
33.32058	113892
33.32872	121151
33.33683	121661
33.34495	115895
33.35308	128764
33.36120	141225
33.36933	151829
33.37745	172061
33.38557	173073
33.39370	160556
33.40182	149598
33.40993	129419
33.41807	115040
33.42618	106645
33.43432	104207
33.44243	96522
33.45055	97245
33.45868	90243
33.46680	86248
33.47493	84668
33.48305	89072
33.49117	88561
33.49930	87005
33.50742	96460
33.51555	105119
33.52367	104377
33.53178	111811
33.53992	118804
33.54803	123822
33.55615	133101
33.56428	140421
33.57240	159699
33.58053	170609
33.58865	157051
33.59677	153252
33.60490	128173
33.61302	111182
33.62115	102681
33.62927	92989
33.63738	96896
33.64552	105715
33.65363	109278
33.66175	122245
33.66988	121230
33.67800	129370
33.68613	128576
33.69425	130677
33.70237	111400
33.71050	102319
33.71862	93677
33.72675	91354
33.73487	90022
33.74298	95721
33.75112	90007
33.75923	87351
33.76737	86577
33.77548	84280
33.78360	82255
33.79173	88136
33.79985	88486
33.80797	83453
33.81610	82767
33.82422	86194
33.83235	87554
33.84047	82912
33.84858	88040
33.85672	85085
33.86483	89042
33.87297	91557
33.88108	98891
33.88920	98106
33.89733	98525
33.90545	96746
33.91357	101923
33.92170	107674
33.92982	99555
33.93795	94237
33.94607	94237
33.95418	85607
33.96232	91013
33.97043	83881
33.97857	87327
33.98668	88225
33.99480	90078
34.00293	83473
34.01105	85305
34.01918	81788
34.02730	87822
34.03542	85354
34.04355	85838
34.05167	83586
34.05978	83635
34.06792	89099
34.07603	90033
34.08417	84803
34.09228	85248
34.10040	86923
34.10853	86808
34.11665	92803
34.12478	86638
34.13290	88539
34.14102	93389
34.14915	87895
34.15727	94611
34.16540	87242
34.17352	87146
34.18163	93218
34.18977	88759
34.19788	87192
34.20600	87351
34.21413	83486
34.22225	86282
34.23038	90291
34.23850	88972
34.24662	84464
34.25475	87848
34.26287	89570
34.27100	80666
34.27912	81653
34.28723	80908
34.29537	79023
34.30348	83542
34.31162	77639
34.31973	82561
34.32785	82809
34.33598	85290
34.34410	82812
34.35222	83123
34.36035	84241
34.36847	85841
34.37660	82093
34.38472	87597
34.39283	85818
34.40097	90453
34.40908	80782
34.41722	85804
34.42533	87938
34.43345	80795
34.44158	83755
34.44970	84610
34.45782	84121
34.46595	84304
34.47407	79625
34.48220	80779
34.49032	84496
34.49843	83124
34.50657	80462
34.51468	85552
34.52282	79345
34.53093	82354
34.53905	85728
34.54718	95061
34.55530	106939
34.56343	118203
34.57155	135523
34.57967	144776
34.58780	158477
34.59592	151947
34.60403	148473
34.61217	143519
34.62028	126202
34.62842	117837
34.63653	109997
34.64465	110675
34.65278	98490
34.66090	102562
34.66903	99526
34.67715	94551
34.68527	100442
34.69340	97740
34.70152	89205
34.70963	98763
34.71777	95133
34.72588	91029
34.73402	85491
34.74213	90459
34.75025	90270
34.75838	90251
34.76650	95955
34.77463	102647
34.78275	106901
34.79087	111339
34.79900	110976
34.80712	112038
34.81525	111128
34.82337	103754
34.83148	96334
34.83962	92768
34.84773	93807
34.85585	92999
34.86398	95133
34.87210	93436
34.88023	91972
34.88835	84317
34.89647	91849
34.90460	83682
34.91272	84404
34.92085	88125
34.92897	93364
34.93708	84249
34.94522	87671
34.95333	95044
34.96147	102729
34.96958	101024
34.97770	105293
34.98583	112619
34.99395	113818
35.00207	120508
35.01020	109301
35.01832	107490
35.02645	102539
35.03457	97907
35.04268	90156
35.05082	91833
35.05893	99534
35.06707	89374
35.07518	88135
35.08330	92069
35.09143	90354
35.09955	85302
35.10767	84299
35.11580	95598
35.12392	88627
35.13205	84203
35.14017	87732
35.14828	87432
35.15642	92132
35.16453	91737
35.17267	92549
35.18078	99206
35.18890	98198
35.19703	89954
35.20515	90346
35.21328	90469
35.22140	86554
35.22952	90442
35.23765	88829
35.24577	92720
35.25388	83189
35.26202	82351
35.27013	88365
35.27827	88283
35.28638	91762
35.29450	97051
35.30263	94389
35.31075	92430
35.31888	88033
35.32700	95000
35.33512	85131
35.34325	83462
35.35137	82233
35.35950	83037
35.36762	89918
35.37573	88328
35.38387	84548
35.39198	85466
35.40010	94124
35.40823	96981
35.41635	109094
35.42448	122615
35.43260	142872
35.44072	155816
35.44885	169356
35.45697	166588
35.46510	155800
35.47322	141952
35.48133	130315
35.48947	114816
35.49758	113834
35.50570	108219
35.51383	105798
35.52195	106229
35.53008	104814
35.53820	100740
35.54632	96033
35.55445	94494
35.56257	97709
35.57070	97349
35.57882	92341
35.58693	90538
35.59507	94997
35.60318	91989
35.61132	95139
35.61943	91001
35.62755	94015
35.63568	86757
35.64380	86508
35.65192	87408
35.66005	86799
35.66817	88829
35.67630	96088
35.68442	90009
35.69253	92453
35.70067	92931
35.70878	96351
35.71692	100596
35.72503	100002
35.73315	95440
35.74128	102972
35.74940	109175
35.75752	123613
35.76565	140142
35.77377	168026
35.78190	177211
35.79002	202185
35.79813	191028
35.80627	181434
35.81438	160448
35.82252	138214
35.83063	116181
35.83875	116156
35.84688	96939
35.85500	102391
35.86313	94787
35.87125	97817
35.87937	95965
35.88750	95195
35.89562	99418
35.90373	95278
35.91187	94925
35.91998	98004
35.92812	98159
35.93623	90294
35.94435	89464
35.95248	93284
35.96060	86347
35.96873	92135
35.97685	86309
35.98497	94561
35.99310	91496
36.00122	93245
36.00935	94959
36.01747	95405
36.02558	97776
36.03372	105387
36.04183	103719
36.04995	102863
36.05808	100300
36.06620	98406
36.07433	95210
36.08245	94051
36.09057	92575
36.09870	88138
36.10682	92904
36.11495	88823
36.12307	91343
36.13118	101473
36.13932	104065
36.14743	109312
36.15555	122758
36.16368	124590
36.17180	131468
36.17993	128603
36.18805	119456
36.19617	114590
36.20430	102768
36.21242	99428
36.22055	94562
36.22867	99682
36.23678	94723
36.24492	90689
36.25303	96453
36.26117	95776
36.26928	97292
36.27740	93392
36.28553	98288
36.29365	95647
36.30177	93639
36.30990	99288
36.31802	95854
36.32615	102320
36.33427	104607
36.34238	105587
36.35052	108793
36.35863	107127
36.36677	110784
36.37488	103589
36.38300	102589
36.39113	100258
36.39925	101798
36.40738	100732
36.41550	101932
36.42362	102863
36.43175	104801
36.43987	103572
36.44798	104667
36.45612	103435
36.46423	97900
36.47237	98504
36.48048	95428
36.48860	93257
36.49673	93181
36.50485	96111
36.51298	93892
36.52110	97752
36.52922	92013
36.53735	92358
36.54547	96220
36.55358	98087
36.56172	93124
36.56983	98608
36.57797	93188
36.58608	98921
36.59420	90516
36.60233	93861
36.61045	100262
36.61858	94956
36.62670	94794
36.63482	97072
36.64295	98631
36.65107	94451
36.65920	98220
36.66732	92684
36.67543	94546
36.68357	92919
36.69168	91521
36.69980	96241
36.70793	99671
36.71605	96778
36.72418	93217
36.73230	94308
36.74042	100864
36.74855	100134
36.75667	103077
36.76480	100939
36.77292	93668
36.78103	102625
36.78917	96875
36.79728	92309
36.80542	98311
36.81353	100791
36.82165	107737
36.82978	96517
36.83790	105721
36.84602	96238
36.85415	95345
36.86227	91506
36.87040	88916
36.87852	89839
36.88663	89813
36.89477	91448
36.90288	91800
36.91102	92343
36.91913	93287
36.92725	87997
36.93538	93971
36.94350	97954
36.95162	103287
36.95975	132127
36.96787	152650
36.97600	200053
36.98412	242814
36.99223	266506
37.00037	262837
37.00848	233939
37.01662	190564
37.02473	160440
37.03285	126139
37.04098	115415
37.04910	113503
37.05723	110845
37.06535	103614
37.07347	110177
37.08160	113039
37.08972	121176
37.09783	121599
37.10597	122139
37.11408	117581
37.12222	128237
37.13033	122512
37.13845	115150
37.14658	118564
37.15470	106037
37.16283	112993
37.17095	103813
37.17907	99584
37.18720	99856
37.19532	101948
37.20343	94278
37.21157	103725
37.21968	100736
37.22782	104700
37.23593	101893
37.24405	101738
37.25218	103798
37.26030	104970
37.26843	103888
37.27655	100148
37.28467	100886
37.29280	99200
37.30092	96803
37.30905	96509
37.31717	97994
37.32528	96010
37.33342	96524
37.34153	100424
37.34965	102800
37.35778	107467
37.36590	104625
37.37403	108420
37.38215	116724
37.39027	116045
37.39840	115646
37.40652	119502
37.41465	124628
37.42277	124084
37.43088	115821
37.43902	124988
37.44713	120197
37.45527	125663
37.46338	121658
37.47150	121782
37.47963	119216
37.48775	112611
