C:\MassHunter\GCMS\1\data\JTB-E18\JTB-E18-037-05.D Tue Nov 12 17:38:03 2019
Start of data points
2.09535,1605059
2.10347,1527948
2.11160,1487616
2.11972,1430720
2.12783,1394012
2.13597,1336615
2.14408,1331310
2.15222,1284928
2.16033,1233883
2.16845,1193727
2.17658,1171825
2.18470,1140263
2.19282,1100293
2.20095,1083698
2.20907,1048214
2.21720,1007739
2.22532,985946
2.23343,944823
2.24157,930939
2.24968,897615
2.25782,881721
2.26593,932213
2.27405,2331778
2.28218,4249645
2.29030,2789694
2.29843,1592420
2.30655,1290959
2.31467,1172659
2.32280,1124064
2.33092,1040189
2.33903,1016991
2.34717,973482
2.35528,927090
2.36342,902344
2.37153,871522
2.37965,895226
2.38778,966399
2.39590,896588
2.40403,834035
2.41215,817683
2.42027,805613
2.42840,807003
2.43652,771947
2.44465,766824
2.45277,751685
2.46088,727065
2.46902,712544
2.47713,683362
2.48525,677028
2.49338,707278
2.50150,713951
2.50963,687497
2.51775,669303
2.52587,655662
2.53400,646354
2.54212,639777
2.55025,642551
2.55837,716734
2.56648,762840
2.57462,703926
2.58273,647876
2.59085,642100
2.59898,619352
2.60710,726389
2.61523,955638
2.62335,922820
2.63147,784325
2.63960,684495
2.64772,642370
2.65585,594410
2.66397,594465
2.67208,578168
2.68022,603067
2.68833,586006
2.69647,552772
2.70458,547384
2.71270,543606
2.72083,541603
2.72895,530262
2.73707,534086
2.74520,514217
2.75332,512668
2.76145,510877
2.76957,509071
2.77768,515170
2.78582,611217
2.79393,654043
2.80207,580311
2.81018,551789
2.81830,586829
2.82643,836753
2.83455,1337860
2.84267,1287030
2.85080,880981
2.85892,692318
2.86705,656986
2.87517,625853
2.88328,563727
2.89142,531100
2.89953,524296
2.90767,499949
2.91578,493355
2.92390,469199
2.93203,472345
2.94015,466946
2.94828,457869
2.95640,455341
2.96452,461771
2.97265,451003
2.98077,464325
2.98888,461091
2.99702,487129
3.00513,509013
3.01327,492717
3.02138,501267
3.02950,583967
3.03763,749401
3.04575,905921
3.05388,1941323
3.06200,4155858
3.07012,4563734
3.07825,2945745
3.08637,2195997
3.09450,2486580
3.10262,2873226
3.11073,3318105
3.11887,2785281
3.12698,1893559
3.13510,1408134
3.14323,1184139
3.15135,1018040
3.15948,901854
3.16760,904586
3.17572,927162
3.18385,1040996
3.19197,1509579
3.20010,1717954
3.20822,1378886
3.21633,1064279
3.22447,920342
3.23258,817010
3.24070,761243
3.24883,688063
3.25695,652337
3.26508,632958
3.27320,605375
3.28132,799507
3.28945,2138100
3.29757,6058418
3.30570,1.093745E+07
3.31382,1.220767E+07
3.32193,9928048
3.33007,7350071
3.33818,5687237
3.34632,4713952
3.35443,4011898
3.36255,3488963
3.37068,3159636
3.37880,2991279
3.38692,2814704
3.39505,2575754
3.40317,2574760
3.41130,3191370
3.41942,3885296
3.42753,3597026
3.43567,2766698
3.44378,2244382
3.45192,1959616
3.46003,1785649
3.46815,1699818
3.47628,1601346
3.48440,1568450
3.49253,1492627
3.50065,1414431
3.50877,1391938
3.51690,1343806
3.52502,1335838
3.53313,1332534
3.54127,1314876
3.54938,1270270
3.55752,1222208
3.56563,1208037
3.57375,1218524
3.58188,1201147
3.59000,1153373
3.59813,1117140
3.60625,1082179
3.61437,1130458
3.62250,1369698
3.63062,1957433
3.63873,2424018
3.64687,2245067
3.65498,1797353
3.66312,1897753
3.67123,3509413
3.67935,5761081
3.68748,5574493
3.69560,3749232
3.70373,2532169
3.71185,2038630
3.71997,1788046
3.72810,1605223
3.73622,1500069
3.74435,1429066
3.75247,1364428
3.76058,1335188
3.76872,1363583
3.77683,1352732
3.78495,1307194
3.79308,1267449
3.80120,1319372
3.80933,1660964
3.81745,1968959
3.82557,1834013
3.83370,1487842
3.84182,1272992
3.84995,1174693
3.85807,1087401
3.86618,1038151
3.87432,997502
3.88243,955737
3.89055,946104
3.89868,922040
3.90680,916357
3.91493,948421
3.92305,1079754
3.93117,1179471
3.93930,1150063
3.94742,1298949
3.95555,2026612
3.96367,3100787
3.97178,3294209
3.97992,2466147
3.98803,1762846
3.99617,1811410
4.00428,2990917
4.01240,4443422
4.02053,4372676
4.02865,3200474
4.03677,2051358
4.04490,1509929
4.05302,1218051
4.06115,1071208
4.06927,970637
4.07738,911126
4.08552,861521
4.09363,801336
4.10177,799275
4.10988,768834
4.11800,744580
4.12613,764223
4.13425,999227
4.14238,1601844
4.15050,2277556
4.15862,2211778
4.16675,1694591
4.17487,1318815
4.18298,1090553
4.19112,924041
4.19923,943452
4.20737,1753085
4.21548,5093399
4.22360,1.081122E+07
4.23173,1.512158E+07
4.23985,1.482561E+07
4.24798,1.052788E+07
4.25610,6507814
4.26422,4351103
4.27235,3154598
4.28047,2381380
4.28858,1941856
4.29672,1625913
4.30483,1425811
4.31297,1274947
4.32108,1165978
4.32920,1105363
4.33733,1047453
4.34545,1008505
4.35358,1010756
4.36170,998712
4.36982,937711
4.37795,883968
4.38607,834698
4.39420,780997
4.40232,768870
4.41043,733634
4.41857,716994
4.42668,693488
4.43480,693598
4.44293,680678
4.45105,663200
4.45918,662753
4.46730,663957
4.47542,653522
4.48355,652535
4.49167,636351
4.49980,634631
4.50792,627470
4.51603,605176
4.52417,596694
4.53228,585882
4.54042,579903
4.54853,583854
4.55665,568804
4.56478,551692
4.57290,543390
4.58102,543961
4.58915,533710
4.59727,540881
4.60540,526958
4.61352,529528
4.62163,608193
4.62977,766097
4.63788,943165
4.64602,959955
4.65413,842609
4.66225,703194
4.67038,627686
4.67850,591873
4.68662,569253
4.69475,539020
4.70287,530026
4.71100,519860
4.71912,496923
4.72723,487520
4.73537,474976
4.74348,465659
4.75162,471174
4.75973,466744
4.76785,453278
4.77598,449803
4.78410,471991
4.79223,526052
4.80035,595480
4.80847,647534
4.81660,600973
4.82472,556639
4.83283,533367
4.84097,532704
4.84908,513058
4.85722,511483
4.86533,474789
4.87345,468620
4.88158,454992
4.88970,451110
4.89783,452899
4.90595,449814
4.91407,535012
4.92220,817225
4.93032,1441677
4.93843,2408335
4.94657,3312475
4.95468,3728689
4.96282,3604630
4.97093,3261753
4.97905,2911781
4.98718,2585737
4.99530,2356610
5.00343,2138724
5.01155,2026214
5.01967,1966874
5.02780,2117327
5.03592,2332884
5.04405,2376136
5.05217,2206215
5.06028,1936733
5.06842,1761542
5.07653,1617827
5.08465,1507037
5.09278,1459406
5.10090,1417796
5.10903,1392613
5.11715,1385633
5.12527,1365704
5.13340,1297819
5.14152,1220876
5.14965,1170890
5.15777,1183927
5.16588,1193933
5.17402,1214529
5.18213,1217868
5.19027,1212203
5.19838,1200294
5.20650,1164420
5.21463,1092836
5.22275,1045938
5.23087,983674
5.23900,965258
5.24712,925753
5.25525,885762
5.26337,844795
5.27148,808375
5.27962,806252
5.28773,779059
5.29587,773113
5.30398,754443
5.31210,731723
5.32023,726815
5.32835,740155
5.33648,729900
5.34460,725619
5.35272,717910
5.36085,699060
5.36897,676777
5.37708,689359
5.38522,708216
5.39333,691467
5.40147,697435
5.40958,685124
5.41770,657395
5.42583,636694
5.43395,627739
5.44208,620562
5.45020,618021
5.45832,604443
5.46645,596331
5.47457,583667
5.48268,577073
5.49082,577097
5.49893,566592
5.50707,556821
5.51518,555304
5.52330,552190
5.53143,538637
5.53955,530222
5.54768,539519
5.55580,540653
5.56392,560241
5.57205,582749
5.58017,604163
5.58830,605206
5.59642,588089
5.60453,560120
5.61267,532854
5.62078,531295
5.62890,513033
5.63703,507176
5.64515,505297
5.65328,501908
5.66140,493981
5.66952,501154
5.67765,516907
5.68577,545814
5.69390,542588
5.70202,540217
5.71013,520018
5.71827,524726
5.72638,535787
5.73450,531955
5.74263,518045
5.75075,502500
5.75888,504197
5.76700,516421
5.77512,517425
5.78325,509286
5.79137,500559
5.79950,512404
5.80762,584541
5.81573,778341
5.82387,1077402
5.83198,1314065
5.84012,1338895
5.84823,1162163
5.85635,944416
5.86448,737847
5.87260,642440
5.88072,575745
5.88885,532935
5.89697,519844
5.90510,527829
5.91322,552941
5.92133,634021
5.92947,731099
5.93758,750133
5.94572,722255
5.95383,662817
5.96195,727155
5.97008,895418
5.97820,1120842
5.98633,1179912
5.99445,1041689
6.00257,793828
6.01070,629716
6.01882,533965
6.02693,489326
6.03507,454060
6.04318,421593
6.05132,408073
6.05943,391102
6.06755,380054
6.07568,373269
6.08380,365161
6.09193,360110
6.10005,363682
6.10817,371348
6.11630,393033
6.12442,472123
6.13253,577540
6.14067,685363
6.14878,687601
6.15692,634409
6.16503,541225
6.17315,486007
6.18128,467084
6.18940,471921
6.19753,488018
6.20565,481185
6.21377,473913
6.22190,457612
6.23002,442806
6.23815,447148
6.24627,449978
6.25438,447165
6.26252,454675
6.27063,458116
6.27875,458298
6.28688,462175
6.29500,467956
6.30313,485590
6.31125,498179
6.31937,508532
6.32750,529233
6.33562,561385
6.34375,557512
6.35187,547793
6.35998,514909
6.36812,520537
6.37623,508838
6.38437,526960
6.39248,519413
6.40060,523481
6.40873,513289
6.41685,520549
6.42497,510167
6.43310,512545
6.44122,523753
6.44935,525455
6.45747,534440
6.46558,543895
6.47372,531714
6.48183,549977
6.48997,532135
6.49808,555297
6.50620,569950
6.51433,552936
6.52245,563648
6.53057,555307
6.53870,563447
6.54682,574259
6.55495,574160
6.56307,588313
6.57118,611361
6.57932,613680
6.58743,607645
6.59557,601094
6.60368,564351
6.61180,453184
6.61993,416071
6.62805,383612
6.63618,368906
6.64430,418866
6.65242,546512
6.66055,789633
6.66867,990026
6.67678,1003479
6.68492,783323
6.69303,583476
6.70117,475023
6.70928,443237
6.71740,421479
6.72553,399889
6.73365,369262
6.74178,326462
6.74990,305199
6.75802,289100
6.76615,285098
6.77427,276870
6.78238,278521
6.79052,273255
6.79863,264941
6.80677,284438
6.81488,318517
6.82300,408711
6.83113,577314
6.83925,782427
6.84738,904924
6.85550,919422
6.86362,796091
6.87175,620506
6.87987,451836
6.88800,334945
6.89612,274544
6.90423,250058
6.91237,221060
6.92048,213084
6.92860,206912
6.93673,202521
6.94485,199013
6.95298,196127
6.96110,207696
6.96922,235450
6.97735,275041
6.98547,324761
6.99360,389417
7.00172,431567
7.00983,447590
7.01797,401727
7.02608,342400
7.03422,272964
7.04233,237944
7.05045,216660
7.05858,194352
7.06670,190868
7.07482,190882
7.08295,188535
7.09107,184531
7.09920,188084
7.10732,187444
7.11543,192312
7.12357,190578
7.13168,185613
7.13982,201744
7.14793,219888
7.15605,256193
7.16418,352691
7.17230,579222
7.18042,1014778
7.18855,1443177
7.19667,1482352
7.20480,1187980
7.21292,776331
7.22103,474783
7.22917,339404
7.23728,287912
7.24542,268629
7.25353,279607
7.26165,252045
7.26978,232689
7.27790,231225
7.28603,220422
7.29415,227536
7.30227,217665
7.31040,218844
7.31852,211659
7.32663,199156
7.33477,197318
7.34288,209686
7.35102,237045
7.35913,277803
7.36725,299989
7.37538,326122
7.38350,306584
7.39163,287082
7.39975,246996
7.40787,209598
7.41600,193400
7.42412,184617
7.43225,176554
7.44037,174782
7.44848,178500
7.45662,190613
7.46473,218410
7.47285,233849
7.48098,245383
7.48910,247006
7.49723,233700
7.50535,209651
7.51347,183200
7.52160,179488
7.52972,180193
7.53785,180742
7.54597,189394
7.55408,218836
7.56222,240157
7.57033,269317
7.57845,286508
7.58658,288829
7.59470,253791
7.60283,221143
7.61095,193429
7.61907,176003
7.62720,168598
7.63532,161453
7.64345,158989
7.65157,155378
7.65968,148175
7.66782,148276
7.67593,144433
7.68407,147071
7.69218,141846
7.70030,139739
7.70843,150738
7.71655,148736
7.72467,141601
7.73280,140577
7.74092,136267
7.74905,136844
7.75717,141107
7.76528,135927
7.77342,132298
7.78153,137217
7.78967,133365
7.79778,137734
7.80590,140671
7.81403,133893
7.82215,131591
7.83028,129519
7.83840,128000
7.84652,123662
7.85465,118307
7.86277,123288
7.87088,124730
7.87902,125079
7.88713,134038
7.89527,136548
7.90338,139825
7.91150,134134
7.91963,137913
7.92775,141690
7.93588,150455
7.94400,154162
7.95212,152842
7.96025,140268
7.96837,133548
7.97648,125191
7.98462,124869
7.99273,117012
8.00087,113507
8.00898,116991
8.01710,109255
8.02523,114591
8.03335,107716
8.04148,109676
8.04960,102895
8.05772,100541
8.06585,107230
8.07397,103254
8.08210,107847
8.09022,105295
8.09833,106287
8.10647,108602
8.11458,105676
8.12270,113966
8.13083,111956
8.13895,115777
8.14708,124241
8.15520,122020
8.16332,116315
8.17145,115025
8.17957,117614
8.18770,107330
8.19582,100540
8.20393,103643
8.21207,103075
8.22018,95565
8.22830,102103
8.23643,96495
8.24455,95947
8.25268,95687
8.26080,101284
8.26892,101805
8.27705,94391
8.28517,95612
8.29330,91379
8.30142,97659
8.30953,102837
8.31767,96009
8.32578,100384
8.33392,101364
8.34203,101136
8.35015,100844
8.35828,99922
8.36640,94597
8.37452,96351
8.38265,97970
8.39077,92808
8.39890,91827
8.40702,90435
8.41513,89980
8.42327,93001
8.43138,93128
8.43952,92927
8.44763,95409
8.45575,93900
8.46388,89237
8.47200,93216
8.48013,97725
8.48825,98726
8.49637,119719
8.50450,171590
8.51262,246641
8.52073,310666
8.52887,300761
8.53698,249582
8.54512,194059
8.55323,155799
8.56135,133033
8.56948,118308
8.57760,118116
8.58573,116728
8.59385,116081
8.60197,113755
8.61010,103195
8.61822,105774
8.62633,113682
8.63447,105150
8.64258,95864
8.65072,98909
8.65883,100252
8.66695,96350
8.67508,103247
8.68320,99261
8.69133,101889
8.69945,100726
8.70757,110590
8.71570,145491
8.72382,221362
8.73195,377415
8.74007,573199
8.74818,749219
8.75632,816076
8.76443,779874
8.77255,658086
8.78068,607624
8.78880,571273
8.79693,575229
8.80505,557263
8.81317,530660
8.82130,502878
8.82942,449059
8.83755,417587
8.84567,391861
8.85378,361931
8.86192,355166
8.87003,336776
8.87817,314635
8.88628,294882
8.89440,289358
8.90253,273912
8.91065,272801
8.91877,274388
8.92690,271564
8.93502,255936
8.94315,247456
8.95127,236198
8.95938,225780
8.96752,223624
8.97563,219493
8.98377,223253
8.99188,209745
9.00000,209945
9.00813,198712
9.01625,192655
9.02437,185459
9.03250,188441
9.04062,180491
9.04875,172799
9.05687,170767
9.06498,171425
9.07312,166942
9.08123,168676
9.08937,166079
9.09748,166256
9.10560,177316
9.11373,174657
9.12185,187032
9.12998,181300
9.13810,168174
9.14622,150277
9.15435,155340
9.16247,150285
9.17058,145628
9.17872,151451
9.18683,142793
9.19497,144452
9.20308,144929
9.21120,142336
9.21933,138562
9.22745,137115
9.23558,138882
9.24370,134811
9.25182,132566
9.25995,131677
9.26807,134371
9.27618,134410
9.28432,126459
9.29243,123603
9.30057,129566
9.30868,126820
9.31680,128869
9.32493,129446
9.33305,122662
9.34118,133467
9.34930,123555
9.35742,128157
9.36555,122573
9.37367,119923
9.38180,120014
9.38992,113106
9.39803,121732
9.40617,119172
9.41428,123691
9.42240,136918
9.43053,147111
9.43865,149626
9.44678,165614
9.45490,152445
9.46302,141868
9.47115,134325
9.47927,118249
9.48740,120660
9.49552,123317
9.50363,122646
9.51177,123501
9.51988,119558
9.52802,110691
9.53613,104522
9.54425,107437
9.55238,95363
9.56050,89934
9.56862,91149
9.57675,91487
9.58487,89502
9.59300,88697
9.60112,90221
9.60923,88549
9.61737,82833
9.62548,82128
9.63362,81979
9.64173,85431
9.64985,82965
9.65798,80688
9.66610,80534
9.67422,85044
9.68235,82020
9.69047,80051
9.69860,83408
9.70672,78113
9.71483,79418
9.72297,76589
9.73108,76335
9.73922,73476
9.74733,75249
9.75545,76785
9.76358,72052
9.77170,74503
9.77983,77561
9.78795,73188
9.79607,71757
9.80420,72694
9.81232,80936
9.82043,75894
9.82857,76514
9.83668,83452
9.84482,81027
9.85293,86286
9.86105,77150
9.86918,77949
9.87730,78146
9.88543,75251
9.89355,71319
9.90167,74153
9.90980,77075
9.91792,75006
9.92605,87196
9.93417,100963
9.94228,107305
9.95042,117259
9.95853,121333
9.96665,111474
9.97478,107588
9.98290,101085
9.99103,96993
9.99915,95654
10.00727,83258
10.01540,84885
10.02352,81032
10.03165,82605
10.03977,87562
10.04788,80184
10.05602,79182
10.06413,78111
10.07225,76651
10.08038,70727
10.08850,75394
10.09663,67539
10.10475,74173
10.11287,76009
10.12100,75893
10.12912,71496
10.13725,70242
10.14537,68217
10.15348,66798
10.16162,65662
10.16973,70842
10.17787,67956
10.18598,63221
10.19410,64500
10.20223,65586
10.21035,68662
10.21847,70642
10.22660,75573
10.23472,83214
10.24285,113873
10.25097,199718
10.25908,384270
10.26722,708318
10.27533,1181925
10.28347,1852235
10.29158,2913945
10.29970,4468609
10.30783,6179145
10.31595,6802292
10.32407,5878120
10.33220,4118951
10.34032,2386968
10.34845,1410860
10.35657,1035755
10.36468,877559
10.37282,794122
10.38093,664034
10.38907,525642
10.39718,407319
10.40530,332426
10.41343,277185
10.42155,255740
10.42968,217271
10.43780,211712
10.44592,191225
10.45405,176606
10.46217,162966
10.47028,152030
10.47842,144490
10.48653,139329
10.49467,139573
10.50278,132769
10.51090,133630
10.51903,134227
10.52715,132385
10.53528,128839
10.54340,122934
10.55152,118413
10.55965,113190
10.56777,117245
10.57590,108990
10.58402,109914
10.59213,106277
10.60027,99482
10.60838,101047
10.61650,97468
10.62463,96848
10.63275,96331
10.64088,90892
10.64900,90420
10.65712,90828
10.66525,84499
10.67337,86923
10.68150,89470
10.68962,91945
10.69773,94855
10.70587,92472
10.71398,91840
10.72212,88390
10.73023,85291
10.73835,84255
10.74648,82556
10.75460,81637
10.76272,77948
10.77085,77395
10.77897,76802
10.78710,73725
10.79522,81435
10.80333,82169
10.81147,79963
10.81958,75738
10.82772,78955
10.83583,74310
10.84395,69746
10.85208,74651
10.86020,71125
10.86832,71413
10.87645,69091
10.88457,68865
10.89270,66856
10.90082,68875
10.90893,67506
10.91707,72904
10.92518,66835
10.93332,70285
10.94143,67425
10.94955,67426
10.95768,73778
10.96580,66920
10.97393,67965
10.98205,72247
10.99017,69515
10.99830,67480
11.00642,66721
11.01453,69134
11.02267,67454
11.03078,64928
11.03892,69124
11.04703,62945
11.05515,65640
11.06328,63545
11.07140,66733
11.07953,66200
11.08765,64481
11.09577,65114
11.10390,65453
11.11202,62831
11.12013,66191
11.12827,66765
11.13638,70260
11.14452,65305
11.15263,67592
11.16075,64215
11.16888,71129
11.17700,65494
11.18513,66851
11.19325,68835
11.20137,67055
11.20950,69404
11.21762,60787
11.22575,58074
11.23387,59126
11.24198,61740
11.25012,65471
11.25823,63606
11.26635,79684
11.27448,99613
11.28260,128100
11.29073,143688
11.29885,175805
11.30697,209352
11.31510,249991
11.32322,333220
11.33135,418447
11.33947,504110
11.34758,523816
11.35572,476996
11.36383,401770
11.37197,321617
11.38008,262454
11.38820,219956
11.39633,192807
11.40445,161971
11.41257,153442
11.42070,131713
11.42882,130157
11.43695,106557
11.44507,107709
11.45318,98384
11.46132,106835
11.46943,106506
11.47757,116939
11.48568,128470
11.49380,134974
11.50193,122989
11.51005,119629
11.51817,113454
11.52630,114150
11.53442,118189
11.54255,109138
11.55067,113813
11.55878,106371
11.56692,102011
11.57503,106204
11.58317,109064
11.59128,113237
11.59940,112804
11.60753,115247
11.61565,105772
11.62378,101503
11.63190,93391
11.64002,84187
11.64815,81026
11.65627,74446
11.66438,76667
11.67252,78286
11.68063,76620
11.68877,80323
11.69688,92007
11.70500,99278
11.71313,103795
11.72125,97145
11.72938,105059
11.73750,100796
11.74562,99672
11.75375,92163
11.76187,88700
11.77000,82362
11.77812,79312
11.78623,77067
11.79437,78724
11.80248,75032
11.81060,69733
11.81873,71963
11.82685,71034
11.83498,64353
11.84310,69090
11.85122,65239
11.85935,64988
11.86747,62137
11.87560,64957
11.88372,60735
11.89183,61338
11.89997,62431
11.90808,71858
11.91620,74647
11.92433,83209
11.93245,89750
11.94058,89927
11.94870,87679
11.95682,82444
11.96495,76706
11.97307,79746
11.98120,75962
11.98932,78886
11.99743,82417
12.00557,79705
12.01368,75294
12.02182,76128
12.02993,69146
12.03805,61007
12.04618,62761
12.05430,62147
12.06242,66759
12.07055,63355
12.07867,64781
12.08680,67095
12.09492,63773
12.10303,60747
12.11117,59799
12.11928,64094
12.12742,61630
12.13553,61111
12.14365,56252
12.15178,58285
12.15990,52769
12.16802,57855
12.17615,54298
12.18427,54598
12.19240,56254
12.20052,53154
12.20863,53918
12.21677,52511
12.22488,54281
12.23302,54625
12.24113,51995
12.24925,52832
12.25738,53750
12.26550,50232
12.27363,51584
12.28175,50760
12.28987,52849
12.29800,50277
12.30612,50796
12.31423,45392
12.32237,46606
12.33048,47374
12.33862,50985
12.34673,48222
12.35485,46682
12.36298,49877
12.37110,52148
12.37923,61273
12.38735,75104
12.39547,96647
12.40360,104551
12.41172,108223
12.41985,94298
12.42797,82113
12.43608,67632
12.44422,59664
12.45233,56741
12.46045,56299
12.46858,54849
12.47670,52802
12.48483,52519
12.49295,53735
12.50107,53109
12.50920,56405
12.51732,55853
12.52545,70870
12.53357,77909
12.54168,89591
12.54982,95783
12.55793,89760
12.56605,80836
12.57418,71786
12.58230,64307
12.59043,64886
12.59855,58768
12.60667,59161
12.61480,55810
12.62292,52407
12.63105,52666
12.63917,58085
12.64728,49277
12.65542,48371
12.66353,49410
12.67167,49042
12.67978,45885
12.68790,48619
12.69603,49405
12.70415,48588
12.71227,47503
12.72040,48281
12.72852,48043
12.73665,51539
12.74477,49750
12.75288,48575
12.76102,50867
12.76913,51355
12.77727,53443
12.78538,53192
12.79350,57282
12.80163,54070
12.80975,54740
12.81788,56861
12.82600,52802
12.83412,50842
12.84225,50943
12.85037,52679
12.85848,55596
12.86662,51027
12.87473,48798
12.88287,53337
12.89098,47943
12.89910,44696
12.90723,44063
12.91535,44432
12.92348,52579
12.93160,56669
12.93972,72000
12.94785,95062
12.95597,124169
12.96408,151013
12.97222,164763
12.98033,168181
12.98847,144660
12.99658,125176
13.00470,117347
13.01283,106061
13.02095,98671
13.02908,87547
13.03720,82127
13.04532,81817
13.05345,72462
13.06157,72138
13.06970,66420
13.07782,64465
13.08593,61387
13.09407,64127
13.10218,56567
13.11030,56467
13.11843,55933
13.12655,58152
13.13468,56761
13.14280,58282
13.15092,57924
13.15905,59029
13.16717,59748
13.17530,59262
13.18342,58092
13.19153,52835
13.19967,57399
13.20778,51007
13.21590,52313
13.22403,55122
13.23215,54783
13.24028,58344
13.24840,58989
13.25652,64784
13.26465,75661
13.27277,70644
13.28090,68129
13.28902,66774
13.29713,66132
13.30527,67275
13.31338,68437
13.32152,75961
13.32963,71350
13.33775,63504
13.34588,61860
13.35400,62160
13.36212,62446
13.37025,56077
13.37837,56901
13.38650,56047
13.39462,53944
13.40273,52080
13.41087,50926
13.41898,50439
13.42712,46144
13.43523,49486
13.44335,52479
13.45148,48199
13.45960,48898
13.46773,44787
13.47585,46881
13.48397,48827
13.49210,43964
13.50022,43970
13.50833,48105
13.51647,48102
13.52458,48055
13.53272,49663
13.54083,51363
13.54895,53186
13.55708,57970
13.56520,60147
13.57333,62798
13.58145,74982
13.58957,86630
13.59770,97881
13.60582,114420
13.61393,122197
13.62207,117337
13.63018,111734
13.63832,100249
13.64643,86362
13.65455,80337
13.66268,79242
13.67080,71434
13.67893,70633
13.68705,66605
13.69517,62322
13.70330,62323
13.71142,64730
13.71955,58477
13.72767,62555
13.73578,68923
13.74392,75240
13.75203,85312
13.76015,101854
13.76828,116949
13.77640,127409
13.78453,123384
13.79265,121181
13.80077,130101
13.80890,149554
13.81702,169108
13.82515,191595
13.83327,196560
13.84138,185031
13.84952,163320
13.85763,136648
13.86577,118572
13.87388,103734
13.88200,95075
13.89013,87238
13.89825,92342
13.90637,87121
13.91450,87214
13.92262,84451
13.93075,81850
13.93887,75775
13.94698,75689
13.95512,69846
13.96323,74952
13.97137,70683
13.97948,74170
13.98760,72738
13.99573,70562
14.00385,72650
14.01197,68509
14.02010,68960
14.02822,73419
14.03635,69370
14.04447,68779
14.05258,63055
14.06072,62664
14.06883,58278
14.07697,58273
14.08508,54551
14.09320,57901
14.10133,57041
14.10945,64317
14.11758,93782
14.12570,153795
14.13382,249900
14.14195,362889
14.15007,460917
14.15818,497156
14.16632,478460
14.17443,414825
14.18257,338590
14.19068,290770
14.19880,247133
14.20693,206542
14.21505,189200
14.22318,175181
14.23130,160662
14.23942,142134
14.24755,135976
14.25567,131216
14.26380,120072
14.27192,114742
14.28003,104832
14.28817,88607
14.29628,83427
14.30440,77017
14.31253,69009
14.32065,64022
14.32878,59806
14.33690,57311
14.34502,54826
14.35315,57822
14.36127,58922
14.36940,58189
14.37752,67906
14.38563,85248
14.39377,107261
14.40188,141028
14.41000,149838
14.41813,147559
14.42625,127335
14.43438,107019
14.44250,86304
14.45062,77883
14.45875,67016
14.46687,69179
14.47500,63946
14.48312,61768
14.49123,61335
14.49937,60883
14.50748,59274
14.51562,57238
14.52373,57717
14.53185,56180
14.53998,51721
14.54810,52340
14.55622,49889
14.56435,51293
14.57247,49487
14.58060,50268
14.58872,47273
14.59683,46808
14.60497,50700
14.61308,49190
14.62122,48874
14.62933,45488
14.63745,47522
14.64558,46207
14.65370,44816
14.66182,46291
14.66995,43427
14.67807,46109
14.68620,47496
14.69432,44948
14.70243,46113
14.71057,43557
14.71868,43724
14.72682,50109
14.73493,44009
14.74305,50541
14.75118,43811
14.75930,45675
14.76743,49480
14.77555,65461
14.78367,117370
14.79180,211347
14.79992,409222
14.80803,663226
14.81617,942336
14.82428,1036513
14.83242,875698
14.84053,657315
14.84865,448286
14.85678,301500
14.86490,229180
14.87303,189135
14.88115,159447
14.88927,134950
14.89740,127704
14.90552,118489
14.91365,114522
14.92177,105073
14.92988,102320
14.93802,99963
14.94613,93812
14.95425,85821
14.96238,82125
14.97050,87075
14.97863,81308
14.98675,78572
14.99487,76517
15.00300,75743
15.01112,76739
15.01925,73647
15.02737,69121
15.03548,72009
15.04362,66015
15.05173,73147
15.05985,62497
15.06798,63788
15.07610,68309
15.08423,58456
15.09235,65280
15.10047,61905
15.10860,61021
15.11672,62143
15.12485,62525
15.13297,65107
15.14108,58951
15.14922,63261
15.15733,57098
15.16547,54321
15.17358,53249
15.18170,53022
15.18983,48962
15.19795,51406
15.20607,55221
15.21420,50215
15.22232,46459
15.23045,47395
15.23857,47766
15.24668,46867
15.25482,45783
15.26293,44677
15.27107,45658
15.27918,49590
15.28730,45742
15.29543,43560
15.30355,40909
15.31168,44103
15.31980,42968
15.32792,46448
15.33605,42409
15.34417,45921
15.35228,42019
15.36042,44861
15.36853,44876
15.37667,42233
15.38478,42448
15.39290,40481
15.40103,41452
15.40915,40856
15.41728,40621
15.42540,42114
15.43352,38093
15.44165,43194
15.44977,48340
15.45788,52797
15.46602,68126
15.47413,91493
15.48227,110988
15.49038,140908
15.49850,145381
15.50663,141737
15.51475,127447
15.52288,118249
15.53100,98781
15.53912,90851
15.54725,72618
15.55537,67621
15.56350,65073
15.57162,58603
15.57973,53714
15.58787,56454
15.59598,49330
15.60410,48587
15.61223,49862
15.62035,47068
15.62848,47603
15.63660,44888
15.64472,45308
15.65285,44807
15.66097,43959
15.66910,47269
15.67722,44750
15.68533,44884
15.69347,41595
15.70158,43180
15.70970,39028
15.71783,42252
15.72595,42886
15.73408,43930
15.74220,54555
15.75032,63131
15.75845,75224
15.76657,89055
15.77470,105638
15.78282,102532
15.79093,93457
15.79907,80443
15.80718,65045
15.81532,63976
15.82343,58306
15.83155,50537
15.83968,49016
15.84780,46563
15.85592,49609
15.86405,50184
15.87217,48375
15.88030,47430
15.88842,46828
15.89653,47846
15.90467,46766
15.91278,46104
15.92092,44786
15.92903,45433
15.93715,43884
15.94528,45498
15.95340,44694
15.96153,45154
15.96965,48146
15.97777,45546
15.98590,48851
15.99402,50737
16.00213,49912
16.01027,48655
16.01838,52404
16.02652,51027
16.03463,48329
16.04275,47688
16.05088,47203
16.05900,48769
16.06713,44948
16.07525,44885
16.08337,41512
16.09150,43251
16.09962,38994
16.10775,43895
16.11587,42758
16.12398,43185
16.13212,42877
16.14023,42734
16.14835,42563
16.15648,43183
16.16460,39726
16.17273,43251
16.18085,42130
16.18897,37897
16.19710,39444
16.20522,39653
16.21335,42938
16.22147,47483
16.22958,40030
16.23772,36567
16.24583,41418
16.25395,39602
16.26208,38438
16.27020,39802
16.27833,43155
16.28645,44481
16.29457,45514
16.30270,47545
16.31082,49888
16.31895,51299
16.32707,51935
16.33518,51143
16.34332,49610
16.35143,51792
16.35957,49657
16.36768,48211
16.37580,45468
16.38393,47101
16.39205,41868
16.40017,42619
16.40830,41336
16.41642,45740
16.42455,43720
16.43267,46157
16.44078,59164
16.44892,78958
16.45703,102720
16.46517,121391
16.47328,125414
16.48140,117134
16.48953,94783
16.49765,77274
16.50577,68984
16.51390,56936
16.52202,54820
16.53015,51935
16.53827,50381
16.54638,50284
16.55452,47345
16.56263,44454
16.57077,47267
16.57888,46336
16.58700,47350
16.59513,47463
16.60325,44840
16.61138,44336
16.61950,42926
16.62762,42254
16.63575,38936
16.64387,41265
16.65198,42115
16.66012,42841
16.66823,40845
16.67637,36843
16.68448,40094
16.69260,38640
16.70073,43555
16.70885,42558
16.71698,42985
16.72510,39882
16.73322,39291
16.74135,39549
16.74947,38483
16.75760,37268
16.76572,38511
16.77383,36155
16.78197,39677
16.79008,36226
16.79820,37608
16.80633,37063
16.81445,34710
16.82258,38131
16.83070,35343
16.83882,34900
16.84695,38616
16.85507,38478
16.86320,39623
16.87132,37756
16.87943,35517
16.88757,35111
16.89568,37763
16.90380,34939
16.91193,35670
16.92005,37459
16.92818,42051
16.93630,36053
16.94442,35251
16.95255,34891
16.96067,36191
16.96880,37363
16.97692,36388
16.98503,39033
16.99317,37992
17.00128,40235
17.00942,39340
17.01753,41683
17.02565,38677
17.03378,40585
17.04190,40387
17.05002,40139
17.05815,42944
17.06627,47049
17.07440,51541
17.08252,57280
17.09063,63947
17.09877,74917
17.10688,85732
17.11502,80831
17.12313,79515
17.13125,73828
17.13938,65671
17.14750,57888
17.15563,54077
17.16375,50102
17.17187,46552
17.18000,42275
17.18812,39921
17.19623,40139
17.20437,40255
17.21248,40212
17.22062,37061
17.22873,38151
17.23685,36132
17.24498,32169
17.25310,35280
17.26123,34059
17.26935,37449
17.27747,36645
17.28560,38134
17.29372,47109
17.30183,37480
17.30997,41084
17.31808,44224
17.32622,42662
17.33433,48400
17.34245,48242
17.35058,51700
17.35870,52504
17.36683,55297
17.37495,58843
17.38307,58207
17.39120,57520
17.39932,55903
17.40745,54743
17.41557,55182
17.42368,55190
17.43182,54692
17.43993,49443
17.44805,49536
17.45618,46739
17.46430,47817
17.47243,46748
17.48055,42155
17.48867,46712
17.49680,49403
17.50492,44349
17.51305,51972
17.52117,57141
17.52928,62857
17.53742,70122
17.54553,72718
17.55365,80928
17.56178,86573
17.56990,105096
17.57803,132443
17.58615,137755
17.59427,140899
17.60240,130073
17.61052,120189
17.61865,99020
17.62677,90173
17.63488,82867
17.64302,78259
17.65113,77681
17.65927,77679
17.66738,68775
17.67550,72391
17.68363,73024
17.69175,68379
17.69987,72605
17.70800,65684
17.71612,65183
17.72425,63636
17.73237,58233
17.74048,59247
17.74862,56797
17.75673,59300
17.76487,53878
17.77298,53259
17.78110,53587
17.78923,48775
17.79735,47213
17.80548,49972
17.81360,54341
17.82172,60682
17.82985,57295
17.83797,61148
17.84608,60193
17.85422,59864
17.86233,60415
17.87047,53277
17.87858,50876
17.88670,46850
17.89483,47059
17.90295,46644
17.91108,44482
17.91920,40571
17.92732,41506
17.93545,43970
17.94357,44255
17.95168,44170
17.95982,43012
17.96793,41740
17.97607,41728
17.98418,45502
17.99230,43099
18.00043,49243
18.00855,53359
18.01668,59462
18.02480,62039
18.03292,61734
18.04105,75007
18.04917,89875
18.05730,131513
18.06542,216497
18.07353,335682
18.08167,488882
18.08978,557613
18.09790,519576
18.10603,401107
18.11415,293420
18.12228,223079
18.13040,170942
18.13852,138809
18.14665,122578
18.15477,113428
18.16290,100977
18.17102,97141
18.17913,93996
18.18727,86972
18.19538,80083
18.20352,80498
18.21163,71746
18.21975,76023
18.22788,81480
18.23600,99924
18.24412,118758
18.25225,138631
18.26037,146598
18.26850,157008
18.27662,161096
18.28473,158895
18.29287,160235
18.30098,162828
18.30912,160948
18.31723,164651
18.32535,165722
18.33348,170391
18.34160,170292
18.34972,171932
18.35785,167311
18.36597,163725
18.37410,168583
18.38222,173626
18.39033,173563
18.39847,168404
18.40658,170117
18.41472,165385
18.42283,174606
18.43095,183316
18.43908,187053
18.44720,193329
18.45533,201775
18.46345,209252
18.47157,195423
18.47970,187112
18.48782,182428
18.49593,162429
18.50407,157528
18.51218,146582
18.52032,147666
18.52843,138554
18.53655,141139
18.54468,134504
18.55280,137287
18.56093,134245
18.56905,131006
18.57717,135463
18.58530,136979
18.59342,138043
18.60155,137471
18.60967,141449
18.61778,135918
18.62592,140553
18.63403,134026
18.64215,123650
18.65028,119464
18.65840,120448
18.66653,115244
18.67465,112987
18.68277,111745
18.69090,110136
18.69902,111989
18.70715,108230
18.71527,101238
18.72338,106971
18.73152,99234
18.73963,98027
18.74775,95344
18.75588,95275
18.76400,93696
18.77213,92475
18.78025,91751
18.78837,90364
18.79650,88110
18.80462,89823
18.81275,87373
18.82087,85123
18.82898,83976
18.83712,85704
18.84523,82701
18.85337,84513
18.86148,82139
18.86960,78480
18.87773,82493
18.88585,80733
18.89397,84616
18.90210,78392
18.91022,79504
18.91835,79240
18.92647,82566
18.93458,82642
18.94272,80112
18.95083,77403
18.95897,77430
18.96708,74657
18.97520,73107
18.98333,73751
18.99145,71464
18.99957,72533
19.00770,70944
19.01582,71342
19.02395,67952
19.03207,67055
19.04018,66860
19.04832,66249
19.05643,69123
19.06457,68796
19.07268,71107
19.08080,79704
19.08893,85313
19.09705,91090
19.10518,91385
19.11330,90299
19.12142,93234
19.12955,91039
19.13767,94052
19.14578,92280
19.15392,89510
19.16203,88142
19.17017,82288
19.17828,77595
19.18640,74962
19.19453,68401
19.20265,64027
19.21078,68788
19.21890,62257
19.22702,61798
19.23515,58968
19.24327,56038
19.25140,64864
19.25952,59682
19.26763,62939
19.27577,63998
19.28388,69752
19.29200,71249
19.30013,67749
19.30825,60224
19.31638,65164
19.32450,61659
19.33262,64014
19.34075,60737
19.34887,62630
19.35700,70128
19.36512,71655
19.37323,69334
19.38137,67308
19.38948,70852
19.39760,71289
19.40573,87178
19.41385,130451
19.42198,217300
19.43010,312668
19.43822,407527
19.44635,436486
19.45447,393588
19.46260,307101
19.47072,209542
19.47883,142696
19.48697,100052
19.49508,87712
19.50322,76875
19.51133,79016
19.51945,75716
19.52758,75791
19.53570,69910
19.54382,67674
19.55195,69026
19.56007,64535
19.56820,65375
19.57632,62813
19.58443,59697
19.59257,60986
19.60068,64684
19.60882,66891
19.61693,84783
19.62505,114158
19.63318,157185
19.64130,184470
19.64943,218805
19.65755,224413
19.66567,207361
19.67380,193591
19.68192,166521
19.69003,138674
19.69817,119769
19.70628,99516
19.71442,90822
19.72253,86725
19.73065,77294
19.73878,74624
19.74690,71854
19.75503,74402
19.76315,71983
19.77127,68985
19.77940,70819
19.78752,72474
19.79563,75667
19.80377,74307
19.81188,67712
19.82002,64743
19.82813,59485
19.83625,62421
19.84438,67872
19.85250,94368
19.86063,150050
19.86875,230153
19.87687,334932
19.88500,449119
19.89312,546196
19.90125,532449
19.90937,468471
19.91748,347452
19.92562,271018
19.93373,207211
19.94185,174997
19.94998,155926
19.95810,141062
19.96623,133228
19.97435,125276
19.98247,122189
19.99060,119933
19.99872,111956
20.00685,109255
20.01497,104234
20.02308,97586
20.03122,90746
20.03933,87415
20.04745,89803
20.05558,96244
20.06370,99927
20.07183,95712
20.07995,97569
20.08807,97444
20.09620,86810
20.10432,79697
20.11245,73533
20.12057,74264
20.12868,71920
20.13682,83270
20.14493,98142
20.15307,128027
20.16118,158253
20.16930,189054
20.17743,220062
20.18555,232235
20.19367,228848
20.20180,203492
20.20992,193061
20.21805,196628
20.22617,216414
20.23428,255544
20.24242,305876
20.25053,339367
20.25867,345972
20.26678,327523
20.27490,282258
20.28303,240352
20.29115,194887
20.29928,158386
20.30740,124931
20.31552,105559
20.32365,88352
20.33177,78079
20.33988,80404
20.34802,74276
20.35613,76007
20.36427,66441
20.37238,70398
20.38050,75000
20.38863,83827
20.39675,88547
20.40488,97398
20.41300,98279
20.42112,93148
20.42925,89820
20.43737,79240
20.44548,78585
20.45362,71312
20.46173,65060
20.46987,66139
20.47798,58368
20.48610,56560
20.49423,55849
20.50235,57465
20.51048,56988
20.51860,51269
20.52672,53700
20.53485,52656
20.54297,52337
20.55110,47824
20.55922,48131
20.56733,49382
20.57547,45740
20.58358,48283
20.59170,47377
20.59983,50360
20.60795,49111
20.61608,47213
20.62420,48818
20.63232,50444
20.64045,50688
20.64857,48782
20.65670,47884
20.66482,51237
20.67293,49368
20.68107,45497
20.68918,43834
20.69732,42140
20.70543,44509
20.71355,41511
20.72168,44786
20.72980,44580
20.73792,46617
20.74605,50076
20.75417,52468
20.76230,51171
20.77042,59198
20.77853,77635
20.78667,93455
20.79478,114788
20.80292,125601
20.81103,131229
20.81915,119469
20.82728,95951
20.83540,81950
20.84352,71349
20.85165,65677
20.85977,60577
20.86790,54269
20.87602,54468
20.88413,55477
20.89227,57787
20.90038,55500
20.90852,63077
20.91663,58529
20.92475,53788
20.93288,58745
20.94100,52603
20.94913,56124
20.95725,52150
20.96537,49551
20.97350,42832
20.98162,46180
20.98973,48666
20.99787,45486
21.00598,46587
21.01412,46948
21.02223,47621
21.03035,46587
21.03848,46629
21.04660,45631
21.05473,45736
21.06285,46300
21.07097,46158
21.07910,46453
21.08722,46374
21.09533,43273
21.10347,44942
21.11158,45703
21.11972,53287
21.12783,58453
21.13595,69636
21.14408,69411
21.15220,73366
21.16033,69487
21.16845,67105
21.17657,58171
21.18470,51462
21.19282,54910
21.20095,50451
21.20907,47113
21.21718,52942
21.22532,50487
21.23343,52903
21.24155,50362
21.24968,53516
21.25780,56670
21.26593,54268
21.27405,58061
21.28217,57449
21.29030,60794
21.29842,61192
21.30655,56238
21.31467,58150
21.32278,60688
21.33092,57720
21.33903,58331
21.34717,57817
21.35528,55249
21.36340,53006
21.37153,56312
21.37965,58377
21.38777,61905
21.39590,63207
21.40402,62449
21.41215,70346
21.42027,58629
21.42838,60898
21.43652,51891
21.44463,54000
21.45277,53972
21.46088,54639
21.46900,55398
21.47713,56671
21.48525,56692
21.49338,57190
21.50150,54566
21.50962,47409
21.51775,55064
21.52587,57312
21.53398,54062
21.54212,59617
21.55023,62692
21.55837,77379
21.56648,97715
21.57460,121625
21.58273,136119
21.59085,142071
21.59898,139198
21.60710,128546
21.61522,107216
21.62335,93590
21.63147,83509
21.63958,71454
21.64772,70241
21.65583,66459
21.66397,66076
21.67208,58436
21.68020,63323
21.68833,59150
21.69645,58508
21.70458,51434
21.71270,51962
21.72082,50563
21.72895,49565
21.73707,50392
21.74520,57571
21.75332,66116
21.76143,76184
21.76957,87949
21.77768,103762
21.78580,103618
21.79393,102724
21.80205,87775
21.81018,77823
21.81830,67148
21.82642,61647
21.83455,58115
21.84267,51468
21.85080,47918
21.85892,50603
21.86703,50133
21.87517,51041
21.88328,50788
21.89140,46108
21.89953,45787
21.90765,43821
21.91578,44331
21.92390,42165
21.93202,36263
21.94015,40596
21.94827,41494
21.95640,41254
21.96452,52504
21.97263,65463
21.98077,72671
21.98888,93658
21.99702,96817
22.00513,96399
22.01325,104136
22.02138,104834
22.02950,105776
22.03762,106485
22.04575,106978
22.05387,109679
22.06200,115390
22.07012,115193
22.07823,117074
22.08637,115874
22.09448,112154
22.10262,111340
22.11073,110965
22.11885,105669
22.12698,103975
22.13510,112492
22.14323,104931
22.15135,105587
22.15947,111276
22.16760,113382
22.17572,116171
22.18383,111920
22.19197,110195
22.20008,106230
22.20822,99893
22.21633,89664
22.22445,96185
22.23258,91779
22.24070,89833
22.24883,88985
22.25695,85820
22.26507,92951
22.27320,87019
22.28132,90035
22.28943,84510
22.29757,85318
22.30568,87285
22.31382,85192
22.32193,77778
22.33005,78168
22.33818,73980
22.34630,77460
22.35443,73163
22.36255,73600
22.37067,67768
22.37880,74243
22.38692,76295
22.39505,85347
22.40317,91066
22.41128,87142
22.41942,85528
22.42753,79951
22.43565,75875
22.44378,73027
22.45190,65849
22.46003,66640
22.46815,66054
22.47627,67542
22.48440,70814
22.49252,74511
22.50065,73025
22.50877,71935
22.51688,66888
22.52502,68928
22.53313,59601
22.54127,56037
22.54938,58718
22.55750,57946
22.56563,52487
22.57375,55224
22.58187,50416
22.59000,53197
22.59812,46899
22.60625,51924
22.61437,48829
22.62248,47709
22.63062,43739
22.63873,46587
22.64687,49327
22.65498,48806
22.66310,50366
22.67123,52709
22.67935,60440
22.68747,62741
22.69560,74425
22.70372,75698
22.71185,74171
22.71997,70992
22.72808,68686
22.73622,60874
22.74433,54476
22.75247,54200
22.76058,59189
22.76870,61480
22.77683,64264
22.78495,68983
22.79308,74193
22.80120,72042
22.80932,71384
22.81745,65357
22.82557,61962
22.83368,57870
22.84182,56280
22.84993,56687
22.85807,63586
22.86618,74274
22.87430,82626
22.88243,109517
22.89055,152680
22.89868,227415
22.90680,354723
22.91492,505995
22.92305,572820
22.93117,622982
22.93928,593892
22.94742,500621
22.95553,433206
22.96367,372214
22.97178,308692
22.97990,272988
22.98803,232388
22.99615,194927
23.00428,160967
23.01240,134652
23.02052,115916
23.02865,98689
23.03677,85221
23.04490,79184
23.05302,75762
23.06113,70244
23.06927,70432
23.07738,67040
23.08550,69362
23.09363,68802
23.10175,62576
23.10988,60402
23.11800,60500
23.12612,54328
23.13425,51961
23.14237,55792
23.15050,55118
23.15862,54884
23.16673,52017
23.17487,53182
23.18298,49918
23.19112,50604
23.19923,50650
23.20735,49265
23.21548,48616
23.22360,47505
23.23172,45029
23.23985,47542
23.24797,49701
23.25610,50837
23.26422,51253
23.27233,52165
23.28047,53072
23.28858,54065
23.29672,49304
23.30483,44964
23.31295,45073
23.32108,42952
23.32920,48606
23.33732,54574
23.34545,57036
23.35357,59946
23.36170,58643
23.36982,59516
23.37793,54508
23.38607,51414
23.39418,46023
23.40232,43969
23.41043,44346
23.41855,44986
23.42668,42435
23.43480,41409
23.44293,37457
23.45105,39769
23.45917,36795
23.46730,37964
23.47542,37498
23.48353,37262
23.49167,34198
23.49978,36207
23.50792,37377
23.51603,40268
23.52415,39069
23.53228,43124
23.54040,40516
23.54853,46582
23.55665,49422
23.56477,61660
23.57290,68420
23.58102,83090
23.58915,85101
23.59727,88857
23.60538,82177
23.61352,71934
23.62163,68394
23.62975,57893
23.63788,61512
23.64600,62726
23.65413,63741
23.66225,65514
23.67037,61713
23.67850,54310
23.68662,55329
23.69475,54271
23.70287,55122
23.71098,54361
23.71912,70105
23.72723,133226
23.73535,285511
23.74348,660468
23.75160,1453867
23.75973,2602997
23.76785,3671433
23.77597,4206038
23.78410,4019277
23.79222,3349538
23.80035,2529154
23.80847,1889632
23.81658,1407113
23.82472,1062086
23.83283,835428
23.84097,673877
23.84908,566771
23.85720,484839
23.86533,430032
23.87345,385480
23.88157,360473
23.88970,337264
23.89782,308468
23.90595,287982
23.91407,268642
23.92218,255249
23.93032,245108
23.93843,232736
23.94657,221331
23.95468,210855
23.96280,204764
23.97093,200817
23.97905,193620
23.98718,190577
23.99530,183547
24.00342,183208
24.01155,192507
24.01967,195397
24.02778,197217
24.03592,190704
24.04403,199191
24.05217,192626
24.06028,190247
24.06840,179847
24.07653,172889
24.08465,167823
24.09278,157409
24.10090,148549
24.10902,144297
24.11715,148157
24.12527,163099
24.13338,161558
24.14152,167429
24.14963,174417
24.15777,162889
24.16588,153807
24.17400,145188
24.18213,135884
24.19025,135613
24.19838,123335
24.20650,108666
24.21462,103507
24.22275,97325
24.23087,97542
24.23900,90577
24.24712,90437
24.25523,90311
24.26337,85348
24.27148,88903
24.27960,99780
24.28773,129291
24.29585,181728
24.30398,296580
24.31210,441914
24.32022,555277
24.32835,565351
24.33647,469670
24.34460,340105
24.35272,221092
24.36083,151758
24.36897,112454
24.37708,99468
24.38520,87553
24.39333,89342
24.40145,98301
24.40958,118067
24.41770,147701
24.42582,173311
24.43395,193487
24.44207,199470
24.45020,181319
24.45832,171940
24.46643,141472
24.47457,125606
24.48268,117780
24.49082,105483
24.49893,102365
24.50705,96215
24.51518,96425
24.52330,91747
24.53142,94867
24.53955,102206
24.54767,102258
24.55580,99846
24.56392,92627
24.57203,85347
24.58017,76004
24.58828,70905
24.59642,74985
24.60453,68465
24.61265,64763
24.62078,67628
24.62890,65655
24.63703,66717
24.64515,65867
24.65327,61908
24.66140,65882
24.66952,64465
24.67763,63086
24.68577,60357
24.69388,58767
24.70202,56481
24.71013,57553
24.71825,59881
24.72638,56057
24.73450,54389
24.74263,59208
24.75075,55900
24.75887,53568
24.76700,54167
24.77512,60182
24.78323,56871
24.79137,58813
24.79948,55805
24.80762,59474
24.81573,58698
24.82385,70115
24.83198,71274
24.84010,87075
24.84823,99733
24.85635,111570
24.86447,126035
24.87260,134523
24.88072,144249
24.88885,136923
24.89697,119705
24.90508,100172
24.91322,80828
24.92133,68130
24.92945,65037
24.93758,62392
24.94570,61541
24.95383,62486
24.96195,67190
24.97007,81176
24.97820,99745
24.98632,106934
24.99445,117253
25.00257,127521
25.01068,118209
25.01882,124614
25.02693,124028
25.03507,118100
25.04318,118481
25.05130,117177
25.05943,122352
25.06755,118351
25.07567,129249
25.08380,139571
25.09192,164110
25.10005,228530
25.10817,340290
25.11628,494749
25.12442,685025
25.13253,794592
25.14067,824438
25.14878,714117
25.15690,561324
25.16503,413373
25.17315,311743
25.18127,230250
25.18940,194358
25.19752,165366
25.20565,159548
25.21377,149588
25.22188,144448
25.23002,162995
25.23813,180084
25.24627,205670
25.25438,220345
25.26250,228523
25.27063,218253
25.27875,197799
25.28688,170853
25.29500,150971
25.30312,139493
25.31125,128001
25.31937,125187
25.32748,116998
25.33562,113156
25.34373,106808
25.35187,99090
25.35998,91683
25.36810,92911
25.37623,95588
25.38435,96561
25.39248,102324
25.40060,95807
25.40872,96819
25.41685,91818
25.42497,88546
25.43308,89060
25.44122,82230
25.44933,79358
25.45747,78382
25.46558,78680
25.47370,79764
25.48183,75319
25.48995,76712
25.49808,75939
25.50620,71724
25.51432,72722
25.52245,71113
25.53057,64152
25.53870,68537
25.54682,68934
25.55493,66805
25.56307,64724
25.57118,62753
25.57930,62054
25.58743,62061
25.59555,58692
25.60368,56474
25.61180,60811
25.61992,59106
25.62805,57925
25.63617,56252
25.64430,58402
25.65242,55920
25.66053,59999
25.66867,60633
25.67678,58847
25.68492,58533
25.69303,59671
25.70115,60388
25.70928,53501
25.71740,58614
25.72552,53929
25.73365,53649
25.74177,57227
25.74990,54501
25.75802,56723
25.76613,60795
25.77427,57835
25.78238,57537
25.79052,57647
25.79863,54171
25.80675,52489
25.81488,52102
25.82300,54325
25.83112,54958
25.83925,53063
25.84737,49429
25.85550,54549
25.86362,47885
25.87173,51094
25.87987,49364
25.88798,47230
25.89612,49590
25.90423,47562
25.91235,47369
25.92048,48798
25.92860,49189
25.93673,51501
25.94485,53068
25.95297,48769
25.96110,50877
25.96922,49240
25.97733,49339
25.98547,47696
25.99358,45293
26.00172,46945
26.00983,42029
26.01795,44186
26.02608,46405
26.03420,50210
26.04233,45595
26.05045,46393
26.05857,42652
26.06670,46260
26.07482,44747
26.08295,46662
26.09107,48451
26.09918,47964
26.10732,49455
26.11543,52666
26.12355,55462
26.13168,57553
26.13980,61283
26.14793,62695
26.15605,69276
26.16417,70100
26.17230,68627
26.18042,66151
26.18855,66224
26.19667,61951
26.20478,53920
26.21292,54039
26.22103,49302
26.22915,50478
26.23728,49305
26.24540,46798
26.25353,50192
26.26165,45995
26.26977,46164
26.27790,47313
26.28602,42661
26.29415,45582
26.30227,43011
26.31038,46737
26.31852,47544
26.32663,44484
26.33477,50638
26.34288,55622
26.35100,59012
26.35913,67455
26.36725,77289
26.37537,77276
26.38350,87679
26.39162,79898
26.39975,80011
26.40787,69161
26.41598,62175
26.42412,56827
26.43223,50165
26.44037,46569
26.44848,44856
26.45660,49013
26.46473,47461
26.47285,54323
26.48097,49456
26.48910,45736
26.49722,49950
26.50535,43550
26.51347,45401
26.52158,44530
26.52972,39302
26.53783,42585
26.54597,39263
26.55408,42944
26.56220,42744
26.57033,41464
26.57845,43403
26.58658,43110
26.59470,42675
26.60282,40139
26.61095,42658
26.61907,39524
26.62718,40729
26.63532,43823
26.64343,47732
26.65157,51970
26.65968,54208
26.66780,55173
26.67593,48954
26.68405,48811
26.69218,49021
26.70030,41109
26.70842,44616
26.71655,43725
26.72467,39044
26.73280,41696
26.74092,45958
26.74903,43622
26.75717,46319
26.76528,52790
26.77340,59164
26.78153,59035
26.78965,65796
26.79778,67144
26.80590,56497
26.81402,56114
26.82215,55655
26.83027,50427
26.83840,46268
26.84652,43522
26.85463,46495
26.86277,47834
26.87088,40897
26.87902,46440
26.88713,48172
26.89525,43803
26.90338,43041
26.91150,47169
26.91962,53045
26.92775,64517
26.93587,96481
26.94400,182115
26.95212,335156
26.96023,563553
26.96837,933208
26.97648,1429514
26.98462,1990512
26.99273,2362940
27.00085,2443200
27.00898,2189507
27.01710,1703253
27.02522,1299171
27.03335,981957
27.04147,744447
27.04960,572582
27.05772,444592
27.06583,355815
27.07397,291207
27.08208,259605
27.09022,217954
27.09833,198178
27.10645,181396
27.11458,166127
27.12270,155842
27.13083,144685
27.13895,140679
27.14707,143704
27.15520,136191
27.16332,131061
27.17143,128974
27.17957,127259
27.18768,119785
27.19582,107628
27.20393,100769
27.21205,99583
27.22018,93769
27.22830,95173
27.23643,88983
27.24455,90506
27.25267,81401
27.26080,86818
27.26892,76757
27.27703,81535
27.28517,79691
27.29328,78505
27.30142,77340
27.30953,78298
27.31765,72243
27.32578,75856
27.33390,72482
27.34203,72394
27.35015,74559
27.35827,74801
27.36640,69839
27.37452,72145
27.38265,70224
27.39077,73214
27.39888,70890
27.40702,70010
27.41513,75606
27.42325,83994
27.43138,90138
27.43950,96021
27.44763,91249
27.45575,87265
27.46387,79806
27.47200,76768
27.48012,65058
27.48825,65040
27.49637,68696
27.50448,71925
27.51262,72014
27.52073,75432
27.52887,75575
27.53698,72976
27.54510,69564
27.55323,65167
27.56135,63471
27.56947,62357
27.57760,62463
27.58572,60319
27.59385,65329
27.60197,67292
27.61008,55660
27.61822,56900
27.62633,53338
27.63447,56775
27.64258,56865
27.65070,55595
27.65883,58668
27.66695,58656
27.67507,60452
27.68320,61076
27.69132,65980
27.69945,55831
27.70757,55722
27.71568,53400
27.72382,56496
27.73193,57995
27.74007,63748
27.74818,60722
27.75630,61905
27.76443,56525
27.77255,53885
27.78068,51193
27.78880,53424
27.79692,50609
27.80505,51891
27.81317,49930
27.82128,51334
27.82942,52822
27.83753,53398
27.84567,49018
27.85378,48714
27.86190,46768
27.87003,46983
27.87815,47074
27.88628,45104
27.89440,48761
27.90252,48006
27.91065,46689
27.91877,48529
27.92690,43776
27.93502,49108
27.94313,45982
27.95127,49919
27.95938,51010
27.96750,48730
27.97563,52477
27.98375,54775
27.99188,51616
28.00000,56404
28.00812,59150
28.01625,64861
28.02437,69629
28.03250,70227
28.04062,68033
28.04873,72011
28.05687,63396
28.06498,63608
28.07310,66280
28.08123,71011
28.08935,86188
28.09748,121167
28.10560,143577
28.11372,152490
28.12185,149031
28.12997,132785
28.13810,110444
28.14622,94775
28.15433,74796
28.16247,65827
28.17058,60470
28.17872,59054
28.18683,60848
28.19495,59818
28.20308,58675
28.21120,57277
28.21932,65648
28.22745,70349
28.23557,90856
28.24370,131856
28.25182,187992
28.25993,268590
28.26807,375202
28.27618,460608
28.28432,617595
28.29243,710631
28.30055,779078
28.30868,839263
28.31680,834133
28.32492,801820
28.33305,749692
28.34117,662806
28.34930,597936
28.35742,516820
28.36553,459418
28.37367,395262
28.38178,335975
28.38992,300974
28.39803,262601
28.40615,220849
28.41428,198917
28.42240,187471
28.43053,161665
28.43865,143584
28.44677,136143
28.45490,125467
28.46302,127228
28.47113,114294
28.47927,121319
28.48738,109231
28.49552,102637
28.50363,102878
28.51175,98369
28.51988,86986
28.52800,87480
28.53613,85103
28.54425,80174
28.55237,77559
28.56050,78508
28.56862,79183
28.57675,75353
28.58487,70512
28.59298,69831
28.60112,75182
28.60923,70213
28.61735,82336
28.62548,80198
28.63360,89251
28.64173,104244
28.64985,133468
28.65797,202917
28.66610,310362
28.67422,438834
28.68235,531184
28.69047,546009
28.69858,463831
28.70672,343678
28.71483,230606
28.72295,154356
28.73108,109734
28.73920,90277
28.74733,78151
28.75545,79360
28.76357,76030
28.77170,72392
28.77982,67052
28.78795,68043
28.79607,70755
28.80418,62635
28.81232,66684
28.82043,66593
28.82857,63544
28.83668,63711
28.84480,66896
28.85293,60158
28.86105,61754
28.86917,61070
28.87730,63843
28.88542,66863
28.89355,64499
28.90167,64062
28.90978,62585
28.91792,62184
28.92603,61628
28.93417,63595
28.94228,66238
28.95040,69202
28.95853,68528
28.96665,64460
28.97478,59620
28.98290,60566
28.99102,57631
28.99915,56851
29.00727,53537
29.01538,55019
29.02352,54836
29.03163,57900
29.03977,56897
29.04788,56040
29.05600,53125
29.06413,53227
29.07225,53208
29.08038,51807
29.08850,55473
29.09662,49338
29.10475,51355
29.11287,50718
29.12098,54943
29.12912,51235
29.13723,52408
29.14537,50209
29.15348,52796
29.16160,54102
29.16973,53779
29.17785,57666
29.18598,58018
29.19410,60543
29.20222,64236
29.21035,61924
29.21847,62852
29.22660,62695
29.23472,69621
29.24283,72736
29.25097,74538
29.25908,70396
29.26720,67101
29.27533,63124
29.28345,56295
29.29158,55368
29.29970,51527
29.30782,50430
29.31595,49744
29.32407,49774
29.33220,48894
29.34032,53306
29.34843,50355
29.35657,48678
29.36468,49816
29.37282,52979
29.38093,54616
29.38905,62305
29.39718,62242
29.40530,69065
29.41342,67480
29.42155,54318
29.42967,55551
29.43780,52664
29.44592,50449
29.45403,50073
29.46217,49161
29.47028,48618
29.47842,54083
29.48653,55543
29.49465,62031
29.50278,59814
29.51090,62921
29.51902,58869
29.52715,53104
29.53527,54348
29.54340,47259
29.55152,47352
29.55963,45847
29.56777,42516
29.57588,48530
29.58402,51046
29.59213,45875
29.60025,49090
29.60838,51133
29.61650,47098
29.62463,50543
29.63275,45514
29.64087,46435
29.64900,49450
29.65712,45894
29.66523,45680
29.67337,47279
29.68148,47014
29.68962,43353
29.69773,44505
29.70585,42975
29.71398,44506
29.72210,47401
29.73023,44591
29.73835,45683
29.74647,44286
29.75460,43621
29.76272,41565
29.77083,39112
29.77897,39526
29.78708,39689
29.79522,37621
29.80333,38689
29.81145,40713
29.81958,46800
29.82770,43682
29.83583,44425
29.84395,51858
29.85207,60339
29.86020,79235
29.86832,105752
29.87645,141122
29.88457,176478
29.89268,214962
29.90082,256011
29.90893,292801
29.91705,317199
29.92518,330529
29.93330,345341
29.94143,352300
29.94955,362043
29.95767,350771
29.96580,340815
29.97392,316722
29.98205,300897
29.99017,278244
29.99828,268478
30.00642,245820
30.01453,226040
30.02267,210002
30.03078,188057
30.03890,183477
30.04703,170221
30.05515,169444
30.06327,166659
30.07140,157012
30.07952,149279
30.08765,141833
30.09577,143436
30.10388,138535
30.11202,137101
30.12013,127234
30.12827,116435
30.13638,108715
30.14450,100387
30.15263,103964
30.16075,95610
30.16887,91684
30.17700,88911
30.18512,88045
30.19325,87423
30.20137,84452
30.20948,80478
30.21762,85573
30.22573,76019
30.23387,72696
30.24198,73820
30.25010,67777
30.25823,69303
30.26635,68634
30.27448,69826
30.28260,64222
30.29072,66676
30.29885,65787
30.30697,67131
30.31508,65486
30.32322,60539
30.33133,61855
30.33947,66229
30.34758,64321
30.35570,64512
30.36383,63608
30.37195,59774
30.38008,64768
30.38820,59921
30.39632,60407
30.40445,60841
30.41257,59122
30.42070,57618
30.42882,58005
30.43693,56636
30.44507,58090
30.45318,58944
30.46130,55921
30.46943,54865
30.47755,53352
30.48568,49897
30.49380,55111
30.50192,49415
30.51005,49961
30.51817,52133
30.52630,48910
30.53442,47573
30.54253,49757
30.55067,48899
30.55878,49467
30.56690,54361
30.57503,51443
30.58315,50564
30.59128,48331
30.59940,49327
30.60752,52218
30.61565,53230
30.62377,50418
30.63190,51528
30.64002,51697
30.64813,46049
30.65627,48971
30.66438,46010
30.67252,50406
30.68063,43385
30.68875,45962
30.69688,48198
30.70500,46208
30.71312,48372
30.72125,52391
30.72937,52277
30.73750,53229
30.74562,58456
30.75373,52547
30.76187,53863
30.76998,61463
30.77812,68537
30.78623,80077
30.79435,77957
30.80248,76124
30.81060,72505
30.81872,65898
30.82685,59442
30.83497,55854
30.84310,54663
30.85122,58533
30.85933,49315
30.86747,51954
30.87558,53603
30.88372,50106
30.89183,45715
30.89995,51208
30.90808,47017
30.91620,45860
30.92433,47152
30.93245,46042
30.94057,47356
30.94870,46729
30.95682,43194
30.96493,45283
30.97307,43748
30.98118,45546
30.98932,42892
30.99743,43698
31.00555,44043
31.01368,44457
31.02180,43707
31.02993,45426
31.03805,46625
31.04617,49294
31.05430,57128
31.06242,65700
31.07055,81105
31.07867,93523
31.08678,108325
31.09492,113619
31.10303,103652
31.11115,93462
31.11928,77921
31.12740,72405
31.13553,68476
31.14365,65751
31.15177,63240
31.15990,60635
31.16802,61089
31.17615,63221
31.18427,66996
31.19238,70743
31.20052,67513
31.20863,68277
31.21675,61336
31.22488,57730
31.23300,58465
31.24113,51607
31.24925,49106
31.25737,49760
31.26550,51576
31.27362,46669
31.28175,49746
31.28987,58243
31.29798,70912
31.30612,77317
31.31423,92918
31.32237,93090
31.33048,91756
31.33860,77503
31.34673,73763
31.35485,60067
31.36297,55189
31.37110,56343
31.37922,49933
31.38735,51880
31.39547,50240
31.40358,50391
31.41172,52496
31.41983,51052
31.42797,51844
31.43608,50428
31.44420,49611
31.45233,50228
31.46045,50883
31.46858,51505
31.47670,48294
31.48482,53399
31.49295,47017
31.50107,52729
31.50918,48811
31.51732,48161
31.52543,50504
31.53357,49222
31.54168,52099
31.54980,51827
31.55793,51807
31.56605,51666
31.57418,50976
31.58230,50912
31.59042,46308
31.59855,48612
31.60667,44061
31.61478,44227
31.62292,43623
31.63103,46416
31.63917,46874
31.64728,49120
31.65540,47070
31.66353,48878
31.67165,55157
31.67978,50069
31.68790,49394
31.69602,47596
31.70415,48547
31.71227,48089
31.72040,45956
31.72852,45424
31.73663,44202
31.74477,46220
31.75288,43411
31.76100,48399
31.76913,47403
31.77725,51150
31.78538,60810
31.79350,68316
31.80162,79217
31.80975,108058
31.81787,147536
31.82600,197160
31.83412,244065
31.84223,314391
31.85037,351393
31.85848,395533
31.86660,413551
31.87473,422798
31.88285,415135
31.89098,403415
31.89910,374949
31.90722,349447
31.91535,341483
31.92347,314119
31.93160,289898
31.93972,280549
31.94783,286414
31.95597,314816
31.96408,329584
31.97222,326042
31.98033,308747
31.98845,265301
31.99658,223552
32.00470,187194
32.01282,173516
32.02095,145404
32.02907,128146
32.03720,117343
32.04532,113448
32.05343,102024
32.06157,104269
32.06968,106457
32.07782,97650
32.08593,102341
32.09405,85653
32.10218,90201
32.11030,80052
32.11843,79645
32.12655,75833
32.13467,74271
32.14280,71057
32.15092,69039
32.15903,70656
32.16717,72477
32.17528,64027
32.18342,70195
32.19153,65693
32.19965,68208
32.20778,68628
32.21590,64965
32.22403,67817
32.23215,63156
32.24027,64846
32.24840,64482
32.25652,62402
32.26465,66129
32.27277,64920
32.28088,59981
32.28902,63457
32.29713,58921
32.30525,58375
32.31338,61138
32.32150,62725
32.32963,64793
32.33775,64008
32.34587,63364
32.35400,57726
32.36212,61227
32.37025,57701
32.37837,55072
32.38648,59148
32.39462,57317
32.40273,49588
32.41085,48342
32.41898,52421
32.42710,54431
32.43523,52020
32.44335,51925
32.45147,52264
32.45960,54757
32.46772,55934
32.47585,49128
32.48397,52866
32.49208,51485
32.50022,49590
32.50833,48729
32.51647,52001
32.52458,57472
32.53270,84759
32.54083,142736
32.54895,250077
32.55707,400901
32.56520,502707
32.57332,537114
32.58145,467663
32.58957,360872
32.59768,266204
32.60582,179111
32.61393,126006
32.62207,91162
32.63018,78788
32.63830,72346
32.64643,67627
32.65455,69264
32.66267,66746
32.67080,70541
32.67892,73502
32.68705,69002
32.69517,77368
32.70328,75802
32.71142,70266
32.71953,67884
32.72767,71535
32.73578,61623
32.74390,62939
32.75203,56933
32.76015,57112
32.76828,56689
32.77640,52472
32.78452,55184
32.79265,52426
32.80077,57627
32.80888,54857
32.81702,58354
32.82513,55181
32.83327,56862
32.84138,58364
32.84950,55297
32.85763,56537
32.86575,60328
32.87388,60747
32.88200,60969
32.89012,64147
32.89825,67936
32.90637,67088
32.91450,63074
32.92262,53694
32.93073,56126
32.93887,56099
32.94698,53261
32.95510,57305
32.96323,57029
32.97135,62928
32.97948,75775
32.98760,68258
32.99572,67181
33.00385,64499
33.01197,62087
33.02010,58294
33.02822,56042
33.03633,62440
33.04447,57109
33.05258,55571
33.06070,57881
33.06883,58148
33.07695,69238
33.08508,82382
33.09320,91485
33.10132,103592
33.10945,105372
33.11757,99695
33.12570,91149
33.13382,86303
33.14193,75822
33.15007,68971
33.15818,68238
33.16632,63934
33.17443,65204
33.18255,58744
33.19068,57604
33.19880,56191
33.20692,58708
33.21505,51952
33.22317,58009
33.23130,54724
33.23942,55378
33.24753,51586
33.25567,55396
33.26378,56655
33.27192,53278
33.28003,52767
33.28815,50787
33.29628,52691
33.30440,51217
33.31253,54036
33.32065,52181
33.32877,50419
33.33690,50165
33.34502,50928
33.35313,55557
33.36127,50910
33.36938,53015
33.37752,46438
33.38563,49770
33.39375,50012
33.40188,47409
33.41000,48502
33.41813,52828
33.42625,48759
33.43437,48598
33.44250,48155
33.45062,50131
33.45873,51102
33.46687,46737
33.47498,51265
33.48312,48824
33.49123,54092
33.49935,52515
33.50748,48956
33.51560,49539
33.52373,52811
33.53185,46629
33.53997,49100
33.54810,47907
33.55622,50517
33.56435,51192
33.57247,45510
33.58058,48683
33.58872,45794
33.59683,51000
33.60495,47580
33.61308,44433
33.62120,50584
33.62933,49320
33.63745,49892
33.64557,49595
33.65370,51994
33.66182,45386
33.66995,47952
33.67807,48786
33.68618,48572
33.69432,49342
33.70243,49977
33.71055,45261
33.71868,49891
33.72680,48759
33.73493,58048
33.74305,58484
33.75117,56016
33.75930,55402
33.76742,59052
33.77555,52985
33.78367,52605
33.79178,52105
33.79992,52780
33.80803,59750
33.81617,63423
33.82428,66198
33.83240,68637
33.84053,71903
33.84865,70158
33.85677,64842
33.86490,60214
33.87302,53584
33.88115,57577
33.88927,53083
33.89738,53564
33.90552,53520
33.91363,56041
33.92177,48585
33.92988,51708
33.93800,50566
33.94613,49803
33.95425,47564
33.96238,46956
33.97050,48555
33.97862,50050
33.98675,47350
33.99487,45957
34.00298,46764
34.01112,44611
34.01923,46673
34.02737,47540
34.03548,50645
34.04360,52800
34.05173,47307
34.05985,48945
34.06798,46399
34.07610,49933
34.08422,47211
34.09235,45719
34.10047,48133
34.10858,45044
34.11672,47993
34.12483,51877
34.13297,47258
34.14108,48923
34.14920,46509
34.15733,51825
34.16545,48205
34.17358,51907
34.18170,50664
34.18982,43455
34.19795,49867
34.20607,46987
34.21420,48697
34.22232,50042
34.23043,50597
34.23857,53521
34.24668,50444
34.25480,50067
34.26293,53915
34.27105,49708
34.27918,49528
34.28730,49646
34.29542,48700
34.30355,47342
34.31167,50147
34.31980,53687
34.32792,50235
34.33603,52115
34.34417,48926
34.35228,48797
34.36042,46485
34.36853,45494
34.37665,48404
34.38478,49896
34.39290,51609
34.40102,63236
34.40915,87594
34.41727,142077
34.42540,216300
34.43352,321177
34.44163,439735
34.44977,534908
34.45788,596497
34.46602,628438
34.47413,633737
34.48225,585088
34.49038,528340
34.49850,458053
34.50662,385137
34.51475,326040
34.52287,283116
34.53100,244236
34.53912,215392
34.54723,182691
34.55537,172909
34.56348,161935
34.57162,142384
34.57973,129296
34.58785,125035
34.59598,119257
34.60410,119189
34.61223,115082
34.62035,116481
34.62847,116018
34.63660,108363
34.64472,105517
34.65283,95358
34.66097,91369
34.66908,89329
34.67722,86370
34.68533,88027
34.69345,86198
34.70158,83819
34.70970,83310
34.71783,79511
34.72595,80098
34.73407,79091
34.74220,77753
34.75032,78936
34.75843,77887
34.76657,73926
34.77468,70758
34.78282,72743
34.79093,74331
34.79905,72378
34.80718,72638
34.81530,71129
34.82343,73568
34.83155,79917
34.83967,84409
34.84780,88111
34.85592,91096
34.86405,86819
34.87217,90020
34.88028,77137
34.88842,73341
34.89653,71112
34.90465,77078
34.91278,71508
34.92090,75307
34.92903,73407
34.93715,73562
34.94527,71679
34.95340,69666
34.96152,70351
34.96965,70656
34.97777,64861
34.98588,63890
34.99402,66278
35.00213,61504
35.01027,69106
35.01838,68412
35.02650,80513
35.03463,89652
35.04275,102166
35.05087,112135
35.05900,122418
35.06712,117935
35.07525,98076
35.08337,83658
35.09148,85857
35.09962,73257
35.10773,70955
35.11587,65405
35.12398,65155
35.13210,65863
35.14023,62119
35.14835,63942
35.15647,63801
35.16460,62994
35.17272,66275
35.18085,62826
35.18897,63197
35.19708,59606
35.20522,59701
35.21333,60979
35.22147,68479
35.22958,62651
35.23770,68233
35.24583,62834
35.25395,64013
35.26208,66734
35.27020,66485
35.27832,63743
35.28645,60561
35.29457,61890
35.30268,59322
35.31082,57264
35.31893,60695
35.32707,56999
35.33518,57538
35.34330,60156
35.35143,58461
35.35955,56731
35.36768,58509
35.37580,62404
35.38392,62045
35.39205,70593
35.40017,71022
35.40830,71362
35.41642,73389
35.42453,67000
35.43267,72416
35.44078,71505
35.44890,67319
35.45703,66213
35.46515,62810
35.47328,63343
35.48140,66097
35.48952,64857
35.49765,67756
35.50577,63127
35.51390,65162
35.52202,65788
35.53013,82849
35.53827,99672
35.54638,129995
35.55450,170480
35.56263,199639
35.57075,195663
35.57888,187239
35.58700,157692
35.59512,130017
35.60325,104235
35.61137,93829
35.61950,89065
35.62762,78744
35.63573,78754
35.64387,72890
35.65198,76475
35.66012,73687
35.66823,74912
35.67635,74413
35.68448,68781
35.69260,68820
35.70072,66818
35.70885,66871
35.71697,69822
35.72510,72226
35.73322,67688
35.74133,70107
35.74947,68802
35.75758,70014
35.76572,75267
35.77383,69999
35.78195,69936
35.79008,69561
35.79820,65915
35.80633,66484
35.81445,62776
35.82257,64522
35.83070,65188
35.83882,62969
35.84693,61527
35.85507,60670
35.86318,68273
35.87132,62681
35.87943,61192
35.88755,58386
35.89568,57682
35.90380,59861
35.91193,64413
35.92005,60484
35.92817,68361
35.93630,65639
35.94442,60350
35.95253,62377
35.96067,64589
35.96878,61884
35.97692,62742
35.98503,63302
35.99315,63762
36.00128,66774
36.00940,69128
36.01753,65674
36.02565,69463
36.03377,66163
36.04190,66238
36.05002,64810
36.05815,59954
36.06627,67942
36.07438,63719
36.08252,62945
36.09063,61955
36.09875,68113
36.10688,64168
36.11500,65673
36.12313,66483
36.13125,69040
36.13937,70338
36.14750,71146
36.15562,70869
36.16375,77789
36.17187,101719
36.17998,162938
36.18812,287871
36.19623,446223
36.20435,578333
36.21248,628437
36.22060,573613
36.22873,461582
36.23685,332914
36.24497,233433
36.25310,163236
36.26122,125954
36.26935,98735
36.27747,95140
36.28558,89585
36.29372,89650
36.30183,85520
36.30997,87192
36.31808,85289
36.32620,81113
36.33433,75597
36.34245,76123
36.35057,75085
36.35870,73758
36.36682,77906
36.37495,72047
36.38307,74361
36.39118,74161
36.39932,73301
36.40743,72628
36.41557,67982
36.42368,67131
36.43180,64650
36.43993,69311
36.44805,66594
36.45618,67437
36.46430,67945
36.47242,66634
36.48055,69574
36.48867,67537
36.49678,66212
36.50492,70331
36.51303,68875
36.52117,70565
36.52928,73119
36.53740,83579
36.54553,83469
36.55365,91556
36.56178,90074
36.56990,88257
36.57802,83625
36.58615,76779
36.59427,72695
36.60238,71637
36.61052,70801
36.61863,63513
36.62677,67393
36.63488,66730
36.64300,66225
36.65113,70194
36.65925,66304
36.66738,69546
36.67550,67548
36.68362,71182
36.69175,66847
36.69987,62427
36.70800,70730
36.71612,67836
36.72423,63036
36.73237,66958
36.74048,68047
36.74860,62181
36.75673,66401
36.76485,64098
36.77298,62993
36.78110,66668
36.78922,63611
36.79735,66801
36.80547,68004
36.81360,62433
36.82172,66109
36.82983,64491
36.83797,61847
36.84608,66010
36.85422,61099
36.86233,65935
36.87045,67532
36.87858,64638
36.88670,62848
36.89482,64833
36.90295,63783
36.91107,66080
36.91920,65794
36.92732,66139
36.93543,75081
36.94357,71717
36.95168,72340
36.95982,74055
36.96793,70026
36.97605,74656
36.98418,69969
36.99230,75454
37.00042,81308
37.00855,81170
37.01667,85238
37.02480,83363
37.03292,81472
37.04103,78715
37.04917,72235
37.05728,73211
37.06542,75912
37.07353,79031
37.08165,82985
37.08978,78956
37.09790,80761
37.10603,83235
37.11415,77401
37.12227,70944
37.13040,70919
37.13852,74419
37.14663,71741
37.15477,69805
37.16288,70128
37.17102,70297
37.17913,67532
37.18725,73621
37.19538,81249
37.20350,109021
37.21163,162037
37.21975,262122
37.22787,393202
37.23600,558827
37.24412,669488
37.25223,731881
37.26037,716443
37.26848,665806
37.27662,578029
37.28473,494325
37.29285,423931
37.30098,367034
37.30910,314833
37.31723,263364
37.32535,242024
37.33347,223794
37.34160,211368
37.34972,198673
37.35785,196036
37.36597,184752
37.37408,173627
37.38222,155389
37.39033,145327
37.39845,137454
37.40658,136659
37.41470,132149
37.42283,126337
37.43095,123841
37.43907,123173
37.44720,122455
37.45532,120552
37.46345,120367
37.47157,116427
37.47968,112535
37.48782,116040
