Z:\data\JTB-E02\BACandBLUE\JTB-E02-208-12.D Thu Mar 14 10:54:39 2019
Start of data points
2.09537,56418
2.10348,59714
2.11162,53504
2.11973,52194
2.12785,53874
2.13598,53359
2.14410,57433
2.15223,49031
2.16035,53423
2.16847,54083
2.17660,50996
2.18472,48577
2.19285,48097
2.20097,51325
2.20908,47090
2.21722,47078
2.22533,44605
2.23347,43865
2.24158,45410
2.24970,44207
2.25783,48612
2.26595,58809
2.27407,361060
2.28220,1395144
2.29032,1100038
2.29845,471799
2.30657,304338
2.31468,247925
2.32282,215397
2.33093,195368
2.33907,180012
2.34718,159368
2.35530,144835
2.36343,135013
2.37155,124656
2.37967,118628
2.38780,121338
2.39592,114065
2.40405,104689
2.41217,107703
2.42028,105614
2.42842,102656
2.43653,101160
2.44467,98930
2.45278,105591
2.46090,99254
2.46903,97579
2.47715,90793
2.48528,87238
2.49340,90068
2.50152,89147
2.50965,89209
2.51777,88164
2.52588,84010
2.53402,84090
2.54213,85148
2.55027,88016
2.55838,103268
2.56650,156682
2.57463,171877
2.58275,145027
2.59088,123164
2.59900,113313
2.60712,177059
2.61525,479845
2.62337,578283
2.63150,367700
2.63962,243393
2.64773,173793
2.65587,151946
2.66398,129119
2.67210,115218
2.68023,107612
2.68835,100015
2.69648,96099
2.70460,94612
2.71272,92393
2.72085,86706
2.72897,90779
2.73710,85880
2.74522,86330
2.75333,83861
2.76147,79922
2.76958,81121
2.77770,85309
2.78583,80004
2.79395,78061
2.80208,81311
2.81020,82794
2.81832,84586
2.82645,79395
2.83457,76845
2.84270,75125
2.85082,77484
2.85893,73730
2.86707,78321
2.87518,76118
2.88332,81113
2.89143,73997
2.89955,73347
2.90768,75848
2.91580,72446
2.92392,68902
2.93205,72923
2.94017,73994
2.94830,73764
2.95642,70285
2.96453,77413
2.97267,92930
2.98078,85249
2.98892,76251
2.99703,76255
3.00515,76733
3.01328,76929
3.02140,78708
3.02953,70832
3.03765,68682
3.04577,70081
3.05390,73068
3.06202,71603
3.07013,63815
3.07827,77851
3.08638,260417
3.09452,1074101
3.10263,2291738
3.11075,3788400
3.11888,4801630
3.12700,3593409
3.13513,2259425
3.14325,1697100
3.15137,1340372
3.15950,1079077
3.16762,900376
3.17573,736454
3.18387,623667
3.19198,531902
3.20012,453225
3.20823,405218
3.21635,371975
3.22448,331976
3.23260,289836
3.24073,268666
3.24885,242889
3.25697,231707
3.26510,215995
3.27322,201057
3.28135,193775
3.28947,249346
3.29758,701810
3.30572,2253932
3.31383,4501355
3.32195,5289339
3.33008,4083662
3.33820,2575961
3.34633,1690933
3.35445,1237809
3.36257,956578
3.37070,790492
3.37882,663358
3.38695,567040
3.39507,500711
3.40318,458123
3.41132,401100
3.41943,375847
3.42755,343739
3.43568,321008
3.44380,310931
3.45193,289385
3.46005,274193
3.46817,282524
3.47630,297646
3.48442,309203
3.49255,288306
3.50067,262744
3.50878,252199
3.51692,241382
3.52503,231637
3.53317,214802
3.54128,207033
3.54940,194591
3.55753,206667
3.56565,219319
3.57377,284622
3.58190,397090
3.59002,417351
3.59815,327984
3.60627,267644
3.61438,247383
3.62252,236070
3.63063,233605
3.63877,223178
3.64688,210188
3.65500,191441
3.66313,191480
3.67125,183617
3.67938,183995
3.68750,171139
3.69562,174910
3.70375,163362
3.71187,168885
3.71998,162569
3.72812,159050
3.73623,151772
3.74437,152817
3.75248,148869
3.76060,154806
3.76873,148148
3.77685,142857
3.78498,143939
3.79310,150413
3.80122,219262
3.80935,705375
3.81747,2072016
3.82558,3122758
3.83372,2595287
3.84183,1660056
3.84997,1156125
3.85808,907163
3.86620,782419
3.87433,685875
3.88245,616542
3.89058,546366
3.89870,499425
3.90682,463850
3.91495,418113
3.92307,382847
3.93120,382817
3.93932,361764
3.94743,397171
3.95557,770579
3.96368,1890854
3.97180,3402682
3.97993,3584567
3.98805,2477872
3.99618,1788669
4.00430,3317645
4.01242,8958836
4.02055,1.533547E+07
4.02867,1.571706E+07
4.03680,1.065617E+07
4.04492,5689754
4.05303,3345195
4.06117,2337330
4.06928,1757906
4.07742,1409282
4.08553,1150464
4.09365,973493
4.10178,844256
4.10990,734608
4.11802,664689
4.12615,594197
4.13427,549288
4.14240,515507
4.15052,512215
4.15863,502460
4.16677,482517
4.17488,449574
4.18302,457584
4.19113,430011
4.19925,380316
4.20738,354774
4.21550,334850
4.22362,336800
4.23175,392264
4.23987,437578
4.24800,394742
4.25612,356648
4.26423,309536
4.27237,274827
4.28048,264408
4.28862,249205
4.29673,243979
4.30485,233445
4.31298,222709
4.32110,216905
4.32923,214863
4.33735,223593
4.34547,214231
4.35360,208255
4.36172,201756
4.36983,200384
4.37797,194598
4.38608,188091
4.39422,197189
4.40233,187794
4.41045,187569
4.41858,176897
4.42670,177272
4.43483,180995
4.44295,179675
4.45107,174540
4.45920,169341
4.46732,172202
4.47543,159541
4.48357,160833
4.49168,155706
4.49982,153377
4.50793,152920
4.51605,157003
4.52418,147507
4.53230,148714
4.54043,151643
4.54855,142778
4.55667,139342
4.56480,142753
4.57292,142057
4.58105,142886
4.58917,148332
4.59728,136881
4.60542,136962
4.61353,132747
4.62165,138691
4.62978,140399
4.63790,124932
4.64603,135735
4.65415,135723
4.66227,131331
4.67040,130662
4.67852,133194
4.68665,139896
4.69477,141245
4.70288,131749
4.71102,126363
4.71913,132492
4.72727,125088
4.73538,123901
4.74350,120185
4.75163,119901
4.75975,119614
4.76787,124616
4.77600,122671
4.78412,119938
4.79225,117070
4.80037,126299
4.80848,153277
4.81662,167575
4.82473,162258
4.83287,154987
4.84098,170895
4.84910,187952
4.85723,185357
4.86535,171154
4.87347,153827
4.88160,146283
4.88972,135314
4.89785,133199
4.90597,125861
4.91408,127098
4.92222,124765
4.93033,123058
4.93847,139612
4.94658,229213
4.95470,464266
4.96283,922485
4.97095,1393976
4.97908,1537763
4.98720,1327970
4.99532,998433
5.00345,732826
5.01157,561718
5.01968,465213
5.02782,400015
5.03593,348263
5.04407,320680
5.05218,291721
5.06030,271623
5.06843,248688
5.07655,251997
5.08468,243164
5.09280,228638
5.10092,229611
5.10905,206619
5.11717,197433
5.12530,195885
5.13342,194251
5.14153,191739
5.14967,196712
5.15778,180172
5.16590,190773
5.17403,180553
5.18215,175965
5.19028,181176
5.19840,173343
5.20652,178182
5.21465,178672
5.22277,177050
5.23090,172548
5.23902,187252
5.24713,188582
5.25527,193000
5.26338,185979
5.27150,169175
5.27963,152792
5.28775,152073
5.29588,159191
5.30400,145228
5.31212,142003
5.32025,141811
5.32837,152785
5.33650,174123
5.34462,205269
5.35273,225331
5.36087,213110
5.36898,182783
5.37712,166088
5.38523,162826
5.39335,174902
5.40148,174163
5.40960,169916
5.41772,146769
5.42585,148766
5.43397,147605
5.44210,154299
5.45022,151359
5.45833,157720
5.46647,152069
5.47458,137427
5.48272,138911
5.49083,133431
5.49895,131278
5.50708,131211
5.51520,131971
5.52333,143794
5.53145,150225
5.53957,140186
5.54770,135912
5.55582,125540
5.56393,126451
5.57207,125825
5.58018,127499
5.58832,138838
5.59643,139124
5.60455,144228
5.61268,137997
5.62080,129816
5.62893,135331
5.63705,133219
5.64517,141606
5.65330,144340
5.66142,134148
5.66953,132711
5.67767,134140
5.68578,157255
5.69392,192558
5.70203,224342
5.71015,219768
5.71828,183862
5.72640,160131
5.73453,135120
5.74265,131681
5.75077,133896
5.75890,120718
5.76702,123894
5.77515,121261
5.78327,116774
5.79138,116852
5.79952,111632
5.80763,110480
5.81575,109848
5.82388,103999
5.83200,109932
5.84013,116415
5.84825,116538
5.85637,108385
5.86450,116759
5.87262,105395
5.88075,114698
5.88887,109679
5.89698,102943
5.90512,102240
5.91323,93836
5.92137,91206
5.92948,86689
5.93760,79647
5.94573,82939
5.95385,80094
5.96197,90625
5.97010,86767
5.97822,95476
5.98635,118085
5.99447,123373
6.00258,119551
6.01072,104693
6.01883,101688
6.02697,94655
6.03508,90634
6.04320,91204
6.05133,86515
6.05945,79501
6.06757,84462
6.07570,80832
6.08382,85083
6.09195,81892
6.10007,81404
6.10818,83772
6.11632,82756
6.12443,77621
6.13257,85786
6.14068,82983
6.14880,89370
6.15693,89434
6.16505,94154
6.17318,95533
6.18130,94862
6.18942,101249
6.19755,92102
6.20567,93518
6.21378,97510
6.22192,101704
6.23003,106358
6.23817,108993
6.24628,112256
6.25440,115336
6.26253,109956
6.27065,111322
6.27878,110557
6.28690,117349
6.29502,112553
6.30315,126029
6.31127,121445
6.31938,126571
6.32752,126333
6.33563,133455
6.34377,128221
6.35188,134772
6.36000,134965
6.36813,136669
6.37625,140845
6.38438,131196
6.39250,140738
6.40062,147411
6.40875,144231
6.41687,146577
6.42500,145932
6.43312,147753
6.44123,153434
6.44937,147151
6.45748,158199
6.46560,146313
6.47373,151035
6.48185,156716
6.48998,162875
6.49810,156922
6.50622,161865
6.51435,157728
6.52247,173543
6.53060,170646
6.53872,167563
6.54683,176358
6.55497,169499
6.56308,165329
6.57122,171943
6.57933,176557
6.58745,177290
6.59558,168953
6.60370,173989
6.61182,178397
6.61995,174937
6.62807,181424
6.63620,182032
6.64432,202760
6.65243,265007
6.66057,500139
6.66868,1026474
6.67682,1651092
6.68493,1866916
6.69305,1482206
6.70118,971976
6.70930,640029
6.71742,477504
6.72555,402007
6.73367,365284
6.74180,323906
6.74992,262836
6.75803,234241
6.76617,206293
6.77428,186915
6.78242,175496
6.79053,163865
6.79865,153450
6.80678,151912
6.81490,144322
6.82303,140738
6.83115,137380
6.83927,134833
6.84740,146233
6.85552,155810
6.86363,177529
6.87177,175745
6.87988,166744
6.88802,149110
6.89613,127858
6.90425,106009
6.91238,97244
6.92050,86364
6.92863,89452
6.93675,93036
6.94487,84986
6.95300,80526
6.96112,87842
6.96925,102909
6.97737,131120
6.98548,154400
6.99362,170385
7.00173,151396
7.00985,129514
7.01798,104819
7.02610,96258
7.03423,87642
7.04235,87851
7.05047,90823
7.05860,85992
7.06672,82475
7.07485,81371
7.08297,83153
7.09108,77800
7.09922,77825
7.10733,79197
7.11545,79436
7.12358,73857
7.13170,77003
7.13983,81171
7.14795,93907
7.15607,124985
7.16420,160759
7.17232,190227
7.18045,184120
7.18857,152241
7.19668,128221
7.20482,107395
7.21293,96378
7.22107,90595
7.22918,98667
7.23730,107080
7.24543,114299
7.25355,109619
7.26167,97136
7.26980,86483
7.27792,79420
7.28605,76725
7.29417,75682
7.30228,72018
7.31042,73918
7.31853,68359
7.32667,71568
7.33478,70939
7.34290,65649
7.35103,63231
7.35915,66721
7.36728,71116
7.37540,71313
7.38352,73940
7.39165,72012
7.39977,70900
7.40788,66777
7.41602,68441
7.42413,71053
7.43227,70060
7.44038,69472
7.44850,70034
7.45663,68215
7.46475,68705
7.47288,65944
7.48100,68416
7.48912,63595
7.49725,63196
7.50537,60095
7.51348,60553
7.52162,63752
7.52973,58007
7.53787,57133
7.54598,62397
7.55410,58694
7.56223,61894
7.57035,57620
7.57848,60218
7.58660,56259
7.59472,54889
7.60285,58450
7.61097,58076
7.61910,57367
7.62722,61367
7.63533,60169
7.64347,54079
7.65158,54755
7.65970,62212
7.66783,57833
7.67595,55071
7.68408,57021
7.69220,56501
7.70032,58345
7.70845,52190
7.71657,52317
7.72470,53426
7.73282,53752
7.74093,56205
7.74907,55515
7.75718,55918
7.76530,51672
7.77343,51117
7.78155,53913
7.78968,54230
7.79780,53637
7.80592,60956
7.81405,64789
7.82217,57555
7.83030,59179
7.83842,50687
7.84653,48565
7.85467,51151
7.86278,53234
7.87092,50879
7.87903,49962
7.88715,55230
7.89528,53630
7.90340,51615
7.91152,48169
7.91965,55325
7.92777,88390
7.93590,138732
7.94402,229588
7.95213,324011
7.96027,366389
7.96838,303243
7.97652,223253
7.98463,154252
7.99275,107390
8.00088,87458
8.00900,78225
8.01713,65571
8.02525,66933
8.03337,64152
8.04150,57906
8.04962,59289
8.05773,56654
8.06587,57889
8.07398,55792
8.08212,51464
8.09023,52369
8.09835,50111
8.10648,47845
8.11460,49370
8.12273,51924
8.13085,50463
8.13897,52568
8.14710,57000
8.15522,56789
8.16333,53795
8.17147,58515
8.17958,54231
8.18772,49426
8.19583,51218
8.20395,50057
8.21208,51931
8.22020,49583
8.22833,52629
8.23645,52256
8.24457,53361
8.25270,52078
8.26082,49720
8.26895,47556
8.27707,50879
8.28518,45938
8.29332,46349
8.30143,47218
8.30955,47725
8.31768,52960
8.32580,55484
8.33393,54132
8.34205,48801
8.35017,51017
8.35830,48068
8.36642,52092
8.37455,52723
8.38267,56380
8.39078,55989
8.39892,56045
8.40703,51583
8.41517,49155
8.42328,47875
8.43140,46136
8.43953,53027
8.44765,44807
8.45577,43642
8.46390,44527
8.47202,45739
8.48015,45650
8.48827,45905
8.49638,46523
8.50452,44711
8.51263,45827
8.52077,50230
8.52888,69414
8.53700,122382
8.54513,228026
8.55325,354208
8.56137,440907
8.56950,391214
8.57762,298304
8.58575,181284
8.59387,124907
8.60198,93280
8.61012,83866
8.61823,78929
8.62637,74538
8.63448,70421
8.64260,69419
8.65073,68559
8.65885,59707
8.66698,56861
8.67510,55031
8.68322,57366
8.69135,56427
8.69947,58193
8.70758,56871
8.71572,54361
8.72383,52997
8.73197,51377
8.74008,51306
8.74820,49861
8.75633,57273
8.76445,62888
8.77258,108952
8.78070,187163
8.78882,344734
8.79695,465255
8.80507,538243
8.81318,478363
8.82132,353825
8.82943,243793
8.83757,174978
8.84568,136361
8.85380,124248
8.86193,126754
8.87005,121985
8.87818,121314
8.88630,117466
8.89442,108403
8.90255,105573
8.91067,93986
8.91880,94977
8.92692,93477
8.93503,85312
8.94317,83854
8.95128,80899
8.95940,80141
8.96753,82622
8.97565,75779
8.98378,79796
8.99190,74415
9.00002,78743
9.00815,79506
9.01627,79298
9.02440,74783
9.03252,71618
9.04063,67755
9.04877,69822
9.05688,68162
9.06502,62894
9.07313,69166
9.08125,65405
9.08938,70615
9.09750,67022
9.10562,68170
9.11375,69559
9.12187,66974
9.13000,64557
9.13812,65214
9.14623,66958
9.15437,68335
9.16248,64067
9.17062,64960
9.17873,64514
9.18685,58924
9.19498,58298
9.20310,62316
9.21122,61815
9.21935,57974
9.22747,59035
9.23560,60822
9.24372,58186
9.25183,54017
9.25997,59144
9.26808,53107
9.27622,54959
9.28433,53955
9.29245,54531
9.30058,57113
9.30870,53876
9.31683,54258
9.32495,54519
9.33307,63542
9.34120,63343
9.34932,59154
9.35743,61020
9.36557,61705
9.37368,59752
9.38182,55907
9.38993,54379
9.39805,50759
9.40618,51492
9.41430,49995
9.42243,50035
9.43055,55240
9.43867,55982
9.44680,57602
9.45492,55624
9.46305,54975
9.47117,54093
9.47928,55638
9.48742,49608
9.49553,50495
9.50365,53803
9.51178,57528
9.51990,56247
9.52803,65351
9.53615,64930
9.54427,71207
9.55240,83645
9.56052,78714
9.56865,84117
9.57677,80666
9.58488,76862
9.59302,74628
9.60113,70583
9.60925,73716
9.61738,62198
9.62550,57864
9.63363,48748
9.64175,46722
9.64987,46642
9.65800,43236
9.66612,42442
9.67425,41816
9.68237,42040
9.69048,41864
9.69862,39661
9.70673,39281
9.71487,39650
9.72298,38081
9.73110,38678
9.73923,36594
9.74735,36803
9.75547,36533
9.76360,37605
9.77172,34604
9.77985,36617
9.78797,40792
9.79608,38709
9.80422,35712
9.81233,36233
9.82047,36204
9.82858,39519
9.83670,42259
9.84483,40407
9.85295,38441
9.86107,39134
9.86920,46702
9.87732,40692
9.88545,41432
9.89357,37291
9.90168,35713
9.90982,36642
9.91793,35935
9.92607,34426
9.93418,37514
9.94230,41531
9.95043,51706
9.95855,57566
9.96668,62441
9.97480,63870
9.98292,63824
9.99105,53327
9.99917,47631
10.00728,47380
10.01542,48885
10.02353,49322
10.03167,44635
10.03978,42726
10.04790,40509
10.05603,41119
10.06415,39493
10.07228,39820
10.08040,39814
10.08852,40801
10.09665,48669
10.10477,47456
10.11290,51119
10.12102,50849
10.12913,44274
10.13727,40643
10.14538,38723
10.15350,39283
10.16163,33751
10.16975,36751
10.17788,37279
10.18600,38714
10.19412,39218
10.20225,36994
10.21037,35998
10.21850,37373
10.22662,40628
10.23473,40813
10.24287,46019
10.25098,52827
10.25912,52214
10.26723,56060
10.27535,54141
10.28348,46391
10.29160,44167
10.29972,44000
10.30785,43739
10.31597,50888
10.32410,46623
10.33222,47199
10.34033,53212
10.34847,56541
10.35658,51996
10.36472,55706
10.37283,52521
10.38095,48933
10.38908,49153
10.39720,45600
10.40532,46342
10.41345,41283
10.42157,45101
10.42970,48165
10.43782,40891
10.44593,40942
10.45407,42296
10.46218,36290
10.47032,34506
10.47843,37207
10.48655,40956
10.49468,36416
10.50280,37185
10.51093,39123
10.51905,35502
10.52717,36226
10.53530,39388
10.54342,36704
10.55153,36665
10.55967,38827
10.56778,35466
10.57592,35788
10.58403,38650
10.59215,36827
10.60028,42314
10.60840,42829
10.61653,40532
10.62465,40261
10.63277,37157
10.64090,36160
10.64902,34372
10.65713,34421
10.66527,34388
10.67338,33638
10.68152,36968
10.68963,33332
10.69775,39409
10.70588,36332
10.71400,37443
10.72213,35429
10.73025,34486
10.73837,37033
10.74650,41102
10.75462,34219
10.76275,41293
10.77087,35548
10.77898,36599
10.78712,38232
10.79523,30882
10.80335,30523
10.81148,32799
10.81960,31616
10.82773,30083
10.83585,34653
10.84397,34191
10.85210,32926
10.86022,34305
10.86835,31370
10.87647,32583
10.88458,27931
10.89272,32759
10.90083,37629
10.90897,33910
10.91708,32827
10.92520,31361
10.93333,31305
10.94145,36803
10.94957,30446
10.95770,30830
10.96582,28089
10.97395,29417
10.98207,26768
10.99018,29815
10.99832,31063
11.00643,32694
11.01457,32115
11.02268,31953
11.03080,29568
11.03893,28396
11.04705,28188
11.05517,32403
11.06330,29848
11.07142,33610
11.07955,35695
11.08767,32689
11.09578,30374
11.10392,31458
11.11203,28330
11.12017,31769
11.12828,31981
11.13640,27510
11.14453,28518
11.15265,29799
11.16078,30081
11.16890,27677
11.17702,29661
11.18515,31687
11.19327,33976
11.20138,36134
11.20952,33908
11.21763,35110
11.22577,33225
11.23388,32598
11.24200,31688
11.25013,29700
11.25825,30389
11.26638,29932
11.27450,30051
11.28262,28722
11.29075,36923
11.29887,34642
11.30700,31697
11.31512,33730
11.32323,33276
11.33137,33402
11.33948,37387
11.34760,34188
11.35573,30762
11.36385,29402
11.37198,33601
11.38010,29728
11.38822,30446
11.39635,31125
11.40447,28735
11.41260,28695
11.42072,27353
11.42883,30115
11.43697,29361
11.44508,29303
11.45320,30454
11.46133,27147
11.46945,33251
11.47758,34840
11.48570,50266
11.49382,70278
11.50195,92212
11.51007,97960
11.51820,102705
11.52632,93941
11.53443,73949
11.54257,58881
11.55068,50632
11.55882,45580
11.56693,44235
11.57505,40381
11.58318,40849
11.59130,38892
11.59942,35615
11.60755,34692
11.61567,37562
11.62380,38814
11.63192,36592
11.64003,36308
11.64817,34238
11.65628,33392
11.66442,32135
11.67253,32756
11.68065,36151
11.68878,33909
11.69690,32860
11.70502,33102
11.71315,37436
11.72127,37649
11.72940,37172
11.73752,34958
11.74563,34106
11.75377,37297
11.76188,32433
11.77002,35516
11.77813,32563
11.78625,30694
11.79438,34624
11.80250,33736
11.81063,33555
11.81875,32684
11.82687,34827
11.83500,35250
11.84312,38163
11.85123,46706
11.85937,48152
11.86748,56483
11.87562,62548
11.88373,52769
11.89185,50166
11.89998,41569
11.90810,36957
11.91623,35747
11.92435,36763
11.93247,37844
11.94060,37759
11.94872,39915
11.95685,35326
11.96497,33085
11.97308,33768
11.98122,33815
11.98933,36146
11.99745,43409
12.00558,49677
12.01370,61868
12.02183,71057
12.02995,73115
12.03807,61520
12.04620,62051
12.05432,43898
12.06245,41867
12.07057,41648
12.07868,37827
12.08682,35042
12.09493,31624
12.10305,32405
12.11118,34658
12.11930,33459
12.12743,41288
12.13555,34414
12.14367,36481
12.15180,32106
12.15992,34025
12.16805,38293
12.17617,32896
12.18428,29948
12.19242,32537
12.20053,33141
12.20867,31573
12.21678,38296
12.22490,32540
12.23303,28839
12.24115,30457
12.24927,32127
12.25740,29425
12.26552,32124
12.27365,31740
12.28177,30542
12.28988,32940
12.29802,34468
12.30613,32326
12.31427,31115
12.32238,29534
12.33050,29327
12.33863,30022
12.34675,31062
12.35488,31751
12.36300,29541
12.37112,32437
12.37925,34924
12.38737,30988
12.39548,31978
12.40362,28582
12.41173,29029
12.41987,32165
12.42798,31231
12.43610,29023
12.44423,33261
12.45235,35350
12.46048,34178
12.46860,32873
12.47672,34765
12.48485,30180
12.49297,32351
12.50108,26953
12.50922,27923
12.51733,30989
12.52547,32404
12.53358,34652
12.54170,28552
12.54983,29784
12.55795,31392
12.56608,32731
12.57420,35746
12.58232,40206
12.59045,37133
12.59857,34912
12.60670,34005
12.61482,35954
12.62293,29116
12.63107,31711
12.63918,31936
12.64730,30491
12.65543,29801
12.66355,29139
12.67168,28658
12.67980,29562
12.68792,31124
12.69605,28791
12.70417,26238
12.71230,34296
12.72042,35993
12.72853,37927
12.73667,38814
12.74478,41514
12.75292,40437
12.76103,39086
12.76915,36121
12.77728,33755
12.78540,30034
12.79352,29555
12.80165,36703
12.80977,26416
12.81790,28899
12.82602,28998
12.83413,28919
12.84227,30356
12.85038,28341
12.85852,30959
12.86663,25977
12.87475,32494
12.88288,28770
12.89100,30795
12.89912,32261
12.90725,29276
12.91537,31033
12.92350,28832
12.93162,29506
12.93973,30316
12.94787,25541
12.95598,26778
12.96412,28454
12.97223,27392
12.98035,28478
12.98848,31797
12.99660,32231
13.00473,32643
13.01285,32601
13.02097,27523
13.02910,33090
13.03722,31137
13.04533,28066
13.05347,26715
13.06158,27316
13.06972,29059
13.07783,32277
13.08595,30036
13.09408,31096
13.10220,29647
13.11033,28417
13.11845,28599
13.12657,27661
13.13470,30157
13.14282,29328
13.15093,29199
13.15907,26525
13.16718,29272
13.17532,30943
13.18343,39276
13.19155,31677
13.19968,28340
13.20780,29829
13.21593,34129
13.22405,36486
13.23217,38699
13.24030,32457
13.24842,33286
13.25655,31239
13.26467,33254
13.27278,28984
13.28092,29534
13.28903,27208
13.29715,28424
13.30528,27010
13.31340,25282
13.32153,28530
13.32965,29923
13.33777,30925
13.34590,28360
13.35402,29462
13.36215,24631
13.37027,25236
13.37838,28266
13.38652,26512
13.39463,25600
13.40277,26279
13.41088,25185
13.41900,24534
13.42713,27717
13.43525,29926
13.44337,27823
13.45150,23470
13.45962,25204
13.46775,26707
13.47587,27561
13.48398,23714
13.49212,25125
13.50023,33873
13.50837,31465
13.51648,24857
13.52460,27596
13.53273,29198
13.54085,27280
13.54897,28945
13.55710,32678
13.56522,28442
13.57335,29182
13.58147,33478
13.58958,32034
13.59772,29186
13.60583,25956
13.61397,29380
13.62208,29569
13.63020,25655
13.63833,25199
13.64645,24333
13.65458,27020
13.66270,26166
13.67082,26437
13.67895,23335
13.68707,25386
13.69518,27464
13.70332,25858
13.71143,27323
13.71957,27449
13.72768,26968
13.73580,31505
13.74393,35003
13.75205,40801
13.76018,46953
13.76830,65029
13.77642,89254
13.78455,111932
13.79267,134980
13.80080,115932
13.80892,96343
13.81703,73675
13.82517,57979
13.83328,45844
13.84140,43955
13.84953,38648
13.85765,41184
13.86578,41272
13.87390,39944
13.88202,38369
13.89015,42945
13.89827,32841
13.90640,32657
13.91452,33560
13.92263,31441
13.93077,34462
13.93888,34094
13.94700,34715
13.95513,39456
13.96325,50033
13.97138,73959
13.97950,99329
13.98762,134013
13.99575,154832
14.00387,140812
14.01200,126166
14.02012,106194
14.02823,78019
14.03637,66029
14.04448,57525
14.05262,54023
14.06073,51146
14.06885,49096
14.07698,52015
14.08510,48472
14.09322,43308
14.10135,49948
14.10947,42286
14.11760,43110
14.12572,42697
14.13383,41475
14.14197,40355
14.15008,43316
14.15822,42208
14.16633,40077
14.17445,44275
14.18258,43582
14.19070,41767
14.19882,52262
14.20695,61853
14.21507,77487
14.22320,89858
14.23132,108263
14.23943,107356
14.24757,103937
14.25568,99244
14.26382,84080
14.27193,83950
14.28005,76633
14.28818,70038
14.29630,65907
14.30443,70157
14.31255,59693
14.32067,52898
14.32880,52663
14.33692,55061
14.34503,52230
14.35317,49096
14.36128,47547
14.36942,44221
14.37753,43580
14.38565,39432
14.39378,37119
14.40190,39350
14.41003,33920
14.41815,35109
14.42627,31976
14.43440,32323
14.44252,32554
14.45065,31152
14.45877,33441
14.46688,34392
14.47502,35564
14.48313,31064
14.49125,30374
14.49938,28562
14.50750,30710
14.51563,31156
14.52375,32577
14.53187,35669
14.54000,38573
14.54812,37167
14.55625,35785
14.56437,31298
14.57248,33980
14.58062,32551
14.58873,33238
14.59685,31259
14.60498,29739
14.61310,29560
14.62123,30558
14.62935,31623
14.63747,29802
14.64560,28859
14.65372,27192
14.66185,29830
14.66997,27865
14.67808,26584
14.68622,26413
14.69433,26378
14.70247,28467
14.71058,30646
14.71870,29395
14.72683,27083
14.73495,28740
14.74307,31571
14.75120,33844
14.75932,32333
14.76745,33101
14.77557,31318
14.78368,33452
14.79182,32806
14.79993,30728
14.80807,29284
14.81618,29765
14.82430,28794
14.83243,30897
14.84055,34793
14.84868,33480
14.85680,30922
14.86492,32639
14.87305,32140
14.88117,29878
14.88928,28718
14.89742,28972
14.90553,32180
14.91367,33259
14.92178,31491
14.92990,29310
14.93803,29244
14.94615,30616
14.95428,29609
14.96240,36021
14.97052,28406
14.97865,30839
14.98677,28694
14.99488,27408
15.00302,30844
15.01113,29448
15.01927,30537
15.02738,27335
15.03550,30496
15.04363,30458
15.05175,31234
15.05988,27313
15.06800,28324
15.07612,32334
15.08425,28546
15.09237,33776
15.10050,28806
15.10862,27650
15.11673,28251
15.12487,26197
15.13298,26776
15.14110,22905
15.14923,25672
15.15735,29580
15.16548,28527
15.17360,29256
15.18172,29771
15.18985,29094
15.19797,27788
15.20610,28089
15.21422,30068
15.22233,26042
15.23047,28058
15.23858,23209
15.24670,26433
15.25483,26228
15.26295,24321
15.27108,27094
15.27920,26094
15.28732,29251
15.29545,28206
15.30357,28971
15.31170,24652
15.31982,27390
15.32793,27587
15.33607,25817
15.34418,34388
15.35232,24913
15.36043,29892
15.36855,25367
15.37668,26710
15.38480,26751
15.39292,25823
15.40105,29883
15.40917,23302
15.41730,24061
15.42542,26899
15.43353,24151
15.44167,29929
15.44978,25880
15.45792,28191
15.46603,25367
15.47415,21816
15.48228,22801
15.49040,25677
15.49853,23963
15.50665,26930
15.51477,27325
15.52290,28433
15.53102,34987
15.53913,37113
15.54727,40205
15.55538,43013
15.56352,37185
15.57163,36226
15.57975,35501
15.58788,28869
15.59600,29436
15.60413,28939
15.61225,28339
15.62037,28876
15.62850,27221
15.63662,28501
15.64475,24478
15.65287,26231
15.66098,26934
15.66912,23976
15.67723,26158
15.68535,28853
15.69348,24278
15.70160,27569
15.70973,30589
15.71785,26414
15.72597,27713
15.73410,26650
15.74222,25308
15.75035,27729
15.75847,23786
15.76658,25182
15.77472,28808
15.78283,31945
15.79095,37067
15.79908,43729
15.80720,41535
15.81533,41705
15.82345,35611
15.83157,35228
15.83970,33075
15.84782,32386
15.85595,30633
15.86407,28951
15.87218,28288
15.88032,26991
15.88843,31418
15.89657,29157
15.90468,25635
15.91280,31848
15.92093,36404
15.92905,32418
15.93717,32005
15.94530,31402
15.95342,31993
15.96155,33332
15.96967,39177
15.97778,46196
15.98592,47868
15.99403,56457
16.00217,57357
16.01028,55688
16.01840,55754
16.02653,56966
16.03465,57548
16.04277,65024
16.05090,57627
16.05902,52051
16.06715,46859
16.07527,43950
16.08338,44068
16.09152,34773
16.09963,33859
16.10777,38244
16.11588,36262
16.12400,34780
16.13213,35239
16.14025,33001
16.14838,32231
16.15650,33334
16.16462,30581
16.17275,28619
16.18087,32544
16.18898,30604
16.19712,30983
16.20523,31433
16.21337,27993
16.22148,29100
16.22960,28028
16.23773,30651
16.24585,29881
16.25398,30543
16.26210,28066
16.27022,24667
16.27835,30082
16.28647,26104
16.29460,27552
16.30272,27552
16.31083,29992
16.31897,30792
16.32708,30428
16.33520,31884
16.34333,31183
16.35145,33443
16.35958,39308
16.36770,50484
16.37582,60058
16.38395,67962
16.39207,77581
16.40020,74313
16.40832,64093
16.41643,55863
16.42457,47641
16.43268,40400
16.44080,37682
16.44893,37362
16.45705,36955
16.46518,31931
16.47330,30463
16.48142,33034
16.48955,36490
16.49767,31372
16.50580,32031
16.51392,31287
16.52203,31697
16.53017,28485
16.53828,31827
16.54642,30930
16.55453,27399
16.56265,31466
16.57078,31356
16.57890,29146
16.58702,30525
16.59515,31350
16.60327,32394
16.61140,39417
16.61952,42037
16.62763,46079
16.63577,46602
16.64388,44779
16.65202,40052
16.66013,33331
16.66825,34504
16.67638,31715
16.68450,31019
16.69263,33684
16.70075,33266
16.70887,28467
16.71700,28552
16.72512,26933
16.73323,26466
16.74137,28542
16.74948,32585
16.75762,27052
16.76573,26524
16.77385,34647
16.78198,29085
16.79010,31411
16.79823,29190
16.80635,30444
16.81447,29069
16.82260,34099
16.83072,28988
16.83883,28221
16.84697,24346
16.85508,27257
16.86322,26506
16.87133,26073
16.87945,26634
16.88758,24194
16.89570,27185
16.90383,26858
16.91195,27586
16.92007,28105
16.92820,23315
16.93632,26571
16.94445,29262
16.95257,30472
16.96068,26826
16.96882,25212
16.97693,24589
16.98505,26818
16.99318,22688
17.00130,25768
17.00943,26884
17.01755,26745
17.02567,25648
17.03380,23259
17.04192,27505
17.05005,27779
17.05817,33792
17.06628,25395
17.07442,25229
17.08253,25633
17.09065,27431
17.09878,26037
17.10690,24504
17.11503,27362
17.12315,26970
17.13127,31371
17.13940,27641
17.14752,29114
17.15565,27602
17.16377,26110
17.17188,26713
17.18002,26178
17.18813,27981
17.19627,26662
17.20438,26786
17.21250,25850
17.22063,25122
17.22875,25198
17.23687,26453
17.24500,27914
17.25312,28071
17.26125,27370
17.26937,32396
17.27748,28452
17.28562,29421
17.29373,26604
17.30187,31269
17.30998,26709
17.31810,26821
17.32623,25419
17.33435,31394
17.34248,30533
17.35060,31230
17.35872,28803
17.36685,30566
17.37497,28703
17.38308,29907
17.39122,34166
17.39933,28211
17.40747,29382
17.41558,32877
17.42370,31091
17.43183,31393
17.43995,28570
17.44808,31178
17.45620,27316
17.46432,27817
17.47245,30848
17.48057,28517
17.48868,30436
17.49682,29552
17.50493,30039
17.51307,28110
17.52118,25117
17.52930,31636
17.53743,30430
17.54555,27818
17.55368,31699
17.56180,29679
17.56992,29526
17.57805,35456
17.58617,31842
17.59430,31055
17.60242,29051
17.61053,26862
17.61867,27989
17.62678,28923
17.63490,34438
17.64303,44491
17.65115,62280
17.65928,89305
17.66740,132457
17.67552,170688
17.68365,187330
17.69177,172074
17.69990,138620
17.70802,109463
17.71613,91167
17.72427,69871
17.73238,61132
17.74052,54539
17.74863,52042
17.75675,51806
17.76488,47173
17.77300,45617
17.78112,45593
17.78925,46121
17.79737,41385
17.80550,42732
17.81362,39480
17.82173,40610
17.82987,46416
17.83798,47832
17.84612,49241
17.85423,48159
17.86235,44428
17.87048,43767
17.87860,42566
17.88672,35818
17.89485,38055
17.90297,32799
17.91110,33502
17.91922,29764
17.92733,28270
17.93547,33288
17.94358,31420
17.95172,30953
17.95983,30299
17.96795,29205
17.97608,30246
17.98420,30504
17.99233,27547
18.00045,30856
18.00857,26379
18.01670,27544
18.02482,30164
18.03293,27827
18.04107,27332
18.04918,30855
18.05732,34585
18.06543,30278
18.07355,33964
18.08168,38456
18.08980,44225
18.09793,53346
18.10605,53822
18.11417,58123
18.12230,53935
18.13042,45283
18.13855,42675
18.14667,40778
18.15478,43266
18.16292,39596
18.17103,41264
18.17915,44143
18.18728,51630
18.19540,44633
18.20353,42545
18.21165,39946
18.21977,39791
18.22790,36946
18.23602,33306
18.24415,35860
18.25227,35803
18.26038,31828
18.26852,32835
18.27663,34405
18.28475,34780
18.29288,34818
18.30100,34809
18.30913,30525
18.31725,29584
18.32537,28053
18.33350,30552
18.34162,27876
18.34975,30607
18.35787,27175
18.36598,31439
18.37412,31370
18.38223,29320
18.39037,27074
18.39848,29595
18.40660,29227
18.41473,27821
18.42285,29674
18.43097,27673
18.43910,28572
18.44722,28519
18.45535,26854
18.46347,27267
18.47158,26673
18.47972,27208
18.48783,28686
18.49597,27982
18.50408,30489
18.51220,24916
18.52033,25300
18.52845,28629
18.53657,28176
18.54470,27963
18.55282,29242
18.56095,25088
18.56907,28779
18.57718,26447
18.58532,29036
18.59343,28382
18.60157,30148
18.60968,32269
18.61780,27886
18.62593,30312
18.63405,34466
18.64218,29979
18.65030,36034
18.65842,28109
18.66655,27191
18.67467,30621
18.68278,31688
18.69092,27226
18.69903,24165
18.70717,31773
18.71528,28964
18.72340,26882
18.73153,29392
18.73965,30599
18.74778,27077
18.75590,26901
18.76402,26646
18.77215,26360
18.78027,25787
18.78840,25374
18.79652,31199
18.80463,27284
18.81277,27438
18.82088,25586
18.82900,26409
18.83713,28116
18.84525,27158
18.85338,25541
18.86150,29524
18.86962,27456
18.87775,22218
18.88587,26998
18.89400,26197
18.90212,22966
18.91023,26480
18.91837,28136
18.92648,28280
18.93460,30208
18.94273,27107
18.95085,27979
18.95898,26130
18.96710,30281
18.97522,29218
18.98335,29597
18.99147,30008
18.99960,29988
19.00772,31671
19.01583,29209
19.02397,29880
19.03208,34098
19.04022,33435
19.04833,32443
19.05645,28806
19.06458,32248
19.07270,31775
19.08082,34959
19.08895,34793
19.09707,42029
19.10520,45968
19.11332,56176
19.12143,56284
19.12957,53749
19.13768,53651
19.14582,52640
19.15393,51340
19.16205,52470
19.17018,54271
19.17830,59778
19.18643,54841
19.19455,63480
19.20267,62369
19.21080,58292
19.21892,56411
19.22703,59544
19.23517,44425
19.24328,41182
19.25142,38650
19.25953,37196
19.26765,39550
19.27578,35864
19.28390,38659
19.29203,39655
19.30015,39196
19.30827,38771
19.31640,45484
19.32452,44354
19.33263,46908
19.34077,43972
19.34888,49942
19.35702,52426
19.36513,51122
19.37325,46097
19.38138,45473
19.38950,38383
19.39763,38828
19.40575,42767
19.41387,37293
19.42200,34721
19.43012,37942
19.43825,36191
19.44637,33051
19.45448,36206
19.46262,33187
19.47073,32010
19.47885,31300
19.48698,31146
19.49510,31295
19.50323,40536
19.51135,44384
19.51947,53533
19.52760,58950
19.53572,66294
19.54385,62396
19.55197,57025
19.56008,46830
19.56822,42475
19.57633,35879
19.58445,38436
19.59258,32251
19.60070,33688
19.60883,29443
19.61695,26075
19.62507,29639
19.63320,31750
19.64132,32087
19.64945,42494
19.65757,52476
19.66568,68150
19.67382,93408
19.68193,115243
19.69007,123279
19.69818,120975
19.70630,98424
19.71443,86948
19.72255,61962
19.73067,59167
19.73880,46701
19.74692,51454
19.75505,49560
19.76317,41976
19.77128,41074
19.77942,36109
19.78753,38193
19.79567,36058
19.80378,36575
19.81190,41030
19.82003,42895
19.82815,45493
19.83628,43132
19.84440,50610
19.85252,114101
19.86065,336617
19.86877,1100078
19.87688,3235243
19.88502,7653663
19.89313,1.451315E+07
19.90127,2.212572E+07
19.90938,2.777978E+07
19.91750,3.072493E+07
19.92563,2.852146E+07
19.93375,2.238017E+07
19.94188,1.593714E+07
19.95000,1.041423E+07
19.95812,7072576
19.96625,5217395
19.97437,4284957
19.98248,3597435
19.99062,3282133
19.99873,2973153
20.00687,2727655
20.01498,2477887
20.02310,2292003
20.03123,2207202
20.03935,2017714
20.04748,1729884
20.05560,1496643
20.06372,1211915
20.07185,935952
20.07997,710086
20.08810,545820
20.09622,434290
20.10433,369015
20.11247,327479
20.12058,314285
20.12870,303628
20.13683,279599
20.14495,278799
20.15308,263721
20.16120,262948
20.16932,251935
20.17745,241097
20.18557,236799
20.19370,227942
20.20182,217919
20.20993,212384
20.21807,212258
20.22618,199277
20.23432,181572
20.24243,184510
20.25055,176767
20.25868,188864
20.26680,188328
20.27492,196149
20.28305,214600
20.29117,235845
20.29930,245626
20.30742,232780
20.31553,218419
20.32367,204669
20.33178,174583
20.33992,155540
20.34803,140447
20.35615,105582
20.36428,86343
20.37240,75264
20.38052,64731
20.38865,58543
20.39677,62026
20.40490,55540
20.41302,51501
20.42113,52769
20.42927,56701
20.43738,54363
20.44552,61326
20.45363,67562
20.46175,72506
20.46988,71041
20.47800,79054
20.48613,68896
20.49425,64941
20.50237,58714
20.51050,55000
20.51862,50220
20.52673,48322
20.53487,43618
20.54298,43139
20.55112,42872
20.55923,40747
20.56735,42212
20.57548,41726
20.58360,42191
20.59173,37576
20.59985,42127
20.60797,40692
20.61610,38726
20.62422,37213
20.63235,41036
20.64047,40730
20.64858,36200
20.65672,37364
20.66483,36311
20.67295,39351
20.68108,34533
20.68920,35911
20.69733,36692
20.70545,35683
20.71357,36967
20.72170,36403
20.72982,35586
20.73795,35502
20.74607,39157
20.75418,36664
20.76232,33748
20.77043,35211
20.77855,36600
20.78668,34343
20.79480,39797
20.80293,35746
20.81105,39111
20.81917,33876
20.82730,35583
20.83542,33684
20.84355,35722
20.85167,33505
20.85978,39304
20.86792,35062
20.87603,34586
20.88417,35792
20.89228,36807
20.90040,33316
20.90853,35489
20.91665,34216
20.92477,36536
20.93290,34187
20.94102,35099
20.94915,38732
20.95727,34106
20.96538,34724
20.97352,35587
20.98163,40745
20.98977,35804
20.99788,33782
21.00600,38393
21.01413,34764
21.02225,36111
21.03038,38345
21.03850,36830
21.04662,36452
21.05475,38108
21.06287,36166
21.07098,39212
21.07912,36338
21.08723,33746
21.09537,39976
21.10348,37388
21.11160,34508
21.11973,35224
21.12785,36511
21.13598,34742
21.14410,34082
21.15222,38193
21.16035,37238
21.16847,40889
21.17658,38512
21.18472,39252
21.19283,35967
21.20097,37799
21.20908,38501
21.21720,43485
21.22533,36743
21.23345,36763
21.24158,35112
21.24970,36822
21.25782,44316
21.26595,40787
21.27407,39300
21.28220,37998
21.29032,38661
21.29843,39064
21.30657,35949
21.31468,36474
21.32280,33680
21.33093,33291
21.33905,32001
21.34718,32889
21.35530,37860
21.36342,34754
21.37155,35854
21.37967,35525
21.38780,38055
21.39592,36182
21.40403,33108
21.41217,37082
21.42028,37940
21.42840,38390
21.43653,34157
21.44465,34689
21.45278,32306
21.46090,36839
21.46902,36231
21.47715,33686
21.48527,32039
21.49340,32902
21.50152,34610
21.50963,32386
21.51777,37778
21.52588,35099
21.53402,33262
21.54213,30070
21.55025,33370
21.55838,31354
21.56650,35154
21.57462,32010
21.58275,32000
21.59087,32295
21.59900,32006
21.60712,39312
21.61523,36119
21.62337,37875
21.63148,44609
21.63962,39543
21.64773,44850
21.65585,44289
21.66398,46782
21.67210,46314
21.68023,49522
21.68835,48561
21.69647,40595
21.70460,39742
21.71272,37363
21.72083,31601
21.72897,35876
21.73708,36688
21.74522,37983
21.75333,30424
21.76145,33850
21.76958,30922
21.77770,38746
21.78583,35791
21.79395,33778
21.80207,35001
21.81020,30957
21.81832,35817
21.82643,32819
21.83457,38408
21.84268,41695
21.85082,50138
21.85893,56331
21.86705,53728
21.87518,54206
21.88330,52565
21.89143,47097
21.89955,38876
21.90767,37647
21.91580,40161
21.92392,35916
21.93205,35027
21.94017,37428
21.94828,32234
21.95642,31159
21.96453,31722
21.97265,33581
21.98078,29974
21.98890,32282
21.99703,31924
22.00515,30680
22.01327,30302
22.02140,32704
22.02952,27406
22.03765,32748
22.04577,30341
22.05388,29970
22.06202,28076
22.07013,28788
22.07827,29620
22.08638,33861
22.09450,31588
22.10263,31729
22.11075,31212
22.11887,32035
22.12700,31647
22.13512,34718
22.14325,32055
22.15137,29334
22.15948,30680
22.16762,33087
22.17573,33510
22.18387,32314
22.19198,34249
22.20010,34309
22.20823,35185
22.21635,33734
22.22447,31293
22.23260,34820
22.24072,32176
22.24885,35583
22.25697,30749
22.26508,34477
22.27322,32050
22.28133,32788
22.28947,29988
22.29758,29778
22.30570,38134
22.31383,45159
22.32195,63159
22.33008,91203
22.33820,107369
22.34632,120454
22.35445,124240
22.36257,110707
22.37068,96151
22.37882,81007
22.38693,61007
22.39507,57158
22.40318,62653
22.41130,51931
22.41943,46123
22.42755,46164
22.43568,42460
22.44380,39087
22.45192,39700
22.46005,40278
22.46817,37767
22.47630,34262
22.48442,32448
22.49253,31660
22.50067,31488
22.50878,33748
22.51690,34086
22.52503,29519
22.53315,30076
22.54128,32000
22.54940,33727
22.55752,31567
22.56565,37882
22.57377,35068
22.58190,33701
22.59002,33241
22.59813,30741
22.60627,31390
22.61438,26927
22.62250,28837
22.63063,27454
22.63875,27481
22.64688,29641
22.65500,29292
22.66312,31869
22.67125,37452
22.67937,37420
22.68750,40164
22.69562,43641
22.70373,46473
22.71187,45536
22.71998,44385
22.72812,46865
22.73623,39898
22.74435,33686
22.75248,34819
22.76060,32839
22.76872,33358
22.77685,33641
22.78497,33232
22.79310,30237
22.80122,27251
22.80933,31271
22.81747,32804
22.82558,30383
22.83372,28427
22.84183,28905
22.84995,27587
22.85808,32232
22.86620,32610
22.87432,30391
22.88245,28847
22.89057,32870
22.89870,35551
22.90682,36634
22.91493,35003
22.92307,44028
22.93118,56992
22.93932,61800
22.94743,68678
22.95555,72331
22.96368,70030
22.97180,68256
22.97993,69348
22.98805,62893
22.99617,62598
23.00430,52956
23.01242,52077
23.02053,48760
23.02867,46421
23.03678,46013
23.04492,41387
23.05303,35190
23.06115,37792
23.06928,32962
23.07740,36959
23.08553,32443
23.09365,31979
23.10177,34701
23.10990,34704
23.11802,31869
23.12615,31465
23.13427,32210
23.14238,31750
23.15052,31053
23.15863,26562
23.16675,30258
23.17488,30590
23.18300,29534
23.19113,30801
23.19925,30922
23.20737,26530
23.21550,28542
23.22362,32519
23.23175,31651
23.23987,35602
23.24798,36121
23.25612,39712
23.26423,40165
23.27235,48695
23.28048,47379
23.28860,45781
23.29673,43010
23.30485,39135
23.31297,33598
23.32110,37378
23.32922,30784
23.33735,32984
23.34547,28745
23.35358,31328
23.36172,32758
23.36983,32561
23.37797,37318
23.38608,42135
23.39420,39681
23.40233,41102
23.41045,46009
23.41857,42238
23.42670,37900
23.43482,42608
23.44295,39913
23.45107,41646
23.45918,42427
23.46732,42409
23.47543,43042
23.48357,41654
23.49168,42574
23.49980,37958
23.50793,38028
23.51605,40241
23.52418,38175
23.53230,38073
23.54042,39328
23.54855,51022
23.55667,53983
23.56478,52195
23.57292,61653
23.58103,65220
23.58917,73335
23.59728,83904
23.60540,81032
23.61353,85413
23.62165,82735
23.62978,87448
23.63790,104001
23.64602,138043
23.65415,225740
23.66227,314930
23.67038,443792
23.67852,528738
23.68663,532887
23.69477,453204
23.70288,350225
23.71100,252397
23.71913,185058
23.72725,138359
23.73538,112298
23.74350,98175
23.75162,87945
23.75975,105242
23.76787,164696
23.77600,315810
23.78412,628951
23.79223,1150994
23.80037,1750766
23.80848,2056515
23.81660,2091904
23.82473,1801735
23.83285,1442921
23.84098,1095384
23.84910,801805
23.85722,594772
23.86535,449442
23.87347,365605
23.88160,308798
23.88972,269464
23.89783,250215
23.90597,213113
23.91408,196938
23.92220,179428
23.93033,164583
23.93845,158040
23.94658,148063
23.95470,139082
23.96282,133859
23.97095,128407
23.97907,117058
23.98720,109410
23.99532,106049
24.00343,100941
24.01157,104016
24.01968,105670
24.02782,101054
24.03593,103105
24.04405,112987
24.05218,121470
24.06030,117528
24.06842,115343
24.07655,107109
24.08467,102327
24.09280,98599
24.10092,82416
24.10903,83719
24.11717,78660
24.12528,74976
24.13342,73578
24.14153,74667
24.14965,74553
24.15778,78855
24.16590,73058
24.17403,72679
24.18215,65713
24.19027,68405
24.19840,66468
24.20652,61765
24.21463,63770
24.22277,68184
24.23088,59078
24.23902,67258
24.24713,63607
24.25525,64206
24.26338,61675
24.27150,58111
24.27963,59757
24.28775,52547
24.29587,52789
24.30400,54743
24.31212,52613
24.32023,50459
24.32837,47548
24.33648,50086
24.34462,49027
24.35273,49373
24.36085,46946
24.36898,45493
24.37710,48898
24.38523,52435
24.39335,51465
24.40147,55756
24.40960,60640
24.41772,70711
24.42585,78309
24.43397,67485
24.44208,59154
24.45022,56877
24.45833,54919
24.46645,54336
24.47458,53358
24.48270,59226
24.49083,65362
24.49895,68143
24.50707,67994
24.51520,65489
24.52332,68759
24.53145,68896
24.53957,67945
24.54768,76026
24.55582,79781
24.56393,88191
24.57207,97347
24.58018,96295
24.58830,89701
24.59643,84099
24.60455,73389
24.61267,72392
24.62080,66021
24.62892,63707
24.63705,62320
24.64517,52962
24.65328,55014
24.66142,53401
24.66953,53907
24.67767,50152
24.68578,46591
24.69390,45809
24.70203,45890
24.71015,46314
24.71827,46027
24.72640,42597
24.73452,43026
24.74265,42555
24.75077,39529
24.75888,38769
24.76702,47394
24.77513,42549
24.78327,41622
24.79138,38255
24.79950,38472
24.80763,39270
24.81575,42477
24.82388,35966
24.83200,39421
24.84012,39715
24.84825,40492
24.85637,40811
24.86448,44933
24.87262,44584
24.88073,47652
24.88887,49993
24.89698,48752
24.90510,49462
24.91323,42956
24.92135,46489
24.92948,38117
24.93760,39298
24.94572,40392
24.95385,38561
24.96197,32978
24.97008,35539
24.97822,35621
24.98633,35919
24.99447,33215
25.00258,36894
25.01070,37249
25.01883,32021
25.02695,34362
25.03508,36823
25.04320,36680
25.05132,36104
25.05945,31750
25.06757,34283
25.07570,35353
25.08382,35430
25.09193,30226
25.10007,34393
25.10818,38800
25.11630,37380
25.12443,36874
25.13255,38347
25.14068,38719
25.14880,38491
25.15692,41866
25.16505,42067
25.17317,43957
25.18130,42997
25.18942,40962
25.19753,39545
25.20567,40885
25.21378,39468
25.22192,42563
25.23003,37823
25.23815,34558
25.24628,33851
25.25440,36277
25.26252,34867
25.27065,38224
25.27877,37456
25.28690,36301
25.29502,33591
25.30313,40312
25.31127,39726
25.31938,42690
25.32752,40072
25.33563,43720
25.34375,40521
25.35188,43606
25.36000,43374
25.36813,41252
25.37625,36569
25.38437,33986
25.39250,32681
25.40062,35258
25.40873,38882
25.41687,33984
25.42498,34202
25.43312,35212
25.44123,32930
25.44935,30518
25.45748,32791
25.46560,28681
25.47373,33351
25.48185,32043
25.48997,35837
25.49810,31792
25.50622,38137
25.51433,35698
25.52247,32750
25.53058,30212
25.53872,29506
25.54683,31993
25.55495,30668
25.56308,33110
25.57120,30787
25.57933,30543
25.58745,36447
25.59557,31884
25.60370,31518
25.61182,28814
25.61995,30451
25.62807,30476
25.63618,32513
25.64432,35337
25.65243,37085
25.66055,37034
25.66868,39189
25.67680,36607
25.68493,37303
25.69305,34832
25.70117,39105
25.70930,36362
25.71742,32311
25.72555,33604
25.73367,38841
25.74178,33274
25.74992,35274
25.75803,35537
25.76615,35258
25.77428,37462
25.78240,39872
25.79053,35339
25.79865,39086
25.80677,31721
25.81490,36832
25.82302,37586
25.83115,43745
25.83927,44870
25.84738,43743
25.85552,46597
25.86363,40449
25.87177,40873
25.87988,34199
25.88800,39975
25.89613,34932
25.90425,29525
25.91237,34179
25.92050,31677
25.92862,29564
25.93675,31344
25.94487,30016
25.95298,26360
25.96112,29292
25.96923,29229
25.97737,27680
25.98548,29598
25.99360,27061
26.00173,32012
26.00985,30821
26.01798,30986
26.02610,29537
26.03422,32272
26.04235,32199
26.05047,28964
26.05858,30641
26.06672,28741
26.07483,31139
26.08297,29022
26.09108,26568
26.09920,30459
26.10733,28949
26.11545,31073
26.12358,35133
26.13170,30709
26.13982,31818
26.14795,38819
26.15607,39127
26.16418,45405
26.17232,39122
26.18043,37280
26.18857,45774
26.19668,42344
26.20480,37445
26.21293,37691
26.22105,34398
26.22918,32156
26.23730,33242
26.24542,27493
26.25355,38180
26.26167,31568
26.26980,28850
26.27792,32691
26.28603,28376
26.29417,25941
26.30228,28388
26.31040,31343
26.31853,31850
26.32665,27358
26.33478,26537
26.34290,27714
26.35102,31666
26.35915,27645
26.36727,26981
26.37540,31798
26.38352,26452
26.39163,29143
26.39977,27381
26.40788,29728
26.41602,27422
26.42413,31827
26.43225,32008
26.44038,30894
26.44850,28414
26.45662,27374
26.46475,28191
26.47287,27344
26.48100,29942
26.48912,28925
26.49723,31012
26.50537,29260
26.51348,29130
26.52162,27492
26.52973,30512
26.53785,30280
26.54598,26860
26.55410,26366
26.56222,26014
26.57035,28494
26.57847,27537
26.58660,28105
26.59472,29999
26.60283,28602
26.61097,28317
26.61908,25201
26.62722,25480
26.63533,23864
26.64345,27137
26.65158,28673
26.65970,29788
26.66783,31182
26.67595,33367
26.68407,32925
26.69220,36163
26.70032,33683
26.70843,33315
26.71657,33527
26.72468,28694
26.73282,31401
26.74093,33204
26.74905,29008
26.75718,30168
26.76530,29333
26.77343,26701
26.78155,30070
26.78967,29641
26.79780,30082
26.80592,29136
26.81403,31037
26.82217,31957
26.83028,34318
26.83842,33165
26.84653,31659
26.85465,29652
26.86278,33780
26.87090,33659
26.87903,30395
26.88715,37303
26.89527,31589
26.90340,32821
26.91152,32043
26.91965,28997
26.92777,30615
26.93588,28682
26.94402,31620
26.95213,35546
26.96025,34265
26.96838,35675
26.97650,35627
26.98463,40207
26.99275,53733
27.00087,73729
27.00900,109161
27.01712,155727
27.02525,207322
27.03337,254122
27.04148,265334
27.04962,253994
27.05773,232989
27.06587,198983
27.07398,167179
27.08210,150138
27.09023,117088
27.09835,103719
27.10647,85165
27.11460,83871
27.12272,75899
27.13085,69313
27.13897,65817
27.14708,64858
27.15522,65563
27.16333,57416
27.17147,58431
27.17958,54652
27.18770,58466
27.19583,55652
27.20395,53932
27.21207,54952
27.22020,55438
27.22832,50494
27.23645,45012
27.24457,50592
27.25268,43414
27.26082,42745
27.26893,44890
27.27707,39806
27.28518,45738
27.29330,42162
27.30143,41403
27.30955,39085
27.31768,41125
27.32580,38031
27.33392,37946
27.34205,38029
27.35017,39657
27.35828,39804
27.36642,38626
27.37453,41052
27.38267,40336
27.39078,37505
27.39890,40879
27.40703,36959
27.41515,31953
27.42328,37197
27.43140,40427
27.43952,38137
27.44765,38051
27.45577,36646
27.46390,35714
27.47202,35630
27.48013,33017
27.48827,35710
27.49638,35690
27.50450,36192
27.51263,38811
27.52075,39796
27.52888,35950
27.53700,36321
27.54512,34827
27.55325,38968
27.56137,34625
27.56950,36775
27.57762,35368
27.58573,34618
27.59387,32775
27.60198,36839
27.61010,36339
27.61823,35722
27.62635,35472
27.63448,39949
27.64260,37214
27.65072,34902
27.65885,31227
27.66697,31824
27.67510,28775
27.68322,31831
27.69133,28818
27.69947,30634
27.70758,32860
27.71572,31866
27.72383,33237
27.73195,32032
27.74008,32000
27.74820,31871
27.75632,32822
27.76445,32137
27.77257,32509
27.78070,34126
27.78882,33658
27.79693,31009
27.80507,35443
27.81318,35452
27.82132,35632
27.82943,32851
27.83755,33311
27.84568,32642
27.85380,33089
27.86192,36178
27.87005,35989
27.87817,35646
27.88630,34653
27.89442,30589
27.90253,31810
27.91067,33922
27.91878,31680
27.92692,30689
27.93503,31822
27.94315,33670
27.95128,33275
27.95940,33348
27.96753,30527
27.97565,30985
27.98377,32472
27.99190,31655
28.00002,31847
28.00813,33641
28.01627,32681
28.02438,30551
28.03252,34384
28.04063,32022
28.04875,32619
28.05688,33580
28.06500,31832
28.07313,35638
28.08125,31557
28.08937,33320
28.09750,37523
28.10562,32269
28.11375,30331
28.12187,32726
28.12998,37106
28.13812,34243
28.14623,35080
28.15435,29027
28.16248,28226
28.17060,28922
28.17873,35269
28.18685,32293
28.19497,32083
28.20310,36998
28.21122,33623
28.21935,28711
28.22747,35264
28.23558,35051
28.24372,30487
28.25183,35174
28.25995,31036
28.26808,35211
28.27620,33259
28.28433,33218
28.29245,31156
28.30057,31369
28.30870,30020
28.31682,34850
28.32495,33629
28.33307,39737
28.34118,40563
28.34932,42975
28.35743,48364
28.36557,56563
28.37368,64554
28.38180,58591
28.38993,69519
28.39805,67186
28.40617,75254
28.41430,74775
28.42242,68933
28.43055,69357
28.43867,65509
28.44678,61666
28.45492,59264
28.46303,56687
28.47117,51971
28.47928,52303
28.48740,51427
28.49553,49851
28.50365,48506
28.51178,47599
28.51990,44502
28.52802,47761
28.53615,47500
28.54427,42033
28.55238,45344
28.56052,41919
28.56863,37095
28.57677,41839
28.58488,37840
28.59300,37940
28.60113,40189
28.60925,39518
28.61738,39672
28.62550,34484
28.63362,36475
28.64175,42920
28.64987,39037
28.65798,41660
28.66612,42919
28.67423,42987
28.68237,42392
28.69048,41024
28.69860,49721
28.70673,39770
28.71485,37382
28.72298,36391
28.73110,39394
28.73922,34740
28.74735,35090
28.75547,34021
28.76360,32393
28.77172,38255
28.77983,40989
28.78797,43280
28.79608,43557
28.80420,43745
28.81233,40327
28.82045,36848
28.82858,34580
28.83670,32715
28.84482,35785
28.85295,30934
28.86107,34906
28.86920,33729
28.87732,36087
28.88543,33951
28.89357,32082
28.90168,34233
28.90982,30166
28.91793,31310
28.92605,32821
28.93418,38488
28.94230,32347
28.95042,36775
28.95855,39258
28.96667,42877
28.97480,46313
28.98292,43709
28.99103,42740
28.99917,40054
29.00728,34644
29.01542,37931
29.02353,32994
29.03165,39209
29.03978,29568
29.04790,32541
29.05602,32165
29.06415,33926
29.07227,30146
29.08040,32030
29.08852,32416
29.09663,31320
29.10477,32476
29.11288,32078
29.12102,32019
29.12913,32524
29.13725,29776
29.14538,33408
29.15350,34423
29.16163,32552
29.16975,32338
29.17787,34267
29.18600,37489
29.19412,42233
29.20223,33877
29.21037,38984
29.21848,37056
29.22662,32189
29.23473,32650
29.24285,35306
29.25098,34637
29.25910,32119
29.26723,32529
29.27535,33498
29.28347,32435
29.29160,31848
29.29972,30439
29.30783,33247
29.31597,30558
29.32408,31363
29.33222,33774
29.34033,33294
29.34845,31221
29.35658,31830
29.36470,32671
29.37283,31118
29.38095,31792
29.38907,34244
29.39720,35950
29.40532,34159
29.41345,36911
29.42157,32806
29.42968,30142
29.43782,29197
29.44593,31781
29.45405,33847
29.46218,33130
29.47030,30880
29.47843,30827
29.48655,32451
29.49467,31790
29.50280,36051
29.51092,36136
29.51905,37776
29.52717,39080
29.53528,40376
29.54342,36269
29.55153,35173
29.55967,32647
29.56778,32825
29.57590,33242
29.58403,31078
29.59215,32115
29.60027,34388
29.60840,31223
29.61652,37412
29.62465,30039
29.63277,30419
29.64088,33652
29.64902,32276
29.65713,32567
29.66527,33023
29.67338,33562
29.68150,34073
29.68963,31288
29.69775,33324
29.70587,27800
29.71400,29570
29.72212,31729
29.73025,33785
29.73837,32146
29.74648,28504
29.75462,33411
29.76273,34939
29.77087,32268
29.77898,26831
29.78710,30043
29.79523,31319
29.80335,29469
29.81148,29429
29.81960,28637
29.82772,27242
29.83585,30627
29.84397,25726
29.85208,32811
29.86022,28935
29.86833,35690
29.87647,45021
29.88458,48080
29.89270,58940
29.90083,85863
29.90895,97985
29.91708,97457
29.92520,88963
29.93332,86032
29.94145,70222
29.94957,49096
29.95770,48480
29.96582,42368
29.97393,45075
29.98207,39819
29.99018,42237
29.99830,45251
30.00643,49462
30.01455,51811
30.02268,56428
30.03080,52440
30.03892,57552
30.04705,59616
30.05517,61557
30.06330,58347
30.07142,54136
30.07953,58495
30.08767,58973
30.09578,58440
30.10390,56557
30.11203,52606
30.12015,56889
30.12828,49294
30.13640,51262
30.14452,46766
30.15265,47481
30.16077,47855
30.16890,48767
30.17702,43935
30.18513,44995
30.19327,43631
30.20138,39307
30.20952,37934
30.21763,41408
30.22575,42835
30.23388,39864
30.24200,40038
30.25012,36693
30.25825,38496
30.26637,33819
30.27450,36950
30.28262,39490
30.29073,35673
30.29887,37265
30.30698,34705
30.31512,38993
30.32323,36217
30.33135,35932
30.33948,34584
30.34760,38775
30.35572,37066
30.36385,38497
30.37197,36483
30.38010,32043
30.38822,34043
30.39633,34998
30.40447,37401
30.41258,33916
30.42072,37224
30.42883,32084
30.43695,31181
30.44508,32209
30.45320,32550
30.46133,33057
30.46945,34630
30.47757,32705
30.48570,30895
30.49382,31496
30.50193,31170
30.51007,30029
30.51818,31680
30.52632,35186
30.53443,32781
30.54255,35509
30.55068,35902
30.55880,35242
30.56693,32009
30.57505,31835
30.58317,29761
30.59130,30397
30.59942,30661
30.60755,32010
30.61567,30737
30.62378,33310
30.63192,30867
30.64003,33425
30.64815,31663
30.65628,30664
30.66440,36015
30.67253,30153
30.68065,31293
30.68877,33030
30.69690,30374
30.70502,35116
30.71315,33965
30.72127,30614
30.72938,32380
30.73752,32347
30.74563,32609
30.75377,29511
30.76188,29186
30.77000,31411
30.77813,27052
30.78625,29872
30.79437,33958
30.80250,36980
30.81062,36967
30.81875,40778
30.82687,36472
30.83498,34784
30.84312,31932
30.85123,33665
30.85937,38537
30.86748,34569
30.87560,30251
30.88373,31833
30.89185,29143
30.89997,30262
30.90810,29296
30.91622,31130
30.92435,29004
30.93247,33307
30.94058,29622
30.94872,30489
30.95683,34058
30.96497,30842
30.97308,34748
30.98120,33790
30.98933,33132
30.99745,32678
31.00558,33397
31.01370,30047
31.02182,35098
31.02995,38506
31.03807,41075
31.04618,40460
31.05432,43393
31.06243,42381
31.07057,42341
31.07868,44128
31.08680,51475
31.09493,72905
31.10305,100336
31.11118,122857
31.11930,137465
31.12742,142076
31.13555,128938
31.14367,99163
31.15178,82694
31.15992,57271
31.16803,42976
31.17617,40647
31.18428,37825
31.19240,41674
31.20053,43928
31.20865,46470
31.21678,53930
31.22490,59849
31.23302,63713
31.24115,68931
31.24927,58871
31.25740,54114
31.26552,51091
31.27363,44394
31.28177,38263
31.28988,33924
31.29800,35494
31.30613,38350
31.31425,35605
31.32238,32491
31.33050,30135
31.33862,34792
31.34675,36671
31.35487,33284
31.36300,35905
31.37112,37948
31.37923,46599
31.38737,45307
31.39548,47104
31.40362,50819
31.41173,46220
31.41985,47764
31.42798,40640
31.43610,41635
31.44422,35991
31.45235,34241
31.46047,35836
31.46860,32589
31.47672,36769
31.48483,32660
31.49297,33317
31.50108,29203
31.50922,32077
31.51733,31425
31.52545,33532
31.53358,34252
31.54170,33437
31.54982,32808
31.55795,36358
31.56607,32383
31.57420,31851
31.58232,33755
31.59043,32989
31.59857,34515
31.60668,32121
31.61482,31646
31.62293,35710
31.63105,33392
31.63918,34273
31.64730,37547
31.65543,33538
31.66355,35005
31.67167,34194
31.67980,34397
31.68792,33395
31.69603,33906
31.70417,33956
31.71228,33474
31.72042,34200
31.72853,34341
31.73665,36837
31.74478,35030
31.75290,32275
31.76103,35037
31.76915,34178
31.77727,33864
31.78540,34069
31.79352,31725
31.80165,35373
31.80977,37889
31.81788,37649
31.82602,35092
31.83413,36258
31.84225,38235
31.85038,39086
31.85850,40181
31.86663,42403
31.87475,40592
31.88287,44850
31.89100,44155
31.89912,38915
31.90725,45191
31.91537,42772
31.92348,46766
31.93162,47055
31.93973,48081
31.94785,49524
31.95598,50812
31.96410,50579
31.97223,48884
31.98035,52508
31.98847,54044
31.99660,56811
32.00472,54428
32.01285,53875
32.02097,53682
32.02908,48374
32.03722,47409
32.04533,49160
32.05347,46425
32.06158,54413
32.06970,48622
32.07783,47643
32.08595,41721
32.09407,46127
32.10220,44397
32.11032,44856
32.11845,39922
32.12657,41709
32.13468,43614
32.14282,38637
32.15093,35088
32.15907,41121
32.16718,34611
32.17530,36342
32.18343,35652
32.19155,37048
32.19967,34364
32.20780,34694
32.21592,32746
32.22405,30911
32.23217,34095
32.24028,37914
32.24842,37857
32.25653,36951
32.26467,39084
32.27278,37547
32.28090,39079
32.28903,42120
32.29715,38318
32.30528,38704
32.31340,34972
32.32152,35314
32.32965,35282
32.33777,36775
32.34588,40016
32.35402,43673
32.36213,44203
32.37027,43356
32.37838,41127
32.38650,40780
32.39463,38752
32.40275,36707
32.41088,38181
32.41900,35537
32.42712,34926
32.43525,34653
32.44337,38113
32.45150,34211
32.45962,36754
32.46773,34666
32.47587,36707
32.48398,32428
32.49210,33025
32.50023,38073
32.50835,37815
32.51648,33702
32.52460,34124
32.53272,34688
32.54085,32091
32.54897,33087
32.55710,34519
32.56522,36499
32.57333,33261
32.58147,37508
32.58958,30419
32.59770,39337
32.60583,37075
32.61395,32626
32.62208,32408
32.63020,32598
32.63832,32920
32.64645,29127
32.65457,35847
32.66270,33146
32.67082,40105
32.67893,40003
32.68707,41925
32.69518,42115
32.70332,40948
32.71143,41290
32.71955,43240
32.72768,38613
32.73580,35465
32.74392,37200
32.75205,36229
32.76017,35133
32.76830,33059
32.77642,34969
32.78453,33864
32.79267,35801
32.80078,36957
32.80892,34980
32.81703,29816
32.82515,34355
32.83328,31657
32.84140,33148
32.84953,36159
32.85765,35405
32.86577,31451
32.87390,35660
32.88202,30755
32.89013,30855
32.89827,31560
32.90638,30670
32.91452,33356
32.92263,38820
32.93075,33216
32.93888,31279
32.94700,30886
32.95513,33840
32.96325,33977
32.97137,33286
32.97950,33254
32.98762,35023
32.99573,35042
33.00387,32864
33.01198,35892
33.02012,30542
33.02823,38328
33.03635,36044
33.04448,33307
33.05260,33325
33.06073,43312
33.06885,37997
33.07697,33991
33.08510,36910
33.09322,39255
33.10135,41994
33.10947,45575
33.11758,55376
33.12572,57154
33.13383,67927
33.14195,64379
33.15008,56459
33.15820,51165
33.16633,44951
33.17445,41760
33.18257,37805
33.19070,34786
33.19882,34850
33.20695,37618
33.21507,36591
33.22318,37345
33.23132,37453
33.23943,32471
33.24755,37391
33.25568,34933
33.26380,36397
33.27193,31254
33.28005,37801
33.28817,35628
33.29630,33964
33.30442,36503
33.31255,34478
33.32067,32578
33.32878,37587
33.33692,33224
33.34503,32210
33.35317,38019
33.36128,34179
33.36940,34623
33.37753,39506
33.38565,33289
33.39377,34015
33.40190,35717
33.41002,34419
33.41815,36047
33.42627,38538
33.43438,35740
33.44252,37096
33.45063,34877
33.45877,36675
33.46688,31708
33.47500,33709
33.48313,34773
33.49125,32415
33.49938,36575
33.50750,34277
33.51562,34829
33.52375,35276
33.53187,35505
33.53998,36265
33.54812,36538
33.55623,34229
33.56437,36661
33.57248,37633
33.58060,35335
33.58873,32360
33.59685,36522
33.60498,35639
33.61310,35915
33.62122,33126
33.62935,32500
33.63747,33755
33.64558,34093
33.65372,32410
33.66183,34695
33.66997,34366
33.67808,36637
33.68620,35901
33.69433,38092
33.70245,38190
33.71058,31981
33.71870,34010
33.72682,34490
33.73495,34497
33.74307,35305
33.75120,34098
33.75932,33145
33.76743,32479
33.77557,32434
33.78368,35465
33.79180,34235
33.79993,32824
33.80805,39249
33.81618,35043
33.82430,34899
33.83242,33500
33.84055,34575
33.84867,33659
33.85680,40942
33.86492,35554
33.87303,36866
33.88117,38592
33.88928,36993
33.89742,35018
33.90553,40008
33.91365,34240
33.92178,33133
33.92990,37790
33.93802,42426
33.94615,35768
33.95427,39909
33.96240,34756
33.97052,35087
33.97863,34509
33.98677,33169
33.99488,37411
34.00302,37135
34.01113,34288
34.01925,35950
34.02738,38352
34.03550,39907
34.04362,33603
34.05175,35792
34.05987,37108
34.06800,36931
34.07612,38367
34.08423,36981
34.09237,37752
34.10048,36337
34.10862,36482
34.11673,36880
34.12485,34810
34.13298,37359
34.14110,35077
34.14923,38098
34.15735,32981
34.16547,36655
34.17360,35517
34.18172,33452
34.18983,36623
34.19797,33043
34.20608,36980
34.21422,39081
34.22233,37322
34.23045,37435
34.23858,33408
34.24670,39478
34.25483,38422
34.26295,32360
34.27107,30297
34.27920,36648
34.28732,32339
34.29545,33794
34.30357,35556
34.31168,32199
34.31982,35361
34.32793,36047
34.33605,39203
34.34418,34171
34.35230,38270
34.36043,37842
34.36855,36015
34.37667,35207
34.38480,36664
34.39292,33526
34.40105,34186
34.40917,35793
34.41728,39891
34.42542,37398
34.43353,35877
34.44165,35343
34.44978,34389
34.45790,38291
34.46603,36696
34.47415,38631
34.48227,34568
34.49040,34244
34.49852,35466
34.50665,39022
34.51477,36485
34.52288,35593
34.53102,35713
34.53913,41853
34.54727,43155
34.55538,44698
34.56350,45389
34.57163,49378
34.57975,49550
34.58787,48731
34.59600,49237
34.60412,46734
34.61225,45957
34.62037,47391
34.62848,44637
34.63662,42583
34.64473,44478
34.65287,44771
34.66098,43148
34.66910,43709
34.67723,44955
34.68535,41330
34.69347,39215
34.70160,37353
34.70972,38552
34.71785,42259
34.72597,40675
34.73408,33846
34.74222,41022
34.75033,41712
34.75847,37208
34.76658,37933
34.77470,37144
34.78283,39765
34.79095,39085
34.79908,41436
34.80720,43562
34.81532,35893
34.82345,38916
34.83157,41482
34.83968,40057
34.84782,35537
34.85593,38231
34.86407,38122
34.87218,38853
34.88030,39210
34.88843,39720
34.89655,35858
34.90468,41854
34.91280,38749
34.92092,40379
34.92905,39721
34.93717,42648
34.94530,49916
34.95342,61444
34.96153,93535
34.96967,147785
34.97778,210452
34.98590,275710
34.99403,299503
35.00215,267110
35.01028,207881
35.01840,131704
35.02652,94725
35.03465,70777
35.04277,58396
35.05090,51685
35.05902,57686
35.06713,50068
35.07527,48969
35.08338,53850
35.09150,47135
35.09963,49011
35.10775,48376
35.11588,48310
35.12400,49481
35.13212,43619
35.14025,45035
35.14837,42935
35.15650,46733
35.16462,45940
35.17273,47674
35.18087,48904
35.18898,45291
35.19712,45351
35.20523,46038
35.21335,44438
35.22148,37637
35.22960,44130
35.23772,41893
35.24585,44031
35.25397,45321
35.26210,45213
35.27022,45307
35.27833,47663
35.28647,48398
35.29458,46157
35.30272,50381
35.31083,44885
35.31895,41515
35.32708,42766
35.33520,38847
35.34333,42531
35.35145,39328
35.35957,47704
35.36770,41028
35.37582,38239
35.38393,41326
35.39207,41587
35.40018,43003
35.40832,43360
35.41643,43130
35.42455,42818
35.43268,42926
35.44080,41564
35.44893,41691
35.45705,48057
35.46517,46562
35.47330,48535
35.48142,48350
35.48953,48507
35.49767,43812
35.50578,50432
35.51392,42775
35.52203,39925
35.53015,47808
35.53828,42588
35.54640,38816
35.55453,41897
35.56265,44697
35.57077,43512
35.57890,43533
35.58702,41776
35.59515,45450
35.60327,46523
35.61138,45803
35.61952,46466
35.62763,42842
35.63575,44344
35.64388,46627
35.65200,46496
35.66013,36202
35.66825,42490
35.67637,44506
35.68450,42717
35.69262,40452
35.70075,40209
35.70887,42772
35.71698,43342
35.72512,45190
35.73323,41370
35.74135,47383
35.74948,43547
35.75760,43236
35.76573,44366
35.77385,40268
35.78197,44223
35.79010,42928
35.79822,41336
35.80635,41600
35.81447,40980
35.82258,45361
35.83072,39092
35.83883,43664
35.84697,42687
35.85508,40442
35.86320,40888
35.87133,45332
35.87945,41966
35.88757,39311
35.89570,41810
35.90382,43628
35.91195,41005
35.92007,42862
35.92818,40037
35.93632,44335
35.94443,41890
35.95257,41369
35.96068,41526
35.96880,40654
35.97693,45310
35.98505,40458
35.99318,41125
36.00130,41270
36.00942,43968
36.01755,42507
36.02567,43538
36.03378,44711
36.04192,47100
36.05003,40970
36.05817,46509
36.06628,43146
36.07440,41266
36.08253,42331
36.09065,42021
36.09878,41446
36.10690,43208
36.11502,43087
36.12315,38620
36.13127,43483
36.13940,47007
36.14752,43213
36.15563,43548
36.16377,43038
36.17188,44309
36.18000,43041
36.18813,43438
36.19625,44974
36.20438,41233
36.21250,43683
36.22062,43373
36.22875,42149
36.23687,41027
36.24500,42769
36.25312,44122
36.26123,43150
36.26937,44556
36.27748,41664
36.28560,47022
36.29373,40747
36.30185,42945
36.30998,43490
36.31810,49409
36.32622,44950
36.33435,53607
36.34247,48041
36.35060,48117
36.35872,45765
36.36683,46785
36.37497,43074
36.38308,46349
36.39122,42238
36.39933,43325
36.40745,44864
36.41558,44741
36.42370,46453
36.43182,44273
36.43995,46209
36.44807,45647
36.45620,42244
36.46432,42032
36.47243,40580
36.48057,44051
36.48868,41184
36.49682,42899
36.50493,43199
36.51305,40706
36.52118,41988
36.52930,42787
36.53742,39790
36.54555,41084
36.55367,42460
36.56180,41032
36.56992,47223
36.57803,44474
36.58617,43678
36.59428,41213
36.60242,42782
36.61053,41755
36.61865,42553
36.62678,43815
36.63490,43718
36.64303,41634
36.65115,46558
36.65927,42793
36.66740,46454
36.67552,43276
36.68363,41877
36.69177,48170
36.69988,44399
36.70802,47519
36.71613,47725
36.72425,44312
36.73238,44099
36.74050,45562
36.74863,46453
36.75675,44408
36.76487,44064
36.77300,41482
36.78112,42729
36.78925,50523
36.79737,42010
36.80548,43037
36.81362,45025
36.82173,44186
36.82985,45039
36.83798,43160
36.84610,44294
36.85423,44378
36.86235,44389
36.87047,43737
36.87860,40928
36.88672,44699
36.89485,47013
36.90297,45034
36.91108,45103
36.91922,45756
36.92733,46801
36.93545,47713
36.94358,44844
36.95170,41463
36.95983,45054
36.96795,44652
36.97607,50157
36.98420,43867
36.99232,43189
37.00045,43478
37.00857,44571
37.01668,48388
37.02482,48431
37.03293,45268
37.04107,43518
37.04918,46102
37.05730,41226
37.06543,46464
37.07355,47226
37.08167,42710
37.08980,43676
37.09792,44963
37.10605,49776
37.11417,49060
37.12228,46153
37.13042,46909
37.13853,45170
37.14667,43537
37.15478,48968
37.16290,45853
37.17103,43862
37.17915,44025
37.18728,52471
37.19540,49907
37.20352,49383
37.21165,46172
37.21977,47796
37.22788,49170
37.23602,48394
37.24413,48848
37.25227,45037
37.26038,48798
37.26850,46327
37.27663,48573
37.28475,47952
37.29288,49904
37.30100,48996
37.30912,46153
37.31725,49614
37.32537,45389
37.33348,49433
37.34162,50554
37.34973,50585
37.35787,53137
37.36598,49865
37.37410,49953
37.38223,53856
37.39035,55023
37.39848,57936
37.40660,58549
37.41472,56343
37.42285,51888
37.43097,47700
37.43910,50517
37.44722,51926
37.45533,50399
37.46347,56682
37.47158,52860
37.47970,52600
37.48783,50944
