Z:\data\JTB-E02\BACandBLUE\JTB-E02-203-07.D Fri Mar 08 09:27:16 2019
Start of data points
2.09515,64163
2.10327,72469
2.11138,68448
2.11952,69675
2.12763,74635
2.13577,69278
2.14388,65881
2.15200,67219
2.16013,66368
2.16825,62856
2.17637,63655
2.18450,64222
2.19262,61182
2.20075,60158
2.20887,58461
2.21698,59363
2.22512,55892
2.23323,57248
2.24137,55851
2.24948,61547
2.25760,253353
2.26573,1927226
2.27385,4181292
2.28198,3880721
2.29010,1980814
2.29822,1115348
2.30635,816431
2.31447,693107
2.32258,594905
2.33072,528538
2.33883,469512
2.34697,417248
2.35508,374342
2.36320,342476
2.37133,325368
2.37945,313649
2.38758,288890
2.39570,291262
2.40382,292066
2.41195,294438
2.42007,318280
2.42818,280627
2.43632,260094
2.44443,261130
2.45257,246859
2.46068,233010
2.46880,220534
2.47693,207751
2.48505,207356
2.49318,198245
2.50130,198984
2.50942,193094
2.51755,190861
2.52567,181824
2.53380,185960
2.54192,184245
2.55003,191939
2.55817,194842
2.56628,181603
2.57440,175663
2.58253,165772
2.59065,163127
2.59878,178958
2.60690,217726
2.61502,254560
2.62315,223574
2.63127,205590
2.63940,195000
2.64752,177152
2.65563,176113
2.66377,166157
2.67188,162722
2.68002,155581
2.68813,146631
2.69625,154849
2.70438,154380
2.71250,148076
2.72062,145058
2.72875,141608
2.73687,148247
2.74500,133541
2.75312,143293
2.76123,134740
2.76937,135668
2.77748,134271
2.78562,130718
2.79373,138820
2.80185,130444
2.80998,137582
2.81810,140121
2.82622,132976
2.83435,134677
2.84247,126315
2.85060,133940
2.85872,129807
2.86683,126636
2.87497,127303
2.88308,127026
2.89122,132849
2.89933,125014
2.90745,125358
2.91558,126318
2.92370,122928
2.93183,124241
2.93995,118788
2.94807,120995
2.95620,131318
2.96432,127792
2.97243,136404
2.98057,136114
2.98868,129313
2.99682,116787
3.00493,128089
3.01305,122119
3.02118,121737
3.02930,120276
3.03743,115773
3.04555,115374
3.05367,117131
3.06180,116038
3.06992,115819
3.07803,117929
3.08617,115804
3.09428,121941
3.10242,130428
3.11053,146847
3.11865,147269
3.12678,139695
3.13490,128366
3.14303,115940
3.15115,123337
3.15927,121720
3.16740,120692
3.17552,119307
3.18365,113681
3.19177,108933
3.19988,111499
3.20802,110437
3.21613,105675
3.22425,103886
3.23238,103872
3.24050,103872
3.24863,104361
3.25675,103685
3.26487,105188
3.27300,106081
3.28112,153178
3.28925,492430
3.29737,1883418
3.30548,4958606
3.31362,7985297
3.32173,8692047
3.32987,7420155
3.33798,5655409
3.34610,4301739
3.35423,3419785
3.36235,2781670
3.37047,2269211
3.37860,1919810
3.38672,1656481
3.39485,1463039
3.40297,1269282
3.41108,1148433
3.41922,1039912
3.42733,962665
3.43547,875884
3.44358,826477
3.45170,749795
3.45983,735887
3.46795,689783
3.47607,672481
3.48420,656131
3.49232,610468
3.50045,603209
3.50857,570932
3.51668,548121
3.52482,536755
3.53293,506660
3.54107,506472
3.54918,474517
3.55730,465845
3.56543,453750
3.57355,466474
3.58168,456731
3.58980,454621
3.59792,437926
3.60605,425965
3.61417,409428
3.62228,412772
3.63042,394485
3.63853,387747
3.64667,376768
3.65478,369329
3.66290,357160
3.67103,351560
3.67915,350288
3.68728,341913
3.69540,327756
3.70352,324259
3.71165,322666
3.71977,321364
3.72790,316097
3.73602,309141
3.74413,304399
3.75227,303180
3.76038,303423
3.76850,283168
3.77663,291163
3.78475,287985
3.79288,284746
3.80100,275467
3.80912,283278
3.81725,279951
3.82537,274200
3.83350,261069
3.84162,263221
3.84973,264686
3.85787,263953
3.86598,247521
3.87410,251318
3.88223,249192
3.89035,247465
3.89848,247695
3.90660,241126
3.91472,235498
3.92285,232455
3.93097,230479
3.93910,231828
3.94722,234039
3.95533,226653
3.96347,228707
3.97158,227109
3.97972,225084
3.98783,216982
3.99595,220027
4.00408,217153
4.01220,213952
4.02032,210877
4.02845,212573
4.03657,216676
4.04470,205797
4.05282,214282
4.06093,205898
4.06907,209724
4.07718,205776
4.08532,200917
4.09343,198086
4.10155,203049
4.10968,207515
4.11780,200564
4.12593,194233
4.13405,195027
4.14217,209409
4.15030,226434
4.15842,241075
4.16653,220733
4.17467,222591
4.18278,196006
4.19092,199599
4.19903,196258
4.20715,186715
4.21528,184903
4.22340,193145
4.23153,202536
4.23965,199554
4.24777,205685
4.25590,197980
4.26402,184608
4.27213,192453
4.28027,175418
4.28838,184844
4.29652,185267
4.30463,172726
4.31275,185597
4.32088,186495
4.32900,195679
4.33713,192494
4.34525,192003
4.35337,196479
4.36150,191241
4.36962,194959
4.37775,191309
4.38587,193000
4.39398,186176
4.40212,192289
4.41023,177929
4.41835,178610
4.42648,192492
4.43460,178588
4.44273,178448
4.45085,174048
4.45897,177835
4.46710,172809
4.47522,171973
4.48335,167337
4.49147,165740
4.49958,172599
4.50772,169590
4.51583,163261
4.52395,162647
4.53208,159072
4.54020,164804
4.54833,162001
4.55645,166098
4.56457,164799
4.57270,156767
4.58082,162663
4.58895,162989
4.59707,152963
4.60518,153799
4.61332,155099
4.62143,152034
4.62957,159275
4.63768,162016
4.64580,150451
4.65393,152361
4.66205,161640
4.67017,159325
4.67830,158013
4.68642,146748
4.69455,150219
4.70267,153535
4.71078,155061
4.71892,146501
4.72703,156373
4.73517,153108
4.74328,140963
4.75140,141052
4.75953,150551
4.76765,152945
4.77578,144291
4.78390,145893
4.79202,148006
4.80015,144884
4.80827,140634
4.81638,140752
4.82452,149132
4.83263,141849
4.84077,138372
4.84888,140730
4.85700,147091
4.86513,145507
4.87325,145222
4.88138,148707
4.88950,147555
4.89762,141338
4.90575,145875
4.91387,148981
4.92198,141674
4.93012,149228
4.93823,186097
4.94637,337607
4.95448,763043
4.96260,1523254
4.97073,2340381
4.97885,2820638
4.98698,2707177
4.99510,2279105
5.00322,1808991
5.01135,1405588
5.01947,1170707
5.02760,964179
5.03572,845571
5.04383,726116
5.05197,669061
5.06008,620098
5.06820,561842
5.07633,540560
5.08445,497504
5.09258,462804
5.10070,441240
5.10882,424711
5.11695,414825
5.12507,385877
5.13320,373211
5.14132,367974
5.14943,368866
5.15757,348999
5.16568,339479
5.17382,332469
5.18193,337114
5.19005,313371
5.19818,312268
5.20630,302421
5.21442,305371
5.22255,301204
5.23067,295476
5.23880,305094
5.24692,302493
5.25503,292895
5.26317,283516
5.27128,265241
5.27942,257745
5.28753,245086
5.29565,242508
5.30378,238078
5.31190,229218
5.32002,241283
5.32815,229082
5.33627,222422
5.34440,223489
5.35252,224096
5.36063,225165
5.36877,215656
5.37688,207763
5.38502,214119
5.39313,212215
5.40125,210229
5.40938,201230
5.41750,200534
5.42563,200913
5.43375,189833
5.44187,197042
5.45000,196110
5.45812,194341
5.46623,194775
5.47437,189397
5.48248,196145
5.49062,184469
5.49873,176883
5.50685,181825
5.51498,181653
5.52310,180325
5.53123,179550
5.53935,174032
5.54747,176484
5.55560,177172
5.56372,176401
5.57183,177263
5.57997,170694
5.58808,173899
5.59622,178058
5.60433,176626
5.61245,172672
5.62058,173353
5.62870,175570
5.63683,185265
5.64495,176779
5.65307,178853
5.66120,171361
5.66932,169790
5.67745,186236
5.68557,200438
5.69368,227211
5.70182,241489
5.70993,239693
5.71805,220623
5.72618,190935
5.73430,188387
5.74243,169548
5.75055,164904
5.75867,158884
5.76680,160676
5.77492,165037
5.78305,159088
5.79117,149888
5.79928,155911
5.80742,157363
5.81553,158426
5.82367,158584
5.83178,157851
5.83990,152371
5.84803,148161
5.85615,152050
5.86427,146043
5.87240,150959
5.88052,146829
5.88865,144068
5.89677,137439
5.90488,140516
5.91302,144007
5.92113,119252
5.92927,115788
5.93738,111759
5.94550,115475
5.95363,112827
5.96175,112917
5.96987,126757
5.97800,125690
5.98612,138700
5.99425,137025
6.00237,127870
6.01048,130931
6.01862,122230
6.02673,118581
6.03487,113940
6.04298,110610
6.05110,112351
6.05923,114958
6.06735,118473
6.07548,113108
6.08360,114621
6.09172,106781
6.09985,107883
6.10797,106460
6.11608,107510
6.12422,107891
6.13233,107028
6.14047,110293
6.14858,115820
6.15670,115144
6.16483,115194
6.17295,121480
6.18108,121982
6.18920,137193
6.19732,123452
6.20545,122578
6.21357,124363
6.22170,120451
6.22982,136900
6.23793,137499
6.24607,133939
6.25418,136279
6.26230,135989
6.27043,140369
6.27855,141354
6.28668,146314
6.29480,152187
6.30292,146857
6.31105,151670
6.31917,153602
6.32730,150320
6.33542,153563
6.34353,155526
6.35167,158338
6.35978,155613
6.36790,165180
6.37603,163598
6.38415,160525
6.39228,170664
6.40040,161032
6.40852,169719
6.41665,163315
6.42477,163732
6.43290,148215
6.44102,127323
6.44913,123924
6.45727,123818
6.46538,123248
6.47352,117410
6.48163,120174
6.48975,120433
6.49788,115437
6.50600,117736
6.51412,116842
6.52225,120762
6.53037,114987
6.53850,108089
6.54662,108780
6.55473,109973
6.56287,109146
6.57098,108811
6.57912,105701
6.58723,103202
6.59535,99621
6.60348,106568
6.61160,106401
6.61972,100016
6.62785,103644
6.63597,102228
6.64410,98059
6.65222,105278
6.66033,98853
6.66847,97434
6.67658,99801
6.68472,96978
6.69283,107354
6.70095,102901
6.70908,99657
6.71720,98931
6.72533,93484
6.73345,101446
6.74157,89398
6.74970,96077
6.75782,96969
6.76593,96923
6.77407,96213
6.78218,93876
6.79032,93217
6.79843,92490
6.80655,90631
6.81468,96825
6.82280,95080
6.83093,88311
6.83905,90724
6.84717,89260
6.85530,85227
6.86342,91424
6.87155,78440
6.87967,78578
6.88778,78766
6.89592,78439
6.90403,77581
6.91215,77767
6.92028,74450
6.92840,71574
6.93653,65077
6.94465,62145
6.95277,67068
6.96090,71699
6.96902,70347
6.97715,66586
6.98527,69859
6.99338,67161
7.00152,70541
7.00963,67185
7.01777,67047
7.02588,68220
7.03400,65263
7.04213,72749
7.05025,67219
7.05837,66582
7.06650,62790
7.07462,71582
7.08275,65989
7.09087,65703
7.09898,69447
7.10712,61857
7.11523,65842
7.12337,69101
7.13148,61294
7.13960,63455
7.14773,63507
7.15585,69273
7.16397,64078
7.17210,70382
7.18022,61721
7.18835,62530
7.19647,67734
7.20458,63193
7.21272,66808
7.22083,62654
7.22897,59078
7.23708,64496
7.24520,59315
7.25333,63928
7.26145,64277
7.26958,63678
7.27770,62519
7.28582,60709
7.29395,59888
7.30207,61725
7.31018,63844
7.31832,63763
7.32643,66092
7.33457,63542
7.34268,66368
7.35080,60849
7.35893,64487
7.36705,63655
7.37518,61701
7.38330,65493
7.39142,71383
7.39955,62026
7.40767,66212
7.41578,68350
7.42392,70103
7.43203,63355
7.44017,66680
7.44828,74165
7.45640,75009
7.46453,74411
7.47265,74513
7.48078,72143
7.48890,76747
7.49702,68585
7.50515,69399
7.51327,68576
7.52140,67059
7.52952,72862
7.53763,64210
7.54577,64033
7.55388,60641
7.56200,62630
7.57013,58581
7.57825,67895
7.58638,65192
7.59450,68347
7.60262,61139
7.61075,63073
7.61887,62825
7.62700,65668
7.63512,65106
7.64323,67260
7.65137,64407
7.65948,59385
7.66762,64333
7.67573,66070
7.68385,62365
7.69198,60626
7.70010,60641
7.70822,62649
7.71635,60205
7.72447,58916
7.73260,60008
7.74072,62530
7.74883,61179
7.75697,57359
7.76508,57420
7.77322,56540
7.78133,62657
7.78945,63040
7.79758,57306
7.80570,59026
7.81382,55700
7.82195,54336
7.83007,63067
7.83820,57969
7.84632,55741
7.85443,57461
7.86257,58904
7.87068,60549
7.87882,59453
7.88693,55804
7.89505,59997
7.90318,54045
7.91130,60814
7.91943,54392
7.92755,52247
7.93567,57437
7.94380,55590
7.95192,60044
7.96003,55755
7.96817,58459
7.97628,55974
7.98442,56848
7.99253,57813
8.00065,59685
8.00878,59931
8.01690,62981
8.02503,54387
8.03315,56964
8.04127,58239
8.04940,63835
8.05752,55092
8.06565,58292
8.07377,58809
8.08188,57059
8.09002,55399
8.09813,60845
8.10625,55284
8.11438,58178
8.12250,57007
8.13063,59631
8.13875,58342
8.14687,60833
8.15500,61743
8.16312,58609
8.17125,60264
8.17937,64982
8.18748,64162
8.19562,68231
8.20373,66203
8.21185,67310
8.21998,73329
8.22810,67507
8.23623,65609
8.24435,63567
8.25247,67178
8.26060,67038
8.26872,67108
8.27685,62642
8.28497,66125
8.29308,66336
8.30122,68429
8.30933,64644
8.31747,66987
8.32558,69292
8.33370,67960
8.34183,70011
8.34995,68165
8.35807,71135
8.36620,66568
8.37432,73941
8.38245,76705
8.39057,70356
8.39868,70755
8.40682,70176
8.41493,66002
8.42307,64722
8.43118,68646
8.43930,67501
8.44743,66606
8.45555,68815
8.46367,66710
8.47180,65056
8.47992,65675
8.48805,70444
8.49617,79714
8.50428,77888
8.51242,92203
8.52053,91477
8.52867,88501
8.53678,85689
8.54490,82626
8.55303,75482
8.56115,80558
8.56928,78889
8.57740,73293
8.58552,77266
8.59365,70704
8.60177,74318
8.60988,73238
8.61802,73692
8.62613,70901
8.63427,69865
8.64238,72216
8.65050,69581
8.65863,68673
8.66675,70111
8.67488,67999
8.68300,66058
8.69112,72167
8.69925,66937
8.70737,65545
8.71550,67624
8.72362,66211
8.73173,64512
8.73987,66088
8.74798,64520
8.75610,66977
8.76423,62141
8.77235,62117
8.78048,72198
8.78860,118723
8.79672,193661
8.80485,319796
8.81297,453707
8.82110,557341
8.82922,557605
8.83733,507468
8.84547,418498
8.85358,355290
8.86170,290531
8.86983,259177
8.87795,226613
8.88608,203009
8.89420,183176
8.90232,185771
8.91045,172391
8.91857,159307
8.92670,159994
8.93482,150807
8.94293,148005
8.95107,142390
8.95918,129768
8.96732,132216
8.97543,124214
8.98355,124035
8.99168,122995
8.99980,122260
9.00792,122168
9.01605,123611
9.02417,120987
9.03230,120324
9.04042,115515
9.04853,111765
9.05667,107911
9.06478,108254
9.07292,103203
9.08103,105137
9.08915,110686
9.09728,106242
9.10540,96991
9.11353,98023
9.12165,101603
9.12977,96870
9.13790,98728
9.14602,98283
9.15413,93348
9.16227,105819
9.17038,91893
9.17852,92509
9.18663,92831
9.19475,98350
9.20288,99464
9.21100,101059
9.21913,94402
9.22725,95438
9.23537,95256
9.24350,92422
9.25162,94212
9.25973,86233
9.26787,92717
9.27598,91128
9.28412,85272
9.29223,89322
9.30035,81220
9.30848,84692
9.31660,77983
9.32473,74372
9.33285,76333
9.34097,79594
9.34910,80524
9.35722,78523
9.36535,80194
9.37347,80571
9.38158,74189
9.38972,77955
9.39783,80142
9.40595,71366
9.41408,72402
9.42220,74974
9.43033,70108
9.43845,71039
9.44657,70220
9.45470,67348
9.46282,72552
9.47095,67943
9.47907,65628
9.48718,71989
9.49532,69195
9.50343,71553
9.51157,66931
9.51968,67898
9.52780,66091
9.53593,67025
9.54405,72298
9.55217,70233
9.56030,72931
9.56842,65905
9.57655,60565
9.58467,60361
9.59278,61010
9.60092,60185
9.60903,57337
9.61717,65805
9.62528,62683
9.63340,63192
9.64153,65202
9.64965,54152
9.65777,58107
9.66590,52426
9.67402,55189
9.68215,57170
9.69027,54637
9.69838,55347
9.70652,52565
9.71463,54923
9.72277,52358
9.73088,49104
9.73900,49936
9.74713,50434
9.75525,51623
9.76338,50234
9.77150,51121
9.77962,51459
9.78775,47917
9.79587,49957
9.80398,51949
9.81212,50606
9.82023,49957
9.82837,49009
9.83648,47316
9.84460,56911
9.85273,59416
9.86085,58849
9.86898,56490
9.87710,53552
9.88522,49368
9.89335,49418
9.90147,48956
9.90958,53542
9.91772,53512
9.92583,46827
9.93397,53132
9.94208,54279
9.95020,53540
9.95833,52843
9.96645,50073
9.97458,54032
9.98270,49404
9.99082,52705
9.99895,47439
10.00707,47631
10.01520,52892
10.02332,55090
10.03143,63928
10.03957,70832
10.04768,81620
10.05580,80861
10.06393,80113
10.07205,81884
10.08018,70649
10.08830,70911
10.09642,68185
10.10455,63564
10.11267,60113
10.12080,61723
10.12892,56627
10.13703,54078
10.14517,52987
10.15328,56706
10.16142,50041
10.16953,55371
10.17765,55041
10.18578,53451
10.19390,50537
10.20202,53943
10.21015,53111
10.21827,51726
10.22640,53887
10.23452,60640
10.24263,63842
10.25077,64844
10.25888,65475
10.26702,66673
10.27513,58255
10.28325,56416
10.29138,53849
10.29950,50573
10.30762,50289
10.31575,49031
10.32387,52265
10.33200,56120
10.34012,47136
10.34823,52048
10.35637,51552
10.36448,44511
10.37262,52154
10.38073,47857
10.38885,45522
10.39698,51633
10.40510,51028
10.41323,47055
10.42135,49798
10.42947,47182
10.43760,43249
10.44572,47142
10.45383,43292
10.46197,48758
10.47008,49391
10.47822,48791
10.48633,48544
10.49445,48546
10.50258,46851
10.51070,44028
10.51883,46668
10.52695,47343
10.53507,46449
10.54320,46424
10.55132,47428
10.55945,48660
10.56757,43160
10.57568,44099
10.58382,49455
10.59193,47423
10.60005,48881
10.60818,46796
10.61630,47484
10.62443,46395
10.63255,43985
10.64067,44116
10.64880,45595
10.65692,48854
10.66505,40996
10.67317,41948
10.68128,42778
10.68942,46598
10.69753,50260
10.70565,48743
10.71378,45625
10.72190,45033
10.73003,49150
10.73815,49348
10.74627,44243
10.75440,47245
10.76252,47613
10.77065,47074
10.77877,50263
10.78688,48665
10.79502,47531
10.80313,49973
10.81127,48776
10.81938,43337
10.82750,46319
10.83563,48056
10.84375,43772
10.85187,42031
10.86000,43666
10.86812,40564
10.87625,42482
10.88437,43723
10.89248,40220
10.90062,45161
10.90873,44297
10.91687,41268
10.92498,44611
10.93310,43208
10.94123,41877
10.94935,46599
10.95747,48133
10.96560,48040
10.97372,47431
10.98185,46708
10.98997,41120
10.99808,44130
11.00622,48640
11.01433,47223
11.02247,46780
11.03058,44906
11.03870,45274
11.04683,41310
11.05495,38259
11.06308,47745
11.07120,41165
11.07932,42486
11.08745,43272
11.09557,43590
11.10368,48092
11.11182,40716
11.11993,44099
11.12807,44439
11.13618,43064
11.14430,42575
11.15243,44855
11.16055,40317
11.16868,39749
11.17680,45673
11.18492,43426
11.19305,48476
11.20117,53512
11.20930,56635
11.21742,61604
11.22553,69201
11.23367,66448
11.24178,63710
11.24990,58010
11.25803,50353
11.26615,53893
11.27428,45911
11.28240,47214
11.29052,40850
11.29865,46579
11.30677,40839
11.31490,41774
11.32302,44448
11.33113,43690
11.33927,44352
11.34738,47865
11.35552,45151
11.36363,44914
11.37175,43403
11.37988,41869
11.38800,40054
11.39612,42761
11.40425,39294
11.41237,41352
11.42050,43505
11.42862,47324
11.43673,45095
11.44487,42707
11.45298,43138
11.46112,39439
11.46923,40333
11.47735,40754
11.48548,40960
11.49360,39670
11.50172,39740
11.50985,43817
11.51797,42090
11.52610,42820
11.53422,40845
11.54233,41352
11.55047,39410
11.55858,43354
11.56672,50216
11.57483,42680
11.58295,40269
11.59108,38052
11.59920,37878
11.60733,40037
11.61545,39727
11.62357,39221
11.63170,39658
11.63982,37949
11.64793,40550
11.65607,41801
11.66418,43761
11.67232,37693
11.68043,39779
11.68855,43094
11.69668,43301
11.70480,43437
11.71293,44100
11.72105,45201
11.72917,47542
11.73730,48811
11.74542,48396
11.75353,56715
11.76167,43625
11.76978,48849
11.77792,51847
11.78603,44769
11.79415,50154
11.80228,47620
11.81040,46117
11.81853,42059
11.82665,46539
11.83477,43766
11.84290,47515
11.85102,43553
11.85915,44269
11.86727,44141
11.87538,42402
11.88352,43407
11.89163,40950
11.89975,40828
11.90788,41864
11.91600,45832
11.92413,46841
11.93225,41458
11.94037,45358
11.94850,47955
11.95662,42858
11.96475,43894
11.97287,39931
11.98098,40186
11.98912,46487
11.99723,45255
12.00537,40307
12.01348,41922
12.02160,41976
12.02973,38252
12.03785,41878
12.04597,44299
12.05410,42035
12.06222,41554
12.07035,40067
12.07847,41931
12.08658,41106
12.09472,42803
12.10283,41804
12.11097,39769
12.11908,41699
12.12720,47981
12.13533,45409
12.14345,44339
12.15157,38520
12.15970,45520
12.16782,41185
12.17595,42238
12.18407,44146
12.19218,41794
12.20032,40302
12.20843,40691
12.21657,39437
12.22468,48515
12.23280,38284
12.24093,39493
12.24905,41322
12.25718,39678
12.26530,38759
12.27342,38206
12.28155,41324
12.28967,38410
12.29778,40129
12.30592,38976
12.31403,41842
12.32217,42776
12.33028,39017
12.33840,40172
12.34653,39076
12.35465,40664
12.36278,44176
12.37090,37586
12.37902,39347
12.38715,39950
12.39527,39996
12.40340,40262
12.41152,41706
12.41963,35961
12.42777,40215
12.43588,40672
12.44400,43407
12.45213,42883
12.46025,43623
12.46838,45052
12.47650,45185
12.48462,47558
12.49275,43793
12.50087,45364
12.50900,42707
12.51712,42999
12.52523,43334
12.53337,41717
12.54148,41916
12.54960,37255
12.55773,39359
12.56585,40658
12.57398,39740
12.58210,36316
12.59022,43398
12.59835,41979
12.60647,38757
12.61460,35396
12.62272,42115
12.63083,40827
12.63897,43496
12.64708,42190
12.65522,42596
12.66333,38143
12.67145,38094
12.67958,40866
12.68770,40546
12.69582,38141
12.70395,35541
12.71207,38900
12.72020,39562
12.72832,42006
12.73643,46884
12.74457,51866
12.75268,54774
12.76082,54205
12.76893,53614
12.77705,50718
12.78518,51408
12.79330,47785
12.80142,42320
12.80955,44977
12.81767,44134
12.82580,43100
12.83392,38977
12.84203,41050
12.85017,42524
12.85828,38314
12.86642,46251
12.87453,38462
12.88265,37547
12.89078,36902
12.89890,41537
12.90703,44955
12.91515,39021
12.92327,43016
12.93140,41227
12.93952,46231
12.94763,41984
12.95577,38693
12.96388,43672
12.97202,39819
12.98013,39117
12.98825,45085
12.99638,47476
13.00450,49701
13.01263,43739
13.02075,41201
13.02887,37017
13.03700,37525
13.04512,39883
13.05325,40641
13.06137,38661
13.06948,45873
13.07762,40230
13.08573,39068
13.09385,41405
13.10198,44136
13.11010,36731
13.11823,40976
13.12635,42795
13.13447,36733
13.14260,44065
13.15072,38844
13.15885,40277
13.16697,41632
13.17508,37352
13.18322,40343
13.19133,43323
13.19945,42201
13.20758,45630
13.21570,48889
13.22383,47164
13.23195,50930
13.24007,47369
13.24820,43618
13.25632,46121
13.26445,42194
13.27257,44352
13.28068,40469
13.28882,39922
13.29693,42613
13.30507,42501
13.31318,40032
13.32130,42876
13.32943,39304
13.33755,40167
13.34567,41967
13.35380,41804
13.36192,39014
13.37005,38149
13.37817,39268
13.38628,38389
13.39442,41412
13.40253,39762
13.41067,40117
13.41878,41582
13.42690,38382
13.43503,43491
13.44315,37585
13.45128,48374
13.45940,40425
13.46752,38482
13.47565,41320
13.48377,38281
13.49188,42371
13.50002,40053
13.50813,43371
13.51627,38612
13.52438,37734
13.53250,41238
13.54063,40847
13.54875,38943
13.55688,35782
13.56500,42497
13.57312,38456
13.58125,44626
13.58937,40484
13.59748,42910
13.60562,40109
13.61373,42131
13.62187,40592
13.62998,46003
13.63810,42921
13.64623,45236
13.65435,38354
13.66248,38633
13.67060,44326
13.67872,42035
13.68685,40779
13.69497,41674
13.70310,39218
13.71122,38765
13.71933,45071
13.72747,43261
13.73558,38824
13.74370,39776
13.75183,39767
13.75995,45440
13.76808,41157
13.77620,40718
13.78432,39078
13.79245,43209
13.80057,41284
13.80870,40933
13.81682,38435
13.82493,39801
13.83307,35974
13.84118,39743
13.84930,36494
13.85743,39066
13.86555,41524
13.87368,43368
13.88180,42337
13.88992,39292
13.89805,44293
13.90617,42518
13.91430,48394
13.92242,42499
13.93053,42875
13.93867,45216
13.94678,50270
13.95492,47015
13.96303,48227
13.97115,44035
13.97928,46260
13.98740,39799
13.99552,42325
14.00365,39565
14.01177,42279
14.01990,44001
14.02802,42990
14.03613,42116
14.04427,40497
14.05238,43715
14.06052,44575
14.06863,45646
14.07675,46570
14.08488,48818
14.09300,48383
14.10113,49916
14.10925,54219
14.11737,47638
14.12550,46539
14.13362,48139
14.14173,43333
14.14987,45916
14.15798,42543
14.16612,47167
14.17423,47454
14.18235,44136
14.19048,49157
14.19860,58282
14.20673,79607
14.21485,108152
14.22297,150749
14.23110,171061
14.23922,182075
14.24733,164226
14.25547,142706
14.26358,122883
14.27172,114335
14.27983,97714
14.28795,97130
14.29608,87999
14.30420,83051
14.31233,80646
14.32045,78152
14.32857,74360
14.33670,69770
14.34482,65776
14.35295,61997
14.36107,62929
14.36918,56286
14.37732,62629
14.38543,54425
14.39355,53289
14.40168,44648
14.40980,45598
14.41793,46194
14.42605,43201
14.43417,44382
14.44230,44678
14.45042,45282
14.45855,42528
14.46667,44671
14.47478,47250
14.48292,46157
14.49103,48646
14.49917,43354
14.50728,46101
14.51540,43479
14.52353,44896
14.53165,41866
14.53977,41616
14.54790,46982
14.55602,43869
14.56415,46950
14.57227,44647
14.58038,47778
14.58852,42896
14.59663,43500
14.60477,45821
14.61288,41756
14.62100,41125
14.62913,47586
14.63725,41454
14.64537,38960
14.65350,40349
14.66162,42070
14.66975,43276
14.67787,44171
14.68598,39789
14.69412,41529
14.70223,40448
14.71037,44838
14.71848,38495
14.72660,38954
14.73473,42310
14.74285,42237
14.75098,43457
14.75910,39782
14.76722,43025
14.77535,42695
14.78347,42514
14.79158,42192
14.79972,38597
14.80783,41676
14.81597,45087
14.82408,42491
14.83220,39968
14.84033,41431
14.84845,43449
14.85658,44980
14.86470,45795
14.87282,42146
14.88095,49336
14.88907,48514
14.89720,48233
14.90532,49369
14.91343,49714
14.92157,46650
14.92968,49852
14.93780,49218
14.94593,45430
14.95405,41979
14.96218,45080
14.97030,45818
14.97842,44402
14.98655,41595
14.99467,44260
15.00280,46321
15.01092,43556
15.01903,41568
15.02717,45448
15.03528,44699
15.04340,48484
15.05153,44187
15.05965,41557
15.06778,41288
15.07590,42293
15.08402,42212
15.09215,46317
15.10027,48455
15.10840,44076
15.11652,41403
15.12463,42986
15.13277,43262
15.14088,43203
15.14902,42493
15.15713,46199
15.16525,41101
15.17338,41011
15.18150,42585
15.18962,43925
15.19775,45847
15.20587,51224
15.21400,45586
15.22212,41813
15.23023,44795
15.23837,45956
15.24648,41802
15.25462,42654
15.26273,44831
15.27085,47893
15.27898,43755
15.28710,40899
15.29522,40580
15.30335,42079
15.31147,43082
15.31960,38909
15.32772,46277
15.33583,39910
15.34397,43794
15.35208,41827
15.36022,47130
15.36833,44384
15.37645,39894
15.38458,40871
15.39270,42099
15.40083,41743
15.40895,44613
15.41707,41873
15.42520,47173
15.43332,46635
15.44143,41060
15.44957,41459
15.45768,46870
15.46582,45332
15.47393,43919
15.48205,42837
15.49018,43050
15.49830,45513
15.50643,42559
15.51455,41967
15.52267,44780
15.53080,42123
15.53892,47821
15.54705,43761
15.55517,41813
15.56328,43770
15.57142,41232
15.57953,42267
15.58765,37662
15.59578,39926
15.60390,39956
15.61203,42016
15.62015,44321
15.62827,43471
15.63640,41983
15.64452,42967
15.65265,44362
15.66077,42830
15.66888,39789
15.67702,39036
15.68513,41038
15.69325,42616
15.70138,40391
15.70950,42926
15.71763,45854
15.72575,45122
15.73387,45243
15.74200,42602
15.75012,44648
15.75825,47024
15.76637,39338
15.77448,42234
15.78262,39358
15.79073,43128
15.79887,46964
15.80698,45180
15.81510,44575
15.82323,43293
15.83135,45562
15.83947,42027
15.84760,43358
15.85572,41520
15.86385,45147
15.87197,42915
15.88008,47438
15.88822,49062
15.89633,40973
15.90447,43993
15.91258,51837
15.92070,47482
15.92883,47216
15.93695,46419
15.94508,46885
15.95320,41389
15.96132,49292
15.96945,46492
15.97757,41437
15.98568,43322
15.99382,42407
16.00193,39819
16.01007,52102
16.01818,56167
16.02630,60165
16.03443,69741
16.04255,77738
16.05068,86655
16.05880,89777
16.06692,83683
16.07505,75935
16.08317,64696
16.09128,60244
16.09942,54745
16.10753,59565
16.11567,59098
16.12378,55376
16.13190,48590
16.14003,46280
16.14815,47368
16.15628,52030
16.16440,51510
16.17252,49250
16.18065,44205
16.18877,50967
16.19690,52246
16.20502,49356
16.21313,45962
16.22127,48207
16.22938,44631
16.23750,49567
16.24563,49078
16.25375,44938
16.26188,46610
16.27000,47155
16.27812,46630
16.28625,45911
16.29437,47213
16.30250,44426
16.31062,45772
16.31873,46293
16.32687,46263
16.33498,44757
16.34310,47706
16.35123,48102
16.35935,48747
16.36748,54652
16.37560,51015
16.38372,45844
16.39185,48550
16.39997,50378
16.40810,49023
16.41622,49090
16.42433,50430
16.43247,49309
16.44058,46382
16.44872,49362
16.45683,46520
16.46495,47773
16.47308,47282
16.48120,44242
16.48932,45993
16.49745,44243
16.50557,50709
16.51370,46389
16.52182,42824
16.52993,52485
16.53807,47230
16.54618,44977
16.55432,43971
16.56243,44785
16.57055,43873
16.57868,48638
16.58680,48755
16.59493,47046
16.60305,45665
16.61117,43170
16.61930,41872
16.62742,46664
16.63553,43069
16.64367,44323
16.65178,44709
16.65992,47281
16.66803,45546
16.67615,43592
16.68428,41833
16.69240,43824
16.70053,43588
16.70865,43182
16.71677,39895
16.72490,47179
16.73302,44906
16.74113,40946
16.74927,45364
16.75738,42880
16.76552,44547
16.77363,46822
16.78175,44807
16.78988,43077
16.79800,42056
16.80613,42282
16.81425,38010
16.82237,43081
16.83050,45151
16.83862,42547
16.84675,40413
16.85487,41294
16.86298,45856
16.87112,42534
16.87923,43252
16.88735,40365
16.89548,40399
16.90360,44338
16.91173,38790
16.91985,39058
16.92797,42083
16.93610,43026
16.94422,38793
16.95235,44033
16.96047,43967
16.96858,42478
16.97672,42159
16.98483,42922
16.99297,43271
17.00108,39301
17.00920,40618
17.01733,39414
17.02545,43699
17.03357,42678
17.04170,38196
17.04982,42876
17.05795,39175
17.06607,38609
17.07418,46492
17.08232,42786
17.09043,46459
17.09857,45645
17.10668,45083
17.11480,44168
17.12293,39853
17.13105,44809
17.13917,44728
17.14730,45236
17.15542,44082
17.16355,42164
17.17167,39950
17.17978,43405
17.18792,39469
17.19603,46297
17.20417,43575
17.21228,45387
17.22040,42557
17.22853,41545
17.23665,40843
17.24478,45485
17.25290,41815
17.26102,43595
17.26915,38834
17.27727,46000
17.28538,38838
17.29352,39878
17.30163,38775
17.30977,41336
17.31788,39154
17.32600,40583
17.33413,41988
17.34225,37694
17.35038,45811
17.35850,47095
17.36662,46628
17.37475,52870
17.38287,58254
17.39098,60261
17.39912,61839
17.40723,58874
17.41537,51307
17.42348,52501
17.43160,46131
17.43973,50825
17.44785,46740
17.45598,46713
17.46410,46535
17.47222,47237
17.48035,45305
17.48847,40070
17.49660,45748
17.50472,46570
17.51283,49441
17.52097,44258
17.52908,44852
17.53720,45607
17.54533,48527
17.55345,51187
17.56158,46294
17.56970,47453
17.57782,43953
17.58595,43190
17.59407,45056
17.60220,42479
17.61032,52411
17.61843,43198
17.62657,42013
17.63468,43311
17.64282,41507
17.65093,40893
17.65905,40671
17.66718,45441
17.67530,45873
17.68342,52197
17.69155,50692
17.69967,54561
17.70780,56291
17.71592,53820
17.72403,54598
17.73217,50422
17.74028,47998
17.74842,50207
17.75653,51977
17.76465,49553
17.77278,50536
17.78090,48700
17.78903,46766
17.79715,48533
17.80527,46317
17.81340,42339
17.82152,45592
17.82963,44834
17.83777,48199
17.84588,50995
17.85402,44932
17.86213,47985
17.87025,49389
17.87838,45404
17.88650,46345
17.89463,44898
17.90275,43615
17.91087,39315
17.91900,41038
17.92712,41757
17.93523,46303
17.94337,44760
17.95148,43326
17.95962,42585
17.96773,43766
17.97585,41580
17.98398,41746
17.99210,40804
18.00023,40956
18.00835,42416
18.01647,42030
18.02460,40159
18.03272,38244
18.04085,41241
18.04897,41842
18.05708,44352
18.06522,44849
18.07333,42444
18.08145,41829
18.08958,49334
18.09770,47587
18.10583,56866
18.11395,57818
18.12207,53258
18.13020,53944
18.13832,49747
18.14645,49878
18.15457,47883
18.16268,49496
18.17082,46411
18.17893,45704
18.18705,40875
18.19518,44530
18.20330,44477
18.21143,47132
18.21955,42668
18.22767,44861
18.23580,44709
18.24392,43164
18.25205,41280
18.26017,47057
18.26828,44378
18.27642,49386
18.28453,43287
18.29267,49604
18.30078,45809
18.30890,38715
18.31703,41034
18.32515,42600
18.33327,45490
18.34140,41597
18.34952,41198
18.35765,36887
18.36577,42369
18.37388,39588
18.38202,42413
18.39013,37788
18.39827,39325
18.40638,44461
18.41450,41265
18.42263,37591
18.43075,36859
18.43888,42397
18.44700,39254
18.45512,41096
18.46325,40480
18.47137,44275
18.47948,43831
18.48762,38860
18.49573,39855
18.50387,41993
18.51198,41499
18.52010,41218
18.52823,40400
18.53635,43801
18.54448,37678
18.55260,44368
18.56072,43039
18.56885,42411
18.57697,42184
18.58508,43533
18.59322,42613
18.60133,45230
18.60947,48342
18.61758,42028
18.62570,46889
18.63383,43846
18.64195,46826
18.65008,43299
18.65820,42114
18.66632,44435
18.67445,45512
18.68257,43540
18.69070,43732
18.69882,42012
18.70693,43336
18.71507,46382
18.72318,45921
18.73130,40949
18.73943,42897
18.74755,45007
18.75568,40317
18.76380,50861
18.77192,41989
18.78005,44693
18.78817,45134
18.79630,46469
18.80442,46079
18.81253,40594
18.82067,46289
18.82878,42012
18.83692,45639
18.84503,46473
18.85315,42224
18.86128,46357
18.86940,47916
18.87752,44413
18.88565,46176
18.89377,44173
18.90190,41847
18.91002,44142
18.91813,46226
18.92627,41502
18.93438,46326
18.94252,44670
18.95063,45319
18.95875,46261
18.96688,40415
18.97500,39374
18.98312,42436
18.99125,46959
18.99937,42212
19.00750,41002
19.01562,40080
19.02373,46123
19.03187,39695
19.03998,44804
19.04812,45484
19.05623,44550
19.06435,45103
19.07248,45113
19.08060,49040
19.08873,48421
19.09685,55409
19.10497,60994
19.11310,70804
19.12122,90548
19.12933,92521
19.13747,94202
19.14558,96451
19.15372,83480
19.16183,78063
19.16995,79152
19.17808,68084
19.18620,64933
19.19433,64994
19.20245,65071
19.21057,58864
19.21870,61987
19.22682,56106
19.23493,51910
19.24307,50847
19.25118,48335
19.25932,49066
19.26743,49728
19.27555,47086
19.28368,53374
19.29180,54487
19.29993,68414
19.30805,70159
19.31617,83437
19.32430,77222
19.33242,68850
19.34055,67045
19.34867,62223
19.35678,58506
19.36492,52314
19.37303,56353
19.38115,54317
19.38928,52535
19.39740,49169
19.40553,48500
19.41365,49577
19.42177,50212
19.42990,52158
19.43802,47297
19.44615,51693
19.45427,47346
19.46238,44690
19.47052,45280
19.47863,45275
19.48677,52757
19.49488,48857
19.50300,61081
19.51113,70398
19.51925,89552
19.52737,102453
19.53550,112008
19.54362,102479
19.55175,97350
19.55987,78877
19.56798,67233
19.57612,53527
19.58423,51013
19.59237,55510
19.60048,51735
19.60860,48231
19.61673,44201
19.62485,49539
19.63297,52572
19.64110,64794
19.64922,97436
19.65735,180609
19.66547,299742
19.67358,459432
19.68172,641035
19.68983,778304
19.69797,778966
19.70608,682451
19.71420,526397
19.72233,383687
19.73045,268234
19.73858,196284
19.74670,163607
19.75482,136511
19.76295,116262
19.77107,106456
19.77918,95947
19.78732,77369
19.79543,76007
19.80357,70756
19.81168,75323
19.81980,66580
19.82793,65216
19.83605,72385
19.84418,61849
19.85230,62672
19.86042,66275
19.86855,59355
19.87667,64945
19.88480,63680
19.89292,72386
19.90103,77176
19.90917,90716
19.91728,105853
19.92540,106412
19.93353,110596
19.94165,107742
19.94978,100481
19.95790,96481
19.96602,88674
19.97415,84334
19.98227,84741
19.99040,78883
19.99852,76331
20.00663,80286
20.01477,71708
20.02288,78985
20.03100,75394
20.03913,71143
20.04725,69629
20.05538,64997
20.06350,62653
20.07162,57228
20.07975,61032
20.08787,55187
20.09600,57780
20.10412,51996
20.11223,53625
20.12037,55552
20.12848,52538
20.13662,54742
20.14473,53852
20.15285,49977
20.16098,56046
20.16910,49604
20.17722,51953
20.18535,48661
20.19347,51531
20.20160,57968
20.20972,49041
20.21783,49332
20.22597,49186
20.23408,49857
20.24222,51310
20.25033,59920
20.25845,69672
20.26658,105635
20.27470,161732
20.28283,222097
20.29095,287141
20.29907,349262
20.30720,360183
20.31532,326496
20.32343,273430
20.33157,206439
20.33968,149985
20.34782,120599
20.35593,100426
20.36405,83530
20.37218,80797
20.38030,75054
20.38843,76731
20.39655,74496
20.40467,73764
20.41280,75617
20.42092,79903
20.42903,92036
20.43717,112989
20.44528,131917
20.45342,144679
20.46153,165680
20.46965,168318
20.47778,162197
20.48590,140475
20.49403,121113
20.50215,108203
20.51027,101228
20.51840,88270
20.52652,88066
20.53465,79363
20.54277,78391
20.55088,79672
20.55902,80426
20.56713,70324
20.57525,76165
20.58338,75147
20.59150,69742
20.59963,66774
20.60775,71273
20.61587,73128
20.62400,69412
20.63212,72752
20.64025,71930
20.64837,70517
20.65648,73105
20.66462,67519
20.67273,71340
20.68085,66299
20.68898,67986
20.69710,67294
20.70523,67544
20.71335,67877
20.72147,62575
20.72960,65406
20.73772,69920
20.74585,67354
20.75397,64971
20.76208,63116
20.77022,67202
20.77833,65850
20.78647,64759
20.79458,63003
20.80270,62523
20.81083,60789
20.81895,62943
20.82707,61486
20.83520,60925
20.84332,60639
20.85145,59846
20.85957,61331
20.86768,59498
20.87582,61591
20.88393,61483
20.89207,68668
20.90018,59985
20.90830,56647
20.91643,60896
20.92455,58685
20.93268,55939
20.94080,59000
20.94892,62859
20.95705,62603
20.96517,58261
20.97328,62961
20.98142,54838
20.98953,60137
20.99767,55682
21.00578,55560
21.01390,55073
21.02203,58857
21.03015,56641
21.03828,55352
21.04640,57862
21.05452,59221
21.06265,57433
21.07077,54419
21.07888,51823
21.08702,58419
21.09513,58925
21.10327,57847
21.11138,54233
21.11950,55037
21.12763,50500
21.13575,52880
21.14388,55274
21.15200,57512
21.16012,54194
21.16825,57342
21.17637,57163
21.18450,55045
21.19262,57965
21.20073,59521
21.20887,56710
21.21698,59470
21.22510,57458
21.23323,53046
21.24135,58618
21.24948,56763
21.25760,59480
21.26572,60577
21.27385,66203
21.28197,57851
21.29010,59867
21.29822,59874
21.30633,63842
21.31447,58095
21.32258,57151
21.33072,59022
21.33883,57372
21.34695,55959
21.35508,55467
21.36320,54079
21.37132,55249
21.37945,49811
21.38757,48924
21.39570,56871
21.40382,55110
21.41193,48350
21.42007,51790
21.42818,53566
21.43632,56905
21.44443,51489
21.45255,55629
21.46068,54255
21.46880,53506
21.47692,53462
21.48505,50638
21.49317,50096
21.50130,50910
21.50942,52350
21.51753,49947
21.52567,47758
21.53378,49113
21.54192,49059
21.55003,54340
21.55815,52947
21.56628,54449
21.57440,60664
21.58253,53131
21.59065,54035
21.59877,52050
21.60690,52804
21.61502,51192
21.62313,57933
21.63127,71202
21.63938,84697
21.64752,110164
21.65563,121126
21.66375,129524
21.67188,135662
21.68000,106419
21.68813,92848
21.69625,75895
21.70437,68571
21.71250,56906
21.72062,55290
21.72873,57968
21.73687,59261
21.74498,56312
21.75312,54762
21.76123,55895
21.76935,60187
21.77748,56985
21.78560,56506
21.79373,58602
21.80185,58222
21.80997,60042
21.81810,58189
21.82622,64080
21.83435,76524
21.84247,97633
21.85058,113689
21.85872,119325
21.86683,115177
21.87495,109188
21.88308,88839
21.89120,76029
21.89933,68444
21.90745,59153
21.91557,55530
21.92370,54104
21.93182,54571
21.93995,52211
21.94807,49874
21.95618,51572
21.96432,54654
21.97243,50067
21.98057,50833
21.98868,50820
21.99680,52915
22.00493,46554
22.01305,48408
22.02117,47523
22.02930,46150
22.03742,43953
22.04555,52509
22.05367,46016
22.06178,44705
22.06992,48295
22.07803,51044
22.08617,55723
22.09428,53738
22.10240,58055
22.11053,58953
22.11865,60135
22.12677,58938
22.13490,56072
22.14302,58305
22.15115,54917
22.15927,56107
22.16738,57378
22.17552,59001
22.18363,57368
22.19177,52733
22.19988,50485
22.20800,53335
22.21613,51773
22.22425,51637
22.23238,56900
22.24050,65135
22.24862,62686
22.25675,62974
22.26487,59126
22.27298,63072
22.28112,49704
22.28923,50636
22.29737,49469
22.30548,44831
22.31360,48689
22.32173,47880
22.32985,46727
22.33798,49510
22.34610,42663
22.35422,45080
22.36235,43103
22.37047,44702
22.37860,45933
22.38672,44628
22.39483,41484
22.40297,42965
22.41108,40956
22.41920,38853
22.42733,43033
22.43545,38494
22.44358,43139
22.45170,45024
22.45982,45284
22.46795,46643
22.47607,47038
22.48420,43339
22.49232,45478
22.50043,46458
22.50857,39731
22.51668,39951
22.52480,46485
22.53293,40642
22.54105,39687
22.54918,40969
22.55730,40080
22.56542,39135
22.57355,42531
22.58167,40636
22.58980,39496
22.59792,36146
22.60603,40016
22.61417,40424
22.62228,38963
22.63042,40472
22.63853,39644
22.64665,38756
22.65478,40856
22.66290,38852
22.67102,40426
22.67915,42111
22.68727,43091
22.69540,39032
22.70352,42359
22.71163,42204
22.71977,46961
22.72788,43096
22.73602,44959
22.74413,44615
22.75225,42211
22.76038,41992
22.76850,43624
22.77662,39864
22.78475,39802
22.79287,42349
22.80100,44751
22.80912,36963
22.81723,38348
22.82537,36990
22.83348,36352
22.84162,40157
22.84973,39774
22.85785,43868
22.86598,43113
22.87410,45053
22.88223,46083
22.89035,45445
22.89847,55470
22.90660,51990
22.91472,57627
22.92283,70301
22.93097,95271
22.93908,122244
22.94722,133195
22.95533,144029
22.96345,144706
22.97158,151971
22.97970,132442
22.98783,123985
22.99595,111696
23.00407,104757
23.01220,89880
23.02032,75407
23.02845,73660
23.03657,69395
23.04468,66024
23.05282,59118
23.06093,56904
23.06905,49188
23.07718,45116
23.08530,48161
23.09343,47803
23.10155,52081
23.10967,43455
23.11780,46435
23.12592,46019
23.13405,43310
23.14217,43698
23.15028,39126
23.15842,40421
23.16653,43899
23.17467,44082
23.18278,41161
23.19090,44500
23.19903,42831
23.20715,38773
23.21527,42781
23.22340,41725
23.23152,37637
23.23965,37117
23.24777,38006
23.25588,35882
23.26402,39155
23.27213,40839
23.28027,38894
23.28838,40185
23.29650,35201
23.30463,35322
23.31275,39868
23.32087,38298
23.32900,38954
23.33712,42062
23.34525,41477
23.35337,38244
23.36148,36730
23.36962,39417
23.37773,40971
23.38587,37703
23.39398,38664
23.40210,38047
23.41023,41985
23.41835,40802
23.42648,43169
23.43460,41729
23.44272,38623
23.45085,39354
23.45897,42274
23.46708,41523
23.47522,41831
23.48333,38572
23.49147,39209
23.49958,41188
23.50770,43037
23.51583,41641
23.52395,40876
23.53208,39274
23.54020,39183
23.54832,43031
23.55645,40762
23.56457,40034
23.57268,46885
23.58082,42506
23.58893,43161
23.59707,44307
23.60518,44262
23.61330,37430
23.62143,36954
23.62955,40536
23.63768,40162
23.64580,40010
23.65392,43244
23.66205,42192
23.67017,48877
23.67830,50416
23.68642,50385
23.69453,54255
23.70267,50421
23.71078,45944
23.71890,47260
23.72703,44797
23.73515,47723
23.74328,62146
23.75140,102541
23.75952,272012
23.76765,798705
23.77577,2070049
23.78390,4112825
23.79202,6199007
23.80013,7516974
23.80827,7707504
23.81638,6778249
23.82452,5475920
23.83263,3960050
23.84075,2726254
23.84888,1955676
23.85700,1391228
23.86512,1054934
23.87325,848800
23.88137,701252
23.88950,601532
23.89762,544242
23.90573,487585
23.91387,435745
23.92198,399394
23.93012,357200
23.93823,336819
23.94635,309142
23.95448,298243
23.96260,272835
23.97072,254126
23.97885,254750
23.98697,234709
23.99510,223823
24.00322,216396
24.01133,202806
24.01947,206089
24.02758,188588
24.03572,199338
24.04383,190926
24.05195,183298
24.06008,171027
24.06820,167495
24.07633,161092
24.08445,156199
24.09257,157568
24.10070,147983
24.10882,151495
24.11693,138618
24.12507,142856
24.13318,144470
24.14132,146092
24.14943,146319
24.15755,151850
24.16568,150876
24.17380,139693
24.18193,137158
24.19005,132884
24.19817,126488
24.20630,121189
24.21442,130558
24.22255,128695
24.23067,130524
24.23878,139466
24.24692,138262
24.25503,139101
24.26315,126284
24.27128,128672
24.27940,120166
24.28753,129345
24.29565,119153
24.30377,121637
24.31190,122425
24.32002,124983
24.32815,115260
24.33627,106626
24.34438,103496
24.35252,101729
24.36063,96985
24.36875,95831
24.37688,101334
24.38500,97442
24.39313,96260
24.40125,107195
24.40937,108729
24.41750,119509
24.42562,130274
24.43375,121531
24.44187,109829
24.44998,99124
24.45812,92172
24.46623,90659
24.47437,84532
24.48248,82486
24.49060,78987
24.49873,85363
24.50685,83230
24.51497,94304
24.52310,103196
24.53122,112016
24.53935,109276
24.54747,112559
24.55558,101764
24.56372,96198
24.57183,91972
24.57997,84504
24.58808,78574
24.59620,83840
24.60433,85619
24.61245,90520
24.62057,90767
24.62870,103358
24.63682,106036
24.64495,107939
24.65307,100117
24.66118,100011
24.66932,100056
24.67743,98530
24.68557,99645
24.69368,93612
24.70180,91074
24.70993,86237
24.71805,84286
24.72618,75119
24.73430,70428
24.74242,78135
24.75055,71709
24.75867,70290
24.76678,70376
24.77492,72444
24.78303,68741
24.79117,71560
24.79928,68110
24.80740,67957
24.81553,70027
24.82365,66416
24.83178,67938
24.83990,63390
24.84802,65890
24.85615,60163
24.86427,62678
24.87240,65262
24.88052,61711
24.88863,60365
24.89677,63586
24.90488,60051
24.91300,64003
24.92113,63007
24.92925,61988
24.93738,60679
24.94550,61127
24.95362,58888
24.96175,59187
24.96987,57474
24.97800,60146
24.98612,57785
24.99423,60447
25.00237,60854
25.01048,65683
25.01860,60982
25.02673,59332
25.03485,55871
25.04298,56139
25.05110,54567
25.05922,61382
25.06735,57515
25.07547,63052
25.08360,57123
25.09172,57466
25.09983,56482
25.10797,55027
25.11608,61297
25.12422,60004
25.13233,57017
25.14045,61733
25.14858,56544
25.15670,59930
25.16482,66188
25.17295,62704
25.18107,63580
25.18920,63071
25.19732,64504
25.20543,65815
25.21357,65382
25.22168,62152
25.22982,59962
25.23793,60365
25.24605,59247
25.25418,58732
25.26230,58078
25.27043,58631
25.27855,57909
25.28667,57667
25.29480,59668
25.30292,67908
25.31103,73847
25.31917,79026
25.32728,84237
25.33542,84815
25.34353,83530
25.35165,71830
25.35978,69237
25.36790,68883
25.37603,63116
25.38415,58027
25.39227,61452
25.40040,56238
25.40852,54808
25.41663,57732
25.42477,49479
25.43288,51797
25.44102,55571
25.44913,49505
25.45725,55960
25.46538,58963
25.47350,55827
25.48163,62524
25.48975,60537
25.49787,65301
25.50600,60131
25.51412,59405
25.52225,56651
25.53037,59766
25.53848,56350
25.54662,51281
25.55473,52336
25.56285,52379
25.57098,53765
25.57910,51664
25.58723,51663
25.59535,50562
25.60347,49739
25.61160,48686
25.61972,53172
25.62785,52791
25.63597,48378
25.64408,51223
25.65222,48079
25.66033,47891
25.66847,52261
25.67658,49858
25.68470,48878
25.69283,48521
25.70095,49076
25.70907,47526
25.71720,46601
25.72532,50906
25.73345,48168
25.74157,50146
25.74968,55542
25.75782,46360
25.76593,52116
25.77407,49951
25.78218,47217
25.79030,44002
25.79843,52248
25.80655,48178
25.81467,51634
25.82280,48748
25.83092,44908
25.83905,52554
25.84717,52493
25.85528,46624
25.86342,47118
25.87153,48151
25.87967,43716
25.88778,50107
25.89590,43770
25.90403,50081
25.91215,46328
25.92028,43850
25.92840,44976
25.93652,46271
25.94465,53738
25.95277,44184
25.96088,47976
25.96902,43410
25.97713,47383
25.98527,48578
25.99338,44328
26.00150,46459
26.00963,43238
26.01775,43919
26.02588,43224
26.03400,45468
26.04212,43184
26.05025,45150
26.05837,46763
26.06648,45643
26.07462,47485
26.08273,57947
26.09087,45837
26.09898,48179
26.10710,50332
26.11523,49048
26.12335,56202
26.13148,61556
26.13960,66481
26.14772,67968
26.15585,74566
26.16397,75682
26.17210,67341
26.18022,64036
26.18833,60992
26.19647,55469
26.20458,60146
26.21270,56487
26.22083,54086
26.22895,51208
26.23708,50294
26.24520,48787
26.25332,52290
26.26145,48715
26.26957,48032
26.27770,52955
26.28582,51688
26.29393,47899
26.30207,51654
26.31018,48071
26.31832,48415
26.32643,49371
26.33455,48229
26.34268,48935
26.35080,49076
26.35892,49326
26.36705,46215
26.37517,49269
26.38330,45494
26.39142,43205
26.39953,41236
26.40767,46973
26.41578,44065
26.42392,43720
26.43203,42752
26.44015,41925
26.44828,47401
26.45640,48474
26.46452,42992
26.47265,44977
26.48077,46740
26.48890,44722
26.49702,43622
26.50513,49538
26.51327,44596
26.52138,44060
26.52952,45286
26.53763,48663
26.54575,49160
26.55388,47041
26.56200,44923
26.57013,48370
26.57825,50854
26.58637,43976
26.59450,42342
26.60262,47519
26.61073,46941
26.61887,46499
26.62698,49111
26.63512,47769
26.64323,47125
26.65135,43965
26.65948,48663
26.66760,43659
26.67573,46293
26.68385,48975
26.69197,50107
26.70010,47521
26.70822,49813
26.71635,49223
26.72447,51010
26.73258,48008
26.74072,50079
26.74883,48908
26.75695,51898
26.76508,49030
26.77320,46886
26.78133,51735
26.78945,53550
26.79757,49121
26.80570,54777
26.81382,55410
26.82195,55660
26.83007,56209
26.83818,57828
26.84632,58307
26.85443,52787
26.86255,56347
26.87068,53880
26.87880,56730
26.88693,55761
26.89505,58946
26.90317,55634
26.91130,66509
26.91942,57952
26.92755,51327
26.93567,52941
26.94378,61802
26.95192,64972
26.96003,73734
26.96817,99195
26.97628,171525
26.98440,380280
26.99253,782726
27.00065,1662072
27.00877,3172860
27.01690,4981037
27.02502,6299820
27.03315,6507261
27.04127,6031732
27.04938,4906556
27.05752,3530603
27.06563,2640501
27.07377,1917181
27.08188,1369823
27.09000,1062958
27.09813,823718
27.10625,673930
27.11437,569359
27.12250,502083
27.13062,426447
27.13875,394462
27.14687,361194
27.15498,322759
27.16312,303819
27.17123,273007
27.17937,253003
27.18748,242669
27.19560,231536
27.20373,221574
27.21185,201162
27.21998,193087
27.22810,195537
27.23622,187659
27.24435,173151
27.25247,164311
27.26058,153278
27.26872,153613
27.27683,147550
27.28497,151124
27.29308,145917
27.30120,130800
27.30933,135349
27.31745,125370
27.32558,123005
27.33370,122342
27.34182,118410
27.34995,119917
27.35807,111950
27.36620,112827
27.37432,114461
27.38243,102153
27.39057,102530
27.39868,109993
27.40680,107578
27.41493,102105
27.42305,100752
27.43118,94863
27.43930,97310
27.44742,98771
27.45555,92964
27.46367,90659
27.47180,89583
27.47992,91917
27.48803,90225
27.49617,90778
27.50428,84943
27.51240,83560
27.52053,84011
27.52865,85420
27.53678,82274
27.54490,94542
27.55302,86069
27.56115,85455
27.56927,89763
27.57740,85845
27.58552,83019
27.59363,74616
27.60177,76552
27.60988,80130
27.61802,79603
27.62613,79857
27.63425,79502
27.64238,80696
27.65050,72934
27.65862,74273
27.66675,72648
27.67487,71144
27.68300,68810
27.69112,65958
27.69923,69465
27.70737,66266
27.71548,70102
27.72362,71080
27.73173,69953
27.73985,68454
27.74798,68735
27.75610,71173
27.76423,65203
27.77235,68371
27.78047,66325
27.78860,69041
27.79672,61504
27.80483,67080
27.81297,65432
27.82108,62180
27.82922,62785
27.83733,64730
27.84545,65982
27.85358,63541
27.86170,63989
27.86983,69975
27.87795,67410
27.88607,62977
27.89420,63652
27.90232,62829
27.91043,63924
27.91857,59654
27.92668,59353
27.93482,58844
27.94293,56764
27.95105,59727
27.95918,58802
27.96730,59588
27.97543,59482
27.98355,59416
27.99167,57511
27.99980,52734
28.00792,65941
28.01605,54059
28.02417,56070
28.03228,59479
28.04042,57412
28.04853,56547
28.05665,60153
28.06478,56410
28.07290,55634
28.08103,53919
28.08915,56605
28.09727,53687
28.10540,52878
28.11352,55357
28.12165,53136
28.12977,52183
28.13788,52456
28.14602,53920
28.15413,54153
28.16225,53208
28.17038,49432
28.17850,47612
28.18663,50984
28.19475,50704
28.20287,55724
28.21100,56865
28.21912,58378
28.22725,64940
28.23537,66302
28.24348,65953
28.25162,66846
28.25973,59457
28.26787,56260
28.27598,56328
28.28410,56613
28.29223,57951
28.30035,64853
28.30847,80996
28.31660,114681
28.32472,167389
28.33285,221596
28.34097,304527
28.34908,416481
28.35722,486311
28.36533,573019
28.37347,637021
28.38158,669014
28.38970,685940
28.39783,662763
28.40595,595250
28.41408,542998
28.42220,484588
28.43032,423172
28.43845,378711
28.44657,321011
28.45468,282753
28.46282,254527
28.47093,231503
28.47907,203361
28.48718,185518
28.49530,167502
28.50343,163506
28.51155,146102
28.51968,138666
28.52780,138400
28.53592,127056
28.54405,117487
28.55217,111704
28.56030,117415
28.56842,106557
28.57653,108683
28.58467,99870
28.59278,102286
28.60090,101474
28.60903,97035
28.61715,93367
28.62528,95472
28.63340,93028
28.64152,92975
28.64965,94622
28.65777,100548
28.66590,109706
28.67402,109273
28.68213,108462
28.69027,100474
28.69838,98816
28.70650,90620
28.71463,90565
28.72275,84706
28.73088,78100
28.73900,78915
28.74712,78605
28.75525,78558
28.76337,74995
28.77150,83188
28.77962,86253
28.78773,85944
28.79587,94274
28.80398,86649
28.81212,84274
28.82023,80756
28.82835,72365
28.83648,69615
28.84460,70240
28.85272,69148
28.86085,66942
28.86897,67725
28.87710,70168
28.88522,64219
28.89333,64358
28.90147,68116
28.90958,70485
28.91772,75467
28.92583,63795
28.93395,67944
28.94208,66902
28.95020,68406
28.95832,76224
28.96645,72207
28.97457,79477
28.98270,73729
28.99082,76314
28.99893,75470
29.00707,71010
29.01518,71493
29.02332,66902
29.03143,64935
29.03955,64250
29.04768,63028
29.05580,58336
29.06393,66003
29.07205,65717
29.08017,60250
29.08830,58065
29.09642,61781
29.10453,62238
29.11267,63759
29.12078,63747
29.12892,59316
29.13703,67451
29.14515,61362
29.15328,64373
29.16140,62228
29.16953,61618
29.17765,62365
29.18577,57427
29.19390,63243
29.20202,61281
29.21015,66983
29.21827,63359
29.22638,58552
29.23452,60316
29.24263,61752
29.25075,58246
29.25888,64077
29.26700,60664
29.27513,55780
29.28325,59595
29.29137,63912
29.29950,63504
29.30762,58340
29.31575,59285
29.32387,57611
29.33198,60464
29.34012,63702
29.34823,57138
29.35635,57702
29.36448,57844
29.37260,54231
29.38073,57673
29.38885,60851
29.39697,58097
29.40510,61685
29.41322,55569
29.42135,54953
29.42947,54972
29.43758,58621
29.44572,58083
29.45383,55451
29.46197,54778
29.47008,57024
29.47820,55231
29.48633,58369
29.49445,58205
29.50257,60863
29.51070,65471
29.51882,70867
29.52695,69206
29.53507,69732
29.54318,71595
29.55132,61324
29.55943,57660
29.56757,52838
29.57568,51623
29.58380,52522
29.59193,52271
29.60005,54385
29.60818,56516
29.61630,52889
29.62442,52462
29.63255,56848
29.64067,53653
29.64878,55121
29.65692,55401
29.66503,57659
29.67317,47930
29.68128,52585
29.68940,51644
29.69753,55636
29.70565,52383
29.71378,47894
29.72190,49298
29.73002,52502
29.73815,47086
29.74627,54919
29.75438,51095
29.76252,57106
29.77063,46625
29.77877,49328
29.78688,49652
29.79500,49769
29.80313,51195
29.81125,43438
29.81938,49334
29.82750,49726
29.83562,50504
29.84375,45556
29.85187,48300
29.86000,47220
29.86812,45640
29.87623,47041
29.88437,48378
29.89248,50941
29.90060,53615
29.90873,55888
29.91685,53286
29.92498,58255
29.93310,57299
29.94122,61731
29.94935,65568
29.95747,75230
29.96560,83685
29.97372,95815
29.98183,114985
29.98997,130887
29.99808,143066
30.00620,170388
30.01433,182955
30.02245,199285
30.03058,200313
30.03870,217502
30.04682,217362
30.05495,216277
30.06307,200818
30.07120,199252
30.07932,199503
30.08743,178357
30.09557,169101
30.10368,163102
30.11182,153887
30.11993,139169
30.12805,130188
30.13618,123131
30.14430,116099
30.15242,108908
30.16055,107034
30.16867,99428
30.17680,92581
30.18492,95988
30.19303,87814
30.20117,81957
30.20928,78986
30.21742,75856
30.22553,73134
30.23365,74819
30.24178,70659
30.24990,75891
30.25803,72544
30.26615,67935
30.27427,63017
30.28240,65672
30.29052,69256
30.29863,61855
30.30677,66189
30.31488,60660
30.32302,63331
30.33113,63335
30.33925,60052
30.34738,60369
30.35550,60654
30.36363,57430
30.37175,53871
30.37987,53293
30.38800,61828
30.39612,66017
30.40423,51638
30.41237,56324
30.42048,57633
30.42862,56234
30.43673,55189
30.44485,52256
30.45298,54735
30.46110,53445
30.46923,50807
30.47735,50941
30.48547,52097
30.49360,50581
30.50172,46874
30.50985,51976
30.51797,52355
30.52608,53552
30.53422,53248
30.54233,55448
30.55045,50302
30.55858,54442
30.56670,51072
30.57483,51976
30.58295,53093
30.59107,55694
30.59920,50152
30.60732,48489
30.61545,52636
30.62357,47116
30.63168,47654
30.63982,49258
30.64793,50318
30.65607,46892
30.66418,45009
30.67230,47763
30.68043,48709
30.68855,45271
30.69667,45040
30.70480,45962
30.71292,44004
30.72105,47642
30.72917,47106
30.73728,48413
30.74542,50872
30.75353,42468
30.76167,49061
30.76978,52834
30.77790,48224
30.78603,50094
30.79415,42914
30.80227,45730
30.81040,51468
30.81852,47341
30.82665,49751
30.83477,49415
30.84288,46289
30.85102,47633
30.85913,50718
30.86727,49020
30.87538,44310
30.88350,46637
30.89163,46740
30.89975,51847
30.90788,40769
30.91600,50535
30.92412,45118
30.93225,42313
30.94037,45132
30.94848,46172
30.95662,44908
30.96473,47234
30.97287,43048
30.98098,43761
30.98910,43693
30.99723,43561
31.00535,45646
31.01348,48370
31.02160,46776
31.02972,51020
31.03785,50514
31.04597,48385
31.05410,51083
31.06222,52590
31.07033,50683
31.07847,52450
31.08658,56263
31.09470,60742
31.10283,68006
31.11095,75543
31.11908,81486
31.12720,82130
31.13532,74188
31.14345,66436
31.15157,64476
31.15970,56988
31.16782,52610
31.17593,52200
31.18407,54189
31.19218,53402
31.20030,59203
31.20843,57823
31.21655,68855
31.22468,77397
31.23280,91245
31.24092,83385
31.24905,75374
31.25717,73537
31.26530,59332
31.27342,57383
31.28153,54484
31.28967,57230
31.29778,48580
31.30592,47470
31.31403,48900
31.32215,47440
31.33028,46801
31.33840,43492
31.34652,52130
31.35465,45066
31.36277,45919
31.37090,45221
31.37902,51272
31.38713,47714
31.39527,43051
31.40338,43650
31.41152,46437
31.41963,43398
31.42775,49190
31.43588,48152
31.44400,49872
31.45212,50468
31.46025,47377
31.46837,47786
31.47650,48743
31.48462,41653
31.49273,42238
31.50087,44465
31.50898,43721
31.51712,44840
31.52523,44657
31.53335,44735
31.54148,44783
31.54960,46264
31.55773,43810
31.56585,47237
31.57397,42644
31.58210,51576
31.59022,41574
31.59833,44463
31.60647,44542
31.61458,48011
31.62272,40806
31.63083,48129
31.63895,43849
31.64708,44028
31.65520,47870
31.66333,44451
31.67145,45343
31.67957,43396
31.68770,41257
31.69582,41802
31.70395,38687
31.71207,44522
31.72018,41103
31.72832,41489
31.73643,38221
31.74455,38485
31.75268,45452
31.76080,42390
31.76893,43491
31.77705,40944
31.78517,42925
31.79330,42929
31.80142,48125
31.80955,47866
31.81767,49765
31.82578,49074
31.83392,42808
31.84203,46556
31.85015,49799
31.85828,45706
31.86640,46363
31.87453,47192
31.88265,54346
31.89077,50178
31.89890,54178
31.90702,49028
31.91515,56652
31.92327,62056
31.93138,67142
31.93952,73243
31.94763,87382
31.95577,94626
31.96388,98009
31.97200,100016
31.98013,103618
31.98825,109017
31.99637,109410
32.00450,105247
32.01262,108020
32.02075,93593
32.02887,87404
32.03698,85557
32.04512,89009
32.05323,78250
32.06137,76492
32.06948,74451
32.07760,76101
32.08573,73598
32.09385,67960
32.10198,73167
32.11010,62726
32.11822,62288
32.12635,59193
32.13447,58348
32.14258,60829
32.15072,55796
32.15883,50523
32.16697,51420
32.17508,48753
32.18320,48981
32.19133,50227
32.19945,50023
32.20758,50984
32.21570,49485
32.22382,46658
32.23195,47693
32.24007,53640
32.24818,45131
32.25632,45809
32.26443,48590
32.27257,47790
32.28068,48998
32.28880,45653
32.29693,47896
32.30505,49327
32.31318,48187
32.32130,49183
32.32942,48143
32.33755,48865
32.34567,47393
32.35380,48998
32.36192,55390
32.37003,49230
32.37817,51203
32.38628,49961
32.39440,45064
32.40253,47107
32.41065,47951
32.41878,42638
32.42690,42326
32.43502,43932
32.44315,44937
32.45127,40643
32.45940,42749
32.46752,44989
32.47563,44716
32.48377,46951
32.49188,45070
32.50000,44865
32.50813,44041
32.51625,45455
32.52438,45572
32.53250,45480
32.54062,43449
32.54875,46888
32.55687,44085
32.56500,43614
32.57312,45856
32.58123,46126
32.58937,51882
32.59748,44679
32.60562,41982
32.61373,40335
32.62185,46848
32.62998,41675
32.63810,41292
32.64622,45020
32.65435,43673
32.66247,46655
32.67060,46429
32.67872,49438
32.68683,52795
32.69497,55932
32.70308,55832
32.71122,49797
32.71933,53009
32.72745,51583
32.73558,49645
32.74370,51309
32.75183,50414
32.75995,48333
32.76807,42235
32.77620,42386
32.78432,43907
32.79243,42199
32.80057,37352
32.80868,40538
32.81682,41057
32.82493,39902
32.83305,41423
32.84118,38531
32.84930,44443
32.85743,39877
32.86555,41084
32.87367,39280
32.88180,41492
32.88992,42071
32.89805,40969
32.90617,39583
32.91428,40322
32.92242,39914
32.93053,40846
32.93865,41747
32.94678,39516
32.95490,44709
32.96303,40736
32.97115,42032
32.97927,41013
32.98740,43859
32.99552,43072
33.00365,41205
33.01177,41884
33.01988,40669
33.02802,44763
33.03613,38206
33.04425,44414
33.05238,43497
33.06050,42662
33.06863,39671
33.07675,40019
33.08487,41471
33.09300,42942
33.10112,41789
33.10925,50939
33.11737,55674
33.12548,62614
33.13362,64821
33.14173,63219
33.14987,64204
33.15798,52165
33.16610,48242
33.17423,47144
33.18235,42838
33.19047,44072
33.19860,43772
33.20672,44799
33.21485,41690
33.22297,44679
33.23108,48221
33.23922,48201
33.24733,46116
33.25547,45403
33.26358,44050
33.27170,41602
33.27983,41260
33.28795,45811
33.29607,39370
33.30420,48094
33.31232,40258
33.32045,40485
33.32857,43343
33.33668,41578
33.34482,45130
33.35293,41671
33.36107,44832
33.36918,44650
33.37730,42773
33.38543,39128
33.39355,39749
33.40168,46809
33.40980,43480
33.41792,40533
33.42605,37651
33.43417,41886
33.44228,42703
33.45042,40674
33.45853,41898
33.46667,41100
33.47478,41760
33.48290,39416
33.49103,43444
33.49915,40494
33.50728,40260
33.51540,42190
33.52352,40196
33.53165,40395
33.53977,37561
33.54788,40457
33.55602,38879
33.56413,39614
33.57227,41126
33.58038,43395
33.58850,38780
33.59663,42022
33.60475,41486
33.61288,42893
33.62100,38984
33.62912,40070
33.63725,35093
33.64537,39228
33.65350,39005
33.66162,41851
33.66973,42183
33.67787,41324
33.68598,40969
33.69410,38385
33.70223,40064
33.71035,38722
33.71848,43354
33.72660,39238
33.73472,43872
33.74285,42386
33.75097,40135
33.75910,39832
33.76722,39322
33.77533,40776
33.78347,42256
33.79158,41385
33.79972,39866
33.80783,40701
33.81595,42738
33.82408,40415
33.83220,40647
33.84032,42045
33.84845,44673
33.85657,43816
33.86470,43241
33.87282,47105
33.88093,47161
33.88907,41262
33.89718,44835
33.90532,42697
33.91343,44547
33.92155,41771
33.92968,47647
33.93780,42573
33.94593,44251
33.95405,48781
33.96217,40660
33.97030,44167
33.97842,42189
33.98653,41351
33.99467,38973
34.00278,40558
34.01092,42273
34.01903,45325
34.02715,42153
34.03528,38957
34.04340,44065
34.05153,44841
34.05965,44140
34.06777,39985
34.07590,40676
34.08402,44297
34.09213,44065
34.10027,46733
34.10838,48199
34.11652,51936
34.12463,48609
34.13275,43931
34.14088,45401
34.14900,43807
34.15713,45375
34.16525,45189
34.17337,43690
34.18150,46300
34.18962,44764
34.19775,45951
34.20587,45009
34.21398,46127
34.22212,49138
34.23023,42363
34.23835,46825
34.24648,43955
34.25460,42057
34.26273,42977
34.27085,43993
34.27897,44022
34.28710,40885
34.29522,41974
34.30335,44204
34.31147,42088
34.31958,39664
34.32772,41247
34.33583,41603
34.34395,39974
34.35208,46406
34.36020,43080
34.36833,42896
34.37645,41334
34.38457,41858
34.39270,41148
34.40082,43346
34.40895,42559
34.41707,45342
34.42518,40576
34.43332,42344
34.44143,45707
34.44957,43095
34.45768,42700
34.46580,37591
34.47393,41482
34.48205,38608
34.49017,45693
34.49830,46350
34.50642,39919
34.51455,42637
34.52267,45165
34.53078,52369
34.53892,58539
34.54703,69274
34.55517,77527
34.56328,77857
34.57140,87431
34.57953,79487
34.58765,78420
34.59578,74885
34.60390,71624
34.61202,64223
34.62015,60204
34.62827,61758
34.63638,56463
34.64452,60519
34.65263,58679
34.66077,56333
34.66888,53566
34.67700,53235
34.68513,49762
34.69325,52742
34.70138,49184
34.70950,53837
34.71762,50037
34.72575,49022
34.73387,51208
34.74198,54241
34.75012,51251
34.75823,48982
34.76637,48380
34.77448,48144
34.78260,52067
34.79073,53782
34.79885,54332
34.80698,45131
34.81510,41824
34.82322,45279
34.83135,50316
34.83947,45582
34.84760,46148
34.85572,44151
34.86383,47358
34.87197,47383
34.88008,48867
34.88820,51255
34.89633,45595
34.90445,45117
34.91258,51894
34.92070,48989
34.92882,45651
34.93695,50920
34.94507,46350
34.95320,51011
34.96132,50478
34.96943,49053
34.97757,54136
34.98568,49753
34.99382,53475
35.00193,46787
35.01005,44040
35.01818,47234
35.02630,44781
35.03442,48502
35.04255,49071
35.05067,48041
35.05880,41573
35.06692,45981
35.07503,45213
35.08317,48883
35.09128,48559
35.09942,48527
35.10753,49034
35.11565,52276
35.12378,49753
35.13190,48789
35.14002,49599
35.14815,47073
35.15627,49897
35.16440,53674
35.17252,51665
35.18063,50786
35.18877,49983
35.19688,53112
35.20502,50180
35.21313,47451
35.22125,47687
35.22938,49896
35.23750,44268
35.24563,45848
35.25375,48844
35.26187,58038
35.27000,54410
35.27812,49123
35.28623,55709
35.29437,49900
35.30248,52843
35.31062,50400
35.31873,51211
35.32685,46581
35.33498,47169
35.34310,47948
35.35123,48311
35.35935,49535
35.36747,49377
35.37560,46664
35.38372,48829
35.39183,53887
35.39997,46668
35.40808,52534
35.41622,48260
35.42433,43864
35.43245,48962
35.44058,56382
35.44870,52509
35.45683,48976
35.46495,52926
35.47307,55815
35.48120,57704
35.48932,56064
35.49745,59448
35.50557,54595
35.51368,55265
35.52182,59100
35.52993,56707
35.53805,51819
35.54618,56911
35.55430,50260
35.56243,50847
35.57055,50371
35.57867,55846
35.58680,57684
35.59492,57811
35.60305,55552
35.61117,59437
35.61928,51678
35.62742,51653
35.63553,54098
35.64367,49964
35.65178,53893
35.65990,51770
35.66803,55702
35.67615,49837
35.68427,51173
35.69240,53322
35.70052,54819
35.70865,56933
35.71677,50424
35.72488,52778
35.73302,53889
35.74113,54756
35.74927,50404
35.75738,52747
35.76550,49614
35.77363,49547
35.78175,47983
35.78987,50900
35.79800,45859
35.80612,53215
35.81425,54582
35.82237,47253
35.83048,54356
35.83862,47126
35.84673,54957
35.85487,55160
35.86298,52092
35.87110,52433
35.87923,54747
35.88735,50620
35.89548,48887
35.90360,46654
35.91172,56698
35.91985,53407
35.92797,48946
35.93608,51711
35.94422,53435
35.95233,54157
35.96047,47928
35.96858,53672
35.97670,52436
35.98483,50814
35.99295,51067
36.00108,53264
36.00920,58836
36.01732,58324
36.02545,58665
36.03357,63415
36.04170,63686
36.04982,58533
36.05793,57872
36.06607,58138
36.07418,54445
36.08230,52840
36.09043,52900
36.09855,53699
36.10668,53889
36.11480,51592
36.12292,51606
36.13105,51837
36.13917,51180
36.14730,47583
36.15542,52712
36.16353,54610
36.17167,50743
36.17978,50284
36.18790,52361
36.19603,52213
36.20415,54302
36.21228,51985
36.22040,50604
36.22852,53973
36.23665,49985
36.24477,52926
36.25290,53757
36.26102,55093
36.26913,54697
36.27727,54377
36.28538,56044
36.29352,54416
36.30163,51057
36.30975,59306
36.31788,59095
36.32600,57891
36.33412,59306
36.34225,57284
36.35037,57708
36.35850,59445
36.36662,56126
36.37473,54807
36.38287,51619
36.39098,47212
36.39912,52820
36.40723,50104
36.41535,53771
36.42348,57257
36.43160,56349
36.43973,54279
36.44785,54333
36.45597,57595
36.46410,51777
36.47222,54061
36.48033,51187
36.48847,51826
36.49658,54727
36.50472,55660
36.51283,46994
36.52095,48552
36.52908,50790
36.53720,50050
36.54533,49303
36.55345,51946
36.56157,55825
36.56970,54217
36.57782,56649
36.58593,48911
36.59407,48552
36.60218,56582
36.61032,50303
36.61843,50711
36.62655,52758
36.63468,52564
36.64280,51376
36.65093,52562
36.65905,54894
36.66717,47997
36.67530,53612
36.68342,54129
36.69155,60413
36.69967,52501
36.70778,54254
36.71592,51975
36.72403,59242
36.73215,52670
36.74028,52003
36.74840,51576
36.75653,53692
36.76465,50438
36.77277,54061
36.78090,53813
36.78902,53479
36.79715,51382
36.80527,53426
36.81338,48770
36.82152,48093
36.82963,48534
36.83775,53816
36.84588,48412
36.85400,51022
36.86213,52974
36.87025,55640
36.87837,55585
36.88650,51943
36.89462,51141
36.90275,51672
36.91087,53033
36.91898,53144
36.92712,56481
36.93523,51745
36.94337,53057
36.95148,51156
36.95960,53966
36.96773,56637
36.97585,49629
36.98397,54988
36.99210,52245
37.00022,51677
37.00835,50171
37.01647,55983
37.02458,53671
37.03272,50223
37.04083,52091
37.04897,53999
37.05708,47124
37.06520,52166
37.07333,51364
37.08145,51119
37.08958,49704
37.09770,53974
37.10582,49149
37.11395,52408
37.12207,50265
37.13018,52304
37.13832,53647
37.14643,52581
37.15457,56754
37.16268,62544
37.17080,57420
37.17893,55023
37.18705,56695
37.19518,53407
37.20330,56592
37.21142,53737
37.21955,55301
37.22767,61052
37.23578,57738
37.24392,56994
37.25203,56484
37.26017,54608
37.26828,53688
37.27640,59037
37.28453,54233
37.29265,53810
37.30078,55321
37.30890,58028
37.31702,56717
37.32515,58484
37.33327,63840
37.34140,62044
37.34952,63203
37.35763,68917
37.36577,69667
37.37388,73684
37.38200,76359
37.39013,70199
37.39825,66864
37.40638,69743
37.41450,67296
37.42262,63696
37.43075,66610
37.43887,65064
37.44700,66015
37.45512,57434
37.46323,60745
37.47137,60123
37.47948,61403
37.48762,61934
