Z:\data\JTB-E02\BACandBLUE\JTB-E02-194-06.D Thu Dec 20 08:03:54 2018
Start of data points
2.09512,45576
2.10325,45363
2.11137,50216
2.11948,49620
2.12762,49784
2.13573,53438
2.14385,52923
2.15198,52053
2.16010,55575
2.16823,57559
2.17635,57594
2.18447,57311
2.19260,62113
2.20072,56558
2.20885,52862
2.21697,51474
2.22508,53531
2.23322,55400
2.24133,50902
2.24947,50725
2.25758,54946
2.26570,202208
2.27383,1198109
2.28195,2358795
2.29007,2379014
2.29820,1244394
2.30632,739960
2.31445,553425
2.32257,476715
2.33068,411042
2.33882,367394
2.34693,330861
2.35507,287094
2.36318,257888
2.37130,237512
2.37943,229617
2.38755,219239
2.39567,205128
2.40380,212213
2.41192,225064
2.42005,245403
2.42817,294630
2.43628,247977
2.44442,203836
2.45253,189240
2.46067,171447
2.46878,156844
2.47690,161068
2.48503,142968
2.49315,143725
2.50128,141046
2.50940,135085
2.51752,134349
2.52565,137582
2.53377,128367
2.54188,132361
2.55002,133757
2.55813,151471
2.56627,151967
2.57438,139925
2.58250,127309
2.59063,125866
2.59875,116395
2.60688,120887
2.61500,133559
2.62312,144690
2.63125,137291
2.63937,127730
2.64750,122583
2.65562,118363
2.66373,113505
2.67187,107087
2.67998,108570
2.68810,109953
2.69623,106147
2.70435,108353
2.71248,102673
2.72060,98720
2.72872,99552
2.73685,93521
2.74497,95756
2.75310,95487
2.76122,95635
2.76933,94047
2.77747,89807
2.78558,92267
2.79370,102277
2.80183,100246
2.80995,96621
2.81808,100102
2.82620,97406
2.83432,98182
2.84245,94911
2.85057,87999
2.85870,102044
2.86682,94320
2.87493,96374
2.88307,91616
2.89118,90439
2.89932,93622
2.90743,83777
2.91555,86802
2.92368,87070
2.93180,85724
2.93992,88229
2.94805,84561
2.95617,89617
2.96430,87926
2.97242,92635
2.98053,92154
2.98867,89633
2.99678,93678
3.00492,91198
3.01303,93004
3.02115,83601
3.02928,82717
3.03740,80368
3.04553,86207
3.05365,83657
3.06177,84780
3.06990,85609
3.07802,80938
3.08613,82423
3.09427,82483
3.10238,94592
3.11052,104350
3.11863,108554
3.12675,110204
3.13488,99493
3.14300,97829
3.15113,94396
3.15925,88411
3.16737,89255
3.17550,82741
3.18362,81407
3.19173,86092
3.19987,85704
3.20798,85674
3.21612,80596
3.22423,82427
3.23235,81791
3.24048,80595
3.24860,83473
3.25673,78401
3.26485,80159
3.27297,78502
3.28110,84500
3.28922,171189
3.29735,747350
3.30547,2913020
3.31358,7032995
3.32172,1.011839E+07
3.32983,9697354
3.33795,7462557
3.34608,5570499
3.35420,4234535
3.36233,3352176
3.37045,2782562
3.37857,2397363
3.38670,2044657
3.39482,1791635
3.40295,1605646
3.41107,1469268
3.41918,1324080
3.42732,1224329
3.43543,1127189
3.44357,1039058
3.45168,985555
3.45980,942851
3.46793,880565
3.47605,826577
3.48417,775328
3.49230,743033
3.50042,711676
3.50855,687779
3.51667,678941
3.52478,622057
3.53292,599353
3.54103,588364
3.54917,554298
3.55728,535994
3.56540,513738
3.57353,506073
3.58165,506423
3.58977,487175
3.59790,458253
3.60602,456767
3.61415,442603
3.62227,441402
3.63038,423592
3.63852,423458
3.64663,400690
3.65477,391598
3.66288,383616
3.67100,381602
3.67913,376828
3.68725,391629
3.69538,399193
3.70350,384109
3.71162,391142
3.71975,370775
3.72787,365509
3.73598,357513
3.74412,354075
3.75223,354854
3.76037,340235
3.76848,347776
3.77660,328757
3.78473,327693
3.79285,321554
3.80098,312084
3.80910,309476
3.81722,306624
3.82535,306178
3.83347,313890
3.84158,301624
3.84972,291611
3.85783,288830
3.86597,290262
3.87408,290991
3.88220,276908
3.89033,281609
3.89845,270280
3.90658,274848
3.91470,278605
3.92282,264673
3.93095,259352
3.93907,267073
3.94720,255155
3.95532,258511
3.96343,256233
3.97157,257381
3.97968,252324
3.98780,245985
3.99593,244168
4.00405,240584
4.01218,237840
4.02030,235074
4.02842,232732
4.03655,234326
4.04467,244786
4.05280,237788
4.06092,226936
4.06903,225714
4.07717,225895
4.08528,227427
4.09342,220212
4.10153,223305
4.10965,217458
4.11778,227022
4.12590,220867
4.13402,219073
4.14215,252691
4.15027,284378
4.15840,325510
4.16652,295309
4.17463,252237
4.18277,229639
4.19088,214832
4.19902,218002
4.20713,217571
4.21525,210911
4.22338,218288
4.23150,247530
4.23962,295978
4.24775,327831
4.25587,324510
4.26400,292712
4.27212,271799
4.28023,254977
4.28837,243052
4.29648,237324
4.30462,218013
4.31273,222857
4.32085,218988
4.32898,219673
4.33710,211899
4.34523,209498
4.35335,213779
4.36147,207077
4.36960,210665
4.37772,202453
4.38583,215691
4.39397,209959
4.40208,202336
4.41022,196073
4.41833,205902
4.42645,199535
4.43458,195969
4.44270,191242
4.45083,184195
4.45895,186869
4.46707,182260
4.47520,186147
4.48332,186368
4.49145,181669
4.49957,187987
4.50768,183346
4.51582,182782
4.52393,180625
4.53205,170998
4.54018,182736
4.54830,180916
4.55643,178236
4.56455,181316
4.57267,170396
4.58080,169965
4.58892,178425
4.59705,168431
4.60517,170881
4.61328,174424
4.62142,174628
4.62953,167351
4.63765,169585
4.64578,161652
4.65390,170862
4.66203,170861
4.67015,172204
4.67827,163017
4.68640,169323
4.69452,165108
4.70265,162636
4.71077,167744
4.71888,168550
4.72702,161135
4.73513,171085
4.74327,164530
4.75138,164763
4.75950,163481
4.76763,158582
4.77575,160627
4.78387,153699
4.79200,162963
4.80012,161437
4.80825,157622
4.81637,159206
4.82448,161128
4.83262,155733
4.84073,160955
4.84887,156857
4.85698,156492
4.86510,165527
4.87323,163818
4.88135,165874
4.88947,166824
4.89760,166360
4.90572,159977
4.91385,162587
4.92197,144864
4.93008,158589
4.93822,179950
4.94633,289384
4.95447,720645
4.96258,1674795
4.97070,3036657
4.97883,4073262
4.98695,4153730
4.99508,3471494
5.00320,2684250
5.01132,2017142
5.01945,1612485
5.02757,1354632
5.03568,1152929
5.04382,1032430
5.05193,939278
5.06007,858933
5.06818,787477
5.07630,748816
5.08443,698496
5.09255,662655
5.10068,634472
5.10880,584967
5.11692,573744
5.12505,555926
5.13317,540219
5.14130,514197
5.14942,501907
5.15753,485460
5.16567,477978
5.17378,466557
5.18190,450787
5.19003,445679
5.19815,446203
5.20628,418389
5.21440,403475
5.22252,412528
5.23065,403603
5.23877,390410
5.24690,394566
5.25502,423470
5.26313,387151
5.27127,371838
5.27938,350383
5.28750,338575
5.29563,335755
5.30375,325639
5.31188,319543
5.32000,316149
5.32812,304333
5.33625,305369
5.34437,306302
5.35250,308708
5.36062,301403
5.36873,294930
5.37687,288594
5.38498,283005
5.39312,281717
5.40123,286444
5.40935,287083
5.41748,266791
5.42560,270809
5.43372,265956
5.44185,268258
5.44997,264759
5.45810,265460
5.46622,253681
5.47433,253209
5.48247,263569
5.49058,259555
5.49872,243975
5.50683,258324
5.51495,254115
5.52308,246005
5.53120,244333
5.53933,248009
5.54745,244362
5.55557,236410
5.56370,234168
5.57182,238931
5.57993,230751
5.58807,226707
5.59618,229666
5.60432,232659
5.61243,232946
5.62055,234421
5.62868,230727
5.63680,244935
5.64493,233714
5.65305,239731
5.66117,226584
5.66930,227461
5.67742,218755
5.68553,234502
5.69367,255937
5.70178,295788
5.70992,304036
5.71803,290341
5.72615,264847
5.73428,246241
5.74240,230653
5.75053,228102
5.75865,213294
5.76677,207380
5.77490,222525
5.78302,205590
5.79115,207927
5.79927,210001
5.80738,207262
5.81552,205918
5.82363,204600
5.83175,203059
5.83988,200250
5.84800,201846
5.85613,201249
5.86425,192895
5.87237,195856
5.88050,197873
5.88862,193109
5.89675,191883
5.90487,188093
5.91298,179796
5.92112,155130
5.92923,142064
5.93735,145207
5.94548,152110
5.95360,148757
5.96173,144822
5.96985,141351
5.97797,145566
5.98610,154493
5.99422,164054
6.00235,158736
6.01047,155161
6.01858,155856
6.02672,150455
6.03483,134666
6.04297,146431
6.05108,140557
6.05920,139549
6.06733,137543
6.07545,132030
6.08357,141168
6.09170,135519
6.09982,140102
6.10795,133069
6.11607,137011
6.12418,132677
6.13232,138720
6.14043,135182
6.14857,138498
6.15668,141197
6.16480,140378
6.17293,144676
6.18105,146211
6.18918,147173
6.19730,138530
6.20542,145097
6.21355,142411
6.22167,141696
6.22978,146295
6.23792,134776
6.24603,141462
6.25417,149511
6.26228,154726
6.27040,154234
6.27853,151685
6.28665,155245
6.29478,156750
6.30290,157872
6.31102,158843
6.31915,161473
6.32727,159909
6.33540,161882
6.34352,167631
6.35163,171409
6.35977,160530
6.36788,173794
6.37600,175123
6.38413,169820
6.39225,175407
6.40038,172133
6.40850,173964
6.41662,177995
6.42475,181272
6.43287,176596
6.44100,173541
6.44912,185275
6.45723,186783
6.46537,195844
6.47348,187375
6.48160,193243
6.48973,198225
6.49785,195371
6.50598,196381
6.51410,191139
6.52222,203170
6.53035,194210
6.53847,205159
6.54660,204668
6.55472,193054
6.56283,185545
6.57097,166086
6.57908,153764
6.58722,159604
6.59533,142060
6.60345,146234
6.61158,145735
6.61970,137219
6.62782,142479
6.63595,142947
6.64407,133444
6.65220,140104
6.66032,139523
6.66843,131257
6.67657,136283
6.68468,130340
6.69282,136966
6.70093,123341
6.70905,126679
6.71718,130571
6.72530,134123
6.73342,121371
6.74155,125018
6.74967,124287
6.75780,123580
6.76592,125410
6.77403,125931
6.78217,124679
6.79028,123714
6.79842,125276
6.80653,123874
6.81465,122474
6.82278,118070
6.83090,118448
6.83903,127884
6.84715,118814
6.85527,119443
6.86340,108050
6.87152,97870
6.87963,96210
6.88777,104061
6.89588,100145
6.90402,101419
6.91213,88142
6.92025,78122
6.92838,81335
6.93650,75781
6.94463,76717
6.95275,73995
6.96087,69667
6.96900,80860
6.97712,74788
6.98525,69515
6.99337,75888
7.00148,72013
7.00962,72587
7.01773,74492
7.02585,72109
7.03398,69792
7.04210,67977
7.05023,69389
7.05835,77531
7.06647,68555
7.07460,73819
7.08272,70270
7.09085,69987
7.09897,71464
7.10708,68260
7.11522,68145
7.12333,68618
7.13145,67310
7.13958,68194
7.14770,69744
7.15583,71261
7.16395,68739
7.17207,64709
7.18020,76369
7.18832,78814
7.19645,85913
7.20457,84888
7.21268,85564
7.22082,81806
7.22893,74842
7.23707,73601
7.24518,64393
7.25330,69443
7.26143,70161
7.26955,72267
7.27767,69326
7.28580,68108
7.29392,69488
7.30205,65397
7.31017,72128
7.31828,66959
7.32642,62275
7.33453,60990
7.34267,65769
7.35078,62905
7.35890,64334
7.36703,63733
7.37515,62310
7.38328,66798
7.39140,71854
7.39952,69575
7.40765,72030
7.41577,67323
7.42388,70088
7.43202,66327
7.44013,75796
7.44827,69450
7.45638,71749
7.46450,66813
7.47263,69579
7.48075,68573
7.48888,68973
7.49700,61852
7.50512,67196
7.51325,67381
7.52137,69744
7.52948,64675
7.53762,64436
7.54573,65688
7.55387,64853
7.56198,68418
7.57010,66911
7.57823,62293
7.58635,69993
7.59448,67950
7.60260,65431
7.61072,60614
7.61885,62317
7.62697,66696
7.63510,61719
7.64322,66904
7.65133,66840
7.65947,62261
7.66758,63083
7.67570,64234
7.68383,64805
7.69195,63629
7.70008,64643
7.70820,64907
7.71632,62612
7.72445,63878
7.73257,61214
7.74070,65851
7.74882,63504
7.75693,61073
7.76507,64391
7.77318,65825
7.78130,60628
7.78943,59238
7.79755,60879
7.80568,61950
7.81380,59788
7.82192,57817
7.83005,51554
7.83817,52467
7.84630,55810
7.85442,59005
7.86253,53149
7.87067,56677
7.87878,57044
7.88692,57215
7.89503,55617
7.90315,51761
7.91128,56483
7.91940,56256
7.92752,52893
7.93565,53113
7.94377,52840
7.95190,51370
7.96002,51794
7.96813,53681
7.97627,54949
7.98438,55617
7.99252,58821
8.00063,61657
8.00875,51733
8.01688,51908
8.02500,52244
8.03313,50731
8.04125,55433
8.04937,53731
8.05750,49318
8.06562,52891
8.07373,55128
8.08187,51744
8.08998,51544
8.09812,55766
8.10623,57902
8.11435,60003
8.12248,59331
8.13060,57702
8.13873,53664
8.14685,57660
8.15497,58764
8.16310,58020
8.17122,61938
8.17933,57885
8.18747,61517
8.19558,65360
8.20372,60093
8.21183,61688
8.21995,56592
8.22808,61551
8.23620,57819
8.24433,55152
8.25245,56627
8.26057,57068
8.26870,59326
8.27682,56771
8.28495,56365
8.29307,59719
8.30118,54585
8.30932,55993
8.31743,53572
8.32555,58898
8.33368,59059
8.34180,55951
8.34993,59332
8.35805,65101
8.36617,61642
8.37430,60646
8.38242,58566
8.39055,58676
8.39867,53246
8.40678,54979
8.41492,52742
8.42303,54589
8.43117,47746
8.43928,47234
8.44740,50116
8.45553,49071
8.46365,49556
8.47177,52438
8.47990,49785
8.48802,52695
8.49615,48452
8.50427,48495
8.51238,52668
8.52052,49304
8.52863,56358
8.53677,60554
8.54488,59654
8.55300,60205
8.56113,56601
8.56925,49805
8.57737,49822
8.58550,52404
8.59362,53656
8.60175,52840
8.60987,50876
8.61798,50282
8.62612,52604
8.63423,47017
8.64237,50242
8.65048,52091
8.65860,54154
8.66673,49878
8.67485,51551
8.68298,49395
8.69110,48592
8.69922,50560
8.70735,49562
8.71547,47768
8.72358,50299
8.73172,48249
8.73983,50712
8.74797,51964
8.75608,52454
8.76420,51638
8.77233,58553
8.78045,87312
8.78858,167398
8.79670,332066
8.80482,597114
8.81295,846610
8.82107,966948
8.82920,929063
8.83732,788962
8.84543,636847
8.85357,540980
8.86168,469415
8.86980,419371
8.87793,378740
8.88605,343065
8.89418,316836
8.90230,284185
8.91042,268976
8.91855,255323
8.92667,248329
8.93480,231025
8.94292,226216
8.95103,217434
8.95917,201437
8.96728,189075
8.97540,196334
8.98353,178086
8.99165,183975
8.99978,174250
9.00790,161921
9.01602,170594
9.02415,156305
9.03227,162481
9.04040,159892
9.04852,150447
9.05663,154327
9.06477,148899
9.07288,144122
9.08102,146653
9.08913,134311
9.09725,136533
9.10538,129215
9.11350,136311
9.12162,137499
9.12975,131629
9.13787,131145
9.14600,128730
9.15412,130536
9.16223,128322
9.17037,122879
9.17848,123424
9.18662,134843
9.19473,134093
9.20285,129702
9.21098,131012
9.21910,127905
9.22722,121095
9.23535,121249
9.24347,122925
9.25160,116525
9.25972,118212
9.26783,121258
9.27597,120927
9.28408,113156
9.29222,105526
9.30033,110091
9.30845,110011
9.31658,100078
9.32470,109894
9.33283,102372
9.34095,104575
9.34907,103092
9.35720,102989
9.36532,102985
9.37343,104924
9.38157,102284
9.38968,95942
9.39782,90392
9.40593,95755
9.41405,97923
9.42218,90366
9.43030,97846
9.43843,96461
9.44655,91982
9.45467,91946
9.46280,88534
9.47092,91861
9.47905,91822
9.48717,90970
9.49528,88499
9.50342,91875
9.51153,90940
9.51965,89230
9.52778,91463
9.53590,94739
9.54403,96227
9.55215,93837
9.56027,89748
9.56840,86254
9.57652,79193
9.58465,75124
9.59277,69096
9.60088,74352
9.60902,75217
9.61713,81115
9.62525,79065
9.63338,71504
9.64150,61853
9.64963,63357
9.65775,61763
9.66587,62090
9.67400,62814
9.68212,57940
9.69025,55053
9.69837,57152
9.70648,57661
9.71462,55113
9.72273,54620
9.73087,57033
9.73898,57832
9.74710,59559
9.75523,58043
9.76335,54227
9.77147,53311
9.77960,50562
9.78772,55675
9.79585,53469
9.80397,59840
9.81208,53229
9.82022,53799
9.82833,53959
9.83647,58268
9.84458,53612
9.85270,62014
9.86083,66810
9.86895,64926
9.87708,63957
9.88520,55132
9.89332,56319
9.90145,56795
9.90957,56563
9.91768,51737
9.92582,54352
9.93393,53389
9.94207,53781
9.95018,54395
9.95830,56614
9.96643,58489
9.97455,59566
9.98268,59787
9.99080,63896
9.99892,70630
10.00705,72285
10.01517,78942
10.02328,82909
10.03142,97739
10.03953,105112
10.04767,116234
10.05578,122719
10.06390,118528
10.07203,116264
10.08015,116296
10.08828,104045
10.09640,102117
10.10452,91938
10.11265,90710
10.12077,90563
10.12890,85918
10.13702,80774
10.14513,79092
10.15327,76636
10.16138,84122
10.16950,75482
10.17763,70226
10.18575,73219
10.19388,75362
10.20200,75329
10.21012,71193
10.21825,72734
10.22637,75915
10.23450,80049
10.24262,83386
10.25073,87290
10.25887,85597
10.26698,96588
10.27510,90863
10.28323,82825
10.29135,85379
10.29948,94977
10.30760,94707
10.31572,111361
10.32385,126952
10.33197,143438
10.34010,149596
10.34822,151692
10.35633,141845
10.36447,129397
10.37258,113547
10.38072,103641
10.38883,101547
10.39695,97343
10.40508,94466
10.41320,86277
10.42132,91569
10.42945,96040
10.43757,94159
10.44570,85968
10.45382,88178
10.46193,92087
10.47007,83899
10.47818,81423
10.48632,86805
10.49443,83307
10.50255,80021
10.51068,77455
10.51880,79134
10.52693,80848
10.53505,78180
10.54317,80934
10.55130,80536
10.55942,77492
10.56753,77705
10.57567,77183
10.58378,84138
10.59192,85636
10.60003,77174
10.60815,80523
10.61628,80118
10.62440,77800
10.63253,72472
10.64065,79818
10.64877,70659
10.65690,75726
10.66502,80324
10.67313,73777
10.68127,72897
10.68938,73879
10.69752,72470
10.70563,75962
10.71375,74616
10.72188,77058
10.73000,75967
10.73813,70196
10.74625,69480
10.75437,74272
10.76250,70196
10.77062,72703
10.77875,74195
10.78687,76807
10.79498,74719
10.80312,67105
10.81123,64550
10.81935,71844
10.82748,67298
10.83560,70250
10.84373,70733
10.85185,67016
10.85997,62022
10.86810,67291
10.87622,72229
10.88435,65648
10.89247,69644
10.90058,65583
10.90872,60901
10.91683,62934
10.92497,66361
10.93308,62883
10.94120,62726
10.94933,64081
10.95745,71109
10.96557,64990
10.97370,67272
10.98182,66887
10.98995,73213
10.99807,68762
11.00618,68425
11.01432,65490
11.02243,66812
11.03057,62844
11.03868,68519
11.04680,59150
11.05493,60135
11.06305,59125
11.07117,60905
11.07930,61877
11.08742,55799
11.09555,57058
11.10367,64512
11.11178,59792
11.11992,54349
11.12803,58601
11.13617,58872
11.14428,58503
11.15240,60417
11.16053,57010
11.16865,54659
11.17678,60710
11.18490,66022
11.19302,73799
11.20115,87355
11.20927,93288
11.21738,104649
11.22552,108528
11.23363,106201
11.24177,94163
11.24988,83317
11.25800,78135
11.26613,73984
11.27425,62597
11.28238,59758
11.29050,62944
11.29862,55901
11.30675,55973
11.31487,54794
11.32298,58010
11.33112,59131
11.33923,56934
11.34737,54550
11.35548,53581
11.36360,55081
11.37173,54586
11.37985,55496
11.38798,55688
11.39610,59439
11.40422,55419
11.41235,56507
11.42047,54511
11.42860,55981
11.43672,54767
11.44483,51170
11.45297,52187
11.46108,51365
11.46920,52299
11.47733,56687
11.48545,53287
11.49358,52174
11.50170,52058
11.50982,52846
11.51795,50399
11.52607,54465
11.53420,54307
11.54232,53429
11.55043,53455
11.55857,51503
11.56668,51411
11.57482,53319
11.58293,53098
11.59105,56141
11.59918,52225
11.60730,51418
11.61542,51982
11.62355,54397
11.63167,55565
11.63980,57449
11.64792,52274
11.65603,53859
11.66417,52609
11.67228,51316
11.68042,54510
11.68853,52893
11.69665,51731
11.70478,50675
11.71290,53821
11.72103,53728
11.72915,59576
11.73727,64067
11.74540,55219
11.75352,56571
11.76163,58671
11.76977,59638
11.77788,59850
11.78602,59918
11.79413,64107
11.80225,58987
11.81038,58920
11.81850,61639
11.82663,55523
11.83475,53415
11.84287,53729
11.85100,55454
11.85912,51208
11.86723,55282
11.87537,53624
11.88348,56500
11.89162,58104
11.89973,52606
11.90785,51224
11.91598,53949
11.92410,52469
11.93223,46888
11.94035,49553
11.94847,50860
11.95660,49724
11.96472,51957
11.97285,50917
11.98097,49659
11.98908,50007
11.99722,50595
12.00533,51229
12.01345,48023
12.02158,49055
12.02970,52128
12.03783,50513
12.04595,50013
12.05407,48316
12.06220,51682
12.07032,51133
12.07845,51035
12.08657,48469
12.09468,47353
12.10282,47515
12.11093,53196
12.11905,47054
12.12718,52819
12.13530,48701
12.14343,51637
12.15155,55959
12.15967,57470
12.16780,59906
12.17592,63761
12.18405,63172
12.19217,73914
12.20028,72575
12.20842,73412
12.21653,77209
12.22467,77580
12.23278,78705
12.24090,76091
12.24903,75291
12.25715,79023
12.26527,81792
12.27340,71294
12.28152,78081
12.28965,75044
12.29777,76344
12.30588,72524
12.31402,75992
12.32213,77494
12.33027,77431
12.33838,75754
12.34650,76690
12.35463,68559
12.36275,72222
12.37088,71353
12.37900,71026
12.38712,69747
12.39525,69991
12.40337,73186
12.41148,70760
12.41962,71872
12.42773,69926
12.43587,72641
12.44398,75613
12.45210,71665
12.46023,72209
12.46835,72058
12.47648,75696
12.48460,76910
12.49272,73465
12.50085,70703
12.50897,67490
12.51708,68936
12.52522,70517
12.53333,66878
12.54147,69412
12.54958,67846
12.55770,67303
12.56583,65700
12.57395,66659
12.58208,67435
12.59020,67700
12.59832,68848
12.60645,71618
12.61457,68218
12.62270,67501
12.63082,65191
12.63893,65515
12.64707,66069
12.65518,63268
12.66330,60716
12.67143,60890
12.67955,67437
12.68768,63974
12.69580,64688
12.70392,65803
12.71205,63475
12.72017,60546
12.72830,68459
12.73642,75461
12.74453,82333
12.75267,81644
12.76078,89841
12.76892,87771
12.77703,86402
12.78515,74196
12.79328,70326
12.80140,65977
12.80952,66507
12.81765,60995
12.82577,61168
12.83390,58578
12.84202,53574
12.85013,53404
12.85827,46048
12.86638,47278
12.87452,51714
12.88263,46745
12.89075,47823
12.89888,44422
12.90700,46962
12.91512,47460
12.92325,53028
12.93137,50218
12.93950,44143
12.94762,49192
12.95573,48091
12.96387,51202
12.97198,48441
12.98012,50868
12.98823,53373
12.99635,51551
13.00448,49117
13.01260,49409
13.02073,45701
13.02885,45998
13.03697,45156
13.04510,46761
13.05322,45369
13.06133,50212
13.06947,47918
13.07758,45031
13.08572,50113
13.09383,49848
13.10195,46982
13.11008,45530
13.11820,46903
13.12633,45366
13.13445,45044
13.14257,49578
13.15070,50212
13.15882,48999
13.16693,44570
13.17507,51027
13.18318,45603
13.19132,48191
13.19943,51537
13.20755,54319
13.21568,58746
13.22380,67887
13.23193,70519
13.24005,71145
13.24817,59808
13.25630,58583
13.26442,53213
13.27255,53939
13.28067,49005
13.28878,50833
13.29692,47975
13.30503,53040
13.31315,45160
13.32128,51241
13.32940,49796
13.33753,48384
13.34565,47510
13.35377,47912
13.36190,44355
13.37002,46002
13.37815,43851
13.38627,44077
13.39438,42686
13.40252,50490
13.41063,43631
13.41877,46665
13.42688,47196
13.43500,45756
13.44313,47524
13.45125,47690
13.45937,49799
13.46750,44364
13.47562,45290
13.48375,43142
13.49187,42860
13.49998,44592
13.50812,42991
13.51623,49090
13.52437,43821
13.53248,43422
13.54060,41980
13.54873,42216
13.55685,44345
13.56497,40348
13.57310,44804
13.58122,45948
13.58935,43754
13.59747,44802
13.60558,42409
13.61372,42778
13.62183,41198
13.62997,43637
13.63808,45620
13.64620,41296
13.65433,41980
13.66245,43803
13.67058,44286
13.67870,41771
13.68682,41836
13.69495,40550
13.70307,44425
13.71118,39320
13.71932,42561
13.72743,37987
13.73557,39614
13.74368,44839
13.75180,42071
13.75993,37927
13.76805,38428
13.77618,45871
13.78430,43408
13.79242,44434
13.80055,40858
13.80867,41836
13.81680,42614
13.82492,45801
13.83303,42778
13.84117,46070
13.84928,43347
13.85740,47536
13.86553,45784
13.87365,44911
13.88178,47882
13.88990,46744
13.89802,44037
13.90615,43648
13.91427,46368
13.92240,49029
13.93052,48816
13.93863,59314
13.94677,52186
13.95488,53395
13.96300,58618
13.97113,59038
13.97925,51293
13.98738,48639
13.99550,44661
14.00362,47093
14.01175,45234
14.01987,46237
14.02800,42263
14.03612,46866
14.04423,44329
14.05237,42248
14.06048,46054
14.06862,52456
14.07673,47751
14.08485,56552
14.09298,51033
14.10110,50132
14.10922,56452
14.11735,55667
14.12547,51723
14.13360,48863
14.14172,48701
14.14983,44789
14.15797,47079
14.16608,47750
14.17422,46036
14.18233,52595
14.19045,49827
14.19858,65377
14.20670,95582
14.21483,150190
14.22295,236119
14.23107,311549
14.23920,365506
14.24732,353949
14.25543,316368
14.26357,274978
14.27168,232283
14.27982,210950
14.28793,179402
14.29605,162114
14.30418,146105
14.31230,132782
14.32043,128686
14.32855,126453
14.33667,115579
14.34480,105603
14.35292,105138
14.36103,94601
14.36917,89213
14.37728,80253
14.38542,75588
14.39353,63821
14.40165,61741
14.40978,60940
14.41790,53648
14.42603,55752
14.43415,53964
14.44227,52939
14.45040,54518
14.45852,52447
14.46665,49679
14.47477,51541
14.48288,49837
14.49102,56132
14.49913,48757
14.50725,50393
14.51538,52587
14.52350,50522
14.53163,53877
14.53975,51120
14.54787,47785
14.55600,48378
14.56412,53204
14.57225,49978
14.58037,45709
14.58848,50833
14.59662,50647
14.60473,46606
14.61285,46752
14.62098,47908
14.62910,43741
14.63723,46629
14.64535,41652
14.65347,45355
14.66160,45340
14.66972,43399
14.67785,46592
14.68597,41313
14.69408,46507
14.70222,43155
14.71033,45222
14.71847,42460
14.72658,41780
14.73470,44547
14.74283,42508
14.75095,42858
14.75907,42056
14.76720,37920
14.77532,42470
14.78345,42730
14.79157,41404
14.79968,42903
14.80782,43766
14.81593,53714
14.82407,65597
14.83218,97028
14.84030,121478
14.84843,167574
14.85655,196697
14.86468,225197
14.87280,222239
14.88092,216490
14.88905,216558
14.89717,216771
14.90528,193690
14.91342,193095
14.92153,178664
14.92967,176750
14.93778,170014
14.94590,159447
14.95403,159103
14.96215,154805
14.97028,156264
14.97840,150756
14.98652,145788
14.99465,136891
15.00277,137948
15.01088,139171
15.01902,134870
15.02713,133333
15.03527,123610
15.04338,122812
15.05150,121885
15.05963,123864
15.06775,116930
15.07588,123780
15.08400,118062
15.09212,112263
15.10025,115420
15.10837,111844
15.11650,110278
15.12462,109636
15.13273,109104
15.14087,101929
15.14898,93319
15.15710,91516
15.16523,87012
15.17335,75921
15.18148,69133
15.18960,71441
15.19772,63919
15.20585,56220
15.21397,59046
15.22210,57762
15.23022,56679
15.23833,58419
15.24647,60648
15.25458,54767
15.26272,55156
15.27083,54824
15.27895,56992
15.28708,55367
15.29520,53156
15.30332,57550
15.31145,50323
15.31957,50772
15.32770,50407
15.33582,53934
15.34393,51752
15.35207,50580
15.36018,52977
15.36832,51702
15.37643,49000
15.38455,50718
15.39268,44316
15.40080,50592
15.40892,46164
15.41705,47660
15.42517,48998
15.43330,46442
15.44142,51045
15.44953,50525
15.45767,46529
15.46578,51769
15.47392,47684
15.48203,46913
15.49015,43584
15.49828,52038
15.50640,55950
15.51453,51723
15.52265,55796
15.53077,54513
15.53890,53012
15.54702,54040
15.55513,53317
15.56327,45402
15.57138,51429
15.57952,45559
15.58763,43858
15.59575,46630
15.60388,42432
15.61200,45901
15.62013,43381
15.62825,42269
15.63637,48994
15.64450,44119
15.65262,45892
15.66073,45748
15.66887,47550
15.67698,41581
15.68512,47098
15.69323,44540
15.70135,41129
15.70948,41427
15.71760,46270
15.72573,46201
15.73385,43823
15.74197,44907
15.75010,46359
15.75822,43773
15.76635,44397
15.77447,45084
15.78258,47647
15.79072,52596
15.79883,51888
15.80695,60524
15.81508,59411
15.82320,57701
15.83133,56021
15.83945,55594
15.84757,55225
15.85570,56503
15.86382,56168
15.87195,54776
15.88007,52726
15.88818,53257
15.89632,48582
15.90443,55063
15.91257,52082
15.92068,47862
15.92880,52875
15.93693,52069
15.94505,53728
15.95317,49404
15.96130,52279
15.96942,49645
15.97755,49472
15.98567,49128
15.99378,50654
16.00192,50251
16.01003,52740
16.01817,64177
16.02628,84034
16.03440,93691
16.04253,105146
16.05065,113902
16.05877,108535
16.06690,95838
16.07502,79379
16.08315,70253
16.09127,60184
16.09938,57995
16.10752,55285
16.11563,52055
16.12377,51717
16.13188,52554
16.14000,47594
16.14813,49041
16.15625,45410
16.16438,46385
16.17250,49966
16.18062,47562
16.18875,45711
16.19687,47856
16.20498,44919
16.21312,48345
16.22123,46440
16.22937,48468
16.23748,47911
16.24560,51050
16.25373,47819
16.26185,49191
16.26998,44188
16.27810,48345
16.28622,44947
16.29435,49646
16.30247,42104
16.31060,47476
16.31872,43942
16.32683,45321
16.33497,46660
16.34308,47371
16.35120,51328
16.35933,46750
16.36745,44995
16.37558,49064
16.38370,46536
16.39182,44052
16.39995,47611
16.40807,45001
16.41620,47245
16.42432,48807
16.43243,43121
16.44057,45373
16.44868,47019
16.45680,42836
16.46493,40235
16.47305,49703
16.48118,50533
16.48930,54953
16.49742,61129
16.50555,66282
16.51367,71767
16.52180,71525
16.52992,67749
16.53803,64948
16.54617,62034
16.55428,66587
16.56242,60152
16.57053,61080
16.57865,57524
16.58678,60417
16.59490,59012
16.60302,62777
16.61115,53878
16.61927,54376
16.62740,56330
16.63552,52677
16.64363,51087
16.65177,50421
16.65988,58036
16.66802,56767
16.67613,49991
16.68425,53192
16.69238,51156
16.70050,49820
16.70862,50752
16.71675,50604
16.72487,45135
16.73300,43080
16.74112,43780
16.74923,41184
16.75737,43546
16.76548,43108
16.77362,42542
16.78173,43167
16.78985,41461
16.79798,44408
16.80610,40012
16.81423,42524
16.82235,38389
16.83047,45671
16.83860,38777
16.84672,42594
16.85483,43201
16.86297,43354
16.87108,44432
16.87922,41553
16.88733,42557
16.89545,36564
16.90358,39076
16.91170,41432
16.91983,39649
16.92795,40349
16.93607,39304
16.94420,42454
16.95232,36867
16.96045,41102
16.96857,42156
16.97668,39843
16.98482,34552
16.99293,38022
17.00105,37863
17.00918,37613
17.01730,39116
17.02543,39864
17.03355,40977
17.04167,39538
17.04980,40075
17.05792,39904
17.06605,44468
17.07417,45014
17.08228,40992
17.09042,39778
17.09853,43186
17.10667,39173
17.11478,42227
17.12290,42210
17.13103,43745
17.13915,45769
17.14727,46608
17.15540,40721
17.16352,37950
17.17165,40301
17.17977,42731
17.18788,41659
17.19602,42108
17.20413,36302
17.21227,41219
17.22038,41213
17.22850,38497
17.23663,38769
17.24475,37481
17.25287,41403
17.26100,40271
17.26912,39966
17.27725,40883
17.28537,41569
17.29348,41213
17.30162,41070
17.30973,38930
17.31787,35602
17.32598,42861
17.33410,40652
17.34223,45088
17.35035,49660
17.35848,49568
17.36660,57085
17.37472,61597
17.38285,67998
17.39097,74718
17.39908,75451
17.40722,74116
17.41533,77691
17.42347,68161
17.43158,64240
17.43970,66377
17.44783,66975
17.45595,60495
17.46408,58407
17.47220,58416
17.48032,63392
17.48845,55321
17.49657,62456
17.50468,60886
17.51282,58386
17.52093,60542
17.52907,58206
17.53718,61930
17.54530,55375
17.55343,56602
17.56155,54849
17.56968,59080
17.57780,57158
17.58592,58089
17.59405,53246
17.60217,51127
17.61030,53294
17.61842,53784
17.62653,49729
17.63467,46960
17.64278,47720
17.65090,51532
17.65903,50576
17.66715,49130
17.67528,55470
17.68340,47334
17.69152,49913
17.69965,51185
17.70777,50657
17.71590,52040
17.72402,54538
17.73213,49188
17.74027,50279
17.74838,49961
17.75652,50825
17.76463,50653
17.77275,49825
17.78088,48109
17.78900,47729
17.79712,51446
17.80525,52820
17.81337,44696
17.82150,46796
17.82962,45671
17.83773,47630
17.84587,45452
17.85398,48323
17.86212,45273
17.87023,42559
17.87835,42879
17.88648,42873
17.89460,40484
17.90272,44999
17.91085,43135
17.91897,38567
17.92710,43181
17.93522,42562
17.94333,40310
17.95147,40165
17.95958,39628
17.96772,39126
17.97583,37724
17.98395,38015
17.99208,42963
18.00020,41679
18.00833,42157
18.01645,38896
18.02457,38476
18.03270,43928
18.04082,41160
18.04893,43317
18.05707,45408
18.06518,48637
18.07332,51960
18.08143,64778
18.08955,88635
18.09768,129122
18.10580,175876
18.11393,236312
18.12205,280167
18.13017,310661
18.13830,307672
18.14642,290925
18.15455,269035
18.16267,264671
18.17078,251303
18.17892,234121
18.18703,225023
18.19515,224188
18.20328,215774
18.21140,207456
18.21953,191282
18.22765,190692
18.23577,176372
18.24390,174705
18.25202,176269
18.26015,157763
18.26827,159961
18.27638,156121
18.28452,136893
18.29263,113698
18.30075,101875
18.30888,88365
18.31700,74699
18.32513,70188
18.33325,67897
18.34137,65207
18.34950,62573
18.35762,59982
18.36575,59627
18.37387,57505
18.38198,56428
18.39012,56197
18.39823,52925
18.40637,54335
18.41448,56818
18.42260,55627
18.43073,51389
18.43885,59509
18.44697,51457
18.45510,52949
18.46322,54230
18.47135,57458
18.47947,49080
18.48758,54161
18.49572,53538
18.50383,50467
18.51197,54732
18.52008,47775
18.52820,50654
18.53633,50801
18.54445,47213
18.55257,48303
18.56070,46275
18.56882,45742
18.57695,44359
18.58507,45497
18.59318,43520
18.60132,45754
18.60943,46379
18.61757,46996
18.62568,48876
18.63380,49514
18.64193,48834
18.65005,46134
18.65818,48591
18.66630,44787
18.67442,48239
18.68255,45604
18.69067,45493
18.69878,45324
18.70692,48601
18.71503,44416
18.72317,42000
18.73128,44180
18.73940,49979
18.74753,43562
18.75565,41378
18.76378,47547
18.77190,39867
18.78002,44063
18.78815,42816
18.79627,40485
18.80440,41514
18.81252,43549
18.82063,40537
18.82877,46569
18.83688,44482
18.84500,46823
18.85313,44271
18.86125,47662
18.86938,43205
18.87750,39850
18.88562,41184
18.89375,43531
18.90187,43787
18.91000,43380
18.91812,43829
18.92623,47868
18.93437,49479
18.94248,40812
18.95060,48591
18.95873,48464
18.96685,50764
18.97498,47164
18.98310,49734
18.99122,49273
18.99935,48117
19.00747,46714
19.01560,49982
19.02372,42714
19.03183,44128
19.03997,42456
19.04808,47447
19.05622,45584
19.06433,41995
19.07245,46093
19.08058,42309
19.08870,47439
19.09682,47133
19.10495,49023
19.11307,57940
19.12120,57147
19.12932,58112
19.13743,58338
19.14557,58561
19.15368,57053
19.16182,53303
19.16993,48019
19.17805,50682
19.18618,51272
19.19430,49130
19.20243,49506
19.21055,47765
19.21867,52026
19.22680,50344
19.23492,43800
19.24303,48525
19.25117,44715
19.25928,46502
19.26742,44996
19.27553,48124
19.28365,53891
19.29178,60336
19.29990,69376
19.30803,73989
19.31615,82062
19.32427,77143
19.33240,71128
19.34052,64273
19.34863,61686
19.35677,56261
19.36488,58564
19.37302,53018
19.38113,56836
19.38925,53905
19.39738,59689
19.40550,62786
19.41363,61773
19.42175,59897
19.42987,63140
19.43800,59186
19.44612,56025
19.45425,60912
19.46237,55502
19.47048,58279
19.47862,57735
19.48673,64626
19.49485,67553
19.50298,75535
19.51110,98310
19.51923,124579
19.52735,156081
19.53547,193446
19.54360,206133
19.55172,195944
19.55985,165681
19.56797,126809
19.57608,91615
19.58422,73560
19.59233,62338
19.60047,58102
19.60858,58522
19.61670,55103
19.62483,53440
19.63295,58441
19.64107,66260
19.64920,99826
19.65732,159436
19.66545,282059
19.67357,447834
19.68168,675525
19.68982,868148
19.69793,969162
19.70607,864106
19.71418,683208
19.72230,489884
19.73043,342098
19.73855,251466
19.74667,206234
19.75480,167870
19.76292,136704
19.77105,121525
19.77917,105481
19.78728,97345
19.79542,87088
19.80353,82181
19.81167,74619
19.81978,72375
19.82790,78670
19.83603,71782
19.84415,73453
19.85228,61326
19.86040,66269
19.86852,64904
19.87665,62237
19.88477,65117
19.89288,68171
19.90102,72506
19.90913,86631
19.91727,101107
19.92538,109592
19.93350,117399
19.94163,114389
19.94975,113575
19.95788,116203
19.96600,109167
19.97412,103192
19.98225,105308
19.99037,101408
19.99848,100282
20.00662,97824
20.01473,94967
20.02287,90584
20.03098,90541
20.03910,83634
20.04723,79083
20.05535,78707
20.06348,71024
20.07160,68427
20.07972,63765
20.08785,63102
20.09597,63078
20.10410,68631
20.11222,67928
20.12033,60587
20.12847,64713
20.13658,63018
20.14470,61269
20.15283,60628
20.16095,61872
20.16908,63348
20.17720,56449
20.18532,61139
20.19345,59693
20.20157,61142
20.20970,68539
20.21782,61783
20.22593,60450
20.23407,63048
20.24218,62729
20.25032,68097
20.25843,80657
20.26655,123343
20.27468,190239
20.28280,314795
20.29092,471101
20.29905,626114
20.30717,748134
20.31530,770539
20.32342,652293
20.33153,507484
20.33967,360389
20.34778,247182
20.35592,185905
20.36403,151155
20.37215,123023
20.38028,106191
20.38840,95853
20.39652,91870
20.40465,86359
20.41277,80014
20.42090,85984
20.42902,95462
20.43713,111676
20.44527,140664
20.45338,185330
20.46152,224700
20.46963,240823
20.47775,234567
20.48588,211383
20.49400,185067
20.50213,145182
20.51025,124681
20.51837,100004
20.52650,93571
20.53462,81502
20.54273,71019
20.55087,69319
20.55898,69810
20.56712,68071
20.57523,68103
20.58335,71029
20.59148,64124
20.59960,62674
20.60773,65274
20.61585,63126
20.62397,66238
20.63210,75477
20.64022,74787
20.64835,78786
20.65647,81200
20.66458,81043
20.67272,79264
20.68083,82104
20.68895,85249
20.69708,86251
20.70520,84902
20.71333,91168
20.72145,91224
20.72957,82039
20.73770,81415
20.74582,77697
20.75395,85396
20.76207,84445
20.77018,86086
20.77832,85215
20.78643,84590
20.79455,87161
20.80268,86857
20.81080,89174
20.81893,90157
20.82705,96571
20.83517,95422
20.84330,90209
20.85142,96021
20.85955,89322
20.86767,88533
20.87578,93588
20.88392,89465
20.89203,87953
20.90017,88154
20.90828,84925
20.91640,86594
20.92453,89619
20.93265,81898
20.94077,83949
20.94890,83642
20.95702,84163
20.96515,83282
20.97327,85671
20.98138,80499
20.98952,85346
20.99763,84307
21.00577,80313
21.01388,76668
21.02200,83867
21.03013,77819
21.03825,78568
21.04637,76556
21.05450,75756
21.06262,77530
21.07075,76737
21.07887,75954
21.08698,73528
21.09512,79667
21.10323,75300
21.11137,76916
21.11948,74155
21.12760,75099
21.13573,75991
21.14385,74751
21.15198,76834
21.16010,80182
21.16822,80335
21.17635,82958
21.18447,87117
21.19258,91183
21.20072,89475
21.20883,94653
21.21697,92676
21.22508,88569
21.23320,88542
21.24133,92663
21.24945,85621
21.25758,81682
21.26570,83405
21.27382,85108
21.28195,83696
21.29007,80211
21.29820,81312
21.30632,80087
21.31443,81177
21.32257,75577
21.33068,76029
21.33880,75212
21.34693,79626
21.35505,70395
21.36318,70070
21.37130,69208
21.37942,69604
21.38755,73120
21.39567,70376
21.40380,68749
21.41192,77451
21.42003,74885
21.42817,79293
21.43628,82879
21.44442,85445
21.45253,81988
21.46065,87449
21.46878,79403
21.47690,77647
21.48502,75772
21.49315,75501
21.50127,73853
21.50940,78016
21.51752,73349
21.52563,72725
21.53377,69236
21.54188,69662
21.55002,67774
21.55813,69074
21.56625,67588
21.57438,70210
21.58250,66822
21.59062,75004
21.59875,74036
21.60687,71858
21.61500,75768
21.62312,84430
21.63123,95000
21.63937,121178
21.64748,180111
21.65562,232801
21.66373,283204
21.67185,324611
21.67998,312520
21.68810,261813
21.69623,207733
21.70435,153431
21.71247,126065
21.72060,105336
21.72872,91121
21.73683,92748
21.74497,82055
21.75308,78851
21.76122,84053
21.76933,79567
21.77745,77527
21.78558,77576
21.79370,79280
21.80183,82712
21.80995,76385
21.81807,75499
21.82620,87974
21.83432,107657
21.84243,147064
21.85057,195924
21.85868,241167
21.86682,273979
21.87493,273674
21.88305,238639
21.89118,196408
21.89930,149249
21.90743,112161
21.91555,95546
21.92367,84009
21.93180,77818
21.93992,76929
21.94805,69662
21.95617,74209
21.96428,73755
21.97242,72737
21.98053,70849
21.98865,69740
21.99678,66923
22.00490,68238
22.01303,64588
22.02115,61715
22.02927,66951
22.03740,61059
22.04552,64666
22.05365,60740
22.06177,61724
22.06988,63917
22.07802,58090
22.08613,55983
22.09427,64202
22.10238,61323
22.11050,60413
22.11863,62250
22.12675,64030
22.13487,63943
22.14300,64903
22.15112,64109
22.15925,62235
22.16737,65991
22.17548,63547
22.18362,62635
22.19173,64170
22.19987,66225
22.20798,64801
22.21610,65382
22.22423,70879
22.23235,78365
22.24047,87461
22.24860,93106
22.25672,102878
22.26485,102588
22.27297,98002
22.28108,82600
22.28922,78486
22.29733,71800
22.30547,67712
22.31358,64552
22.32170,64754
22.32983,63037
22.33795,60493
22.34608,62518
22.35420,60658
22.36232,65578
22.37045,61692
22.37857,57951
22.38668,57712
22.39482,58239
22.40293,57784
22.41107,58616
22.41918,55965
22.42730,60179
22.43543,64469
22.44355,62531
22.45168,67945
22.45980,69785
22.46792,75884
22.47605,75773
22.48417,70561
22.49230,70135
22.50042,72014
22.50853,69572
22.51667,68676
22.52478,63325
22.53290,62659
22.54103,65396
22.54915,62648
22.55728,65189
22.56540,67826
22.57352,61569
22.58165,62663
22.58977,60511
22.59790,61504
22.60602,58490
22.61413,58417
22.62227,57786
22.63038,55960
22.63850,54339
22.64663,51969
22.65475,52211
22.66288,51712
22.67100,49537
22.67912,51235
22.68725,49241
22.69537,55621
22.70350,54027
22.71162,55190
22.71973,52656
22.72787,59462
22.73598,63864
22.74412,63537
22.75223,58093
22.76035,63417
22.76848,55595
22.77660,66515
22.78472,60660
22.79285,61208
22.80097,55895
22.80910,55165
22.81722,56467
22.82533,59557
22.83347,60914
22.84158,67111
22.84972,61767
22.85783,69941
22.86595,69242
22.87408,65452
22.88220,71843
22.89032,68498
22.89845,71882
22.90657,71988
22.91470,74529
22.92282,78284
22.93093,89115
22.93907,98861
22.94718,111141
22.95532,126627
22.96343,125611
22.97155,117173
22.97968,121894
22.98780,104867
22.99593,97212
23.00405,89581
23.01217,83357
23.02030,81840
23.02842,73153
23.03653,69851
23.04467,61773
23.05278,56551
23.06092,59063
23.06903,55760
23.07715,58025
23.08528,50241
23.09340,55096
23.10153,51753
23.10965,53430
23.11777,50234
23.12590,50083
23.13402,52497
23.14215,49444
23.15027,50428
23.15838,47021
23.16652,48898
23.17463,46085
23.18275,46260
23.19088,47342
23.19900,48655
23.20713,51690
23.21525,46645
23.22337,46847
23.23150,46392
23.23962,47480
23.24775,44825
23.25587,46091
23.26398,47169
23.27212,47266
23.28023,52425
23.28835,49563
23.29648,49977
23.30460,50310
23.31273,49811
23.32085,47882
23.32897,52364
23.33710,48946
23.34522,43855
23.35335,43892
23.36147,44685
23.36958,48257
23.37772,47037
23.38583,50838
23.39397,50367
23.40208,51893
23.41020,50370
23.41833,48308
23.42645,48626
23.43457,51381
23.44270,50165
23.45082,52218
23.45895,50248
23.46707,46496
23.47518,47670
23.48332,45400
23.49143,45081
23.49957,43894
23.50768,42275
23.51580,43703
23.52393,48051
23.53205,44692
23.54018,48793
23.54830,46682
23.55642,48660
23.56455,46425
23.57267,47465
23.58078,47564
23.58892,46091
23.59703,45171
23.60517,50925
23.61328,51324
23.62140,53804
23.62953,50567
23.63765,46861
23.64578,51276
23.65390,45530
23.66202,48816
23.67015,49071
23.67827,54101
23.68638,51864
23.69452,58153
23.70263,56443
23.71077,55907
23.71888,59593
23.72700,53841
23.73513,53588
23.74325,60248
23.75138,77481
23.75950,168554
23.76762,438908
23.77575,1228171
23.78387,2733295
23.79200,4811921
23.80012,6569054
23.80823,7441793
23.81637,7104567
23.82448,5674529
23.83260,4140763
23.84073,2821204
23.84885,1886802
23.85698,1316603
23.86510,931168
23.87322,749948
23.88135,606108
23.88947,506564
23.89760,449713
23.90572,414342
23.91383,368858
23.92197,334408
23.93008,312570
23.93822,285587
23.94633,274723
23.95445,270232
23.96258,248856
23.97070,223600
23.97882,223270
23.98695,214229
23.99507,205919
24.00320,198677
24.01132,191848
24.01943,184060
24.02757,184472
24.03568,167637
24.04382,161723
24.05193,164307
24.06005,160373
24.06818,152610
24.07630,148694
24.08442,145133
24.09255,155054
24.10067,139555
24.10880,134920
24.11692,134922
24.12503,131559
24.13317,132591
24.14128,131784
24.14942,150945
24.15753,156503
24.16565,177541
24.17378,174856
24.18190,174234
24.19003,162457
24.19815,149545
24.20627,140589
24.21440,139294
24.22252,138372
24.23063,144640
24.23877,167469
24.24688,178038
24.25502,180185
24.26313,166599
24.27125,155836
24.27938,139013
24.28750,120520
24.29563,114863
24.30375,108458
24.31187,106261
24.32000,103480
24.32812,98290
24.33623,108305
24.34437,100988
24.35248,103127
24.36062,99767
24.36873,96273
24.37685,105968
24.38498,94504
24.39310,101862
24.40123,105158
24.40935,117741
24.41747,147390
24.42560,159881
24.43372,171527
24.44185,163677
24.44997,148464
24.45808,128598
24.46622,105582
24.47433,101147
24.48245,88622
24.49058,90020
24.49870,96577
24.50683,97448
24.51495,104963
24.52307,119408
24.53120,137795
24.53932,167296
24.54745,168196
24.55557,171598
24.56368,155754
24.57182,138241
24.57993,124686
24.58807,112270
24.59618,107774
24.60430,104447
24.61243,103341
24.62055,99852
24.62867,98166
24.63680,95624
24.64492,93037
24.65305,91169
24.66117,94714
24.66928,100499
24.67742,101591
24.68553,104508
24.69367,102171
24.70178,99092
24.70990,90690
24.71803,91337
24.72615,89127
24.73427,79663
24.74240,74407
24.75052,80724
24.75865,76312
24.76677,78244
24.77488,78553
24.78302,75298
24.79113,79581
24.79927,78937
24.80738,68057
24.81550,68954
24.82363,70064
24.83175,70162
24.83988,74326
24.84800,72205
24.85612,74888
24.86425,73774
24.87237,79877
24.88048,84724
24.88862,83162
24.89673,85508
24.90487,89081
24.91298,96341
24.92110,94418
24.92923,95200
24.93735,91432
24.94548,84823
24.95360,75372
24.96172,76063
24.96985,73003
24.97797,68063
24.98610,72612
24.99422,63307
25.00233,68234
25.01047,70170
25.01858,70557
25.02670,66206
25.03483,68416
25.04295,63098
25.05108,64019
25.05920,66249
25.06732,64065
25.07545,62038
25.08357,62609
25.09170,61783
25.09982,63065
25.10793,65886
25.11607,67319
25.12418,78445
25.13230,98225
25.14043,135058
25.14855,190816
25.15668,287325
25.16480,360509
25.17292,420383
25.18105,421168
25.18917,397906
25.19730,333769
25.20542,258820
25.21353,196471
25.22167,152267
25.22978,120207
25.23792,102598
25.24603,92451
25.25415,88890
25.26228,83251
25.27040,81269
25.27852,84306
25.28665,84596
25.29477,79340
25.30290,79105
25.31102,80543
25.31913,80476
25.32727,83509
25.33538,80847
25.34352,81798
25.35163,81269
25.35975,73872
25.36788,73930
25.37600,71835
25.38412,68022
25.39225,65087
25.40037,64961
25.40850,66533
25.41662,64607
25.42473,61287
25.43287,66561
25.44098,61848
25.44912,62839
25.45723,61473
25.46535,66880
25.47348,60499
25.48160,64450
25.48973,75102
25.49785,76812
25.50597,82422
25.51410,83817
25.52222,86113
25.53033,79188
25.53847,75448
25.54658,72234
25.55472,75019
25.56283,70004
25.57095,64362
25.57908,62083
25.58720,62847
25.59533,64647
25.60345,63702
25.61157,62807
25.61970,64038
25.62782,58170
25.63595,61892
25.64407,60276
25.65218,57330
25.66032,59681
25.66843,59291
25.67655,58630
25.68468,55699
25.69280,61252
25.70093,60140
25.70905,58313
25.71717,56222
25.72530,62684
25.73342,60113
25.74155,61362
25.74967,65211
25.75778,61974
25.76592,59462
25.77403,60380
25.78215,55458
25.79028,59681
25.79840,58537
25.80653,56206
25.81465,57696
25.82277,62667
25.83090,61765
25.83902,62858
25.84715,55576
25.85527,55318
25.86338,60653
25.87152,58751
25.87963,59144
25.88777,56633
25.89588,59592
25.90400,55501
25.91213,56879
25.92025,55524
25.92837,52049
25.93650,55795
25.94462,60534
25.95275,60043
25.96087,57583
25.96898,59597
25.97712,57033
25.98523,57703
25.99337,53104
26.00148,55570
26.00960,55108
26.01773,58515
26.02585,57036
26.03398,58360
26.04210,51152
26.05022,53122
26.05835,52493
26.06647,59898
26.07458,54283
26.08272,57455
26.09083,60218
26.09897,58099
26.10708,61733
26.11520,60629
26.12333,67690
26.13145,63423
26.13958,69942
26.14770,75336
26.15582,70366
26.16395,69507
26.17207,84685
26.18018,73468
26.18832,75985
26.19643,71937
26.20457,68464
26.21268,64690
26.22080,63331
26.22893,59627
26.23705,59531
26.24518,56783
26.25330,51931
26.26142,55236
26.26955,55432
26.27767,56330
26.28580,59931
26.29392,58371
26.30203,62746
26.31017,62445
26.31828,56390
26.32640,58952
26.33453,56052
26.34265,57413
26.35078,57851
26.35890,57316
26.36702,53560
26.37515,62929
26.38327,66228
26.39140,82708
26.39952,99972
26.40763,114459
26.41577,133316
26.42388,145928
26.43200,141961
26.44013,137067
26.44825,124121
26.45638,111517
26.46450,98482
26.47262,79944
26.48075,70173
26.48887,68791
26.49700,66296
26.50512,58148
26.51323,56960
26.52137,55495
26.52948,60038
26.53762,52976
26.54573,53763
26.55385,52945
26.56198,49556
26.57010,53665
26.57822,50670
26.58635,56303
26.59447,57113
26.60260,52198
26.61072,51639
26.61883,55755
26.62697,52197
26.63508,51339
26.64322,51130
26.65133,55897
26.65945,52486
26.66758,56701
26.67570,54501
26.68383,54686
26.69195,49654
26.70007,59400
26.70820,56328
26.71632,56249
26.72443,55784
26.73257,58250
26.74068,52375
26.74882,57230
26.75693,56529
26.76505,56189
26.77318,53594
26.78130,58446
26.78943,56490
26.79755,57972
26.80567,59107
26.81380,64401
26.82192,54660
26.83005,60653
26.83817,58140
26.84628,60554
26.85442,59675
26.86253,63547
26.87065,65741
26.87878,70476
26.88690,69843
26.89503,71571
26.90315,73286
26.91127,71056
26.91940,66533
26.92752,69251
26.93565,63443
26.94377,62921
26.95188,66675
26.96002,71876
26.96813,89493
26.97625,131706
26.98438,287933
26.99250,655649
27.00063,1433373
27.00875,2948380
27.01687,5114510
27.02500,6854354
27.03312,7316220
27.04125,7041812
27.04937,5519857
27.05748,3995254
27.06562,2882796
27.07373,1962849
27.08187,1410067
27.08998,1067417
27.09810,834322
27.10623,684387
27.11435,619064
27.12247,528756
27.13060,481145
27.13872,439675
27.14685,406582
27.15497,373504
27.16308,341065
27.17122,327361
27.17933,315596
27.18747,290759
27.19558,287463
27.20370,269656
27.21183,274556
27.21995,260946
27.22807,249282
27.23620,242952
27.24432,240786
27.25245,219985
27.26057,213726
27.26868,199997
27.27682,186459
27.28493,183378
27.29307,176747
27.30118,174523
27.30930,164267
27.31743,166359
27.32555,157527
27.33368,158858
27.34180,153836
27.34992,155087
27.35805,154072
27.36617,148950
27.37428,140425
27.38242,137853
27.39053,142455
27.39867,141112
27.40678,130203
27.41490,133851
27.42303,124275
27.43115,131555
27.43928,124684
27.44740,129143
27.45552,116972
27.46365,123846
27.47177,122634
27.47990,116362
27.48802,118142
27.49613,121491
27.50427,111906
27.51238,111527
27.52050,113295
27.52863,108386
27.53675,111590
27.54488,108844
27.55300,110977
27.56112,118765
27.56925,122388
27.57737,115845
27.58550,114231
27.59362,115831
27.60173,109907
27.60987,102849
27.61798,102062
27.62610,102389
27.63423,110925
27.64235,104694
27.65048,111185
27.65860,102240
27.66672,98480
27.67485,97286
27.68297,95422
27.69110,90061
27.69922,95166
27.70733,92958
27.71547,94832
27.72358,96991
27.73172,92534
27.73983,86134
27.74795,88299
27.75608,85966
27.76420,87040
27.77232,89104
27.78045,86505
27.78857,88436
27.79670,88368
27.80482,91132
27.81293,88156
27.82107,88688
27.82918,91866
27.83732,91714
27.84543,89777
27.85355,92176
27.86168,94622
27.86980,87351
27.87793,83011
27.88605,93796
27.89417,89300
27.90230,86025
27.91042,84819
27.91853,90665
27.92667,78873
27.93478,86413
27.94292,79304
27.95103,80690
27.95915,80836
27.96728,83175
27.97540,76413
27.98353,79574
27.99165,77028
27.99977,77629
28.00790,76333
28.01602,78121
28.02413,75111
28.03227,83422
28.04038,75711
28.04852,77792
28.05663,80260
28.06475,91792
28.07288,88475
28.08100,83262
28.08913,87639
28.09725,85535
28.10537,80775
28.11350,82596
28.12162,75558
28.12975,77356
28.13787,77065
28.14598,75301
28.15412,75511
28.16223,70563
28.17035,71044
28.17848,69998
28.18660,72880
28.19473,69773
28.20285,72298
28.21097,75332
28.21910,81780
28.22722,94799
28.23535,96626
28.24347,101028
28.25158,101205
28.25972,101097
28.26783,88571
28.27595,90404
28.28408,81467
28.29220,85537
28.30033,82374
28.30845,95720
28.31657,118118
28.32470,160361
28.33282,253147
28.34095,366400
28.34907,556491
28.35718,788910
28.36532,1073882
28.37343,1303848
28.38157,1462282
28.38968,1478419
28.39780,1489526
28.40593,1355881
28.41405,1159748
28.42217,985027
28.43030,851764
28.43842,726205
28.44655,590390
28.45467,505606
28.46278,430640
28.47092,376014
28.47903,326799
28.48717,296043
28.49528,270081
28.50340,254580
28.51153,239677
28.51965,223519
28.52778,207298
28.53590,195683
28.54402,198938
28.55215,184333
28.56027,174055
28.56838,165375
28.57652,160884
28.58463,162806
28.59277,158617
28.60088,142792
28.60900,148557
28.61713,142762
28.62525,135402
28.63338,140618
28.64150,133785
28.64962,131853
28.65775,139682
28.66587,143701
28.67398,136131
28.68212,135073
28.69023,134116
28.69837,139567
28.70648,130434
28.71460,119922
28.72273,123535
28.73085,113420
28.73898,108038
28.74710,111280
28.75522,109034
28.76335,106897
28.77147,108187
28.77960,117819
28.78772,121860
28.79583,126066
28.80397,137852
28.81208,135763
28.82020,133046
28.82833,126535
28.83645,116296
28.84458,112181
28.85270,97145
28.86082,103315
28.86895,97346
28.87707,97076
28.88520,94104
28.89332,100384
28.90143,96303
28.90957,94211
28.91768,93723
28.92582,96902
28.93393,98823
28.94205,94821
28.95018,100304
28.95830,92948
28.96642,102912
28.97455,92798
28.98267,97359
28.99080,98856
28.99892,99244
29.00703,91100
29.01517,90688
29.02328,90929
29.03142,87407
29.03953,86752
29.04765,83628
29.05578,87639
29.06390,82692
29.07202,81989
29.08015,84563
29.08827,86572
29.09640,86128
29.10452,84159
29.11263,81551
29.12077,85067
29.12888,84314
29.13702,81982
29.14513,83770
29.15325,81966
29.16138,87760
29.16950,90515
29.17763,86780
29.18575,85067
29.19387,81459
29.20200,80148
29.21012,77030
29.21823,87568
29.22637,85164
29.23448,85272
29.24262,82586
29.25073,86123
29.25885,84685
29.26698,79651
29.27510,76529
29.28323,83007
29.29135,78564
29.29947,83532
29.30760,78065
29.31572,80243
29.32385,76629
29.33197,82644
29.34008,77487
29.34822,80009
29.35633,74956
29.36445,81172
29.37258,80856
29.38070,77911
29.38883,75309
29.39695,77971
29.40507,78917
29.41320,75806
29.42132,80904
29.42945,80150
29.43757,79577
29.44568,78702
29.45382,79490
29.46193,75350
29.47005,81014
29.47818,71963
29.48630,71969
29.49443,74923
29.50255,77153
29.51067,80420
29.51880,83123
29.52692,89571
29.53505,89567
29.54317,81874
29.55128,82900
29.55942,82398
29.56753,70155
29.57567,68175
29.58378,70112
29.59190,65065
29.60003,70372
29.60815,69462
29.61627,64034
29.62440,66350
29.63252,69124
29.64065,65354
29.64877,71448
29.65688,67585
29.66502,69061
29.67313,66790
29.68127,64640
29.68938,69845
29.69750,70804
29.70563,71354
29.71375,65979
29.72187,68981
29.73000,66887
29.73812,61394
29.74625,61195
29.75437,62292
29.76248,62900
29.77062,64822
29.77873,61643
29.78687,61163
29.79498,68274
29.80310,60213
29.81123,58341
29.81935,63281
29.82748,61912
29.83560,60422
29.84372,59756
29.85185,58547
29.85997,57682
29.86808,60431
29.87622,59720
29.88433,61158
29.89247,61189
29.90058,66162
29.90870,70568
29.91683,72921
29.92495,74351
29.93308,75244
29.94120,75653
29.94932,71010
29.95745,78363
29.96557,80836
29.97370,97123
29.98182,114860
29.98993,146359
29.99807,188027
30.00618,240804
30.01430,294754
30.02243,360893
30.03055,415825
30.03868,450010
30.04680,495542
30.05492,502786
30.06305,507306
30.07117,504204
30.07930,500223
30.08742,459244
30.09553,426352
30.10367,377087
30.11178,340219
30.11990,310049
30.12803,277550
30.13615,250342
30.14428,229480
30.15240,211477
30.16052,184391
30.16865,180255
30.17677,174561
30.18490,162835
30.19302,150265
30.20113,148801
30.20927,130883
30.21738,137719
30.22552,124271
30.23363,119327
30.24175,125723
30.24988,114728
30.25800,112244
30.26612,103559
30.27425,102220
30.28237,97241
30.29050,97172
30.29862,94282
30.30673,95487
30.31487,97962
30.32298,96700
30.33112,90739
30.33923,91889
30.34735,84839
30.35548,89703
30.36360,87316
30.37173,90750
30.37985,82992
30.38797,81900
30.39610,80331
30.40422,86420
30.41233,82467
30.42047,81079
30.42858,83800
30.43672,81649
30.44483,77158
30.45295,84963
30.46108,79111
30.46920,75647
30.47733,77712
30.48545,74419
30.49357,81143
30.50170,76916
30.50982,72011
30.51793,79015
30.52607,77505
30.53418,72165
30.54232,78242
30.55043,73684
30.55855,72513
30.56668,72586
30.57480,69313
30.58293,75836
30.59105,74101
30.59917,70187
30.60730,71087
30.61542,68274
30.62355,69132
30.63167,70115
30.63978,71677
30.64792,67910
30.65603,67887
30.66415,65647
30.67228,66343
30.68040,67353
30.68853,68539
30.69665,65810
30.70477,66067
30.71290,65792
30.72102,64981
30.72915,66066
30.73727,67177
30.74538,72062
30.75352,65115
30.76163,69692
30.76975,67864
30.77788,64590
30.78600,71142
30.79413,67232
30.80225,70445
30.81037,78825
30.81850,74979
30.82662,92191
30.83475,86452
30.84287,86806
30.85098,78336
30.85912,74538
30.86723,78063
30.87537,70420
30.88348,64828
30.89160,69151
30.89973,65876
30.90785,67229
30.91597,62629
30.92410,60189
30.93222,62730
30.94035,62646
30.94847,65641
30.95658,61654
30.96472,60398
30.97283,58976
30.98097,61410
30.98908,67057
30.99720,70952
31.00533,65004
31.01345,66392
31.02158,62815
31.02970,70967
31.03782,64586
31.04595,72459
31.05407,66929
31.06218,67566
31.07032,68637
31.07843,69923
31.08657,66256
31.09468,68571
31.10280,71739
31.11093,76698
31.11905,85716
31.12718,82551
31.13530,85011
31.14342,84986
31.15155,77135
31.15967,79717
31.16778,70908
31.17592,72736
31.18403,84135
31.19217,95215
31.20028,120722
31.20840,163156
31.21653,242024
31.22465,331042
31.23278,428160
31.24090,486665
31.24902,476223
31.25715,408265
31.26527,305107
31.27340,219513
31.28152,158949
31.28963,117730
31.29777,91155
31.30588,78599
31.31400,76729
31.32213,71762
31.33025,73103
31.33838,69527
31.34650,72459
31.35462,76068
31.36275,69292
31.37087,66636
31.37900,69050
31.38712,68766
31.39523,65919
31.40337,62956
31.41148,65303
31.41962,69975
31.42773,68029
31.43585,63578
31.44398,71214
31.45210,76752
31.46022,71186
31.46835,77757
31.47647,69163
31.48460,73277
31.49272,62435
31.50083,63362
31.50897,70159
31.51708,67665
31.52522,65678
31.53333,66207
31.54145,65571
31.54958,61183
31.55770,61875
31.56582,68202
31.57395,67269
31.58207,67233
31.59020,64438
31.59832,61046
31.60643,62922
31.61457,58984
31.62268,61208
31.63082,63673
31.63893,69404
31.64705,64652
31.65518,64029
31.66330,69457
31.67143,69373
31.67955,67191
31.68767,69020
31.69580,66540
31.70392,65460
31.71203,65072
31.72017,63349
31.72828,60781
31.73642,60880
31.74453,61840
31.75265,60659
31.76078,56561
31.76890,58014
31.77703,64314
31.78515,57059
31.79327,59424
31.80140,62289
31.80952,62554
31.81763,63545
31.82577,62486
31.83388,63221
31.84202,60598
31.85013,64164
31.85825,62340
31.86638,63456
31.87450,63608
31.88263,64290
31.89075,66681
31.89887,63418
31.90700,65854
31.91512,69653
31.92325,72612
31.93137,77107
31.93948,93944
31.94762,117580
31.95573,136865
31.96385,176928
31.97198,206671
31.98010,240778
31.98823,273195
31.99635,280678
32.00447,291587
32.01260,291883
32.02072,287353
32.02885,259916
32.03697,243362
32.04508,222110
32.05322,198983
32.06133,186605
32.06947,160347
32.07758,153213
32.08570,137721
32.09383,125689
32.10195,128661
32.11007,133355
32.11820,133866
32.12632,120867
32.13445,119721
32.14257,107798
32.15068,102718
32.15882,93763
32.16693,88420
32.17507,90144
32.18318,80643
32.19130,87652
32.19943,85461
32.20755,85521
32.21568,78263
32.22380,78023
32.23192,79766
32.24005,82222
32.24817,77691
32.25628,77726
32.26442,69750
32.27253,73368
32.28067,72447
32.28878,68252
32.29690,77770
32.30503,74327
32.31315,74564
32.32128,70678
32.32940,79138
32.33752,71434
32.34565,71261
32.35377,76925
32.36188,74278
32.37002,65976
32.37813,72273
32.38627,76138
32.39438,73378
32.40250,74240
32.41063,69448
32.41875,70535
32.42688,71137
32.43500,63269
32.44312,69303
32.45125,66364
32.45937,61749
32.46750,68230
32.47562,64753
32.48373,67562
32.49187,65918
32.49998,67624
32.50810,64771
32.51623,70875
32.52435,65614
32.53248,65461
32.54060,64573
32.54872,63715
32.55685,62181
32.56497,67868
32.57310,61834
32.58122,64378
32.58933,62592
32.59747,63240
32.60558,68496
32.61370,66598
32.62183,61798
32.62995,65058
32.63808,61415
32.64620,65431
32.65432,68074
32.66245,63837
32.67057,61927
32.67870,72597
32.68682,80668
32.69493,78701
32.70307,86719
32.71118,90381
32.71932,84319
32.72743,73695
32.73555,69951
32.74368,66875
32.75180,64172
32.75992,70010
32.76805,66576
32.77617,70617
32.78430,64975
32.79242,60445
32.80053,65339
32.80867,60186
32.81678,62683
32.82492,63089
32.83303,60447
32.84115,61271
32.84928,60804
32.85740,60443
32.86553,63515
32.87365,61367
32.88177,63957
32.88990,62472
32.89802,64606
32.90613,60725
32.91427,62738
32.92238,64360
32.93052,64830
32.93863,66664
32.94675,62444
32.95488,71023
32.96300,63028
32.97113,58751
32.97925,62502
32.98737,61219
32.99550,59443
33.00362,62340
33.01173,73158
33.01987,66884
33.02798,67683
33.03612,65274
33.04423,67378
33.05235,62622
33.06048,66414
33.06860,64582
33.07673,62576
33.08485,66008
33.09297,71528
33.10110,75588
33.10922,73747
33.11735,82572
33.12547,83497
33.13358,92227
33.14172,93325
33.14983,79993
33.15795,85168
33.16608,74584
33.17420,71469
33.18233,64793
33.19045,64658
33.19857,62354
33.20670,66729
33.21482,60272
33.22295,61894
33.23107,67041
33.23918,73095
33.24732,69749
33.25543,74785
33.26357,63771
33.27168,70105
33.27980,64253
33.28793,64681
33.29605,59079
33.30417,63609
33.31230,66382
33.32042,64313
33.32855,63448
33.33667,63941
33.34478,60156
33.35292,61768
33.36103,58577
33.36917,60905
33.37728,58185
33.38540,62946
33.39353,60196
33.40165,61344
33.40977,62236
33.41790,59051
33.42602,61850
33.43415,60408
33.44227,58517
33.45038,60299
33.45852,58991
33.46663,60421
33.47477,58590
33.48288,58163
33.49100,67431
33.49913,61732
33.50725,58832
33.51538,58611
33.52350,63543
33.53162,67018
33.53975,62859
33.54787,61259
33.55598,62953
33.56412,62218
33.57223,63058
33.58037,65427
33.58848,65985
33.59660,63940
33.60473,66358
33.61285,57925
33.62098,60178
33.62910,55110
33.63722,58021
33.64535,59402
33.65347,56887
33.66158,57096
33.66972,55438
33.67783,58783
33.68597,60918
33.69408,57989
33.70220,63171
33.71033,59268
33.71845,58181
33.72658,55363
33.73470,61559
33.74282,57435
33.75095,57865
33.75907,59442
33.76720,59078
33.77532,59597
33.78343,54113
33.79157,55907
33.79968,55935
33.80780,55950
33.81593,54703
33.82405,60169
33.83218,57729
33.84030,59665
33.84842,61103
33.85655,58753
33.86467,57404
33.87280,61219
33.88092,62968
33.88903,58961
33.89717,64510
33.90528,65357
33.91342,59428
33.92153,61378
33.92965,64934
33.93778,63003
33.94590,64166
33.95402,59346
33.96215,58520
33.97027,60841
33.97840,57146
33.98652,58563
33.99463,57914
34.00277,57736
34.01088,59546
34.01902,55008
34.02713,59114
34.03525,55378
34.04338,54069
34.05150,52735
34.05962,57091
34.06775,55266
34.07587,58552
34.08400,62210
34.09212,55706
34.10023,55804
34.10837,56085
34.11648,53261
34.12462,57144
34.13273,55646
34.14085,56708
34.14898,54922
34.15710,56486
34.16523,55351
34.17335,57688
34.18147,54847
34.18960,57479
34.19772,55829
34.20583,55501
34.21397,60440
34.22208,58161
34.23022,52934
34.23833,56074
34.24645,57943
34.25458,57443
34.26270,58177
34.27083,56775
34.27895,59042
34.28707,60074
34.29520,62148
34.30332,59025
34.31145,57684
34.31957,60079
34.32768,54366
34.33582,54882
34.34393,58487
34.35205,53021
34.36018,56378
34.36830,57919
34.37643,57252
34.38455,60914
34.39267,58739
34.40080,60019
34.40892,60338
34.41705,52549
34.42517,54428
34.43328,56036
34.44142,54783
34.44953,57918
34.45765,60828
34.46578,62135
34.47390,63970
34.48203,58666
34.49015,53081
34.49827,57684
34.50640,56605
34.51452,54155
34.52265,56186
34.53077,60830
34.53888,68881
34.54702,83423
34.55513,100695
34.56327,126711
34.57138,153041
34.57950,169131
34.58763,179683
34.59575,191881
34.60387,175606
34.61200,162493
34.62012,142737
34.62825,131979
34.63637,116084
34.64448,104897
34.65262,100298
34.66073,96647
34.66887,91213
34.67698,91445
34.68510,90140
34.69323,81851
34.70135,78457
34.70947,79460
34.71760,71747
34.72572,75792
34.73385,77379
34.74197,72816
34.75008,73823
34.75822,72727
34.76633,75406
34.77447,76568
34.78258,73759
34.79070,73778
34.79883,73642
34.80695,70723
34.81508,71007
34.82320,70017
34.83132,70502
34.83945,66032
34.84757,69715
34.85568,67092
34.86382,61629
34.87193,64168
34.88007,67902
34.88818,65562
34.89630,68255
34.90443,71024
34.91255,65935
34.92068,69416
34.92880,64863
34.93692,70556
34.94505,71043
34.95317,68167
34.96130,64147
34.96942,70015
34.97753,71880
34.98567,74198
34.99378,73983
35.00190,81403
35.01003,73692
35.01815,75477
35.02628,68742
35.03440,72737
35.04252,72986
35.05065,68308
35.05877,64342
35.06690,69263
35.07502,64000
35.08313,68049
35.09127,65806
35.09938,64824
35.10750,65675
35.11563,68704
35.12375,68760
35.13188,69935
35.14000,71186
35.14812,66534
35.15625,66704
35.16437,73918
35.17250,77473
35.18062,76920
35.18873,83178
35.19687,75386
35.20498,71857
35.21312,73732
35.22123,70419
35.22935,67483
35.23748,70477
35.24560,65015
35.25372,63840
35.26185,65274
35.26997,66659
35.27810,64781
35.28622,67086
35.29433,67497
35.30247,66903
35.31058,67707
35.31872,69666
35.32683,64625
35.33495,63600
35.34308,62877
35.35120,67911
35.35933,66587
35.36745,57665
35.37557,67180
35.38370,61508
35.39182,62988
35.39993,65169
35.40807,63403
35.41618,62603
35.42432,62064
35.43243,68348
35.44055,64121
35.44868,64831
35.45680,69071
35.46493,67934
35.47305,69410
35.48117,73482
35.48930,67543
35.49742,72806
35.50553,62158
35.51367,67669
35.52178,65187
35.52992,69119
35.53803,64578
35.54615,65061
35.55428,60807
35.56240,62817
35.57053,67081
35.57865,64399
35.58677,63750
35.59490,66654
35.60302,69598
35.61115,70627
35.61927,68165
35.62738,66549
35.63552,65849
35.64363,66452
35.65175,61502
35.65988,60958
35.66800,64330
35.67613,59992
35.68425,71044
35.69237,67333
35.70050,70286
35.70862,81485
35.71675,76512
35.72487,83235
35.73298,80148
35.74112,79523
35.74923,71958
35.75737,73996
35.76548,71018
35.77360,76047
35.78173,73577
35.78985,72863
35.79797,76310
35.80610,70098
35.81422,70044
35.82235,70155
35.83047,68928
35.83858,75464
35.84672,64414
35.85483,70452
35.86297,69688
35.87108,69628
35.87920,68759
35.88733,65125
35.89545,65247
35.90357,69683
35.91170,67232
35.91982,68681
35.92795,64812
35.93607,68212
35.94418,66853
35.95232,66678
35.96043,66510
35.96857,68270
35.97668,65372
35.98480,69285
35.99293,64338
36.00105,66529
36.00918,67520
36.01730,64617
36.02542,72641
36.03355,67918
36.04167,69582
36.04978,73940
36.05792,73786
36.06603,68788
36.07417,71343
36.08228,66583
36.09040,67529
36.09853,71458
36.10665,66476
36.11478,64505
36.12290,66562
36.13102,67482
36.13915,66205
36.14727,64756
36.15538,72127
36.16352,70648
36.17163,66333
36.17977,66544
36.18788,68056
36.19600,64194
36.20413,66858
36.21225,72363
36.22038,66910
36.22850,68411
36.23662,66972
36.24475,65540
36.25287,72208
36.26100,66919
36.26912,68281
36.27723,67725
36.28537,65364
36.29348,72912
36.30160,66778
36.30973,68807
36.31785,68882
36.32598,73315
36.33410,82822
36.34222,85038
36.35035,85162
36.35847,79347
36.36660,84975
36.37472,84504
36.38283,82704
36.39097,82315
36.39908,81596
36.40722,82310
36.41533,82682
36.42345,79776
36.43158,76962
36.43970,75691
36.44782,72071
36.45595,68814
36.46407,68999
36.47220,73727
36.48032,68019
36.48843,67927
36.49657,67396
36.50468,66378
36.51282,66117
36.52093,67797
36.52905,64981
36.53718,65417
36.54530,69263
36.55342,67558
36.56155,66758
36.56967,63452
36.57780,66181
36.58592,65669
36.59403,62941
36.60217,71979
36.61028,69526
36.61842,68104
36.62653,65341
36.63465,69978
36.64278,69152
36.65090,65142
36.65903,64947
36.66715,64546
36.67527,66607
36.68340,68885
36.69152,70231
36.69963,72312
36.70777,75801
36.71588,79682
36.72402,76687
36.73213,76950
36.74025,78149
36.74838,86334
36.75650,84693
36.76463,84941
36.77275,83004
36.78087,84529
36.78900,91750
36.79712,84548
36.80525,90773
36.81337,91498
36.82148,91142
36.82962,91271
36.83773,90866
36.84585,87129
36.85398,86118
36.86210,85104
36.87023,87149
36.87835,81105
36.88647,82129
36.89460,75609
36.90272,79451
36.91085,76671
36.91897,70232
36.92708,70214
36.93522,70789
36.94333,71881
36.95145,75819
36.95958,68796
36.96770,71873
36.97583,70430
36.98395,74083
36.99207,68239
37.00020,69830
37.00832,69728
37.01645,67115
37.02457,68905
37.03268,65253
37.04082,71386
37.04893,68523
37.05707,72012
37.06518,70864
37.07330,70030
37.08143,73494
37.08955,74649
37.09767,73965
37.10580,68543
37.11392,75128
37.12205,69030
37.13017,69457
37.13828,68922
37.14642,70996
37.15453,71845
37.16267,65579
37.17078,74289
37.17890,65128
37.18703,68965
37.19515,68700
37.20327,68547
37.21140,74164
37.21952,65689
37.22765,69458
37.23577,76378
37.24388,74224
37.25202,72606
37.26013,72759
37.26827,72399
37.27638,72180
37.28450,73845
37.29263,67520
37.30075,72349
37.30888,76021
37.31700,73244
37.32512,71412
37.33325,71608
37.34137,72574
37.34948,76565
37.35762,81751
37.36573,87695
37.37387,100215
37.38198,112790
37.39010,121055
37.39823,118428
37.40635,122283
37.41448,121055
37.42260,117709
37.43072,109120
37.43885,102033
37.44697,101790
37.45510,98664
37.46322,92998
37.47133,89547
37.47947,88643
37.48758,91765
