C:\MassHunter\GCMS\1\data\JTB-E02\BACandBLUE\JTB-E18-008-12.D Wed May 15 16:30:37 2019
Start of data points
2.09530,58604
2.10342,61292
2.11155,56631
2.11967,58884
2.12778,59461
2.13592,60016
2.14403,59959
2.15217,58117
2.16028,58858
2.16840,57935
2.17653,56424
2.18465,51249
2.19278,52126
2.20090,55547
2.20902,51029
2.21715,50909
2.22527,50519
2.23340,49743
2.24152,52400
2.24963,50318
2.25777,50043
2.26588,70249
2.27400,512789
2.28213,1613347
2.29025,1146458
2.29838,496455
2.30650,319667
2.31462,268671
2.32275,233179
2.33087,219061
2.33900,203222
2.34712,183418
2.35523,172266
2.36337,160209
2.37148,153177
2.37962,144408
2.38773,145771
2.39585,132399
2.40398,133809
2.41210,121964
2.42022,127435
2.42835,127629
2.43647,129538
2.44460,117429
2.45272,120504
2.46083,119802
2.46897,112097
2.47708,110424
2.48522,110251
2.49333,139096
2.50145,150690
2.50958,128585
2.51770,114321
2.52582,109250
2.53395,110134
2.54207,110783
2.55020,116741
2.55832,163448
2.56643,242395
2.57457,209001
2.58268,152456
2.59082,141139
2.59893,132934
2.60705,149503
2.61518,241208
2.62330,249966
2.63143,191533
2.63955,159464
2.64767,145072
2.65580,127470
2.66392,117051
2.67203,118456
2.68017,121009
2.68828,110703
2.69642,108795
2.70453,109856
2.71265,111848
2.72078,107064
2.72890,113228
2.73703,111974
2.74515,106496
2.75327,104688
2.76140,103578
2.76952,101649
2.77765,201054
2.78577,886146
2.79388,1622638
2.80202,1108569
2.81013,615184
2.81825,469794
2.82638,415251
2.83450,358229
2.84263,324815
2.85075,273492
2.85887,227542
2.86700,205675
2.87512,194903
2.88325,172683
2.89137,164991
2.89948,161365
2.90762,152777
2.91573,141676
2.92385,135444
2.93198,137061
2.94010,128191
2.94823,130987
2.95635,125083
2.96447,126653
2.97260,121082
2.98072,118352
2.98885,123729
2.99697,129181
3.00508,134230
3.01322,145473
3.02133,134052
3.02947,123541
3.03758,120815
3.04570,118394
3.05383,113735
3.06195,122855
3.07007,127176
3.07820,156754
3.08632,587072
3.09445,1989353
3.10257,3113312
3.11068,3361726
3.11882,3130594
3.12693,2059418
3.13507,1291982
3.14318,958670
3.15130,771074
3.15943,621305
3.16755,551451
3.17567,525497
3.18380,578503
3.19192,1045099
3.20005,1699452
3.20817,1490223
3.21628,1019796
3.22442,773104
3.23253,653283
3.24067,553092
3.24878,489192
3.25690,415808
3.26503,391910
3.27315,352911
3.28128,336950
3.28940,451214
3.29752,1132829
3.30565,2968699
3.31377,4836553
3.32188,4809687
3.33002,3436545
3.33813,2216740
3.34627,1571021
3.35438,1191834
3.36250,979786
3.37063,847191
3.37875,745222
3.38688,670817
3.39500,604984
3.40312,558156
3.41125,527337
3.41937,513960
3.42750,487031
3.43562,474020
3.44373,467058
3.45187,455138
3.45998,425918
3.46810,428888
3.47623,427152
3.48435,423549
3.49248,415889
3.50060,392654
3.50872,381146
3.51685,374506
3.52497,377446
3.53310,384502
3.54122,401504
3.54933,396583
3.55747,370970
3.56558,359480
3.57370,347621
3.58183,337812
3.58995,342985
3.59808,332465
3.60620,321618
3.61432,331731
3.62245,341760
3.63057,376761
3.63870,430825
3.64682,453697
3.65493,430677
3.66307,775489
3.67118,3633974
3.67932,1.104436E+07
3.68743,1.589295E+07
3.69555,1.283227E+07
3.70368,7513951
3.71180,4981469
3.71992,3881325
3.72805,3250417
3.73617,2777662
3.74430,2467396
3.75242,2184269
3.76053,1984039
3.76867,1805678
3.77678,1628370
3.78492,1513590
3.79303,1449131
3.80115,1419794
3.80928,1653899
3.81740,2288949
3.82553,2523019
3.83365,2086816
3.84177,1615577
3.84990,1403765
3.85802,1228092
3.86613,1140447
3.87427,1080745
3.88238,1005151
3.89052,945541
3.89863,905261
3.90675,873815
3.91488,847808
3.92300,938718
3.93113,1067167
3.93925,1114861
3.94737,1105210
3.95550,1588678
3.96362,3123535
3.97173,4511355
3.97987,4107905
3.98798,2646230
3.99612,1757658
4.00423,2059553
4.01235,3662917
4.02048,4940179
4.02860,4313193
4.03673,2680479
4.04485,1577062
4.05297,1118892
4.06110,920470
4.06922,797888
4.07735,717567
4.08547,687587
4.09358,651474
4.10172,610912
4.10983,597768
4.11795,568819
4.12608,541917
4.13420,529600
4.14233,529878
4.15045,550502
4.15857,542631
4.16670,526226
4.17482,520937
4.18295,504193
4.19107,498208
4.19918,472903
4.20732,581947
4.21543,1591548
4.22355,5162746
4.23168,1.110803E+07
4.23980,1.494649E+07
4.24793,1.396103E+07
4.25605,9354330
4.26417,5589352
4.27230,3717833
4.28042,2739695
4.28855,2093943
4.29667,1714746
4.30478,1424643
4.31292,1224944
4.32103,1080730
4.32917,1009429
4.33728,944318
4.34540,877913
4.35353,852441
4.36165,870701
4.36977,949175
4.37790,926178
4.38602,834303
4.39415,712360
4.40227,649467
4.41038,604638
4.41852,579333
4.42663,551655
4.43477,528911
4.44288,502890
4.45100,502152
4.45913,482067
4.46725,471421
4.47538,459942
4.48350,466321
4.49162,451546
4.49975,441654
4.50787,441605
4.51598,421897
4.52412,417276
4.53223,411097
4.54037,418155
4.54848,425900
4.55660,428751
4.56473,418418
4.57285,396874
4.58098,382367
4.58910,378821
4.59722,366165
4.60535,363033
4.61347,357658
4.62158,386586
4.62972,494913
4.63783,734068
4.64597,981460
4.65408,989257
4.66220,778337
4.67033,604313
4.67845,523684
4.68658,483017
4.69470,458347
4.70282,416849
4.71095,379536
4.71907,359743
4.72720,347165
4.73532,345255
4.74343,327097
4.75157,319089
4.75968,318942
4.76780,308757
4.77593,304660
4.78405,313298
4.79218,363785
4.80030,503657
4.80842,695988
4.81655,771259
4.82467,658559
4.83280,531267
4.84092,488144
4.84903,493638
4.85717,478118
4.86528,452990
4.87342,392294
4.88153,373597
4.88965,352964
4.89778,342148
4.90590,334224
4.91402,320151
4.92215,318780
4.93027,330746
4.93840,445853
4.94652,828975
4.95463,1704522
4.96277,2754590
4.97088,3274231
4.97902,2953296
4.98713,2211824
4.99525,1505750
5.00338,1051677
5.01150,834030
5.01962,700483
5.02775,679433
5.03587,704601
5.04400,795096
5.05212,805103
5.06023,723110
5.06837,626919
5.07648,565920
5.08462,535494
5.09273,513877
5.10085,478744
5.10898,482397
5.11710,467380
5.12523,450782
5.13335,446076
5.14147,425955
5.14960,447895
5.15772,493538
5.16583,593466
5.17397,648814
5.18208,640606
5.19022,576301
5.19833,551050
5.20645,576139
5.21458,631317
5.22270,610112
5.23083,554733
5.23895,513321
5.24707,472737
5.25520,435601
5.26332,409481
5.27145,370991
5.27957,352687
5.28768,346328
5.29582,335002
5.30393,319368
5.31205,327878
5.32018,322537
5.32830,337198
5.33643,339311
5.34455,349868
5.35267,356894
5.36080,342803
5.36892,316501
5.37705,323001
5.38517,326356
5.39328,342784
5.40142,368262
5.40953,385118
5.41765,372687
5.42578,332929
5.43390,325803
5.44203,319728
5.45015,327450
5.45827,357266
5.46640,361344
5.47452,350518
5.48265,330239
5.49077,288870
5.49888,286674
5.50702,283915
5.51513,280095
5.52327,275828
5.53138,286377
5.53950,280750
5.54763,287877
5.55575,339513
5.56387,477569
5.57200,674773
5.58012,833521
5.58825,814809
5.59637,667525
5.60448,509799
5.61262,386801
5.62073,344934
5.62887,326616
5.63698,308825
5.64510,299185
5.65323,296348
5.66135,279962
5.66947,272662
5.67760,279164
5.68572,306171
5.69385,324940
5.70197,329010
5.71008,326542
5.71822,310883
5.72633,293708
5.73447,272707
5.74258,266201
5.75070,258988
5.75883,259288
5.76695,266001
5.77508,249013
5.78320,248488
5.79132,243653
5.79945,240571
5.80757,239399
5.81568,234768
5.82382,244207
5.83193,244449
5.84007,249613
5.84818,233203
5.85630,235969
5.86443,239416
5.87255,235869
5.88068,238935
5.88880,234413
5.89692,230614
5.90505,224401
5.91317,223099
5.92130,206340
5.92942,207890
5.93753,203855
5.94567,196758
5.95378,202544
5.96190,240780
5.97003,300362
5.97815,439166
5.98628,582577
5.99440,677586
6.00252,609896
6.01065,479733
6.01877,345200
6.02690,278945
6.03502,246160
6.04313,229740
6.05127,211064
6.05938,198568
6.06750,198080
6.07563,194121
6.08375,195297
6.09188,188859
6.10000,191406
6.10812,197658
6.11625,215371
6.12437,235923
6.13250,308950
6.14062,429851
6.14873,561640
6.15687,584463
6.16498,498322
6.17312,386671
6.18123,301033
6.18935,268291
6.19748,243190
6.20560,241028
6.21372,233989
6.22185,243666
6.22997,215605
6.23810,212954
6.24622,206657
6.25433,235378
6.26247,253187
6.27058,272541
6.27872,248383
6.28683,237319
6.29495,213917
6.30308,197108
6.31120,198256
6.31933,206620
6.32745,234108
6.33557,284465
6.34370,332726
6.35182,337486
6.35993,296723
6.36807,250054
6.37618,232028
6.38432,213771
6.39243,207345
6.40055,196283
6.40868,196975
6.41680,196815
6.42493,190246
6.43305,185673
6.44117,188992
6.44930,191031
6.45742,195439
6.46553,192576
6.47367,189790
6.48178,177626
6.48992,182356
6.49803,193469
6.50615,188350
6.51428,186881
6.52240,193434
6.53053,193358
6.53865,188660
6.54677,188116
6.55490,198216
6.56302,233950
6.57115,344459
6.57927,511167
6.58738,629656
6.59552,624657
6.60363,495794
6.61175,355348
6.61988,275889
6.62800,248325
6.63613,225057
6.64425,228887
6.65237,320793
6.66050,585333
6.66862,1054183
6.67675,1429816
6.68487,1395220
6.69298,1021829
6.70112,679776
6.70923,517934
6.71735,410227
6.72548,345635
6.73360,307195
6.74173,283220
6.74985,253248
6.75797,242549
6.76610,239715
6.77422,218427
6.78235,224103
6.79047,213958
6.79858,209067
6.80672,203394
6.81483,188058
6.82297,181401
6.83108,181590
6.83920,172397
6.84733,175632
6.85545,180909
6.86357,165012
6.87170,149807
6.87982,138982
6.88795,124768
6.89607,120806
6.90418,117704
6.91232,108147
6.92043,109128
6.92857,105854
6.93668,101095
6.94480,98395
6.95293,97942
6.96105,102081
6.96918,114621
6.97730,134482
6.98542,149231
6.99355,150386
7.00167,144704
7.00978,127021
7.01792,114963
7.02603,110514
7.03417,104508
7.04228,120651
7.05040,126590
7.05853,155504
7.06665,187318
7.07478,218723
7.08290,234454
7.09102,214310
7.09915,181904
7.10727,151366
7.11540,124031
7.12352,113729
7.13163,116160
7.13977,110810
7.14788,135817
7.15600,183716
7.16413,229024
7.17225,252010
7.18038,224279
7.18850,190356
7.19662,210098
7.20475,405920
7.21287,913039
7.22100,1691769
7.22912,2228519
7.23723,2126094
7.24537,1481880
7.25348,864330
7.26160,495704
7.26973,310521
7.27785,203257
7.28598,158296
7.29410,131080
7.30222,123119
7.31035,119342
7.31847,118610
7.32660,124038
7.33472,130277
7.34283,132725
7.35097,138412
7.35908,126673
7.36722,119474
7.37533,115457
7.38345,108166
7.39158,102370
7.39970,100712
7.40782,106401
7.41595,105541
7.42407,97206
7.43220,98233
7.44032,95545
7.44843,92566
7.45657,100260
7.46468,99519
7.47282,101812
7.48093,99623
7.48905,102269
7.49718,100299
7.50530,88511
7.51342,106406
7.52155,138400
7.52967,258695
7.53780,545368
7.54592,1104844
7.55403,1867720
7.56217,2714797
7.57028,3284317
7.57842,3265652
7.58653,2703821
7.59465,1957892
7.60278,1207572
7.61090,696670
7.61903,406810
7.62715,262849
7.63527,183299
7.64340,154219
7.65152,132034
7.65963,122415
7.66777,108127
7.67588,101207
7.68402,97952
7.69213,92009
7.70025,94173
7.70838,97488
7.71650,101058
7.72463,104517
7.73275,108300
7.74087,110807
7.74900,108102
7.75712,104171
7.76525,110303
7.77337,109102
7.78148,110052
7.78962,121311
7.79773,115873
7.80585,129941
7.81398,138288
7.82210,133574
7.83023,129770
7.83835,115110
7.84647,112030
7.85460,108578
7.86272,115174
7.87085,127901
7.87897,149536
7.88708,166986
7.89522,177915
7.90333,177187
7.91145,159256
7.91958,133093
7.92770,127293
7.93583,132302
7.94395,153838
7.95207,166915
7.96020,170587
7.96832,149443
7.97645,142949
7.98457,113469
7.99268,100287
8.00082,93667
8.00893,82887
8.01707,87334
8.02518,81300
8.03330,82662
8.04143,80504
8.04955,83655
8.05767,83534
8.06580,83760
8.07392,79110
8.08205,77736
8.09017,80423
8.09828,78499
8.10642,75196
8.11453,80747
8.12267,78266
8.13078,83959
8.13890,96565
8.14703,118818
8.15515,133132
8.16328,141226
8.17140,130740
8.17952,112237
8.18765,94216
8.19577,84570
8.20388,82200
8.21202,77109
8.22013,78271
8.22827,80783
8.23638,79459
8.24450,82836
8.25263,77257
8.26075,74872
8.26888,70544
8.27700,70865
8.28512,72819
8.29325,71201
8.30137,75410
8.30948,72731
8.31762,82971
8.32573,94572
8.33387,93144
8.34198,90034
8.35010,88062
8.35823,80673
8.36635,72311
8.37448,70712
8.38260,70917
8.39072,70765
8.39885,70652
8.40697,68397
8.41510,66014
8.42322,69279
8.43133,66499
8.43947,63546
8.44758,65182
8.45570,61742
8.46383,66242
8.47195,66234
8.48008,62075
8.48820,60571
8.49632,65707
8.50445,66284
8.51257,75392
8.52070,114474
8.52882,214210
8.53693,387327
8.54507,543406
8.55318,586073
8.56130,512243
8.56943,327791
8.57755,201099
8.58568,121787
8.59380,104232
8.60192,99959
8.61005,104972
8.61817,100273
8.62630,96378
8.63442,88504
8.64253,90221
8.65067,84483
8.65878,80889
8.66692,83139
8.67503,77762
8.68315,76301
8.69128,78558
8.69940,79121
8.70752,79364
8.71565,82591
8.72377,78908
8.73190,70875
8.74002,71619
8.74813,76323
8.75627,85592
8.76438,147343
8.77252,276527
8.78063,498506
8.78875,736618
8.79688,866101
8.80500,802365
8.81313,602013
8.82125,393235
8.82937,272698
8.83750,213262
8.84562,193294
8.85373,187367
8.86187,186459
8.86998,177453
8.87812,168681
8.88623,162129
8.89435,164936
8.90248,159411
8.91060,156731
8.91873,157989
8.92685,158103
8.93497,174844
8.94310,190505
8.95122,196303
8.95933,189680
8.96747,178796
8.97558,174909
8.98372,187920
8.99183,189448
8.99995,190253
9.00808,183076
9.01620,163113
9.02433,156581
9.03245,137148
9.04057,130503
9.04870,124277
9.05682,118555
9.06495,122578
9.07307,121974
9.08118,120631
9.08932,130312
9.09743,134477
9.10555,162004
9.11368,204780
9.12180,232090
9.12993,236425
9.13805,222521
9.14617,191828
9.15430,164799
9.16242,141333
9.17055,131156
9.17867,122850
9.18678,119380
9.19492,116837
9.20303,115732
9.21117,115432
9.21928,115714
9.22740,113244
9.23553,113731
9.24365,117484
9.25177,109530
9.25990,112178
9.26802,109378
9.27615,109828
9.28427,109959
9.29238,103581
9.30052,103822
9.30863,97914
9.31677,100422
9.32488,102068
9.33300,108258
9.34113,99358
9.34925,101306
9.35737,103122
9.36550,93060
9.37362,96487
9.38175,94654
9.38987,94228
9.39798,100863
9.40612,115578
9.41423,136050
9.42237,166122
9.43048,220177
9.43860,265927
9.44673,306413
9.45485,308064
9.46298,267260
9.47110,207537
9.47922,162324
9.48735,126441
9.49547,110813
9.50358,104030
9.51172,119677
9.51983,135586
9.52797,151093
9.53608,167310
9.54420,159675
9.55233,144238
9.56045,122136
9.56858,99705
9.57670,83122
9.58482,71481
9.59295,74109
9.60107,69252
9.60920,63667
9.61732,66454
9.62543,62052
9.63357,59107
9.64168,61216
9.64980,61185
9.65793,65946
9.66605,63780
9.67418,63698
9.68230,62797
9.69042,62556
9.69855,59353
9.70667,59021
9.71480,61421
9.72292,55570
9.73103,53988
9.73917,55868
9.74728,54924
9.75540,51563
9.76353,58319
9.77165,56848
9.77978,50824
9.78790,50123
9.79602,50669
9.80415,50559
9.81227,49992
9.82040,54365
9.82852,50193
9.83663,53878
9.84477,52553
9.85288,51854
9.86102,52398
9.86913,56041
9.87725,61102
9.88538,57600
9.89350,56834
9.90162,55838
9.90975,52950
9.91787,58327
9.92600,68024
9.93412,96757
9.94223,147371
9.95037,234108
9.95848,330405
9.96662,395543
9.97473,405506
9.98285,351457
9.99098,271218
9.99910,184247
10.00722,133757
10.01535,105840
10.02347,87270
10.03160,74885
10.03972,74570
10.04783,76651
10.05597,81895
10.06408,91623
10.07222,93234
10.08033,96908
10.08845,93615
10.09658,93726
10.10470,88295
10.11283,86287
10.12095,81496
10.12907,82064
10.13720,73563
10.14532,73260
10.15343,69681
10.16157,66844
10.16968,65584
10.17782,63473
10.18593,70036
10.19405,64192
10.20218,66995
10.21030,63898
10.21843,66760
10.22655,69479
10.23467,75783
10.24280,85001
10.25092,98872
10.25905,130813
10.26717,281916
10.27528,651877
10.28342,1440663
10.29153,2635417
10.29965,4065298
10.30778,5947607
10.31590,8705073
10.32403,1.3099E+07
10.33215,1.826028E+07
10.34027,2.213924E+07
10.34840,2.22838E+07
10.35652,1.770131E+07
10.36465,1.141835E+07
10.37277,6878151
10.38088,4892177
10.38902,3777715
10.39713,2823992
10.40525,1946556
10.41338,1272844
10.42150,865653
10.42963,701618
10.43775,593749
10.44587,569476
10.45400,553368
10.46212,521729
10.47025,479808
10.47837,415667
10.48648,380375
10.49462,331339
10.50273,306845
10.51087,289077
10.51898,269184
10.52710,266090
10.53523,264904
10.54335,263762
10.55147,266976
10.55960,238575
10.56772,233449
10.57585,211629
10.58397,206130
10.59208,195302
10.60022,182145
10.60833,185935
10.61647,178718
10.62458,180735
10.63270,159241
10.64083,163682
10.64895,153567
10.65708,148792
10.66520,155923
10.67332,150256
10.68145,154041
10.68957,152406
10.69768,157941
10.70582,164950
10.71393,166183
10.72207,162300
10.73018,148114
10.73830,143291
10.74643,137178
10.75455,129390
10.76268,124446
10.77080,121566
10.77892,122138
10.78705,121505
10.79517,124252
10.80328,127621
10.81142,140498
10.81953,145011
10.82767,139318
10.83578,131407
10.84390,123128
10.85203,111368
10.86015,99122
10.86828,95283
10.87640,93905
10.88452,91416
10.89265,97247
10.90077,88749
10.90890,93634
10.91702,87527
10.92513,92567
10.93327,92393
10.94138,90402
10.94950,84640
10.95763,85542
10.96575,84482
10.97388,89058
10.98200,92156
10.99012,93695
10.99825,105453
11.00637,109815
11.01450,115203
11.02262,115994
11.03073,112144
11.03887,101972
11.04698,94989
11.05510,90220
11.06323,84748
11.07135,90860
11.07948,97076
11.08760,103588
11.09572,110508
11.10385,119830
11.11197,110945
11.12010,109261
11.12822,96046
11.13633,89238
11.14447,79298
11.15258,73309
11.16072,74844
11.16883,71026
11.17695,78521
11.18508,72625
11.19320,76154
11.20132,77355
11.20945,76584
11.21757,66476
11.22570,63093
11.23382,62752
11.24193,61975
11.25007,58349
11.25818,56051
11.26632,55120
11.27443,54829
11.28255,57400
11.29068,58390
11.29880,79350
11.30693,143018
11.31505,311812
11.32317,678811
11.33130,1321174
11.33942,2114687
11.34753,2739640
11.35567,2902776
11.36378,2545885
11.37192,1936683
11.38003,1300296
11.38815,886875
11.39628,612128
11.40440,467355
11.41253,386585
11.42065,303961
11.42877,266140
11.43690,207054
11.44502,172630
11.45313,147373
11.46127,136819
11.46938,121998
11.47752,120375
11.48563,136485
11.49375,163608
11.50188,183784
11.51000,198521
11.51813,187226
11.52625,173418
11.53437,155109
11.54250,135201
11.55062,131113
11.55875,128650
11.56687,119651
11.57498,115279
11.58312,121528
11.59123,122964
11.59935,139432
11.60748,163301
11.61560,183577
11.62373,209001
11.63185,203753
11.63997,175377
11.64810,138967
11.65622,112603
11.66435,95268
11.67247,94689
11.68058,87567
11.68872,100320
11.69683,100733
11.70497,111177
11.71308,112260
11.72120,105218
11.72933,99421
11.73745,86985
11.74557,80424
11.75370,72488
11.76182,70036
11.76995,68059
11.77807,66263
11.78618,63163
11.79432,63043
11.80243,62503
11.81057,60164
11.81868,58761
11.82680,62107
11.83493,57483
11.84305,60881
11.85117,58587
11.85930,65691
11.86742,61878
11.87555,59876
11.88367,56577
11.89178,59771
11.89992,55886
11.90803,57969
11.91617,56552
11.92428,63497
11.93240,66138
11.94053,68666
11.94865,69942
11.95678,65232
11.96490,60561
11.97302,62561
11.98115,61439
11.98927,67214
11.99738,84849
12.00552,106310
12.01363,126176
12.02177,134318
12.02988,116499
12.03800,101392
12.04613,87809
12.05425,77190
12.06238,75043
12.07050,69469
12.07862,77016
12.08675,83462
12.09487,100089
12.10298,121881
12.11112,178526
12.11923,297847
12.12737,491195
12.13548,655011
12.14360,784286
12.15173,795783
12.15985,649665
12.16798,455443
12.17610,302948
12.18422,211580
12.19235,169352
12.20047,158030
12.20860,161978
12.21672,149930
12.22483,140461
12.23297,133194
12.24108,125025
12.24920,114992
12.25733,109831
12.26545,105926
12.27358,99876
12.28170,89501
12.28982,91073
12.29795,88469
12.30607,84299
12.31420,87801
12.32232,82024
12.33043,78072
12.33857,76301
12.34668,75097
12.35482,72820
12.36293,75427
12.37105,70894
12.37918,74187
12.38730,73766
12.39542,77577
12.40355,83066
12.41167,97863
12.41980,117291
12.42792,132079
12.43603,132794
12.44417,126060
12.45228,118211
12.46042,106285
12.46853,96073
12.47665,97221
12.48478,93198
12.49290,88284
12.50103,84072
12.50915,87232
12.51727,78457
12.52540,77234
12.53352,79106
12.54163,91818
12.54977,100787
12.55788,114224
12.56602,128458
12.57413,126218
12.58225,121494
12.59038,111550
12.59850,100433
12.60663,90666
12.61475,92029
12.62287,92033
12.63100,88350
12.63912,83895
12.64723,74157
12.65537,70630
12.66348,70988
12.67162,64663
12.67973,63180
12.68785,58331
12.69598,58641
12.70410,60118
12.71223,58032
12.72035,62850
12.72847,65095
12.73660,65524
12.74472,68217
12.75285,69368
12.76097,63871
12.76908,61315
12.77722,55974
12.78533,58000
12.79345,54862
12.80158,55693
12.80970,56001
12.81783,53301
12.82595,53415
12.83407,50158
12.84220,47295
12.85032,46103
12.85845,47003
12.86657,46724
12.87468,45628
12.88282,44569
12.89093,45940
12.89905,47217
12.90718,46879
12.91530,45487
12.92343,43777
12.93155,45013
12.93967,41908
12.94780,46947
12.95592,45990
12.96405,50123
12.97217,51419
12.98028,59504
12.98842,62351
12.99653,60823
13.00467,57697
13.01278,52785
13.02090,51453
13.02903,47634
13.03715,44166
13.04527,48075
13.05340,51749
13.06152,47628
13.06965,48675
13.07777,45045
13.08588,44841
13.09402,49014
13.10213,45860
13.11027,44507
13.11838,49216
13.12650,48304
13.13463,47200
13.14275,45882
13.15088,45808
13.15900,49093
13.16712,49682
13.17525,50532
13.18337,48637
13.19148,50959
13.19962,54456
13.20773,55431
13.21587,57248
13.22398,59219
13.23210,58713
13.24023,59766
13.24835,55377
13.25648,53141
13.26460,50735
13.27272,50652
13.28085,49734
13.28897,46157
13.29708,47551
13.30522,46729
13.31333,46436
13.32147,46196
13.32958,43699
13.33770,45122
13.34583,42807
13.35395,44459
13.36208,42032
13.37020,42558
13.37832,44428
13.38645,43386
13.39457,44123
13.40270,42143
13.41082,42534
13.41893,43941
13.42707,40428
13.43518,45435
13.44330,43607
13.45143,42404
13.45955,49472
13.46768,49913
13.47580,49863
13.48392,53094
13.49205,51848
13.50017,52579
13.50830,47842
13.51642,47448
13.52453,46333
13.53267,48519
13.54078,50257
13.54892,50844
13.55703,45608
13.56515,47966
13.57328,52568
13.58140,53479
13.58952,62053
13.59765,65441
13.60577,77325
13.61390,78290
13.62202,80748
13.63013,89000
13.63827,73725
13.64638,64759
13.65452,55243
13.66263,47523
13.67075,43676
13.67888,43689
13.68700,44884
13.69512,42045
13.70325,45343
13.71137,40368
13.71950,43769
13.72762,42429
13.73573,44263
13.74387,56479
13.75198,87138
13.76012,140801
13.76823,228362
13.77635,353637
13.78448,422892
13.79260,489109
13.80073,494563
13.80885,459911
13.81697,465334
13.82510,500128
13.83322,568342
13.84133,595068
13.84947,586363
13.85758,533352
13.86572,418850
13.87383,314063
13.88195,229193
13.89008,180785
13.89820,134605
13.90633,110504
13.91445,102695
13.92257,99351
13.93070,88817
13.93882,91697
13.94693,84648
13.95507,90695
13.96318,81431
13.97132,86639
13.97943,92144
13.98755,96949
13.99568,98914
14.00380,106781
14.01193,98174
14.02005,99070
14.02817,94033
14.03630,85723
14.04442,85332
14.05255,81471
14.06067,77255
14.06878,79098
14.07692,74875
14.08503,77753
14.09315,77587
14.10128,75610
14.10940,70363
14.11753,73222
14.12565,68637
14.13377,71036
14.14190,78185
14.15002,79715
14.15815,89409
14.16627,94471
14.17438,100564
14.18252,113889
14.19063,140861
14.19877,193236
14.20688,260834
14.21500,313264
14.22313,320098
14.23125,291369
14.23937,264824
14.24750,241897
14.25562,236468
14.26375,215399
14.27187,210138
14.27998,190227
14.28812,173701
14.29623,148033
14.30437,131219
14.31248,116901
14.32060,120801
14.32873,111307
14.33685,114519
14.34497,106963
14.35310,108959
14.36122,94659
14.36935,82928
14.37747,79489
14.38558,78191
14.39372,70126
14.40183,68681
14.40997,70185
14.41808,73559
14.42620,77255
14.43433,72706
14.44245,73943
14.45058,69398
14.45870,64853
14.46682,65172
14.47495,62303
14.48307,65839
14.49118,63277
14.49932,64640
14.50743,62308
14.51557,60589
14.52368,62095
14.53180,62912
14.53993,64619
14.54805,63822
14.55618,59382
14.56430,59060
14.57242,57483
14.58055,58022
14.58867,54152
14.59680,55255
14.60492,52067
14.61303,50183
14.62117,48660
14.62928,50502
14.63740,49971
14.64553,48671
14.65365,49301
14.66178,47259
14.66990,46818
14.67802,45383
14.68615,45086
14.69427,44946
14.70240,49147
14.71052,45962
14.71863,48939
14.72677,49729
14.73488,51741
14.74300,50757
14.75113,52956
14.75925,57280
14.76738,57657
14.77550,58187
14.78362,68257
14.79175,106152
14.79987,241267
14.80800,638420
14.81612,1495001
14.82423,2785248
14.83237,4090416
14.84048,4790196
14.84862,4466660
14.85673,3507072
14.86485,2330485
14.87298,1390049
14.88110,879829
14.88922,621490
14.89735,452373
14.90547,377998
14.91360,323260
14.92172,288750
14.92983,264325
14.93797,248834
14.94608,219342
14.95422,210485
14.96233,197103
14.97045,189092
14.97858,169301
14.98670,164932
14.99482,152948
15.00295,147952
15.01107,145954
15.01920,138374
15.02732,139666
15.03543,133092
15.04357,130346
15.05168,131670
15.05982,119548
15.06793,119630
15.07605,115728
15.08418,104306
15.09230,102917
15.10043,95248
15.10855,92279
15.11667,97431
15.12480,104020
15.13292,102381
15.14103,109981
15.14917,111626
15.15728,115276
15.16542,100675
15.17353,85463
15.18165,73513
15.18978,73361
15.19790,68716
15.20603,62926
15.21415,58743
15.22227,56234
15.23040,58808
15.23852,58975
15.24665,55863
15.25477,55197
15.26288,54400
15.27102,53057
15.27913,52885
15.28725,51786
15.29538,50976
15.30350,50947
15.31163,51811
15.31975,52245
15.32787,45639
15.33600,44811
15.34412,45755
15.35225,48645
15.36037,49832
15.36848,46733
15.37662,47872
15.38473,46274
15.39285,43809
15.40098,45666
15.40910,48624
15.41723,47472
15.42535,47890
15.43347,46772
15.44160,49231
15.44972,50141
15.45785,53693
15.46597,68879
15.47408,99690
15.48222,154821
15.49033,251344
15.49847,351469
15.50658,446029
15.51470,481224
15.52283,463049
15.53095,407527
15.53907,331549
15.54720,266221
15.55532,222088
15.56345,180756
15.57157,146970
15.57968,113698
15.58782,89931
15.59593,80635
15.60407,70570
15.61218,63240
15.62030,62865
15.62843,57138
15.63655,57320
15.64468,58828
15.65280,52637
15.66092,52008
15.66905,54152
15.67717,51100
15.68528,48457
15.69342,47107
15.70153,46741
15.70967,46230
15.71778,51310
15.72590,48452
15.73403,48873
15.74215,49953
15.75028,51739
15.75840,73327
15.76652,108430
15.77465,153706
15.78277,230448
15.79088,295674
15.79902,324609
15.80713,294613
15.81527,240310
15.82338,173345
15.83150,130685
15.83963,103367
15.84775,86386
15.85588,79983
15.86400,74997
15.87212,75211
15.88025,77792
15.88837,80012
15.89650,74509
15.90462,72216
15.91273,74326
15.92087,73271
15.92898,69596
15.93710,66639
15.94523,61783
15.95335,63976
15.96148,63167
15.96960,68955
15.97772,66715
15.98585,71365
15.99397,70866
16.00210,69505
16.01022,72095
16.01833,78757
16.02647,76320
16.03458,81312
16.04272,78144
16.05083,75448
16.05895,70601
16.06708,68930
16.07520,60647
16.08332,61127
16.09145,61408
16.09957,59267
16.10770,57241
16.11582,58847
16.12393,58693
16.13207,65449
16.14018,68307
16.14832,76542
16.15643,74540
16.16455,74516
16.17268,74364
16.18080,66013
16.18892,60526
16.19705,57064
16.20517,56486
16.21330,59100
16.22142,56608
16.22953,58204
16.23767,56366
16.24578,51584
16.25392,54489
16.26203,52425
16.27015,53201
16.27828,56235
16.28640,58305
16.29453,70911
16.30265,74957
16.31077,75066
16.31890,76396
16.32702,74361
16.33513,66882
16.34327,64241
16.35138,59698
16.35952,66093
16.36763,74039
16.37575,86643
16.38388,94408
16.39200,93250
16.40013,85309
16.40825,66420
16.41637,68263
16.42450,56974
16.43262,61437
16.44073,65549
16.44887,84414
16.45698,148442
16.46512,287796
16.47323,506747
16.48135,738035
16.48948,910992
16.49760,882723
16.50573,703634
16.51385,490871
16.52197,331273
16.53010,214229
16.53822,158726
16.54635,128179
16.55447,113193
16.56258,105796
16.57072,100553
16.57883,91414
16.58695,89239
16.59508,91106
16.60320,95622
16.61133,88055
16.61945,90498
16.62757,87094
16.63570,84165
16.64382,79488
16.65195,72993
16.66007,68892
16.66818,68479
16.67632,68977
16.68443,69259
16.69257,68077
16.70068,65040
16.70880,62817
16.71693,57611
16.72505,52277
16.73317,56280
16.74130,56480
16.74942,54403
16.75755,63444
16.76567,63161
16.77378,65163
16.78192,65191
16.79003,60960
16.79817,55692
16.80628,57380
16.81440,49506
16.82253,48951
16.83065,50131
16.83877,50275
16.84690,45886
16.85502,51169
16.86315,45665
16.87127,45314
16.87938,44074
16.88752,45538
16.89563,44108
16.90377,48039
16.91188,44940
16.92000,48347
16.92813,46421
16.93625,45097
16.94438,45250
16.95250,46222
16.96062,44607
16.96875,46151
16.97687,44971
16.98498,45665
16.99312,42606
17.00123,49001
17.00937,45601
17.01748,47996
17.02560,45842
17.03373,51564
17.04185,51535
17.04998,53726
17.05810,51781
17.06622,61627
17.07435,61817
17.08247,63315
17.09060,66366
17.09872,75138
17.10683,83441
17.11497,93554
17.12308,109718
17.13120,110866
17.13933,117097
17.14745,104507
17.15558,92019
17.16370,89104
17.17182,77484
17.17995,67021
17.18807,63785
17.19620,53364
17.20432,51662
17.21243,47986
17.22057,46917
17.22868,48544
17.23680,53206
17.24493,45663
17.25305,48683
17.26118,48523
17.26930,48835
17.27742,48919
17.28555,45389
17.29367,43114
17.30180,44140
17.30992,44397
17.31803,48817
17.32617,55773
17.33428,64484
17.34242,73346
17.35053,80935
17.35865,83973
17.36678,88340
17.37490,91187
17.38302,86473
17.39115,82853
17.39927,79186
17.40740,78206
17.41552,78063
17.42363,78880
17.43177,84832
17.43988,78384
17.44802,81316
17.45613,70893
17.46425,68126
17.47238,64603
17.48050,57403
17.48862,54393
17.49675,53175
17.50487,54168
17.51300,52608
17.52112,48539
17.52923,50774
17.53737,52609
17.54548,56320
17.55362,55577
17.56173,64738
17.56985,86773
17.57798,127035
17.58610,205303
17.59423,301922
17.60235,442931
17.61047,540671
17.61860,574366
17.62672,500076
17.63483,402520
17.64297,275756
17.65108,195126
17.65922,154595
17.66733,134255
17.67545,115548
17.68358,111341
17.69170,106864
17.69983,99202
17.70795,94993
17.71607,100313
17.72420,97494
17.73232,91569
17.74045,91309
17.74857,89294
17.75668,88445
17.76482,87435
17.77293,82765
17.78105,74029
17.78918,70439
17.79730,72485
17.80543,62021
17.81355,63605
17.82167,65383
17.82980,69615
17.83792,79453
17.84605,83690
17.85417,94817
17.86228,98959
17.87042,108023
17.87853,108715
17.88667,94566
17.89478,86769
17.90290,77251
17.91103,64163
17.91915,58332
17.92727,53241
17.93540,54997
17.94352,52155
17.95165,52793
17.95977,52383
17.96788,47185
17.97602,49430
17.98413,48030
17.99227,45827
18.00038,52585
18.00850,53906
18.01663,62356
18.02475,76013
18.03287,91150
18.04100,104884
18.04912,116164
18.05725,113402
18.06537,100646
18.07348,84762
18.08162,82316
18.08973,83719
18.09787,86025
18.10598,90382
18.11410,95416
18.12223,95483
18.13035,102219
18.13848,94594
18.14660,99495
18.15472,95062
18.16285,91379
18.17097,85028
18.17908,76260
18.18722,69474
18.19533,74489
18.20347,66008
18.21158,63774
18.21970,59613
18.22783,59761
18.23595,50216
18.24408,56819
18.25220,56176
18.26032,57825
18.26845,60057
18.27657,63952
18.28468,56097
18.29282,57778
18.30093,52863
18.30907,50871
18.31718,50136
18.32530,47941
18.33343,49674
18.34155,51700
18.34968,44967
18.35780,42854
18.36592,46120
18.37405,44833
18.38217,46106
18.39030,45605
18.39842,45441
18.40653,56987
18.41467,53606
18.42278,75554
18.43090,94797
18.43903,107413
18.44715,128163
18.45528,157444
18.46340,169782
18.47152,191276
18.47965,203915
18.48777,217816
18.49590,203812
18.50402,180180
18.51213,146684
18.52027,119952
18.52838,96434
18.53652,81004
18.54463,72047
18.55275,67772
18.56088,64461
18.56900,60832
18.57712,59761
18.58525,64014
18.59337,60744
18.60150,67004
18.60962,74448
18.61773,79587
18.62587,89806
18.63398,96109
18.64212,91840
18.65023,86144
18.65835,74027
18.66648,72834
18.67460,64199
18.68272,58353
18.69085,60794
18.69897,53163
18.70710,50723
18.71522,52553
18.72333,51403
18.73147,51287
18.73958,53491
18.74772,54336
18.75583,51214
18.76395,52455
18.77208,51373
18.78020,46090
18.78833,53222
18.79645,52285
18.80457,47909
18.81270,48863
18.82082,49525
18.82893,46437
18.83707,47640
18.84518,46206
18.85332,52980
18.86143,51162
18.86955,55267
18.87768,57831
18.88580,65299
18.89393,64051
18.90205,67540
18.91017,63420
18.91830,67042
18.92642,61707
18.93455,59037
18.94267,64744
18.95078,63623
18.95892,66063
18.96703,68427
18.97515,72456
18.98328,63909
18.99140,62672
18.99953,58082
19.00765,58944
19.01577,55226
19.02390,55472
19.03202,51426
19.04015,54506
19.04827,58556
19.05638,60032
19.06452,71777
19.07263,120101
19.08075,228338
19.08888,448109
19.09700,777457
19.10513,1167034
19.11325,1413726
19.12137,1364684
19.12950,1129390
19.13762,828451
19.14575,558558
19.15387,369656
19.16198,274774
19.17012,226833
19.17823,191588
19.18637,171076
19.19448,171427
19.20260,157879
19.21073,160989
19.21885,152600
19.22697,137837
19.23510,145200
19.24322,134904
19.25135,128842
19.25947,128226
19.26758,128750
19.27572,135328
19.28383,139408
19.29197,153915
19.30008,157455
19.30820,157586
19.31633,155625
19.32445,149191
19.33257,147333
19.34070,144130
19.34882,140585
19.35695,150684
19.36507,161531
19.37318,175906
19.38132,192964
19.38943,185236
19.39757,171826
19.40568,165905
19.41380,153228
19.42193,143043
19.43005,135381
19.43818,133285
19.44630,124455
19.45442,123401
19.46255,116699
19.47067,121488
19.47878,117978
19.48692,132125
19.49503,156030
19.50317,187510
19.51128,246016
19.51940,276008
19.52753,297223
19.53565,282756
19.54378,252074
19.55190,200151
19.56002,169838
19.56815,145646
19.57627,131911
19.58440,121855
19.59252,116807
19.60063,111994
19.60877,105761
19.61688,103319
19.62500,108556
19.63313,113400
19.64125,133018
19.64938,169817
19.65750,222752
19.66562,296225
19.67375,369886
19.68187,426462
19.69000,431134
19.69812,414242
19.70623,359719
19.71437,315501
19.72248,277570
19.73060,240714
19.73873,215402
19.74685,197811
19.75498,177734
19.76310,174066
19.77122,164101
19.77935,170626
19.78747,184542
19.79560,210668
19.80372,226883
19.81183,240485
19.81997,230465
19.82808,206205
19.83622,178585
19.84433,150063
19.85245,134451
19.86058,123539
19.86870,119457
19.87682,123686
19.88495,133034
19.89307,153398
19.90120,178135
19.90932,217332
19.91743,233498
19.92557,246681
19.93368,251459
19.94182,261065
19.94993,236808
19.95805,228199
19.96618,226631
19.97430,214526
19.98243,221834
19.99055,207812
19.99867,204145
20.00680,199363
20.01492,204518
20.02303,204096
20.03117,200945
20.03928,199703
20.04742,190573
20.05553,198669
20.06365,208826
20.07178,250716
20.07990,297449
20.08803,322636
20.09615,349406
20.10427,325266
20.11240,294718
20.12052,240941
20.12863,200813
20.13677,181411
20.14488,188353
20.15302,240474
20.16113,379143
20.16925,607890
20.17738,979004
20.18550,1360780
20.19363,1709661
20.20175,1936825
20.20987,1882963
20.21800,1661328
20.22612,1290588
20.23425,982436
20.24237,764778
20.25048,729325
20.25862,839552
20.26673,1039423
20.27485,1248395
20.28298,1374169
20.29110,1372852
20.29923,1215042
20.30735,975691
20.31547,723442
20.32360,507154
20.33172,350990
20.33985,248583
20.34797,190864
20.35608,152687
20.36422,135332
20.37233,123265
20.38047,110310
20.38858,103041
20.39670,103093
20.40483,102616
20.41295,99097
20.42107,101512
20.42920,111147
20.43732,114984
20.44545,126136
20.45357,127010
20.46168,132011
20.46982,123403
20.47793,117961
20.48607,117731
20.49418,102651
20.50230,100051
20.51043,92252
20.51855,88299
20.52667,85636
20.53480,82993
20.54292,82182
20.55105,83234
20.55917,81586
20.56728,76504
20.57542,74202
20.58353,80696
20.59167,74633
20.59978,75255
20.60790,76029
20.61603,73619
20.62415,71372
20.63228,75172
20.64040,70696
20.64852,82865
20.65665,81274
20.66477,81112
20.67288,77917
20.68102,75057
20.68913,72585
20.69727,71022
20.70538,69216
20.71350,64109
20.72163,64062
20.72975,61656
20.73788,66654
20.74600,69658
20.75412,71708
20.76225,73978
20.77037,79621
20.77848,82321
20.78662,112979
20.79473,158461
20.80287,242506
20.81098,375060
20.81910,484605
20.82723,539876
20.83535,504033
20.84348,412815
20.85160,278355
20.85972,192088
20.86785,138923
20.87597,106704
20.88410,89746
20.89222,89669
20.90033,94896
20.90847,97248
20.91658,106398
20.92470,117433
20.93283,133765
20.94095,139107
20.94908,134153
20.95720,130168
20.96532,112582
20.97345,102143
20.98157,94932
20.98970,84306
20.99782,78632
21.00593,70577
21.01407,70298
21.02218,71367
21.03032,71617
21.03843,81646
21.04655,83008
21.05468,69313
21.06280,77364
21.07092,75352
21.07905,73203
21.08717,70468
21.09530,69574
21.10342,66568
21.11153,68080
21.11967,66685
21.12778,71886
21.13592,85038
21.14403,108811
21.15215,139410
21.16028,189980
21.16840,226667
21.17652,222840
21.18465,197558
21.19277,174034
21.20090,133379
21.20902,108085
21.21713,95747
21.22527,86585
21.23338,87011
21.24152,78503
21.24963,75058
21.25775,79433
21.26588,75118
21.27400,73121
21.28213,75748
21.29025,71325
21.29837,68695
21.30650,67221
21.31462,67439
21.32273,68533
21.33087,72198
21.33898,66375
21.34712,62917
21.35523,64851
21.36335,65937
21.37148,70752
21.37960,66694
21.38773,68490
21.39585,80325
21.40397,83234
21.41210,87679
21.42022,98601
21.42835,99993
21.43647,92165
21.44458,84675
21.45272,75418
21.46083,77974
21.46895,72081
21.47708,68777
21.48520,70579
21.49333,68690
21.50145,61887
21.50957,61650
21.51770,58736
21.52582,57895
21.53395,65243
21.54207,66863
21.55018,63991
21.55832,58841
21.56643,59650
21.57455,60718
21.58268,64983
21.59080,67331
21.59893,75383
21.60705,73203
21.61517,81051
21.62330,81720
21.63142,89191
21.63955,97760
21.64767,104627
21.65578,109986
21.66392,116204
21.67203,116022
21.68017,107926
21.68828,107628
21.69640,99829
21.70453,93165
21.71265,81012
21.72077,74642
21.72890,70646
21.73702,67995
21.74515,67397
21.75327,65031
21.76138,64618
21.76952,65132
21.77763,67625
21.78577,68946
21.79388,66011
21.80200,68835
21.81013,70979
21.81825,70883
21.82637,79286
21.83450,85867
21.84262,96392
21.85075,93454
21.85887,96274
21.86698,93553
21.87512,82645
21.88323,80989
21.89137,75666
21.89948,67967
21.90760,65806
21.91573,64086
21.92385,64327
21.93198,57878
21.94010,60400
21.94822,56388
21.95635,59135
21.96447,54534
21.97258,49943
21.98072,52119
21.98883,48840
21.99697,50780
22.00508,50409
22.01320,52136
22.02133,52659
22.02945,57541
22.03758,57585
22.04570,59512
22.05382,57784
22.06195,56182
22.07007,61485
22.07820,58738
22.08632,59357
22.09443,56520
22.10257,55404
22.11068,53033
22.11880,52076
22.12693,55975
22.13505,53018
22.14318,51890
22.15130,50021
22.15942,53608
22.16755,53375
22.17567,53440
22.18380,52288
22.19192,51618
22.20003,52270
22.20817,50606
22.21628,57357
22.22440,53819
22.23253,55089
22.24065,58130
22.24878,56743
22.25690,61677
22.26502,59312
22.27315,61513
22.28127,67871
22.28940,73548
22.29752,76162
22.30563,82577
22.31377,86303
22.32188,82840
22.33002,83976
22.33813,88349
22.34625,88245
22.35438,77721
22.36250,82249
22.37062,77657
22.37875,81013
22.38687,87537
22.39500,99476
22.40312,130151
22.41123,159574
22.41937,185796
22.42748,207510
22.43562,203871
22.44373,188513
22.45185,160020
22.45998,127874
22.46810,109505
22.47623,101254
22.48435,101579
22.49247,110456
22.50060,125837
22.50872,136261
22.51683,138849
22.52497,144203
22.53308,139561
22.54122,128125
22.54933,113658
22.55745,102717
22.56558,93651
22.57370,81872
22.58183,75452
22.58995,71826
22.59807,63938
22.60620,65265
22.61432,62655
22.62243,58116
22.63057,56244
22.63868,57250
22.64682,57010
22.65493,56498
22.66305,62929
22.67118,62305
22.67930,64498
22.68743,64414
22.69555,68418
22.70367,71250
22.71180,71205
22.71992,72611
22.72805,78632
22.73617,76264
22.74428,71216
22.75242,63084
22.76053,62483
22.76865,60472
22.77678,64247
22.78490,61291
22.79303,67695
22.80115,78520
22.80927,87526
22.81740,101347
22.82552,114544
22.83365,117096
22.84177,116969
22.84988,110232
22.85802,130199
22.86613,141927
22.87425,161756
22.88238,184846
22.89050,212494
22.89863,232903
22.90675,235357
22.91487,241153
22.92300,235515
22.93112,236369
22.93925,224498
22.94737,226201
22.95548,196458
22.96362,179633
22.97173,169021
22.97987,157735
22.98798,150823
22.99610,143765
23.00423,143058
23.01235,135820
23.02047,128515
23.02860,129072
23.03672,127309
23.04485,122135
23.05297,129663
23.06108,127613
23.06922,131750
23.07733,127477
23.08547,131393
23.09358,126289
23.10170,129497
23.10983,120901
23.11795,118672
23.12608,113549
23.13420,114846
23.14232,114233
23.15045,104926
23.15857,106421
23.16668,108848
23.17482,104958
23.18293,104052
23.19107,103926
23.19918,101412
23.20730,100907
23.21543,96313
23.22355,94042
23.23168,95833
23.23980,99130
23.24792,102517
23.25605,103216
23.26417,112995
23.27230,109611
23.28042,115022
23.28853,114025
23.29667,101213
23.30478,100999
23.31290,93872
23.32103,98000
23.32915,105062
23.33728,122267
23.34540,127770
23.35352,151869
23.36165,170621
23.36977,188378
23.37790,189706
23.38602,178341
23.39413,161573
23.40227,142565
23.41038,130633
23.41850,108384
23.42663,113045
23.43475,107117
23.44288,105568
23.45100,98908
23.45912,100511
23.46725,101679
23.47537,97579
23.48350,96539
23.49162,94531
23.49973,90184
23.50787,89802
23.51598,85587
23.52412,89062
23.53223,89517
23.54035,93085
23.54848,91855
23.55660,104021
23.56472,109272
23.57285,130070
23.58097,171008
23.58910,233561
23.59722,296079
23.60533,351745
23.61347,372902
23.62158,337755
23.62972,288567
23.63783,221837
23.64595,183501
23.65408,165353
23.66220,153332
23.67032,151868
23.67845,156418
23.68657,139142
23.69470,125045
23.70282,119821
23.71093,108252
23.71907,100663
23.72718,95666
23.73532,101793
23.74343,107212
23.75155,143212
23.75968,254685
23.76780,516012
23.77593,996488
23.78405,1737188
23.79217,2565584
23.80030,3088522
23.80842,3012182
23.81653,2654445
23.82467,2142080
23.83278,1606975
23.84092,1219020
23.84903,944001
23.85715,753446
23.86528,595545
23.87340,501008
23.88153,449531
23.88965,402541
23.89777,360277
23.90590,336454
23.91402,314191
23.92215,305134
23.93027,289494
23.93838,269597
23.94652,247936
23.95463,227610
23.96275,215895
23.97088,212925
23.97900,187944
23.98713,188360
23.99525,181323
24.00337,181292
24.01150,195393
24.01962,226268
24.02775,279177
24.03587,325480
24.04398,338913
24.05212,325984
24.06023,274167
24.06835,216553
24.07648,168004
24.08460,155393
24.09273,134644
24.10085,127264
24.10897,120429
24.11710,122902
24.12522,128795
24.13335,133511
24.14147,153518
24.14958,163119
24.15772,177184
24.16583,175679
24.17397,174879
24.18208,163506
24.19020,159478
24.19833,155101
24.20645,154218
24.21457,153206
24.22270,147361
24.23082,134484
24.23895,118976
24.24707,115730
24.25518,111699
24.26332,101423
24.27143,97021
24.27957,97083
24.28768,94324
24.29580,95859
24.30393,95609
24.31205,91892
24.32018,96467
24.32830,100109
24.33642,90348
24.34455,91509
24.35267,90509
24.36078,85600
24.36892,89668
24.37703,83329
24.38517,100671
24.39328,109972
24.40140,128207
24.40953,139532
24.41765,148496
24.42578,138748
24.43390,121545
24.44202,98772
24.45015,90983
24.45827,79676
24.46638,80885
24.47452,81436
24.48263,84253
24.49077,88300
24.49888,95627
24.50700,99514
24.51513,102511
24.52325,105859
24.53138,118749
24.53950,126355
24.54762,124576
24.55575,135501
24.56387,145696
24.57200,152059
24.58012,157633
24.58823,162338
24.59637,156877
24.60448,154846
24.61260,151612
24.62073,149742
24.62885,148607
24.63698,152887
24.64510,147275
24.65322,149948
24.66135,154922
24.66947,155541
24.67760,159123
24.68572,157951
24.69383,159397
24.70197,163004
24.71008,157104
24.71820,155929
24.72633,159645
24.73445,161908
24.74258,156776
24.75070,150128
24.75882,164445
24.76695,154295
24.77507,162324
24.78320,166420
24.79132,167941
24.79943,168936
24.80757,167694
24.81568,167155
24.82382,170432
24.83193,179880
24.84005,189862
24.84818,214124
24.85630,248144
24.86442,302677
24.87255,388229
24.88067,470755
24.88880,580300
24.89692,667850
24.90503,647769
24.91317,567208
24.92128,435935
24.92942,332885
24.93753,254335
24.94565,191536
24.95378,170610
24.96190,151596
24.97003,147180
24.97815,140362
24.98627,132926
24.99440,132390
25.00252,130151
25.01063,130298
25.01877,127927
25.02688,123165
25.03502,128857
25.04313,124257
25.05125,123252
25.05938,123660
25.06750,119408
25.07563,125430
25.08375,128857
25.09187,143224
25.10000,177192
25.10812,269972
25.11623,518375
25.12437,1008808
25.13248,1803624
25.14062,2667561
25.14873,3390750
25.15685,3502061
25.16498,3070743
25.17310,2360474
25.18123,1526927
25.18935,923773
25.19747,544375
25.20560,359915
25.21372,247968
25.22185,208555
25.22997,187133
25.23808,196193
25.24622,212504
25.25433,258760
25.26245,303706
25.27058,358042
25.27870,378006
25.28683,363714
25.29495,345490
25.30307,290293
25.31120,234274
25.31932,200166
25.32745,177101
25.33557,163055
25.34368,152076
25.35182,137069
25.35993,130295
25.36807,126832
25.37618,118447
25.38430,114874
25.39243,108958
25.40055,108597
25.40867,105568
25.41680,103643
25.42492,100492
25.43305,99064
25.44117,100782
25.44928,91307
25.45742,91982
25.46553,89827
25.47367,86587
25.48178,88420
25.48990,86418
25.49803,86553
25.50615,86562
25.51427,84082
25.52240,79819
25.53052,76881
25.53865,75263
25.54677,74859
25.55488,69777
25.56302,72234
25.57113,68388
25.57927,74571
25.58738,73633
25.59550,73018
25.60363,68040
25.61175,71898
25.61988,68806
25.62800,75013
25.63612,70888
25.64425,77460
25.65237,80779
25.66048,72329
25.66862,75580
25.67673,71950
25.68487,66133
25.69298,64858
25.70110,59284
25.70923,66519
25.71735,59414
25.72548,64174
25.73360,59027
25.74172,65444
25.74985,61521
25.75797,63167
25.76608,68632
25.77422,65881
25.78233,67105
25.79047,69818
25.79858,69388
25.80670,67989
25.81483,69590
25.82295,74780
25.83108,72683
25.83920,82764
25.84732,91583
25.85545,114948
25.86357,130693
25.87170,130576
25.87982,132038
25.88793,142155
25.89607,137797
25.90418,137343
25.91230,137014
25.92043,146732
25.92855,138673
25.93668,139801
25.94480,150467
25.95292,148114
25.96105,149731
25.96917,143217
25.97730,142950
25.98542,145136
25.99353,142788
26.00167,146131
26.00978,148139
26.01792,141445
26.02603,139009
26.03415,138218
26.04228,137155
26.05040,141331
26.05852,146334
26.06665,137716
26.07477,139899
26.08290,143266
26.09102,142128
26.09913,150140
26.10727,144202
26.11538,141498
26.12352,144601
26.13163,146699
26.13975,146382
26.14788,152336
26.15600,152153
26.16412,160174
26.17225,157523
26.18037,152924
26.18850,141340
26.19662,138074
26.20473,139264
26.21287,133745
26.22098,125627
26.22912,127885
26.23723,124094
26.24535,124655
26.25348,126487
26.26160,124571
26.26973,117819
26.27785,118538
26.28597,121872
26.29410,123055
26.30222,114351
26.31033,116199
26.31847,115448
26.32658,110910
26.33472,116170
26.34283,121310
26.35095,130329
26.35908,170289
26.36720,223274
26.37533,319828
26.38345,475516
26.39157,644508
26.39970,794687
26.40782,829915
26.41595,820446
26.42407,699400
26.43218,548016
26.44032,391076
26.44843,283655
26.45655,211113
26.46468,172704
26.47280,147325
26.48093,135657
26.48905,129764
26.49717,120485
26.50530,114762
26.51342,114962
26.52155,112044
26.52967,110516
26.53778,108388
26.54592,105469
26.55403,98764
26.56215,104363
26.57028,97516
26.57840,98751
26.58653,99139
26.59465,98075
26.60277,97657
26.61090,96792
26.61902,92554
26.62715,90048
26.63527,96829
26.64338,91774
26.65152,87788
26.65963,96680
26.66777,99973
26.67588,96543
26.68400,93037
26.69213,91266
26.70025,86893
26.70837,86551
26.71650,87174
26.72462,82604
26.73275,83561
26.74087,87994
26.74898,81026
26.75712,76645
26.76523,83921
26.77337,76815
26.78148,81991
26.78960,81125
26.79773,79922
26.80585,82248
26.81398,79514
26.82210,80236
26.83022,76894
26.83835,73568
26.84647,74691
26.85458,77465
26.86272,77285
26.87083,73671
26.87897,72589
26.88708,73390
26.89520,69534
26.90333,67382
26.91145,63743
26.91958,69304
26.92770,64627
26.93582,71229
26.94395,67799
26.95207,66500
26.96018,73223
26.96832,78107
26.97643,88465
26.98457,127049
26.99268,176179
27.00080,268570
27.00893,386572
27.01705,518679
27.02518,651808
27.03330,720380
27.04142,746361
27.04955,679049
27.05767,587267
27.06580,483022
27.07392,399470
27.08203,336987
27.09017,283601
27.09828,239476
27.10640,219757
27.11453,202432
27.12265,178725
27.13078,173202
27.13890,165172
27.14702,153722
27.15515,152459
27.16327,158033
27.17140,155869
27.17952,160096
27.18763,171359
27.19577,172543
27.20388,177308
27.21200,159191
27.22013,149973
27.22825,136987
27.23638,137969
27.24450,121132
27.25262,115829
27.26075,114082
27.26887,108613
27.27700,108169
27.28512,101144
27.29323,98309
27.30137,91192
27.30948,92049
27.31762,92875
27.32573,91831
27.33385,91155
27.34198,95742
27.35010,90272
27.35822,92068
27.36635,86962
27.37447,85282
27.38260,92346
27.39072,81975
27.39883,86995
27.40697,79676
27.41508,80664
27.42322,85451
27.43133,82001
27.43945,78349
27.44758,81674
27.45570,73878
27.46383,74566
27.47195,69284
27.48007,66787
27.48820,70517
27.49632,71457
27.50443,71897
27.51257,74616
27.52068,69082
27.52882,76158
27.53693,72809
27.54505,72316
27.55318,70416
27.56130,74891
27.56943,75940
27.57755,79783
27.58567,91450
27.59380,92807
27.60192,98443
27.61003,107976
27.61817,96767
27.62628,93317
27.63442,84001
27.64253,77393
27.65065,81315
27.65878,73425
27.66690,72309
27.67503,75762
27.68315,75728
27.69127,80327
27.69940,85121
27.70752,81656
27.71565,76009
27.72377,75790
27.73188,70698
27.74002,69339
27.74813,66618
27.75625,67949
27.76438,68314
27.77250,67334
27.78063,75204
27.78875,77851
27.79687,76573
27.80500,72764
27.81312,77064
27.82125,74509
27.82937,71629
27.83748,69506
27.84562,64384
27.85373,63298
27.86187,65512
27.86998,67455
27.87810,62813
27.88623,63931
27.89435,59375
27.90247,57144
27.91060,61751
27.91872,54855
27.92685,59755
27.93497,62165
27.94308,58624
27.95122,58863
27.95933,61990
27.96747,57586
27.97558,64912
27.98370,57251
27.99183,60775
27.99995,64561
28.00807,66785
28.01620,74890
28.02432,81820
28.03245,89591
28.04057,102285
28.04868,116329
28.05682,134957
28.06493,120916
28.07307,109898
28.08118,91965
28.08930,83136
28.09743,78344
28.10555,68701
28.11368,63818
28.12180,62736
28.12992,61663
28.13805,62136
28.14617,60937
28.15428,61542
28.16242,57128
28.17053,59582
28.17867,57620
28.18678,63374
28.19490,73399
28.20303,83436
28.21115,88683
28.21928,96491
28.22740,100906
28.23552,98367
28.24365,92381
28.25177,82136
28.25988,72211
28.26802,72328
28.27613,65852
28.28427,65122
28.29238,62914
28.30050,68354
28.30863,75148
28.31675,83997
28.32488,90728
28.33300,104129
28.34112,122156
28.34925,132174
28.35737,146106
28.36550,160388
28.37362,167328
28.38173,192343
28.38987,203182
28.39798,211634
28.40610,205783
28.41423,193183
28.42235,185972
28.43048,173906
28.43860,159560
28.44672,149815
28.45485,140284
28.46297,138187
28.47110,133912
28.47922,127637
28.48733,126275
28.49547,134905
28.50358,133316
28.51172,123512
28.51983,123086
28.52795,114254
28.53608,106658
28.54420,99664
28.55232,94356
28.56045,85296
28.56857,87334
28.57670,80867
28.58482,80637
28.59293,82986
28.60107,75790
28.60918,83856
28.61732,84548
28.62543,86339
28.63355,86953
28.64168,95093
28.64980,93073
28.65792,96391
28.66605,99570
28.67417,93957
28.68230,91953
28.69042,90953
28.69853,80535
28.70667,80511
28.71478,71214
28.72292,69552
28.73103,70015
28.73915,70396
28.74728,71824
28.75540,74182
28.76353,74639
28.77165,84766
28.77977,93883
28.78790,96365
28.79602,99581
28.80413,90646
28.81227,86910
28.82038,82590
28.82852,78609
28.83663,79044
28.84475,69851
28.85288,70863
28.86100,75007
28.86913,68330
28.87725,73367
28.88537,70051
28.89350,83816
28.90162,84930
28.90975,85354
28.91787,83896
28.92598,87794
28.93412,73636
28.94223,74485
28.95035,74360
28.95848,75728
28.96660,84504
28.97473,76693
28.98285,72578
28.99097,66727
28.99910,65038
29.00722,64953
29.01535,60069
29.02347,63217
29.03158,59279
29.03972,64507
29.04783,68904
29.05595,60988
29.06408,64666
29.07220,67694
29.08033,67806
29.08845,70086
29.09657,67620
29.10470,66671
29.11282,64586
29.12095,61509
29.12907,59321
29.13718,63397
29.14532,62368
29.15343,59149
29.16157,58641
29.16968,58931
29.17780,62405
29.18593,68439
29.19405,74358
29.20217,81553
29.21030,91576
29.21842,101470
29.22655,106015
29.23467,108309
29.24278,112921
29.25092,119334
29.25903,138054
29.26717,153429
29.27528,160487
29.28340,154227
29.29153,128840
29.29965,110966
29.30777,89204
29.31590,84191
29.32402,68275
29.33215,65400
29.34027,58890
29.34838,59108
29.35652,56786
29.36463,55569
29.37277,56044
29.38088,58030
29.38900,57842
29.39713,59663
29.40525,60736
29.41338,65065
29.42150,67806
29.42962,64088
29.43775,67432
29.44587,63141
29.45398,63399
29.46212,58307
29.47023,57476
29.47837,64436
29.48648,63662
29.49460,63970
29.50273,70055
29.51085,67912
29.51898,72882
29.52710,71014
29.53522,70993
29.54335,66112
29.55147,62217
29.55960,59929
29.56772,58405
29.57583,55860
29.58397,56151
29.59208,53418
29.60020,57690
29.60833,56883
29.61645,55303
29.62458,56590
29.63270,58607
29.64082,56564
29.64895,55213
29.65707,56016
29.66520,53206
29.67332,55796
29.68143,58660
29.68957,62118
29.69768,61727
29.70582,60871
29.71393,58660
29.72205,61076
29.73018,63361
29.73830,59751
29.74642,57420
29.75455,54321
29.76267,54220
29.77080,50808
29.77892,49114
29.78703,53386
29.79517,51092
29.80328,55070
29.81142,49638
29.81953,46226
29.82765,49778
29.83578,50098
29.84390,49958
29.85202,50993
29.86015,52908
29.86827,58747
29.87640,71694
29.88452,82184
29.89263,112717
29.90077,135725
29.90888,147502
29.91702,136069
29.92513,121483
29.93325,103244
29.94138,81435
29.94950,72798
29.95763,70274
29.96575,66768
29.97387,71158
29.98200,81102
29.99012,90870
29.99823,90483
30.00637,98194
30.01448,103080
30.02262,114004
30.03073,110135
30.03885,116976
30.04698,119202
30.05510,129285
30.06323,123431
30.07135,119352
30.07947,117584
30.08760,110700
30.09572,110685
30.10383,118495
30.11197,113392
30.12008,111637
30.12822,99506
30.13633,101335
30.14445,96021
30.15258,97466
30.16070,92816
30.16883,87768
30.17695,96217
30.18507,94153
30.19320,94051
30.20132,96774
30.20945,98349
30.21757,100190
30.22568,88995
30.23382,83587
30.24193,77029
30.25005,71794
30.25818,72332
30.26630,70133
30.27443,64743
30.28255,68363
30.29067,63371
30.29880,64403
30.30692,68296
30.31505,63924
30.32317,61967
30.33128,62701
30.33942,59862
30.34753,62647
30.35567,64449
30.36378,65108
30.37190,66735
30.38003,62881
30.38815,60634
30.39627,61131
30.40440,61500
30.41252,58724
30.42065,58237
30.42877,55113
30.43688,60767
30.44502,57644
30.45313,56458
30.46127,57581
30.46938,52963
30.47750,57308
30.48563,57665
30.49375,56676
30.50187,57429
30.51000,56782
30.51812,53784
30.52625,57421
30.53437,55919
30.54248,56500
30.55062,56471
30.55873,56906
30.56687,52492
30.57498,54324
30.58310,60064
30.59123,60871
30.59935,57899
30.60748,58372
30.61560,56997
30.62372,54115
30.63185,56885
30.63997,56564
30.64808,56312
30.65622,54604
30.66433,56165
30.67247,56177
30.68058,52021
30.68870,48565
30.69683,53052
30.70495,55024
30.71308,51048
30.72120,55869
30.72932,51714
30.73745,56788
30.74557,55026
30.75370,53604
30.76182,51740
30.76993,58409
30.77807,63845
30.78618,74497
30.79430,89800
30.80243,106629
30.81055,123486
30.81868,138649
30.82680,128271
30.83492,110011
30.84305,98131
30.85117,81297
30.85930,69010
30.86742,69884
30.87553,72098
30.88367,69839
30.89178,69032
30.89990,68688
30.90803,70358
30.91615,64747
30.92428,63398
30.93240,57850
30.94052,54490
30.94865,59638
30.95677,58860
30.96490,60989
30.97302,61011
30.98113,56039
30.98927,57323
30.99738,53491
31.00552,55253
31.01363,55423
31.02175,56052
31.02988,57396
31.03800,61142
31.04612,65880
31.05425,66709
31.06237,62990
31.07050,67308
31.07862,61032
31.08673,65325
31.09487,76478
31.10298,86983
31.11112,88521
31.11923,93468
31.12735,83487
31.13548,81593
31.14360,74468
31.15172,80052
31.15985,75403
31.16797,79217
31.17610,82518
31.18422,83566
31.19233,83052
31.20047,100800
31.20858,111603
31.21672,127342
31.22483,141668
31.23295,147036
31.24108,135147
31.24920,121932
31.25733,109726
31.26545,92703
31.27357,86517
31.28170,82996
31.28982,78896
31.29793,71882
31.30607,69315
31.31418,74932
31.32232,68593
31.33043,70902
31.33855,72719
31.34668,74812
31.35480,67343
31.36293,68795
31.37105,75821
31.37917,71581
31.38730,73494
31.39542,68199
31.40355,69874
31.41167,70410
31.41978,72655
31.42792,75995
31.43603,71078
31.44415,74205
31.45228,73421
31.46040,70694
31.46853,71596
31.47665,67340
31.48477,72582
31.49290,75275
31.50102,75648
31.50915,76971
31.51727,77760
31.52538,78533
31.53352,75567
31.54163,77697
31.54975,75060
31.55788,73026
31.56600,75702
31.57413,76319
31.58225,73342
31.59037,74858
31.59850,76010
31.60662,71185
31.61475,68593
31.62287,67615
31.63098,66114
31.63912,67064
31.64723,64496
31.65537,68903
31.66348,70657
31.67160,69962
31.67973,76944
31.68785,70077
31.69597,71191
31.70410,69186
31.71222,68472
31.72035,66436
31.72847,63432
31.73658,59128
31.74472,59703
31.75283,60199
31.76097,62983
31.76908,61436
31.77720,61548
31.78533,63988
31.79345,60721
31.80158,63532
31.80970,62576
31.81782,65750
31.82595,66447
31.83407,66275
31.84218,69218
31.85032,67391
31.85843,62018
31.86657,66840
31.87468,65947
31.88280,68963
31.89093,68864
31.89905,64667
31.90718,69213
31.91530,71771
31.92342,75200
31.93155,84766
31.93967,85588
31.94778,93174
31.95592,101907
31.96403,111230
31.97217,120187
31.98028,120034
31.98840,116872
31.99653,115617
32.00465,120530
32.01278,124647
32.02090,122668
32.02902,114122
32.03715,109929
32.04527,112432
32.05340,101648
32.06152,105530
32.06963,99052
32.07777,96283
32.08588,98782
32.09400,90083
32.10213,91750
32.11025,84711
32.11838,76962
32.12650,79878
32.13462,82893
32.14275,76857
32.15087,76680
32.15900,75635
32.16712,70482
32.17523,70812
32.18337,73203
32.19148,69121
32.19962,71756
32.20773,79019
32.21585,69491
32.22398,70768
32.23210,72676
32.24022,71077
32.24835,69590
32.25647,69073
32.26460,70926
32.27272,79491
32.28083,74723
32.28897,74309
32.29708,67679
32.30522,69544
32.31333,65616
32.32145,65888
32.32958,70183
32.33770,65637
32.34582,65942
32.35395,73428
32.36207,65695
32.37020,67806
32.37832,68651
32.38643,66240
32.39457,63949
32.40268,64153
32.41082,60870
32.41893,69220
32.42705,65426
32.43518,63647
32.44330,62613
32.45143,63686
32.45955,66653
32.46767,61466
32.47580,58670
32.48392,57184
32.49203,60499
32.50017,58176
32.50828,61134
32.51642,61342
32.52453,61999
32.53265,58919
32.54078,58699
32.54890,61178
32.55703,65501
32.56515,61630
32.57327,68839
32.58140,60030
32.58952,61582
32.59763,61346
32.60577,63071
32.61388,60195
32.62202,62874
32.63013,64903
32.63825,57272
32.64638,62409
32.65450,64659
32.66263,73830
32.67075,77029
32.67887,77072
32.68700,81925
32.69512,84074
32.70325,77700
32.71137,71613
32.71948,72817
32.72762,69755
32.73573,69997
32.74385,64685
32.75198,66193
32.76010,63375
32.76823,63494
32.77635,64239
32.78447,59341
32.79260,58646
32.80072,58371
32.80885,63014
32.81697,59469
32.82508,61994
32.83322,61500
32.84133,63400
32.84947,58201
32.85758,64449
32.86570,60590
32.87383,66668
32.88195,63178
32.89007,67231
32.89820,72130
32.90632,75117
32.91445,72477
32.92257,76374
32.93068,72081
32.93882,66958
32.94693,64201
32.95507,68212
32.96318,65641
32.97130,69588
32.97943,69032
32.98755,81819
32.99567,91646
33.00380,107202
33.01192,109211
33.02005,103356
33.02817,95826
33.03628,82698
33.04442,74698
33.05253,71473
33.06067,71725
33.06878,74082
33.07690,81085
33.08503,86024
33.09315,91139
33.10128,100070
33.10940,112855
33.11752,109150
33.12565,112776
33.13377,109441
33.14188,101938
33.15002,95294
33.15813,83352
33.16627,79715
33.17438,74406
33.18250,70581
33.19063,73806
33.19875,69647
33.20688,73006
33.21500,70020
33.22312,70422
33.23125,73530
33.23937,74925
33.24750,69755
33.25562,69088
33.26373,70527
33.27187,66908
33.27998,67083
33.28810,67374
33.29623,72241
33.30435,71920
33.31248,69699
33.32060,74159
33.32872,73021
33.33685,69742
33.34497,69335
33.35310,78258
33.36122,76200
33.36933,76608
33.37747,75924
33.38558,72184
33.39370,70157
33.40183,69287
33.40995,65279
33.41808,66372
33.42620,63129
33.43432,66991
33.44245,67437
33.45057,63942
33.45870,65188
33.46682,62560
33.47493,62201
33.48307,62030
33.49118,60340
33.49932,69856
33.50743,66122
33.51555,64206
33.52368,67470
33.53180,69526
33.53992,68340
33.54805,68830
33.55617,68661
33.56430,71254
33.57242,67647
33.58053,76289
33.58867,69143
33.59678,66377
33.60492,62794
33.61303,62435
33.62115,63356
33.62928,63798
33.63740,66000
33.64552,67386
33.65365,68020
33.66177,70278
33.66990,73652
33.67802,72138
33.68613,72537
33.69427,67475
33.70238,67888
33.71052,67989
33.71863,68211
33.72675,62584
33.73488,62172
33.74300,65409
33.75113,63000
33.75925,61676
33.76737,60564
33.77550,63476
33.78362,63311
33.79173,64059
33.79987,65756
33.80798,64790
33.81612,61955
33.82423,62766
33.83235,60778
33.84048,66518
33.84860,65319
33.85673,69644
33.86485,70018
33.87297,71535
33.88110,73432
33.88922,71503
33.89735,67687
33.90547,73464
33.91358,69207
33.92172,75045
33.92983,71117
33.93795,73430
33.94608,71296
33.95420,66173
33.96233,67563
33.97045,68953
33.97857,59510
33.98670,71917
33.99482,66652
34.00295,66239
34.01107,66172
34.01918,69986
34.02732,66375
34.03543,66016
34.04357,64132
34.05168,65983
34.05980,65730
34.06793,70513
34.07605,62680
34.08417,68328
34.09230,64509
34.10042,64376
34.10855,65131
34.11667,64810
34.12478,66875
34.13292,70799
34.14103,71451
34.14917,66001
34.15728,64450
34.16540,65855
34.17353,67286
34.18165,63961
34.18977,68892
34.19790,70541
34.20602,68328
34.21415,64472
34.22227,66559
34.23038,66460
34.23852,65161
34.24663,67511
34.25477,69354
34.26288,63378
34.27100,64726
34.27913,68707
34.28725,65117
34.29538,66451
34.30350,68077
34.31162,67986
34.31975,70083
34.32787,66571
34.33598,70619
34.34412,68071
34.35223,65677
34.36037,64437
34.36848,69114
34.37660,68615
34.38473,69866
34.39285,72907
34.40098,71088
34.40910,71368
34.41722,67018
34.42535,67600
34.43347,68699
34.44158,69227
34.44972,68094
34.45783,68369
34.46597,65018
34.47408,70715
34.48220,65669
34.49033,68522
34.49845,66926
34.50658,69854
34.51470,73320
34.52282,80522
34.53095,84770
34.53907,97904
34.54720,115338
34.55532,120690
34.56343,120894
34.57157,127372
34.57968,131613
34.58780,127163
34.59593,115924
34.60405,112118
34.61218,101891
34.62030,100288
34.62842,95094
34.63655,95984
34.64467,86364
34.65280,86646
34.66092,89896
34.66903,84737
34.67717,83844
34.68528,76492
34.69342,79628
34.70153,79313
34.70965,81436
34.71778,76606
34.72590,76080
34.73402,74219
34.74215,81526
34.75027,85453
34.75840,78650
34.76652,77176
34.77463,76000
34.78277,80182
34.79088,81509
34.79902,78583
34.80713,80059
34.81525,78042
34.82338,75419
34.83150,73237
34.83962,78393
34.84775,80813
34.85587,75673
34.86400,77866
34.87212,83166
34.88023,78129
34.88837,78311
34.89648,77466
34.90462,71065
34.91273,74251
34.92085,79838
34.92898,78396
34.93710,78466
34.94523,78319
34.95335,83501
34.96147,85813
34.96960,83140
34.97772,84003
34.98583,88785
34.99397,85006
35.00208,83414
35.01022,77646
35.01833,72773
35.02645,81048
35.03458,79493
35.04270,75134
35.05083,75201
35.05895,78898
35.06707,74319
35.07520,78808
35.08332,75022
35.09145,79210
35.09957,83072
35.10768,77459
35.11582,74652
35.12393,72268
35.13205,79272
35.14018,79460
35.14830,71024
35.15643,76307
35.16455,77076
35.17267,79560
35.18080,80772
35.18892,73620
35.19705,77850
35.20517,77352
35.21328,75667
35.22142,73331
35.22953,75347
35.23765,72968
35.24578,82132
35.25390,82120
35.26203,76491
35.27015,80156
35.27827,78279
35.28640,81787
35.29452,84952
35.30265,78779
35.31077,76831
35.31888,78331
35.32702,75006
35.33513,78181
35.34327,75312
35.35138,78605
35.35950,72901
35.36763,70728
35.37575,71949
35.38387,73368
35.39200,76525
35.40012,78437
35.40825,86368
35.41637,84223
35.42448,86685
35.43262,89990
35.44073,88170
35.44887,93868
35.45698,91333
35.46510,92200
35.47323,92592
35.48135,90541
35.48947,90247
35.49760,91059
35.50572,92321
35.51385,82654
35.52197,80941
35.53008,82611
35.53822,83186
35.54633,79917
35.55447,85030
35.56258,80423
35.57070,79120
35.57883,76783
35.58695,77684
35.59508,85518
35.60320,82939
35.61132,81536
35.61945,81213
35.62757,74357
35.63568,75641
35.64382,75074
35.65193,76589
35.66007,73131
35.66818,77753
35.67630,78971
35.68443,82193
35.69255,86521
35.70068,78534
35.70880,87458
35.71692,89236
35.72505,86645
35.73317,83388
35.74130,93449
35.74942,87499
35.75753,93875
35.76567,98693
35.77378,96720
35.78190,102284
35.79003,97189
35.79815,95488
35.80628,87031
35.81440,88767
35.82252,82955
35.83065,85979
35.83877,84575
35.84690,78960
35.85502,82104
35.86313,83978
35.87127,87052
35.87938,81409
35.88750,78092
35.89563,75947
35.90375,75334
35.91188,78650
35.92000,77924
35.92812,75944
35.93625,74869
35.94437,77104
35.95250,79810
35.96062,80048
35.96873,79344
35.97687,79223
35.98498,80613
35.99312,86848
36.00123,82362
36.00935,85660
36.01748,86277
36.02560,89546
36.03372,91111
36.04185,89441
36.04997,85705
36.05810,84107
36.06622,86722
36.07433,87069
36.08247,89799
36.09058,82800
36.09872,86006
36.10683,84559
36.11495,87149
36.12308,87134
36.13120,89099
36.13933,82655
36.14745,90121
36.15557,93235
36.16370,96077
36.17182,90299
36.17993,85636
36.18807,88070
36.19618,84770
36.20432,82543
36.21243,83827
36.22055,84148
36.22868,81477
36.23680,80202
36.24493,80327
36.25305,83510
36.26117,80463
36.26930,83610
36.27742,82248
36.28553,82794
36.29367,83202
36.30178,87529
36.30992,89756
36.31803,96253
36.32615,95797
36.33428,104480
36.34240,96895
36.35053,91720
36.35865,90461
36.36677,88453
36.37490,86804
36.38302,90008
36.39115,88645
36.39927,87429
36.40738,85518
36.41552,88397
36.42363,95043
36.43175,90263
36.43988,82074
36.44800,84279
36.45613,85399
36.46425,85945
36.47237,84151
36.48050,84789
36.48862,85069
36.49675,84868
36.50487,82500
36.51298,84821
36.52112,82209
36.52923,80997
36.53735,82720
36.54548,83045
36.55360,84060
36.56173,85542
36.56985,86675
36.57797,85776
36.58610,84448
36.59422,84409
36.60235,83253
36.61047,80654
36.61858,85091
36.62672,78740
36.63483,86434
36.64297,85853
36.65108,90721
36.65920,87407
36.66733,89443
36.67545,94803
36.68357,93627
36.69170,89046
36.69982,90529
36.70795,89591
36.71607,91387
36.72418,88868
36.73232,93010
36.74043,95671
36.74857,90307
36.75668,92561
36.76480,90137
36.77293,95912
36.78105,90362
36.78918,88293
36.79730,87816
36.80542,92971
36.81355,86867
36.82167,94120
36.82978,85238
36.83792,95615
36.84603,92229
36.85417,87684
36.86228,94448
36.87040,86588
36.87853,87563
36.88665,89408
36.89478,89878
36.90290,91120
36.91102,90327
36.91915,88620
36.92727,89446
36.93538,90625
36.94352,93517
36.95163,97071
36.95977,96547
36.96788,104206
36.97600,105038
36.98413,107976
36.99225,105615
37.00038,102358
37.00850,101882
37.01662,92270
37.02475,94642
37.03287,94575
37.04100,92653
37.04912,91841
37.05723,94090
37.06537,99448
37.07348,98649
37.08160,94773
37.08973,105372
37.09785,97693
37.10598,93084
37.11410,100849
37.12222,94685
37.13035,94093
37.13847,94785
37.14660,91435
37.15472,93351
37.16283,100675
37.17097,93935
37.17908,94133
37.18722,96623
37.19533,97087
37.20345,95074
37.21158,95203
37.21970,93892
37.22782,96334
37.23595,95787
37.24407,91197
37.25220,90037
37.26032,87711
37.26843,92757
37.27657,90573
37.28468,92103
37.29282,93852
37.30093,91415
37.30905,94375
37.31718,92027
37.32530,98927
37.33342,109360
37.34155,111331
37.34967,115138
37.35780,127982
37.36592,130552
37.37403,136553
37.38217,130937
37.39028,131970
37.39842,122389
37.40653,120046
37.41465,120712
37.42278,116324
37.43090,117738
37.43903,117203
37.44715,112981
37.45527,111267
37.46340,111161
37.47152,114753
37.47963,107856
37.48777,112006
