C:\MassHunter\GCMS\1\data\JTB-E18\JTB-E18-023-10.D Tue Sep 10 17:14:00 2019
Start of data points
2.09535	193344
2.10348	197344
2.11160	194191
2.11973	198335
2.12785	195394
2.13597	191752
2.14410	193380
2.15222	191386
2.16033	189615
2.16847	186364
2.17658	182821
2.18472	173583
2.19283	169143
2.20095	160810
2.20908	162181
2.21720	155440
2.22533	157068
2.23345	155088
2.24157	154179
2.24970	152702
2.25782	150682
2.26595	222679
2.27407	1076424
2.28218	2219446
2.29032	1315806
2.29843	647457
2.30655	455570
2.31468	390550
2.32280	358079
2.33093	318795
2.33905	323123
2.34717	285246
2.35530	258445
2.36342	242453
2.37155	240719
2.37967	272812
2.38778	316623
2.39592	263923
2.40403	231326
2.41217	225928
2.42028	255917
2.42840	272662
2.43653	235129
2.44465	221208
2.45277	236504
2.46090	211218
2.46902	199668
2.47715	193239
2.48527	215624
2.49338	250496
2.50152	245177
2.50963	214032
2.51777	207559
2.52588	206541
2.53400	210337
2.54213	194062
2.55025	193211
2.55838	197257
2.56650	193335
2.57462	190808
2.58275	187039
2.59087	193730
2.59898	184446
2.60712	195127
2.61523	217543
2.62337	212410
2.63148	203571
2.63960	194527
2.64773	196928
2.65585	191616
2.66398	183705
2.67210	198430
2.68022	224139
2.68835	206379
2.69647	183266
2.70458	181325
2.71272	181922
2.72083	177845
2.72897	176269
2.73708	173636
2.74520	173194
2.75333	174601
2.76145	176314
2.76958	175079
2.77770	176284
2.78582	174511
2.79395	171250
2.80207	173353
2.81020	187774
2.81832	201076
2.82643	345777
2.83457	532381
2.84268	430911
2.85080	271273
2.85893	239844
2.86705	231538
2.87518	211943
2.88330	193341
2.89142	182926
2.89955	187298
2.90767	175285
2.91580	180230
2.92392	176586
2.93203	169070
2.94017	170380
2.94828	170073
2.95640	169653
2.96453	165589
2.97265	163707
2.98078	162018
2.98890	169700
2.99702	167865
3.00515	179293
3.01327	185985
3.02140	213627
3.02952	318688
3.03763	451262
3.04577	675243
3.05388	1966308
3.06202	3876623
3.07013	3497234
3.07825	1806252
3.08638	885223
3.09450	605890
3.10262	469497
3.11075	417355
3.11887	358964
3.12700	321512
3.13512	287254
3.14323	267615
3.15137	261651
3.15948	237085
3.16762	241251
3.17573	228789
3.18385	229129
3.19198	217963
3.20010	212416
3.20823	199119
3.21635	203293
3.22447	214479
3.23260	214178
3.24072	199438
3.24883	194025
3.25697	190599
3.26508	185362
3.27322	202572
3.28133	405416
3.28945	1692238
3.29758	5273684
3.30570	9253942
3.31383	9582764
3.32195	6793426
3.33007	4053818
3.33820	2618840
3.34632	1905799
3.35443	1486094
3.36257	1227132
3.37068	1124364
3.37882	1121460
3.38693	1040194
3.39505	913387
3.40318	1096313
3.41130	1834086
3.41943	2353638
3.42755	1901015
3.43567	1127057
3.44380	786406
3.45192	633848
3.46005	577576
3.46817	540430
3.47628	489419
3.48442	463627
3.49253	448866
3.50065	431532
3.50878	411704
3.51690	404090
3.52503	389430
3.53315	382204
3.54127	370313
3.54940	363987
3.55752	348579
3.56565	349307
3.57377	346712
3.58188	340892
3.59002	330926
3.59813	340603
3.60627	335998
3.61438	388240
3.62250	609780
3.63063	1040966
3.63875	1261219
3.64687	1040167
3.65500	685180
3.66312	474719
3.67125	401431
3.67937	368958
3.68748	347786
3.69562	328723
3.70373	324559
3.71187	318735
3.71998	306580
3.72810	304011
3.73623	301659
3.74435	304779
3.75247	300716
3.76060	307073
3.76872	300127
3.77685	281852
3.78497	281861
3.79308	279632
3.80122	278859
3.80933	269421
3.81747	278793
3.82558	276431
3.83370	281865
3.84183	267492
3.84995	268285
3.85808	261170
3.86620	263864
3.87432	254628
3.88245	254448
3.89057	262180
3.89868	254779
3.90682	259834
3.91493	263352
3.92307	244899
3.93118	248880
3.93930	247440
3.94743	254358
3.95555	246732
3.96368	244033
3.97180	251279
3.97992	236575
3.98805	239942
3.99617	234236
4.00428	234706
4.01242	237177
4.02053	234842
4.02867	230477
4.03678	231749
4.04490	239501
4.05303	236516
4.06115	237493
4.06928	234197
4.07740	236275
4.08552	234972
4.09365	228981
4.10177	230721
4.10990	223430
4.11802	227969
4.12613	247933
4.13427	316639
4.14238	583400
4.15050	954011
4.15863	1032582
4.16675	773274
4.17488	505842
4.18300	371119
4.19112	322528
4.19925	284875
4.20737	296869
4.21550	475479
4.22362	1235588
4.23173	2458980
4.23987	3025391
4.24798	2445889
4.25612	1556214
4.26423	1022367
4.27235	770430
4.28048	612806
4.28860	502243
4.29672	442614
4.30485	400506
4.31297	368756
4.32110	350456
4.32922	320775
4.33733	314981
4.34547	295071
4.35358	295754
4.36172	279175
4.36983	275012
4.37795	275839
4.38608	276213
4.39420	266395
4.40232	269168
4.41045	254619
4.41857	252552
4.42670	250443
4.43482	247046
4.44293	251219
4.45107	253741
4.45918	249874
4.46732	243386
4.47543	244498
4.48355	240222
4.49168	232429
4.49980	228825
4.50793	221907
4.51605	225357
4.52417	220874
4.53230	225574
4.54042	218349
4.54853	216505
4.55667	212435
4.56478	212642
4.57292	212529
4.58103	216148
4.58915	213771
4.59728	209329
4.60540	214326
4.61353	215803
4.62165	217715
4.62977	211643
4.63790	206363
4.64602	209335
4.65415	204358
4.66227	204347
4.67038	205578
4.67852	206538
4.68663	210096
4.69475	214114
4.70288	203063
4.71100	201403
4.71913	204885
4.72725	200507
4.73537	204753
4.74350	201830
4.75162	204505
4.75975	204110
4.76787	204766
4.77598	198247
4.78412	202876
4.79223	203611
4.80035	203687
4.80848	197621
4.81660	199846
4.82473	201072
4.83285	200557
4.84097	202513
4.84910	200967
4.85722	206439
4.86535	200557
4.87347	205630
4.88158	203851
4.88972	197597
4.89783	203424
4.90597	199517
4.91408	234417
4.92220	382750
4.93033	931472
4.93845	2069447
4.94657	3458785
4.95470	4220676
4.96282	3899732
4.97095	2916023
4.97907	1963530
4.98718	1399625
4.99532	1019338
5.00343	795805
5.01157	659791
5.01968	597039
5.02780	524724
5.03593	484589
5.04405	444809
5.05217	421719
5.06030	403055
5.06842	385090
5.07655	362822
5.08467	360114
5.09278	365179
5.10092	358295
5.10903	395286
5.11717	404959
5.12528	395415
5.13340	374693
5.14153	345249
5.14965	320465
5.15778	320090
5.16590	325233
5.17402	340039
5.18215	373468
5.19027	374692
5.19838	361742
5.20652	337732
5.21463	317054
5.22277	295535
5.23088	287949
5.23900	292810
5.24713	304405
5.25525	297549
5.26338	286672
5.27150	282444
5.27962	262466
5.28775	257841
5.29587	269476
5.30400	248163
5.31212	249072
5.32023	251868
5.32837	249445
5.33648	249069
5.34460	255883
5.35273	252344
5.36085	238768
5.36898	239214
5.37710	236518
5.38522	226591
5.39335	237385
5.40147	227593
5.40960	222861
5.41772	222953
5.42583	231456
5.43397	223106
5.44208	221475
5.45020	225483
5.45833	225858
5.46645	228200
5.47458	231110
5.48270	218808
5.49082	225768
5.49895	221048
5.50707	225653
5.51520	216770
5.52332	222648
5.53143	221791
5.53957	219031
5.54768	219086
5.55582	213585
5.56393	216974
5.57205	218051
5.58018	219054
5.58830	217470
5.59642	224838
5.60455	221495
5.61267	220350
5.62080	225426
5.62892	233096
5.63703	233660
5.64517	241000
5.65328	237433
5.66142	219497
5.66953	228134
5.67765	214251
5.68578	228510
5.69390	232687
5.70203	232402
5.71015	243801
5.71827	246198
5.72640	247971
5.73452	238106
5.74263	236738
5.75077	236346
5.75888	241606
5.76702	242458
5.77513	245487
5.78325	243740
5.79138	242395
5.79950	252117
5.80763	305608
5.81575	440168
5.82387	618420
5.83200	743823
5.84012	741645
5.84823	630684
5.85637	476386
5.86448	353764
5.87262	290605
5.88073	244055
5.88885	237175
5.89698	237411
5.90510	247273
5.91323	268520
5.92135	322639
5.92947	399032
5.93760	399819
5.94572	370278
5.95385	297115
5.96197	243905
5.97008	213734
5.97822	201510
5.98633	191960
5.99445	184027
6.00258	178986
6.01070	172967
6.01883	159458
6.02695	152544
6.03507	157971
6.04320	159388
6.05132	150731
6.05945	153112
6.06757	147979
6.07568	150784
6.08382	150740
6.09193	151066
6.10007	148946
6.10818	142699
6.11630	142818
6.12443	142551
6.13255	143542
6.14067	143791
6.14880	143852
6.15692	145530
6.16505	159494
6.17317	160404
6.18128	161335
6.18942	166239
6.19753	184217
6.20567	181801
6.21378	184156
6.22190	179945
6.23003	172904
6.23815	169208
6.24627	178487
6.25440	170476
6.26252	172025
6.27065	170511
6.27877	176567
6.28688	181819
6.29502	182175
6.30313	185196
6.31127	187788
6.31938	187971
6.32750	193633
6.33563	198087
6.34375	198231
6.35188	202476
6.36000	206022
6.36812	218759
6.37625	215357
6.38437	217226
6.39248	216739
6.40062	218084
6.40873	222303
6.41687	224376
6.42498	229289
6.43310	227077
6.44123	224139
6.44935	241116
6.45748	243669
6.46560	240397
6.47372	237622
6.48185	245042
6.48997	239496
6.49808	244226
6.50622	245914
6.51433	246786
6.52247	247105
6.53058	255721
6.53870	247041
6.54683	219512
6.55495	192747
6.56308	174929
6.57120	174178
6.57932	164396
6.58745	169033
6.59557	162947
6.60370	166638
6.61182	164669
6.61993	158216
6.62807	155784
6.63618	147464
6.64430	150366
6.65243	146612
6.66055	142940
6.66868	139599
6.67680	139469
6.68492	141166
6.69305	144062
6.70117	148046
6.70930	154790
6.71742	164585
6.72553	174798
6.73367	193462
6.74178	194866
6.74992	196257
6.75803	179250
6.76615	154229
6.77428	146601
6.78240	142937
6.79052	134588
6.79865	135084
6.80677	138167
6.81490	138916
6.82302	130136
6.83113	137887
6.83927	152464
6.84738	178523
6.85552	231073
6.86363	322253
6.87175	435027
6.87988	513917
6.88800	496904
6.89612	425640
6.90425	304042
6.91237	207801
6.92050	148943
6.92862	121706
6.93673	108044
6.94487	103536
6.95298	100550
6.96112	95848
6.96923	98529
6.97735	87229
6.98548	89453
6.99360	93418
7.00173	102175
7.00985	121945
7.01797	164507
7.02610	210971
7.03422	246417
7.04233	262956
7.05047	234503
7.05858	196131
7.06672	154082
7.07483	133964
7.08295	120400
7.09108	112049
7.09920	110030
7.10733	102843
7.11545	101150
7.12357	102397
7.13170	108856
7.13982	102595
7.14795	101004
7.15607	92454
7.16418	96082
7.17232	90392
7.18043	95339
7.18855	95608
7.19668	95701
7.20480	97658
7.21293	97847
7.22105	99356
7.22917	94039
7.23730	101512
7.24542	114403
7.25355	111789
7.26167	121642
7.26978	130877
7.27792	138660
7.28603	139851
7.29415	128887
7.30228	124379
7.31040	113721
7.31853	111967
7.32665	118060
7.33477	121540
7.34290	121708
7.35102	118994
7.35915	115698
7.36727	112155
7.37538	121137
7.38352	136061
7.39163	162185
7.39977	190020
7.40788	194218
7.41600	183957
7.42413	165442
7.43225	144438
7.44037	121255
7.44850	112301
7.45662	104275
7.46475	102422
7.47287	105656
7.48098	106989
7.48912	121351
7.49723	138185
7.50537	152336
7.51348	160724
7.52160	157559
7.52973	139063
7.53785	120086
7.54597	112502
7.55410	102521
7.56222	101926
7.57035	104213
7.57847	93648
7.58658	97615
7.59472	90818
7.60283	89437
7.61097	88073
7.61908	96670
7.62720	93048
7.63533	89559
7.64345	93868
7.65158	96083
7.65970	97281
7.66782	88424
7.67595	91788
7.68407	97171
7.69218	90843
7.70032	89087
7.70843	86581
7.71657	90634
7.72468	85344
7.73280	85027
7.74093	88176
7.74905	86692
7.75718	83608
7.76530	87275
7.77342	88118
7.78155	91269
7.78967	89271
7.79780	85136
7.80592	88584
7.81403	89141
7.82217	84770
7.83028	89130
7.83840	84643
7.84653	93628
7.85465	80009
7.86278	85681
7.87090	87991
7.87902	82460
7.88715	80547
7.89527	82602
7.90340	85416
7.91152	83338
7.91963	86698
7.92777	83318
7.93588	80721
7.94402	83320
7.95213	83982
7.96025	83765
7.96838	86520
7.97650	85931
7.98462	84479
7.99275	87120
8.00087	84212
8.00900	85319
8.01712	82243
8.02523	83799
8.03337	82795
8.04148	81295
8.04962	80833
8.05773	83204
8.06585	81635
8.07398	81638
8.08210	85029
8.09022	80035
8.09835	79106
8.10647	82521
8.11460	82166
8.12272	79077
8.13083	82396
8.13897	79489
8.14708	83740
8.15522	79485
8.16333	84115
8.17145	84726
8.17958	86336
8.18770	86128
8.19583	85303
8.20395	81102
8.21207	79007
8.22020	79478
8.22832	77688
8.23643	82306
8.24457	83242
8.25268	81172
8.26082	81989
8.26893	75811
8.27705	81244
8.28518	79795
8.29330	83569
8.30143	76517
8.30955	79793
8.31767	78321
8.32580	78473
8.33392	80810
8.34203	83347
8.35017	85925
8.35828	88693
8.36642	82591
8.37453	85043
8.38265	80569
8.39078	82152
8.39890	78768
8.40703	76947
8.41515	74772
8.42327	75864
8.43140	76781
8.43952	76742
8.44765	82589
8.45577	79268
8.46388	77084
8.47202	74326
8.48013	74448
8.48825	79807
8.49638	74838
8.50450	83841
8.51263	85569
8.52075	87051
8.52887	86477
8.53700	86185
8.54512	79837
8.55325	82654
8.56137	79832
8.56948	77137
8.57762	75820
8.58573	78184
8.59387	77996
8.60198	75743
8.61010	77280
8.61823	74793
8.62635	77108
8.63447	75473
8.64260	74276
8.65072	73970
8.65885	77479
8.66697	78635
8.67508	73656
8.68322	74796
8.69133	75983
8.69947	79249
8.70758	80331
8.71570	80323
8.72383	79164
8.73195	102671
8.74007	189172
8.74820	402821
8.75632	814987
8.76445	1363604
8.77257	1725669
8.78068	1681712
8.78882	1333502
8.79693	889375
8.80507	579582
8.81318	418983
8.82130	321958
8.82943	275051
8.83755	238831
8.84568	222040
8.85380	198721
8.86192	187061
8.87005	168960
8.87817	164978
8.88628	154940
8.89442	157413
8.90253	147201
8.91067	154016
8.91878	141885
8.92690	143493
8.93503	139844
8.94315	140638
8.95128	134816
8.95940	132087
8.96752	134274
8.97565	131271
8.98377	125555
8.99190	124428
9.00002	119769
9.00813	123013
9.01627	119164
9.02438	112865
9.03250	121837
9.04063	117385
9.04875	116528
9.05688	117660
9.06500	115769
9.07312	114326
9.08125	108316
9.08937	110356
9.09750	113689
9.10562	109296
9.11373	110442
9.12187	105046
9.12998	110911
9.13810	108185
9.14623	106992
9.15435	103741
9.16248	102070
9.17060	105681
9.17872	103937
9.18685	101815
9.19497	105366
9.20310	105183
9.21122	101481
9.21933	98054
9.22747	97282
9.23558	97289
9.24372	101552
9.25183	99534
9.25995	98268
9.26808	95429
9.27620	94346
9.28432	98922
9.29245	92360
9.30057	92194
9.30870	90736
9.31682	92530
9.32493	94423
9.33307	93574
9.34118	92668
9.34932	94089
9.35743	91734
9.36555	92369
9.37368	89698
9.38180	90499
9.38992	95670
9.39805	86171
9.40617	88957
9.41430	88947
9.42242	92195
9.43053	89497
9.43867	85416
9.44678	85125
9.45492	91663
9.46303	84498
9.47115	87519
9.47928	85093
9.48740	88316
9.49553	79501
9.50365	86632
9.51177	84167
9.51990	79353
9.52802	77461
9.53613	79218
9.54427	73166
9.55238	65818
9.56052	65262
9.56863	61641
9.57675	55371
9.58488	58527
9.59300	61499
9.60113	63232
9.60925	63196
9.61737	62291
9.62550	60429
9.63362	56679
9.64175	60029
9.64987	56370
9.65798	56915
9.66612	55103
9.67423	55686
9.68235	53868
9.69048	54108
9.69860	53716
9.70673	56019
9.71485	49844
9.72297	54192
9.73110	49773
9.73922	52211
9.74735	52141
9.75547	52177
9.76358	51241
9.77172	53044
9.77983	52363
9.78795	49241
9.79608	49651
9.80420	54380
9.81233	55168
9.82045	53956
9.82857	50861
9.83670	51556
9.84482	54580
9.85295	57410
9.86107	57879
9.86918	54688
9.87732	54276
9.88543	55165
9.89357	53542
9.90168	51418
9.90980	52957
9.91793	49231
9.92605	51962
9.93417	48507
9.94230	51017
9.95042	58562
9.95855	54864
9.96667	55082
9.97478	60121
9.98292	62997
9.99103	67152
9.99917	66862
10.00728	64970
10.01540	59538
10.02353	64055
10.03165	55754
10.03978	58707
10.04790	59121
10.05602	55668
10.06415	54956
10.07227	54389
10.08038	57259
10.08852	55562
10.09663	56021
10.10477	53359
10.11288	51425
10.12100	52429
10.12913	56670
10.13725	52618
10.14538	49902
10.15350	55516
10.16162	51867
10.16975	50158
10.17787	50652
10.18598	55589
10.19412	50281
10.20223	53111
10.21037	53849
10.21848	50878
10.22660	58383
10.23473	59440
10.24285	57181
10.25098	56070
10.25910	55436
10.26722	53845
10.27535	54462
10.28347	60202
10.29160	58438
10.29972	55323
10.30783	61448
10.31597	56557
10.32408	55102
10.33220	52673
10.34033	49333
10.34845	55124
10.35658	55385
10.36470	53418
10.37282	51218
10.38095	53116
10.38907	58367
10.39720	57131
10.40532	60038
10.41343	58595
10.42157	55479
10.42968	57196
10.43780	50773
10.44593	51122
10.45405	54168
10.46218	54697
10.47030	48765
10.47842	48693
10.48655	52830
10.49467	52802
10.50280	53807
10.51092	53836
10.51903	52984
10.52717	57469
10.53528	57272
10.54342	61006
10.55153	58435
10.55965	60310
10.56778	56672
10.57590	53270
10.58402	53344
10.59215	52114
10.60027	52112
10.60840	53447
10.61652	51001
10.62463	56959
10.63277	51636
10.64088	48059
10.64902	48505
10.65713	55331
10.66525	53666
10.67338	50651
10.68150	51794
10.68963	50650
10.69775	54760
10.70587	56827
10.71400	60607
10.72212	59920
10.73023	54119
10.73837	57420
10.74648	57171
10.75462	56883
10.76273	57142
10.77085	59502
10.77898	57493
10.78710	56790
10.79523	51138
10.80335	54769
10.81147	51990
10.81960	49567
10.82772	52011
10.83583	50927
10.84397	51111
10.85208	53584
10.86022	49662
10.86833	49653
10.87645	49967
10.88458	47828
10.89270	51046
10.90083	47701
10.90895	47717
10.91707	47907
10.92520	50117
10.93332	50811
10.94145	50095
10.94957	48702
10.95768	45775
10.96582	48261
10.97393	45028
10.98205	55610
10.99018	50868
10.99830	49518
11.00643	42743
11.01455	48179
11.02267	47908
11.03080	46974
11.03892	48038
11.04705	45567
11.05517	44770
11.06328	43920
11.07142	47958
11.07953	53729
11.08767	43202
11.09578	44046
11.10390	43068
11.11203	52126
11.12015	46689
11.12827	48041
11.13640	53296
11.14452	54601
11.15265	53647
11.16077	56697
11.16888	55431
11.17702	56252
11.18513	59599
11.19327	54805
11.20138	57920
11.20950	52221
11.21763	57723
11.22575	52024
11.23387	51627
11.24200	53621
11.25012	54588
11.25825	50276
11.26637	51182
11.27448	55049
11.28262	63893
11.29073	80280
11.29887	92409
11.30698	118399
11.31510	130579
11.32323	134679
11.33135	129455
11.33948	119476
11.34760	107492
11.35572	97285
11.36385	95120
11.37197	87771
11.38008	79023
11.38822	76801
11.39633	67238
11.40447	63439
11.41258	60843
11.42070	54217
11.42883	55553
11.43695	51660
11.44508	55457
11.45320	49118
11.46132	52720
11.46945	50336
11.47757	48928
11.48570	50203
11.49382	50408
11.50193	54080
11.51007	47914
11.51818	51800
11.52630	56336
11.53443	57610
11.54255	63788
11.55068	63294
11.55880	67645
11.56692	72567
11.57505	62226
11.58317	66008
11.59130	59446
11.59942	68151
11.60753	63236
11.61567	57341
11.62378	58464
11.63190	53055
11.64003	51568
11.64815	49231
11.65628	53443
11.66440	49475
11.67252	47425
11.68065	53000
11.68877	53115
11.69690	53601
11.70502	60310
11.71313	60363
11.72127	62228
11.72938	67485
11.73752	69245
11.74563	71706
11.75375	72124
11.76188	73628
11.77000	71442
11.77812	69317
11.78625	69649
11.79437	62271
11.80250	61272
11.81062	58259
11.81873	57315
11.82687	57556
11.83498	56462
11.84312	53714
11.85123	53580
11.85935	55277
11.86748	55928
11.87560	54135
11.88372	53931
11.89185	54376
11.89997	47763
11.90810	54649
11.91622	51134
11.92433	51136
11.93247	55361
11.94058	61553
11.94872	66084
11.95683	70278
11.96495	77426
11.97308	72714
11.98120	69222
11.98933	66901
11.99745	64851
12.00557	62567
12.01370	57450
12.02182	56753
12.02993	54842
12.03807	55097
12.04618	53905
12.05432	51791
12.06243	50363
12.07055	49132
12.07868	50556
12.08680	48756
12.09493	51354
12.10305	50376
12.11117	47914
12.11930	48753
12.12742	48861
12.13555	49531
12.14367	48379
12.15178	50616
12.15992	50318
12.16803	47188
12.17615	48865
12.18428	48923
12.19240	49319
12.20053	49994
12.20865	46398
12.21677	47084
12.22490	45409
12.23302	45214
12.24115	49194
12.24927	45610
12.25738	49838
12.26552	48768
12.27363	45216
12.28175	43303
12.28988	50963
12.29800	48668
12.30613	44441
12.31425	47549
12.32237	51738
12.33050	47332
12.33862	44736
12.34675	46219
12.35487	47493
12.36298	46107
12.37112	47304
12.37923	48050
12.38737	50173
12.39548	52837
12.40360	66147
12.41173	68057
12.41985	72147
12.42797	75507
12.43610	68260
12.44422	65405
12.45235	57184
12.46047	57909
12.46858	54446
12.47672	57256
12.48483	52137
12.49297	51508
12.50108	49172
12.50920	49516
12.51733	49234
12.52545	46735
12.53358	46200
12.54170	48204
12.54982	44515
12.55795	47866
12.56607	45621
12.57418	48233
12.58232	45233
12.59043	44769
12.59857	44207
12.60668	45569
12.61480	44884
12.62293	44650
12.63105	42677
12.63918	46077
12.64730	46736
12.65542	47259
12.66355	45574
12.67167	43901
12.67978	42389
12.68792	43914
12.69603	46951
12.70417	43061
12.71228	45626
12.72040	46831
12.72853	46123
12.73665	48946
12.74478	47654
12.75290	51018
12.76102	50283
12.76915	49150
12.77727	46315
12.78540	46106
12.79352	50902
12.80163	52215
12.80977	55097
12.81788	51141
12.82600	53504
12.83413	56055
12.84225	54358
12.85038	57808
12.85850	53304
12.86662	49815
12.87475	49662
12.88287	50282
12.89100	46649
12.89912	43786
12.90723	45390
12.91537	43281
12.92348	43849
12.93160	45142
12.93973	47259
12.94785	52268
12.95598	62353
12.96410	76258
12.97222	89880
12.98035	106755
12.98847	119254
12.99660	125456
13.00472	124848
13.01283	121308
13.02097	109845
13.02908	98976
13.03722	91563
13.04533	81018
13.05345	70616
13.06158	59317
13.06970	59355
13.07782	56507
13.08595	55690
13.09407	52597
13.10220	51985
13.11032	49690
13.11843	51480
13.12657	54182
13.13468	52364
13.14282	50858
13.15093	51172
13.15905	53525
13.16718	50537
13.17530	52934
13.18343	53293
13.19155	53889
13.19967	54738
13.20780	56209
13.21592	49577
13.22403	48229
13.23217	52971
13.24028	54828
13.24842	52016
13.25653	51071
13.26465	58781
13.27278	60894
13.28090	67964
13.28903	64826
13.29715	69237
13.30527	74610
13.31340	69311
13.32152	72134
13.32965	68392
13.33777	70436
13.34588	73275
13.35402	71913
13.36213	68539
13.37025	63534
13.37838	63781
13.38650	56445
13.39463	60307
13.40275	52603
13.41087	52789
13.41900	53589
13.42712	51486
13.43525	51636
13.44337	50981
13.45148	50947
13.45962	49170
13.46773	45802
13.47585	45100
13.48398	50463
13.49210	51688
13.50023	45606
13.50835	43598
13.51647	43661
13.52460	46398
13.53272	44775
13.54085	48884
13.54897	51991
13.55708	52637
13.56522	57090
13.57333	60291
13.58147	64152
13.58958	64516
13.59770	67400
13.60583	68932
13.61395	66700
13.62207	73018
13.63020	73541
13.63832	74965
13.64645	76013
13.65457	79324
13.66268	77117
13.67082	75690
13.67893	69469
13.68707	64737
13.69518	62167
13.70330	58321
13.71143	53560
13.71955	54655
13.72767	54067
13.73580	59247
13.74392	55852
13.75205	52995
13.76017	53786
13.76828	56294
13.77642	57317
13.78453	53008
13.79267	58946
13.80078	58552
13.80890	55412
13.81703	58607
13.82515	52861
13.83328	55606
13.84140	53329
13.84952	55633
13.85765	55722
13.86577	54325
13.87388	54219
13.88202	58327
13.89013	59607
13.89827	60372
13.90638	64539
13.91450	68218
13.92263	71984
13.93075	73074
13.93888	81829
13.94700	75752
13.95512	77886
13.96325	71853
13.97137	79822
13.97950	72633
13.98762	77698
13.99573	74769
14.00387	75453
14.01198	75649
14.02010	73462
14.02823	78196
14.03635	86901
14.04448	82968
14.05260	81003
14.06072	77830
14.06885	73163
14.07697	77149
14.08510	70960
14.09322	71686
14.10133	73213
14.10947	75911
14.11758	74055
14.12570	73742
14.13383	80686
14.14195	105609
14.15008	159547
14.15820	274118
14.16632	443543
14.17445	582018
14.18257	643816
14.19070	570978
14.19882	445657
14.20693	327701
14.21507	248742
14.22318	190816
14.23132	164933
14.23943	158106
14.24755	149756
14.25568	132799
14.26380	127603
14.27192	124812
14.28005	114349
14.28817	111977
14.29630	99700
14.30442	99932
14.31253	95163
14.32067	92812
14.32878	78470
14.33692	75953
14.34503	59782
14.35315	56313
14.36128	57271
14.36940	51633
14.37753	52859
14.38565	50960
14.39377	47267
14.40190	52762
14.41002	51477
14.41813	48670
14.42627	51362
14.43438	49733
14.44252	49511
14.45063	50760
14.45875	48078
14.46688	48467
14.47500	49631
14.48313	49707
14.49125	50699
14.49937	46862
14.50750	49054
14.51562	45139
14.52373	49582
14.53187	45982
14.53998	48479
14.54812	46504
14.55623	51349
14.56435	47546
14.57248	45827
14.58060	48333
14.58873	49554
14.59685	45559
14.60497	45330
14.61310	42522
14.62122	46289
14.62935	45059
14.63747	44845
14.64558	45914
14.65372	45368
14.66183	45604
14.66995	53946
14.67808	44307
14.68620	42194
14.69433	43001
14.70245	45511
14.71057	43972
14.71870	43142
14.72682	40626
14.73495	45662
14.74307	44697
14.75118	47455
14.75932	42365
14.76743	42211
14.77555	40700
14.78368	42986
14.79180	43767
14.79993	44133
14.80805	45874
14.81617	47570
14.82430	48653
14.83242	51780
14.84055	48986
14.84867	50438
14.85678	51780
14.86492	47865
14.87303	51455
14.88117	51105
14.88928	49080
14.89740	48890
14.90553	50777
14.91365	48059
14.92177	48316
14.92990	53761
14.93802	49417
14.94615	45494
14.95427	45891
14.96238	49651
14.97052	45008
14.97863	45481
14.98677	51301
14.99488	45974
15.00300	46516
15.01113	49796
15.01925	47996
15.02738	50278
15.03550	43399
15.04362	48128
15.05175	44820
15.05987	47885
15.06798	47057
15.07612	42100
15.08423	45224
15.09237	47619
15.10048	45456
15.10860	45932
15.11673	44543
15.12485	44529
15.13298	41211
15.14110	44064
15.14922	43515
15.15735	41253
15.16547	46928
15.17358	43886
15.18172	42862
15.18983	40196
15.19797	43124
15.20608	41651
15.21420	41699
15.22233	45577
15.23045	43021
15.23858	42842
15.24670	42167
15.25482	44386
15.26295	45811
15.27107	43935
15.27920	41938
15.28732	38728
15.29543	40451
15.30357	39133
15.31168	39046
15.31980	39188
15.32793	41767
15.33605	42065
15.34418	40169
15.35230	41618
15.36042	45184
15.36855	41933
15.37667	43870
15.38480	41689
15.39292	42348
15.40103	43859
15.40917	40496
15.41728	43275
15.42542	38545
15.43353	43080
15.44165	37383
15.44978	46953
15.45790	41124
15.46602	38985
15.47415	39722
15.48227	40848
15.49040	47360
15.49852	40284
15.50663	45367
15.51477	39956
15.52288	44328
15.53102	40873
15.53913	38233
15.54725	41563
15.55538	42134
15.56350	39864
15.57162	37298
15.57975	42889
15.58787	42503
15.59600	43709
15.60412	40721
15.61223	40047
15.62037	40477
15.62848	38524
15.63662	42240
15.64473	41074
15.65285	41213
15.66098	46202
15.66910	46038
15.67723	41795
15.68535	39462
15.69347	41125
15.70160	40204
15.70972	42350
15.71783	40417
15.72597	42135
15.73408	39094
15.74222	47276
15.75033	41755
15.75845	41263
15.76658	42212
15.77470	42997
15.78283	43167
15.79095	44909
15.79907	46621
15.80720	40739
15.81532	40138
15.82345	47085
15.83157	46816
15.83968	47435
15.84782	47490
15.85593	43918
15.86405	43688
15.87218	41568
15.88030	39671
15.88843	47428
15.89655	45695
15.90467	44181
15.91280	42830
15.92092	45714
15.92905	42427
15.93717	45470
15.94528	42205
15.95342	45432
15.96153	42409
15.96965	42397
15.97778	43192
15.98590	46884
15.99403	45490
16.00215	48855
16.01027	54649
16.01840	55974
16.02652	54940
16.03465	59959
16.04277	52151
16.05088	51965
16.05902	53132
16.06713	50534
16.07527	47980
16.08338	47575
16.09150	46368
16.09963	47405
16.10775	45094
16.11587	48652
16.12400	48363
16.13212	46344
16.14025	49306
16.14837	42133
16.15648	42085
16.16462	41614
16.17273	46934
16.18087	43906
16.18898	48648
16.19710	44770
16.20523	42281
16.21335	43000
16.22147	45598
16.22960	43429
16.23772	46574
16.24585	48639
16.25397	44143
16.26208	46156
16.27022	47013
16.27833	47886
16.28647	46653
16.29458	46237
16.30270	46905
16.31083	46164
16.31895	51429
16.32708	54633
16.33520	56370
16.34332	56126
16.35145	53267
16.35957	53645
16.36768	52832
16.37582	48333
16.38393	45758
16.39207	50805
16.40018	48665
16.40830	46058
16.41643	43916
16.42455	46377
16.43268	43695
16.44080	49590
16.44892	48406
16.45705	45139
16.46517	45401
16.47330	42882
16.48142	50759
16.48953	44827
16.49767	46679
16.50578	42100
16.51390	47336
16.52203	46637
16.53015	47058
16.53828	44985
16.54640	47089
16.55452	45429
16.56265	46568
16.57077	49144
16.57890	50471
16.58702	49108
16.59513	50569
16.60327	47237
16.61138	44593
16.61950	46041
16.62763	48592
16.63575	43644
16.64388	47091
16.65200	43104
16.66012	46438
16.66825	44914
16.67637	47127
16.68450	45668
16.69262	42732
16.70073	43481
16.70887	43591
16.71698	43642
16.72512	43137
16.73323	45185
16.74135	44351
16.74948	42316
16.75760	45643
16.76572	43554
16.77385	45192
16.78197	44864
16.79010	43607
16.79822	47655
16.80633	43051
16.81447	44639
16.82258	44932
16.83072	45720
16.83883	45372
16.84695	44126
16.85508	44463
16.86320	44684
16.87133	48232
16.87945	47251
16.88757	48094
16.89570	48482
16.90382	45704
16.91193	40885
16.92007	43102
16.92818	43313
16.93632	42550
16.94443	44376
16.95255	45469
16.96068	44189
16.96880	44129
16.97693	43546
16.98505	45321
16.99317	49757
17.00130	46568
17.00942	47806
17.01753	49945
17.02567	45328
17.03378	45718
17.04192	43113
17.05003	49526
17.05815	45929
17.06628	48405
17.07440	50563
17.08253	47250
17.09065	48326
17.09877	48318
17.10690	46235
17.11502	44978
17.12315	46065
17.13127	46020
17.13938	45997
17.14752	49577
17.15563	47446
17.16375	52140
17.17188	46020
17.18000	46449
17.18813	46920
17.19625	49999
17.20437	46444
17.21250	42803
17.22062	46336
17.22875	43412
17.23687	47067
17.24498	45917
17.25312	47194
17.26123	46344
17.26935	44060
17.27748	44887
17.28560	45045
17.29373	45935
17.30185	45524
17.30997	45094
17.31810	44899
17.32622	46571
17.33435	46456
17.34247	47496
17.35058	51927
17.35872	55351
17.36683	55234
17.37497	57513
17.38308	58824
17.39120	62589
17.39933	57409
17.40745	57972
17.41557	56872
17.42370	61095
17.43182	58842
17.43995	55007
17.44807	57552
17.45618	54323
17.46432	52406
17.47243	54054
17.48057	52378
17.48868	50519
17.49680	53415
17.50493	54608
17.51305	49817
17.52118	57489
17.52930	58898
17.53742	74311
17.54555	71410
17.55367	81818
17.56178	81070
17.56992	84304
17.57803	74197
17.58617	71320
17.59428	61393
17.60240	64355
17.61053	56503
17.61865	53609
17.62678	50491
17.63490	49520
17.64302	51752
17.65115	49643
17.65927	53570
17.66740	54711
17.67552	55914
17.68363	57835
17.69177	58008
17.69988	60034
17.70800	57312
17.71613	55715
17.72425	53824
17.73238	52026
17.74050	53831
17.74862	50168
17.75675	53959
17.76487	53410
17.77300	49136
17.78112	48253
17.78923	49186
17.79737	49993
17.80548	49989
17.81360	50089
17.82173	51827
17.82985	54286
17.83798	56271
17.84610	54650
17.85422	59876
17.86235	59080
17.87047	56677
17.87860	52435
17.88672	53263
17.89483	52853
17.90297	48274
17.91108	48592
17.91922	49075
17.92733	49624
17.93545	49594
17.94358	47487
17.95170	48364
17.95982	47348
17.96795	43289
17.97607	48871
17.98420	47624
17.99232	49333
18.00043	47992
18.00857	48179
18.01668	51202
18.02482	46830
18.03293	54541
18.04105	52611
18.04918	54773
18.05730	61967
18.06542	59833
18.07355	52523
18.08167	56918
18.08980	59851
18.09792	62181
18.10603	61282
18.11417	60096
18.12228	62785
18.13042	60284
18.13853	58664
18.14665	59190
18.15478	59103
18.16290	56175
18.17103	59351
18.17915	55290
18.18727	57238
18.19540	53548
18.20352	56666
18.21163	55038
18.21977	57898
18.22788	59518
18.23602	57073
18.24413	59179
18.25225	59668
18.26038	59095
18.26850	61614
18.27663	60656
18.28475	55406
18.29287	52214
18.30100	51594
18.30912	57171
18.31725	52422
18.32537	53203
18.33348	54506
18.34162	62327
18.34973	54675
18.35785	56787
18.36598	61432
18.37410	57939
18.38223	62800
18.39035	68233
18.39847	62361
18.40660	61897
18.41472	60660
18.42285	64262
18.43097	65273
18.43908	58255
18.44722	60188
18.45533	57993
18.46345	61429
18.47158	62946
18.47970	58858
18.48783	56761
18.49595	55676
18.50407	58142
18.51220	60693
18.52032	58969
18.52845	55790
18.53657	59070
18.54468	60283
18.55282	56581
18.56093	56480
18.56907	54780
18.57718	50089
18.58530	57138
18.59343	53362
18.60155	58358
18.60967	56345
18.61780	57591
18.62592	60293
18.63405	63150
18.64217	54011
18.65028	58308
18.65842	50256
18.66653	53465
18.67467	55065
18.68278	53025
18.69090	58074
18.69903	51897
18.70715	53518
18.71528	51129
18.72340	52188
18.73152	54079
18.73965	51629
18.74777	50527
18.75588	50429
18.76402	48819
18.77213	48565
18.78027	48699
18.78838	48184
18.79650	48509
18.80463	49525
18.81275	48701
18.82088	47519
18.82900	47996
18.83712	54116
18.84525	50571
18.85337	45976
18.86148	48959
18.86962	48314
18.87773	49513
18.88587	51904
18.89398	59066
18.90210	51410
18.91023	55152
18.91835	49678
18.92648	52168
18.93460	52734
18.94272	52682
18.95085	47793
18.95897	46441
18.96710	47263
18.97522	49684
18.98333	49564
18.99147	48110
18.99958	49158
19.00770	49630
19.01583	49891
19.02395	52711
19.03208	53430
19.04020	55075
19.04832	52697
19.05645	51810
19.06457	46848
19.07270	51537
19.08082	49423
19.08893	57120
19.09707	61176
19.10518	61342
19.11330	65468
19.12143	65389
19.12955	64821
19.13768	64625
19.14580	66915
19.15392	68002
19.16205	73568
19.17017	78464
19.17830	70613
19.18642	70861
19.19453	62454
19.20267	64725
19.21078	62571
19.21892	58749
19.22703	56975
19.23515	54582
19.24328	51535
19.25140	48870
19.25952	55883
19.26765	54093
19.27577	53414
19.28390	55485
19.29202	59171
19.30013	60349
19.30827	59033
19.31638	57306
19.32452	58563
19.33263	58908
19.34075	57195
19.34888	53531
19.35700	49380
19.36513	50872
19.37325	52635
19.38137	48866
19.38950	52391
19.39762	55265
19.40573	56151
19.41387	54181
19.42198	53090
19.43012	64239
19.43823	75349
19.44635	99268
19.45448	150785
19.46260	225946
19.47073	298027
19.47885	351761
19.48697	353205
19.49510	290208
19.50322	202798
19.51133	142151
19.51947	99877
19.52758	78331
19.53572	67626
19.54383	66668
19.55195	60813
19.56008	59403
19.56820	57467
19.57633	59637
19.58445	58013
19.59257	58623
19.60070	57959
19.60882	55295
19.61695	61406
19.62507	64103
19.63318	71709
19.64132	92025
19.64943	115637
19.65755	135112
19.66568	146632
19.67380	156412
19.68193	136832
19.69005	125471
19.69817	106221
19.70630	100651
19.71442	87838
19.72255	85167
19.73067	74525
19.73878	68821
19.74692	68981
19.75503	62514
19.76317	62361
19.77128	60274
19.77940	56087
19.78753	58778
19.79565	57790
19.80377	59322
19.81190	55058
19.82002	53915
19.82815	53729
19.83627	56894
19.84438	58766
19.85252	56693
19.86063	60914
19.86877	63130
19.87688	74582
19.88500	85674
19.89313	106759
19.90125	142024
19.90937	158847
19.91750	179355
19.92562	189076
19.93375	194099
19.94187	179478
19.94998	176888
19.95812	180605
19.96623	171756
19.97437	171783
19.98248	163564
19.99060	158736
19.99873	160756
20.00685	156568
20.01498	140192
20.02310	138676
20.03122	136958
20.03935	124044
20.04747	114402
20.05558	102511
20.06372	89073
20.07183	79911
20.07997	74408
20.08808	70628
20.09620	71466
20.10433	67818
20.11245	71375
20.12058	64719
20.12870	61217
20.13682	71090
20.14495	68461
20.15307	61226
20.16120	61404
20.16932	66263
20.17743	67952
20.18557	71784
20.19368	74849
20.20180	73438
20.20993	71618
20.21805	80019
20.22618	85073
20.23430	89696
20.24242	105988
20.25055	109372
20.25867	133444
20.26680	147647
20.27492	160107
20.28303	144069
20.29117	138645
20.29928	122631
20.30740	105856
20.31553	96307
20.32365	83382
20.33178	79439
20.33990	73293
20.34802	72722
20.35615	67364
20.36427	67717
20.37240	62823
20.38052	63494
20.38863	63938
20.39677	68467
20.40488	64767
20.41302	72064
20.42113	75855
20.42925	80311
20.43738	79522
20.44550	78567
20.45362	75351
20.46175	76624
20.46987	72502
20.47800	68484
20.48612	67160
20.49423	68973
20.50237	63618
20.51048	60461
20.51862	58747
20.52673	59081
20.53485	60363
20.54298	57790
20.55110	61906
20.55922	52783
20.56735	54140
20.57547	59414
20.58360	59612
20.59172	60201
20.59983	56968
20.60797	61758
20.61608	60242
20.62422	58619
20.63233	56600
20.64045	62055
20.64858	58586
20.65670	58692
20.66483	58161
20.67295	66562
20.68107	58374
20.68920	64258
20.69732	62756
20.70543	61431
20.71357	59728
20.72168	59360
20.72982	60702
20.73793	64769
20.74605	61100
20.75418	59312
20.76230	61721
20.77043	62283
20.77855	64371
20.78667	62257
20.79480	62090
20.80292	66496
20.81105	60689
20.81917	62578
20.82728	61963
20.83542	62556
20.84353	62980
20.85165	63115
20.85978	60454
20.86790	61123
20.87603	66020
20.88415	60731
20.89227	64400
20.90040	65864
20.90852	66370
20.91665	66824
20.92477	64527
20.93288	70757
20.94102	68524
20.94913	66363
20.95725	73467
20.96538	70941
20.97350	74421
20.98163	74024
20.98975	77930
20.99787	70602
21.00600	71357
21.01412	71609
21.02225	75479
21.03037	70176
21.03848	75215
21.04662	72393
21.05473	74361
21.06287	77847
21.07098	72467
21.07910	73943
21.08723	73513
21.09535	71855
21.10347	78127
21.11160	73327
21.11972	71070
21.12785	79320
21.13597	76573
21.14408	72798
21.15222	75353
21.16033	74477
21.16847	78371
21.17658	75068
21.18470	76749
21.19283	76634
21.20095	76870
21.20908	77442
21.21720	77550
21.22532	74811
21.23345	79341
21.24157	74876
21.24968	80153
21.25782	82114
21.26593	79523
21.27407	80197
21.28218	84104
21.29030	80802
21.29843	77920
21.30655	74596
21.31468	80017
21.32280	73454
21.33092	75696
21.33905	73829
21.34717	70619
21.35528	68520
21.36342	74447
21.37153	72084
21.37967	73520
21.38778	77440
21.39590	72311
21.40403	76066
21.41215	68504
21.42028	71067
21.42840	75355
21.43652	70951
21.44465	71119
21.45277	70680
21.46090	71201
21.46902	70583
21.47713	74521
21.48527	68779
21.49338	73637
21.50150	73502
21.50963	75391
21.51775	80017
21.52588	70800
21.53400	74459
21.54212	75256
21.55025	68551
21.55837	68417
21.56650	72103
21.57462	73249
21.58273	76823
21.59087	78681
21.59898	85845
21.60710	99258
21.61523	101805
21.62335	103133
21.63148	105799
21.63960	95002
21.64772	92663
21.65585	83162
21.66397	78997
21.67210	75724
21.68022	70810
21.68833	63313
21.69647	70960
21.70458	68904
21.71272	69401
21.72083	68961
21.72895	66873
21.73708	64936
21.74520	66655
21.75332	68298
21.76145	71678
21.76957	71062
21.77770	71314
21.78582	74480
21.79393	77934
21.80207	82032
21.81018	90093
21.81832	88488
21.82643	87103
21.83455	83143
21.84268	76413
21.85080	73562
21.85893	66828
21.86705	62902
21.87517	65805
21.88330	63092
21.89142	68728
21.89953	63538
21.90767	62365
21.91578	66062
21.92392	63229
21.93203	62576
21.94015	65304
21.94828	63767
21.95640	59063
21.96453	58989
21.97265	56990
21.98077	54406
21.98890	52595
21.99702	56538
22.00515	50434
22.01327	53092
22.02138	53743
22.02952	60361
22.03763	60723
22.04575	61138
22.05388	59289
22.06200	60593
22.07013	55605
22.07825	59403
22.08637	59544
22.09450	60205
22.10262	66143
22.11075	63018
22.11887	56748
22.12698	57793
22.13512	60262
22.14323	57469
22.15135	59296
22.15948	58201
22.16760	53389
22.17573	55127
22.18385	55281
22.19197	59453
22.20010	59271
22.20822	60056
22.21635	59096
22.22447	59453
22.23258	56040
22.24072	57644
22.24883	50184
22.25697	50200
22.26508	53156
22.27320	56907
22.28133	52958
22.28945	50911
22.29757	53520
22.30570	57961
22.31382	53156
22.32195	54156
22.33007	56414
22.33818	55030
22.34632	54786
22.35443	56966
22.36257	54946
22.37068	48810
22.37880	51496
22.38693	51643
22.39505	54356
22.40317	53406
22.41130	51914
22.41942	51937
22.42755	54025
22.43567	53607
22.44378	53114
22.45192	51467
22.46003	50760
22.46817	53190
22.47628	50480
22.48440	50209
22.49253	48282
22.50065	47958
22.50878	53785
22.51690	53863
22.52502	50125
22.53315	51172
22.54127	55001
22.54938	52266
22.55752	52443
22.56563	50893
22.57377	53340
22.58188	49405
22.59000	49169
22.59813	51135
22.60625	53484
22.61438	48787
22.62250	49123
22.63062	50306
22.63875	50170
22.64687	51412
22.65500	48779
22.66312	48513
22.67123	49285
22.67937	49678
22.68748	49019
22.69560	50100
22.70373	51642
22.71185	49986
22.71998	55208
22.72810	49038
22.73622	54056
22.74435	51344
22.75247	49827
22.76060	52785
22.76872	55250
22.77683	52355
22.78497	54361
22.79308	49343
22.80120	57795
22.80933	55167
22.81745	53811
22.82558	54105
22.83370	53766
22.84182	48857
22.84995	55597
22.85807	60474
22.86620	57936
22.87432	55935
22.88243	59781
22.89057	59994
22.89868	60851
22.90682	64258
22.91493	68050
22.92305	73868
22.93118	81776
22.93930	81647
22.94742	79085
22.95555	85231
22.96367	80519
22.97180	72601
22.97992	72320
22.98803	70457
22.99617	68474
23.00428	63979
23.01242	63126
23.02053	65052
23.02865	62001
23.03678	58952
23.04490	57112
23.05303	58228
23.06115	54595
23.06927	52523
23.07740	56555
23.08552	57228
23.09363	56402
23.10177	53303
23.10988	51626
23.11802	52793
23.12613	52459
23.13425	53139
23.14238	53765
23.15050	52029
23.15863	53376
23.16675	52508
23.17487	55553
23.18300	54440
23.19112	50384
23.19923	51183
23.20737	53717
23.21548	53077
23.22362	49595
23.23173	52605
23.23985	51069
23.24798	50548
23.25610	50639
23.26423	50951
23.27235	52906
23.28047	52640
23.28860	53144
23.29672	54742
23.30485	56535
23.31297	53408
23.32108	54399
23.32922	56160
23.33733	55259
23.34545	52690
23.35358	56383
23.36170	54653
23.36983	57602
23.37795	57552
23.38607	60157
23.39420	56243
23.40232	58184
23.41045	56467
23.41857	56990
23.42668	56278
23.43482	55941
23.44293	55814
23.45105	54586
23.45918	55643
23.46730	54953
23.47543	52744
23.48355	55119
23.49167	52315
23.49980	56738
23.50792	58831
23.51605	57780
23.52417	56333
23.53228	54635
23.54042	52243
23.54853	60225
23.55667	60756
23.56478	55571
23.57290	59885
23.58103	58707
23.58915	59893
23.59727	61754
23.60540	61664
23.61352	62027
23.62165	66640
23.62977	66709
23.63788	60248
23.64602	68648
23.65413	68980
23.66227	68713
23.67038	69217
23.67850	76219
23.68663	79356
23.69475	79215
23.70288	77923
23.71100	73157
23.71912	82962
23.72725	85390
23.73537	104597
23.74348	164492
23.75162	335853
23.75973	728981
23.76787	1351536
23.77598	2183975
23.78410	2779752
23.79223	2939992
23.80035	2723788
23.80848	2201375
23.81660	1692995
23.82472	1261399
23.83285	920409
23.84097	699167
23.84908	562719
23.85722	458950
23.86533	376420
23.87347	328416
23.88158	298238
23.88970	257571
23.89783	244717
23.90595	216766
23.91408	196093
23.92220	191259
23.93032	184472
23.93845	168505
23.94657	162074
23.95470	154408
23.96282	145011
23.97093	140385
23.97907	141674
23.98718	133595
23.99530	132368
24.00343	131690
24.01155	126858
24.01968	120471
24.02780	118642
24.03592	111988
24.04405	112043
24.05217	107904
24.06030	108183
24.06842	104688
24.07653	109334
24.08467	109583
24.09278	103268
24.10092	107155
24.10903	106026
24.11715	109401
24.12528	101353
24.13340	93919
24.14152	99795
24.14965	102162
24.15777	102278
24.16590	98981
24.17402	98822
24.18213	102536
24.19027	109285
24.19838	114367
24.20652	108605
24.21463	99168
24.22275	97543
24.23088	91039
24.23900	88274
24.24712	85998
24.25525	80710
24.26337	85103
24.27150	82802
24.27962	80618
24.28773	77861
24.29587	79425
24.30398	75785
24.31212	77074
24.32023	77395
24.32835	89203
24.33648	102735
24.34460	137454
24.35273	183629
24.36085	226625
24.36897	258735
24.37710	245668
24.38522	201695
24.39333	145921
24.40147	103802
24.40958	81366
24.41772	79292
24.42583	74527
24.43395	76208
24.44208	76434
24.45020	77360
24.45833	77361
24.46645	79575
24.47457	87095
24.48270	87786
24.49082	91558
24.49893	84863
24.50707	78225
24.51518	77664
24.52332	73160
24.53143	77326
24.53955	70824
24.54768	65017
24.55580	69530
24.56393	68684
24.57205	64147
24.58017	68620
24.58830	68349
24.59642	67300
24.60455	65908
24.61267	66922
24.62078	64165
24.62892	65874
24.63703	65158
24.64515	65424
24.65328	67290
24.66140	66211
24.66953	67182
24.67765	66554
24.68577	64263
24.69390	58444
24.70202	63594
24.71015	62557
24.71827	59365
24.72638	61460
24.73452	59066
24.74263	58815
24.75077	61055
24.75888	58493
24.76700	63047
24.77513	55285
24.78325	59871
24.79137	59189
24.79950	63736
24.80762	63956
24.81575	60749
24.82387	62142
24.83198	59931
24.84012	61499
24.84823	55406
24.85637	61165
24.86448	62558
24.87260	61269
24.88073	59905
24.88885	60267
24.89697	59121
24.90510	57239
24.91322	57414
24.92135	59703
24.92947	56986
24.93758	57618
24.94572	57334
24.95383	58576
24.96197	55250
24.97008	57160
24.97820	55598
24.98633	55631
24.99445	56444
25.00258	55240
25.01070	58244
25.01882	53459
25.02695	55356
25.03507	54334
25.04318	53742
25.05132	53188
25.05943	54141
25.06757	57219
25.07568	53947
25.08380	54872
25.09193	57317
25.10005	53098
25.10818	58274
25.11630	54493
25.12442	64086
25.13255	66424
25.14067	71235
25.14880	71767
25.15692	71134
25.16503	73367
25.17317	71590
25.18128	68885
25.18940	61691
25.19753	57966
25.20565	60193
25.21378	58955
25.22190	57187
25.23002	56760
25.23815	53849
25.24627	54522
25.25440	57630
25.26252	57673
25.27063	54888
25.27877	59738
25.28688	62750
25.29500	69054
25.30313	73917
25.31125	76693
25.31938	80726
25.32750	75914
25.33562	74986
25.34375	68821
25.35187	67306
25.36000	64260
25.36812	61042
25.37623	56920
25.38437	52059
25.39248	55174
25.40062	53444
25.40873	54714
25.41685	55089
25.42498	56322
25.43310	52802
25.44122	60087
25.44935	57089
25.45747	53103
25.46560	54404
25.47372	51409
25.48183	53367
25.48997	53263
25.49808	51254
25.50622	52516
25.51433	52887
25.52245	50404
25.53058	50606
25.53870	53542
25.54683	48577
25.55495	49275
25.56307	53448
25.57120	51655
25.57932	48860
25.58743	49357
25.59557	48780
25.60368	47533
25.61182	50834
25.61993	52743
25.62805	48793
25.63618	46137
25.64430	51396
25.65243	45278
25.66055	49422
25.66867	48768
25.67680	45691
25.68492	49894
25.69303	48158
25.70117	45943
25.70928	47782
25.71742	50363
25.72553	53678
25.73365	51062
25.74178	49155
25.74990	50611
25.75803	48011
25.76615	49217
25.77427	48686
25.78240	51146
25.79052	52308
25.79865	48397
25.80677	45987
25.81488	48800
25.82302	49004
25.83113	46253
25.83925	50112
25.84738	47440
25.85550	48168
25.86363	47617
25.87175	50988
25.87987	48393
25.88800	45432
25.89612	46359
25.90425	48195
25.91237	47118
25.92048	49523
25.92862	45212
25.93673	45094
25.94485	46498
25.95298	49896
25.96110	47343
25.96923	48319
25.97735	45581
25.98547	48608
25.99360	49976
26.00172	45979
26.00985	46400
26.01797	45726
26.02608	48919
26.03422	45582
26.04233	51012
26.05047	43803
26.05858	43310
26.06670	46657
26.07483	47768
26.08295	48049
26.09107	51073
26.09920	53452
26.10732	55461
26.11545	57696
26.12357	63358
26.13168	64627
26.13982	72589
26.14793	72756
26.15607	69722
26.16418	67474
26.17230	66061
26.18043	62070
26.18855	56470
26.19668	59818
26.20480	56563
26.21292	56369
26.22105	54013
26.22917	54664
26.23728	51095
26.24542	49309
26.25353	49981
26.26167	48158
26.26978	50025
26.27790	49964
26.28603	45465
26.29415	50105
26.30228	46454
26.31040	47696
26.31852	50710
26.32665	45725
26.33477	48417
26.34288	45131
26.35102	48869
26.35913	47300
26.36727	49603
26.37538	49734
26.38350	48418
26.39163	50495
26.39975	49744
26.40788	48717
26.41600	48955
26.42412	54459
26.43225	49545
26.44037	53189
26.44850	52957
26.45662	46854
26.46473	50105
26.47287	50240
26.48098	48372
26.48910	47547
26.49723	48714
26.50535	49200
26.51348	48885
26.52160	46934
26.52972	47760
26.53785	44896
26.54597	47036
26.55410	50208
26.56222	47080
26.57033	46751
26.57847	49831
26.58658	51298
26.59472	52237
26.60283	45232
26.61095	50267
26.61908	50355
26.62720	49548
26.63532	47234
26.64345	47725
26.65157	50183
26.65970	52179
26.66782	52268
26.67593	51504
26.68407	48562
26.69218	49490
26.70032	49420
26.70843	50452
26.71655	48330
26.72468	48837
26.73280	51689
26.74092	50892
26.74905	50769
26.75717	52604
26.76530	46295
26.77342	51476
26.78153	51556
26.78967	53984
26.79778	55642
26.80592	57834
26.81403	55329
26.82215	56097
26.83028	57730
26.83840	48506
26.84653	49919
26.85465	52355
26.86277	47901
26.87090	52026
26.87902	53513
26.88713	48084
26.89527	51801
26.90338	53826
26.91152	54044
26.91963	55724
26.92775	55967
26.93588	59058
26.94400	60053
26.95213	85654
26.96025	125813
26.96837	213031
26.97650	365213
26.98462	580679
26.99273	835510
27.00087	1102739
27.00898	1269323
27.01712	1280496
27.02523	1156742
27.03335	931586
27.04148	728021
27.04960	542491
27.05773	399917
27.06585	326825
27.07397	263856
27.08210	226569
27.09022	202177
27.09835	178380
27.10647	164703
27.11458	150055
27.12272	134554
27.13083	127130
27.13895	117295
27.14708	117434
27.15520	111767
27.16333	112311
27.17145	113388
27.17957	101149
27.18770	98478
27.19582	90958
27.20395	93492
27.21207	91749
27.22018	83026
27.22832	81704
27.23643	79178
27.24457	80412
27.25268	84772
27.26080	81578
27.26893	73849
27.27705	73769
27.28517	70860
27.29330	70424
27.30142	71607
27.30955	76007
27.31767	69755
27.32578	69901
27.33392	70634
27.34203	67064
27.35017	69986
27.35828	70856
27.36640	70210
27.37453	66524
27.38265	65560
27.39077	64354
27.39890	66439
27.40702	68511
27.41515	69735
27.42327	68681
27.43138	62860
27.43952	64133
27.44763	60683
27.45577	63488
27.46388	62957
27.47200	64770
27.48013	58918
27.48825	66139
27.49638	64755
27.50450	62740
27.51262	65013
27.52075	64324
27.52887	67317
27.53698	65496
27.54512	57998
27.55323	61720
27.56137	59153
27.56948	55221
27.57760	65508
27.58573	59814
27.59385	59756
27.60198	54659
27.61010	55188
27.61822	58333
27.62635	59582
27.63447	55090
27.64260	57653
27.65072	57382
27.65883	55826
27.66697	56016
27.67508	53227
27.68320	60711
27.69133	53873
27.69945	54277
27.70758	57743
27.71570	58048
27.72382	58514
27.73195	62679
27.74007	65218
27.74820	64327
27.75632	64712
27.76443	62832
27.77257	59910
27.78068	59250
27.78880	57550
27.79693	57493
27.80505	55678
27.81318	56281
27.82130	63314
27.82942	61981
27.83755	56533
27.84567	64609
27.85380	58965
27.86192	65089
27.87003	54747
27.87817	54976
27.88628	55986
27.89442	56560
27.90253	57762
27.91065	50090
27.91878	57519
27.92690	54076
27.93502	56951
27.94315	51152
27.95127	52873
27.95940	55221
27.96752	56998
27.97563	58128
27.98377	58194
27.99188	58306
28.00002	58172
28.00813	58734
28.01625	58885
28.02438	58155
28.03250	57741
28.04062	59090
28.04875	52913
28.05687	57619
28.06500	56967
28.07312	63531
28.08123	67372
28.08937	77598
28.09748	90285
28.10562	104447
28.11373	113817
28.12185	108936
28.12998	97313
28.13810	93877
28.14623	84658
28.15435	77083
28.16247	67954
28.17060	66566
28.17872	61740
28.18683	63240
28.19497	58073
28.20308	56144
28.21122	56447
28.21933	56206
28.22745	54243
28.23558	57957
28.24370	57586
28.25183	63209
28.25995	72189
28.26807	92071
28.27620	123483
28.28432	166649
28.29245	226016
28.30057	280013
28.30868	348167
28.31682	389830
28.32493	423497
28.33305	449765
28.34118	440600
28.34930	423124
28.35743	376466
28.36555	335339
28.37367	304080
28.38180	272600
28.38992	237764
28.39805	208860
28.40617	188130
28.41428	167112
28.42242	149109
28.43053	144796
28.43867	136489
28.44678	122842
28.45490	108040
28.46303	111532
28.47115	111384
28.47927	101364
28.48740	98045
28.49552	94595
28.50365	87781
28.51177	89044
28.51988	95220
28.52802	86514
28.53613	90755
28.54427	85464
28.55238	86314
28.56050	80842
28.56863	84465
28.57675	82199
28.58487	80856
28.59300	79582
28.60112	78206
28.60925	76134
28.61737	74070
28.62548	79942
28.63362	80882
28.64173	84967
28.64987	81151
28.65798	86604
28.66610	92054
28.67423	89800
28.68235	91472
28.69048	88409
28.69860	89152
28.70672	94684
28.71485	109181
28.72297	131389
28.73108	146742
28.73922	152212
28.74733	141650
28.75547	124576
28.76358	98458
28.77170	88168
28.77983	75441
28.78795	68016
28.79608	68051
28.80420	67048
28.81232	72047
28.82045	58201
28.82857	67683
28.83668	65435
28.84482	63811
28.85293	65920
28.86107	64253
28.86918	68154
28.87730	61863
28.88543	63738
28.89355	62578
28.90168	61111
28.90980	63465
28.91792	64040
28.92605	64438
28.93417	66428
28.94230	67615
28.95042	66799
28.95853	64702
28.96667	66539
28.97478	67631
28.98290	69125
28.99103	68066
28.99915	67977
29.00728	63325
29.01540	63187
29.02352	65207
29.03165	65632
29.03977	64747
29.04790	62615
29.05602	63153
29.06413	63657
29.07227	59922
29.08038	58797
29.08852	57700
29.09663	62436
29.10475	60461
29.11288	56677
29.12100	60994
29.12912	60386
29.13725	62763
29.14537	68602
29.15350	66665
29.16162	65715
29.16973	59298
29.17787	59344
29.18598	61529
29.19412	59754
29.20223	63389
29.21035	64854
29.21848	68267
29.22660	69021
29.23472	63395
29.24285	72940
29.25097	72340
29.25910	69658
29.26722	71613
29.27533	70874
29.28347	71084
29.29158	69779
29.29972	69694
29.30783	69369
29.31595	71838
29.32408	63641
29.33220	62195
29.34033	62151
29.34845	66202
29.35657	65486
29.36470	62289
29.37282	63541
29.38093	57856
29.38907	61418
29.39718	59372
29.40532	59758
29.41343	64269
29.42155	60712
29.42968	64648
29.43780	63159
29.44593	64583
29.45405	58497
29.46217	61544
29.47030	61846
29.47842	65676
29.48655	66872
29.49467	70643
29.50278	71145
29.51092	73144
29.51903	71012
29.52715	69834
29.53528	69194
29.54340	70572
29.55153	64906
29.55965	66729
29.56777	62170
29.57590	73218
29.58402	76177
29.59215	87947
29.60027	91502
29.60838	88680
29.61652	84009
29.62463	76015
29.63275	72926
29.64088	72976
29.64900	69884
29.65713	61779
29.66525	62991
29.67337	62274
29.68150	56945
29.68962	62413
29.69775	65357
29.70587	61346
29.71398	62478
29.72212	59918
29.73023	62695
29.73837	66755
29.74648	62519
29.75460	61208
29.76273	61621
29.77085	63933
29.77897	58394
29.78710	62894
29.79522	65176
29.80335	62664
29.81147	64949
29.81958	61215
29.82772	59813
29.83583	60018
29.84397	64160
29.85208	63967
29.86020	62757
29.86833	62062
29.87645	65866
29.88457	72791
29.89270	83056
29.90082	92258
29.90895	112397
29.91707	129027
29.92518	156934
29.93332	164727
29.94143	196829
29.94957	206157
29.95768	223400
29.96580	232802
29.97393	234980
29.98205	233780
29.99018	226753
29.99830	214349
30.00642	193344
30.01455	183001
30.02267	171857
30.03078	169469
30.03892	155955
30.04703	143384
30.05517	139034
30.06328	134636
30.07140	124567
30.07953	116149
30.08765	110838
30.09578	109772
30.10390	97093
30.11202	102776
30.12015	95932
30.12827	96097
30.13640	88541
30.14452	89484
30.15263	87986
30.16077	93145
30.16888	80850
30.17700	81183
30.18513	79530
30.19325	76579
30.20138	79655
30.20950	80117
30.21762	78937
30.22575	75051
30.23387	79115
30.24200	71025
30.25012	74609
30.25823	79255
30.26637	76221
30.27448	76433
30.28260	73490
30.29073	69931
30.29885	73108
30.30698	74483
30.31510	75330
30.32322	71595
30.33135	69494
30.33947	73462
30.34760	70875
30.35572	69241
30.36383	68407
30.37197	72228
30.38008	67839
30.38822	70781
30.39633	76471
30.40445	72347
30.41258	70807
30.42070	71168
30.42882	68548
30.43695	71960
30.44507	68485
30.45320	72269
30.46132	70312
30.46943	69987
30.47757	71553
30.48568	68737
30.49382	69150
30.50193	71882
30.51005	65948
30.51818	69974
30.52630	73186
30.53443	68160
30.54255	68058
30.55067	68086
30.55880	70824
30.56692	68253
30.57503	67856
30.58317	69894
30.59128	63984
30.59942	70486
30.60753	69295
30.61565	64259
30.62378	66374
30.63190	66738
30.64003	67473
30.64815	62766
30.65627	72380
30.66440	70494
30.67252	67051
30.68063	66344
30.68877	66648
30.69688	67544
30.70502	65435
30.71313	62848
30.72125	70687
30.72938	72302
30.73750	68831
30.74563	61864
30.75375	63699
30.76187	64447
30.77000	68401
30.77812	66910
30.78625	68597
30.79437	69314
30.80248	71004
30.81062	71203
30.81873	73755
30.82685	71409
30.83498	69374
30.84310	68729
30.85123	66795
30.85935	65333
30.86747	66174
30.87560	67649
30.88372	70817
30.89185	67653
30.89997	64205
30.90808	64349
30.91622	66975
30.92433	65703
30.93247	65583
30.94058	65407
30.94870	59392
30.95683	66072
30.96495	66560
30.97307	63737
30.98120	69496
30.98932	63259
30.99745	68368
31.00557	64450
31.01368	67125
31.02182	68916
31.02993	67734
31.03807	69287
31.04618	67730
31.05430	67834
31.06243	66211
31.07055	66892
31.07867	78436
31.08680	81598
31.09492	76273
31.10305	84326
31.11117	83991
31.11928	77083
31.12742	78066
31.13553	74897
31.14367	72464
31.15178	70563
31.15990	79516
31.16803	91487
31.17615	114797
31.18428	155605
31.19240	211466
31.20052	264096
31.20865	307069
31.21677	326348
31.22488	315692
31.23302	276465
31.24113	214383
31.24927	161195
31.25738	120609
31.26550	94305
31.27363	83194
31.28175	80476
31.28988	75597
31.29800	72211
31.30612	75762
31.31425	68366
31.32237	69637
31.33048	73498
31.33862	70381
31.34673	72048
31.35487	69173
31.36298	74917
31.37110	70035
31.37923	69241
31.38735	75641
31.39548	70488
31.40360	77736
31.41172	67405
31.41985	67907
31.42797	66908
31.43610	67400
31.44422	65815
31.45233	64919
31.46047	64767
31.46858	64006
31.47670	64815
31.48483	64677
31.49295	69430
31.50108	65211
31.50920	71686
31.51732	67661
31.52545	66123
31.53357	68246
31.54170	67958
31.54982	72248
31.55793	69999
31.56607	71275
31.57418	69543
31.58232	70281
31.59043	65381
31.59855	65879
31.60668	70568
31.61480	71575
31.62292	68479
31.63105	66848
31.63917	68577
31.64730	68287
31.65542	72675
31.66353	74445
31.67167	76132
31.67978	80902
31.68792	85119
31.69603	79544
31.70415	81101
31.71228	81289
31.72040	76301
31.72852	76597
31.73665	77388
31.74477	71197
31.75290	71454
31.76102	71498
31.76913	70925
31.77727	71250
31.78538	72765
31.79352	75533
31.80163	80653
31.80975	77813
31.81788	75288
31.82600	80080
31.83413	78820
31.84225	83101
31.85037	89191
31.85850	94287
31.86662	107508
31.87473	129581
31.88287	136930
31.89098	151004
31.89912	159111
31.90723	151433
31.91535	156140
31.92348	164968
31.93160	162625
31.93973	154878
31.94785	148528
31.95597	138474
31.96410	130229
31.97222	130805
31.98035	128860
31.98847	113344
31.99658	110164
32.00472	110077
32.01283	105591
32.02095	106390
32.02908	106564
32.03720	105744
32.04533	102836
32.05345	97788
32.06157	93030
32.06970	88759
32.07782	87424
32.08595	84902
32.09407	87206
32.10218	81933
32.11032	84824
32.11843	83194
32.12655	81586
32.13468	79611
32.14280	78602
32.15093	77889
32.15905	73654
32.16717	79421
32.17530	80900
32.18342	73759
32.19155	72803
32.19967	76604
32.20778	75883
32.21592	77690
32.22403	75499
32.23217	81642
32.24028	77471
32.24840	75170
32.25653	79406
32.26465	79564
32.27277	80233
32.28090	77667
32.28902	73815
32.29715	75361
32.30527	75564
32.31338	75943
32.32152	73629
32.32963	79477
32.33777	76429
32.34588	81611
32.35400	76802
32.36213	79123
32.37025	80835
32.37837	80981
32.38650	81907
32.39462	72562
32.40275	71795
32.41087	77893
32.41898	74571
32.42712	79590
32.43523	79484
32.44337	72914
32.45148	72594
32.45960	77080
32.46773	75072
32.47585	72100
32.48398	75808
32.49210	76416
32.50022	75918
32.50835	74376
32.51647	70347
32.52458	81283
32.53272	72612
32.54083	73928
32.54897	73918
32.55708	77473
32.56520	74836
32.57333	77820
32.58145	79426
32.58958	77932
32.59770	83699
32.60582	100319
32.61395	120814
32.62207	131545
32.63020	137600
32.63832	135361
32.64643	113311
32.65457	101630
32.66268	91676
32.67080	86692
32.67893	87372
32.68705	85343
32.69518	78331
32.70330	80988
32.71142	84096
32.71955	78325
32.72767	80622
32.73580	82142
32.74392	80792
32.75203	78681
32.76017	78499
32.76828	75514
32.77642	71614
32.78453	70649
32.79265	73929
32.80078	77916
32.80890	71736
32.81702	76458
32.82515	76838
32.83327	76203
32.84140	71747
32.84952	75240
32.85763	78397
32.86577	74766
32.87388	75627
32.88202	73769
32.89013	76612
32.89825	76111
32.90638	73764
32.91450	74032
32.92262	73708
32.93075	78967
32.93887	80308
32.94700	76391
32.95512	76479
32.96323	77268
32.97137	78213
32.97948	75181
32.98762	80493
32.99573	78035
33.00385	75332
33.01198	78081
33.02010	75228
33.02823	78241
33.03635	73501
33.04447	73300
33.05260	77059
33.06072	72470
33.06883	78374
33.07697	80906
33.08508	80719
33.09322	79826
33.10133	91582
33.10945	90047
33.11758	96585
33.12570	90156
33.13383	96932
33.14195	91934
33.15007	85906
33.15820	83080
33.16632	81244
33.17443	76980
33.18257	81038
33.19068	75769
33.19882	77726
33.20693	74855
33.21505	76662
33.22318	79968
33.23130	75427
33.23943	77087
33.24755	80021
33.25567	77711
33.26380	77222
33.27192	77805
33.28005	81794
33.28817	77261
33.29628	78862
33.30442	75267
33.31253	71666
33.32065	81417
33.32878	79356
33.33690	75146
33.34503	80642
33.35315	77854
33.36127	77069
33.36940	82791
33.37752	79584
33.38565	78699
33.39377	77135
33.40188	79611
33.41002	77419
33.41813	73731
33.42627	75218
33.43438	78731
33.44250	83415
33.45063	76292
33.45875	83615
33.46687	79484
33.47500	79465
33.48312	78912
33.49125	83070
33.49937	78965
33.50748	77418
33.51562	79511
33.52373	76429
33.53187	77564
33.53998	78730
33.54810	82776
33.55623	79814
33.56435	75031
33.57247	85643
33.58060	77616
33.58872	77488
33.59685	77023
33.60497	75547
33.61308	82897
33.62122	83069
33.62933	80236
33.63747	78828
33.64558	85809
33.65370	81034
33.66183	81001
33.66995	79955
33.67808	80225
33.68620	80984
33.69432	82606
33.70245	80231
33.71057	78266
33.71868	81521
33.72682	82208
33.73493	82855
33.74307	86966
33.75118	86992
33.75930	85233
33.76743	86244
33.77555	86417
33.78368	83923
33.79180	87385
33.79992	96550
33.80805	88181
33.81617	81963
33.82430	85915
33.83242	89013
33.84053	84778
33.84867	86772
33.85678	90526
33.86490	91044
33.87303	89375
33.88115	98048
33.88928	96742
33.89740	100291
33.90552	111120
33.91365	114504
33.92177	111950
33.92990	111963
33.93802	118914
33.94613	114719
33.95427	123421
33.96238	126795
33.97050	128071
33.97863	124535
33.98675	123679
33.99488	127583
34.00300	127358
34.01112	127625
34.01925	124013
34.02737	116576
34.03550	121805
34.04362	119597
34.05173	115725
34.05987	115675
34.06798	113856
34.07612	109668
34.08423	114838
34.09235	106967
34.10048	106595
34.10860	108582
34.11672	102386
34.12485	101291
34.13297	94213
34.14110	99589
34.14922	98095
34.15733	96816
34.16547	94465
34.17358	96023
34.18172	91051
34.18983	96513
34.19795	96187
34.20608	93301
34.21420	85644
34.22232	93311
34.23045	92285
34.23857	89691
34.24670	89113
34.25482	90415
34.26293	91621
34.27107	91389
34.27918	91978
34.28732	90976
34.29543	92955
34.30355	90554
34.31168	102762
34.31980	96906
34.32793	92236
34.33605	95305
34.34417	96502
34.35230	93989
34.36042	96374
34.36853	93374
34.37667	98522
34.38478	93408
34.39292	93558
34.40103	89575
34.40915	92534
34.41728	92866
34.42540	96100
34.43353	91885
34.44165	91297
34.44977	100347
34.45790	109862
34.46602	113858
34.47415	133180
34.48227	143809
34.49038	162825
34.49852	175394
34.50663	183177
34.51475	181943
34.52288	177891
34.53100	168443
34.53913	154412
34.54725	149438
34.55537	140904
34.56350	133859
34.57162	129929
34.57975	124757
34.58787	122970
34.59598	121765
34.60412	117624
34.61223	114424
34.62035	113722
34.62848	114323
34.63660	109177
34.64473	109843
34.65285	110626
34.66097	109673
34.66910	110982
34.67722	111247
34.68535	112028
34.69347	112419
34.70158	111171
34.70972	112778
34.71783	104650
34.72597	104666
34.73408	109964
34.74220	110825
34.75033	109995
34.75845	111079
34.76657	108496
34.77470	112021
34.78282	114864
34.79095	112659
34.79907	112106
34.80718	107031
34.81532	111915
34.82343	109370
34.83157	109638
34.83968	110330
34.84780	104626
34.85593	102698
34.86405	105569
34.87218	110057
34.88030	109513
34.88842	103760
34.89655	101664
34.90467	106827
34.91278	106621
34.92092	109503
34.92903	106363
34.93717	110789
34.94528	110218
34.95340	105399
34.96153	105030
34.96965	107548
34.97778	105618
34.98590	112360
34.99402	104325
35.00215	108295
35.01027	112133
35.01838	104193
35.02652	100517
35.03463	102379
35.04277	100512
35.05088	101454
35.05900	106435
35.06713	104212
35.07525	100405
35.08338	109348
35.09150	103114
35.09962	102490
35.10775	111471
35.11587	105315
35.12400	103270
35.13212	108926
35.14023	106687
35.14837	108481
35.15648	109089
35.16460	111205
35.17273	110869
35.18085	108498
35.18898	104815
35.19710	109745
35.20522	110401
35.21335	102602
35.22147	103480
35.22960	102753
35.23772	107804
35.24583	105797
35.25397	109517
35.26208	111516
35.27022	112004
35.27833	108937
35.28645	109869
35.29458	112095
35.30270	107248
35.31082	104743
35.31895	105162
35.32707	109144
35.33520	105450
35.34332	107773
35.35143	106903
35.35957	105811
35.36768	106192
35.37582	107431
35.38393	109819
35.39205	102263
35.40018	106802
35.40830	104628
35.41642	108959
35.42455	112720
35.43267	116139
35.44080	115067
35.44892	118889
35.45703	116483
35.46517	118434
35.47328	116395
35.48142	117100
35.48953	113957
35.49765	116902
35.50578	116050
35.51390	115108
35.52203	111244
35.53015	108623
35.53827	112178
35.54640	107025
35.55452	114430
35.56263	108496
35.57077	114573
35.57888	113748
35.58702	115091
35.59513	111985
35.60325	114052
35.61138	113782
35.61950	117353
35.62763	117052
35.63575	120559
35.64387	117641
35.65200	116755
35.66012	116315
35.66823	115584
35.67637	116750
35.68448	115247
35.69262	114402
35.70073	110965
35.70885	114338
35.71698	111576
35.72510	110536
35.73323	112715
35.74135	115114
35.74947	114550
35.75760	112815
35.76572	121537
35.77385	110928
35.78197	114759
35.79008	115107
35.79822	115631
35.80633	118601
35.81445	115633
35.82258	122913
35.83070	123182
35.83883	110984
35.84695	115681
35.85507	118991
35.86320	112656
35.87132	112657
35.87945	110209
35.88757	120062
35.89568	113380
35.90382	116632
35.91193	119169
35.92007	119843
35.92818	117473
35.93630	115855
35.94443	115041
35.95255	123784
35.96067	120291
35.96880	125996
35.97692	120993
35.98505	128564
35.99317	124548
36.00128	120872
36.00942	127505
36.01753	123106
36.02567	137729
36.03378	130768
36.04190	130609
36.05003	133991
36.05815	128956
36.06627	127698
36.07440	124810
36.08252	127260
36.09065	127234
36.09877	119848
36.10688	125692
36.11502	118095
36.12313	121575
36.13127	125228
36.13938	128626
36.14750	127800
36.15563	125302
36.16375	126304
36.17188	127247
36.18000	122035
36.18812	122274
36.19625	125110
36.20437	119384
36.21248	121563
36.22062	122480
36.22873	125806
36.23687	128299
36.24498	141142
36.25310	161683
36.26123	172031
36.26935	193416
36.27748	203410
36.28560	191839
36.29372	176136
36.30185	152729
36.30997	137677
36.31810	133106
36.32622	130661
36.33433	124374
36.34247	126520
36.35058	125320
36.35870	124802
36.36683	126784
36.37495	129260
36.38308	127876
36.39120	126318
36.39932	129585
36.40745	131293
36.41557	129980
36.42370	126736
36.43182	123147
36.43993	124885
36.44807	124938
36.45618	126031
36.46430	126450
36.47243	125774
36.48055	122987
36.48868	117783
36.49680	128909
36.50492	123300
36.51305	123147
36.52117	121307
36.52930	124981
36.53742	121490
36.54553	122455
36.55367	127756
36.56178	125913
36.56992	123784
36.57803	128828
36.58615	122621
36.59428	122443
36.60240	123645
36.61052	135638
36.61865	129720
36.62677	130070
36.63490	125293
36.64302	126298
36.65113	127311
36.65927	129652
36.66738	127919
36.67552	136624
36.68363	129144
36.69175	135514
36.69988	135163
36.70800	128914
36.71612	128046
36.72425	132048
36.73237	133547
36.74050	134973
36.74862	130644
36.75673	128794
36.76487	128118
36.77298	127794
36.78112	133488
36.78923	134346
36.79735	130548
36.80548	130396
36.81360	130052
36.82173	133687
36.82985	128281
36.83797	135631
36.84610	125089
36.85422	129435
36.86233	131460
36.87047	131825
36.87858	131381
36.88672	132288
36.89483	130984
36.90295	133152
36.91108	135778
36.91920	138775
36.92733	136245
36.93545	138190
36.94357	136544
36.95170	138270
36.95982	140335
36.96795	133146
36.97607	141850
36.98418	140419
36.99232	144669
37.00043	152847
37.00855	161325
37.01668	170769
37.02480	183231
37.03293	183871
37.04105	186846
37.04917	169912
37.05730	160453
37.06542	155960
37.07355	147169
37.08167	147966
37.08978	145383
37.09792	140971
37.10603	148523
37.11415	145234
37.12228	141336
37.13040	144316
37.13853	144762
37.14665	150756
37.15477	150472
37.16290	149220
37.17102	151406
37.17915	145515
37.18727	148154
37.19538	151742
37.20352	149600
37.21163	150692
37.21977	146685
37.22788	148332
37.23600	151665
37.24413	153323
37.25225	157177
37.26037	157600
37.26850	165899
37.27662	178554
37.28475	197921
37.29287	211424
37.30098	233191
37.30912	232336
37.31723	231074
37.32537	224245
37.33348	218861
37.34160	206558
37.34973	200562
37.35785	198743
37.36598	196761
37.37410	180803
37.38222	179536
37.39035	174140
37.39847	181894
37.40658	179971
37.41472	175368
37.42283	177136
37.43097	176048
37.43908	166269
37.44720	175860
37.45533	175113
37.46345	175315
37.47158	177546
37.47970	180490
37.48782	176978
