C:\MassHunter\GCMS\1\data\JTB-E02\BACandBLUE\JTB-E18-020-09.D Tue Jul 09 13:23:58 2019
Start of data points
2.09530	80117
2.10343	79416
2.11155	75981
2.11968	79768
2.12780	79891
2.13592	81146
2.14405	72966
2.15217	82956
2.16028	75305
2.16842	76753
2.17653	75712
2.18467	72536
2.19278	70555
2.20090	72467
2.20903	68085
2.21715	73772
2.22528	69977
2.23340	71659
2.24152	76315
2.24965	67936
2.25777	72982
2.26588	71054
2.27402	227142
2.28213	1081876
2.29027	1278234
2.29838	559342
2.30650	336841
2.31463	266092
2.32275	238094
2.33088	223154
2.33900	337915
2.34712	333471
2.35525	214734
2.36337	180850
2.37150	173612
2.37962	160884
2.38773	162498
2.39587	151897
2.40398	147239
2.41210	140523
2.42023	136477
2.42835	138686
2.43648	135387
2.44460	129371
2.45272	139223
2.46085	133234
2.46897	126199
2.47710	123285
2.48522	120138
2.49333	136747
2.50147	180575
2.50958	142726
2.51770	135927
2.52583	130548
2.53395	123009
2.54208	120906
2.55020	128687
2.55832	129079
2.56645	156301
2.57457	154299
2.58270	133734
2.59082	125933
2.59893	121652
2.60707	170779
2.61518	455779
2.62332	606808
2.63143	405998
2.63955	265982
2.64768	209109
2.65580	183890
2.66392	160052
2.67205	152576
2.68017	139569
2.68830	137978
2.69642	136952
2.70453	127019
2.71267	126125
2.72078	125185
2.72892	121921
2.73703	123469
2.74515	117404
2.75328	115934
2.76140	114808
2.76953	113726
2.77765	120812
2.78577	153976
2.79390	225664
2.80202	207850
2.81013	157685
2.81827	160197
2.82638	194818
2.83452	238194
2.84263	277226
2.85075	221570
2.85888	164072
2.86700	143879
2.87513	140156
2.88325	132362
2.89137	122120
2.89950	122229
2.90762	112584
2.91573	115370
2.92387	113461
2.93198	116065
2.94012	108200
2.94823	110640
2.95635	111368
2.96448	116040
2.97260	126445
2.98073	126327
2.98885	113638
2.99697	115150
3.00510	115642
3.01322	116002
3.02135	116649
3.02947	113984
3.03758	112245
3.04572	100997
3.05383	112131
3.06195	128579
3.07008	156140
3.07820	158083
3.08633	235518
3.09445	701518
3.10257	1352668
3.11070	2269270
3.11882	2863178
3.12695	2041671
3.13507	1253825
3.14318	915012
3.15132	720520
3.15943	595804
3.16757	529216
3.17568	550418
3.18380	589774
3.19193	977534
3.20005	1799637
3.20817	1779778
3.21630	1187689
3.22442	867598
3.23255	711304
3.24067	616252
3.24878	541498
3.25692	463692
3.26503	428279
3.27317	384645
3.28128	364626
3.28940	525360
3.29753	1586598
3.30565	4731417
3.31377	8599867
3.32190	9009306
3.33002	6691231
3.33815	4315978
3.34627	2974339
3.35438	2312223
3.36252	1852188
3.37063	1568950
3.37877	1331790
3.38688	1171914
3.39500	1047523
3.40313	945422
3.41125	878030
3.41938	816674
3.42750	752367
3.43562	718960
3.44375	688716
3.45187	660632
3.45998	618208
3.46812	603948
3.47623	593181
3.48437	582958
3.49248	562960
3.50060	544092
3.50873	515171
3.51685	491712
3.52498	467461
3.53310	475120
3.54122	474200
3.54935	483535
3.55747	467610
3.56560	453641
3.57372	503107
3.58183	571979
3.58997	565858
3.59808	492510
3.60620	451078
3.61433	423160
3.62245	439662
3.63058	470930
3.63870	531941
3.64682	578902
3.65495	539991
3.66307	581000
3.67120	1605353
3.67932	5243653
3.68743	8891193
3.69557	7744526
3.70368	4505710
3.71180	2781155
3.71993	2120102
3.72805	1758976
3.73618	1526710
3.74430	1338832
3.75242	1213847
3.76055	1104800
3.76867	1037013
3.77680	971345
3.78492	907515
3.79303	865354
3.80117	862914
3.80928	1084120
3.81742	1672798
3.82553	2097892
3.83365	1773516
3.84178	1276428
3.84990	1030900
3.85802	915010
3.86615	845932
3.87427	768981
3.88240	725857
3.89052	690694
3.89863	662935
3.90677	629179
3.91488	628349
3.92302	740475
3.93113	929305
3.93925	1042242
3.94738	943190
3.95550	1009086
3.96362	1646402
3.97175	2448430
3.97987	2449075
3.98800	1776289
3.99612	1418390
4.00423	2865190
4.01237	7395218
4.02048	1.225715E+07
4.02862	1.194666E+07
4.03673	7649703
4.04485	4118703
4.05298	2550239
4.06110	1869243
4.06923	1480326
4.07735	1271222
4.08547	1066469
4.09360	979500
4.10172	880157
4.10983	812618
4.11797	744831
4.12608	714846
4.13422	691686
4.14233	855099
4.15045	1347370
4.15858	1869918
4.16670	1795117
4.17483	1391544
4.18295	1075408
4.19107	886043
4.19920	791377
4.20732	790885
4.21545	1575677
4.22357	4926621
4.23168	1.125267E+07
4.23982	1.639723E+07
4.24793	1.644717E+07
4.25605	1.154384E+07
4.26418	6929883
4.27230	4660830
4.28043	3515493
4.28855	2730314
4.29667	2243896
4.30480	1919695
4.31292	1640297
4.32105	1444464
4.32917	1297767
4.33728	1192635
4.34542	1129814
4.35353	1092788
4.36165	1111928
4.36978	1101637
4.37790	1056794
4.38603	949068
4.39415	881019
4.40227	811141
4.41040	763507
4.41852	726483
4.42665	709008
4.43477	674871
4.44288	640010
4.45102	614935
4.45913	607263
4.46727	597430
4.47538	570145
4.48350	551578
4.49163	547123
4.49975	533037
4.50787	536197
4.51600	519538
4.52412	513187
4.53225	494245
4.54037	480491
4.54848	478313
4.55662	477787
4.56473	464519
4.57287	455002
4.58098	430689
4.58910	424163
4.59723	414854
4.60535	415446
4.61348	407919
4.62160	430922
4.62972	554550
4.63785	855845
4.64597	1218904
4.65408	1293745
4.66222	1064083
4.67033	757013
4.67847	620844
4.68658	551155
4.69470	498430
4.70283	463230
4.71095	444691
4.71908	412229
4.72720	380934
4.73532	377594
4.74345	359918
4.75157	349369
4.75968	359728
4.76782	346720
4.77593	331055
4.78407	329262
4.79218	350854
4.80030	390932
4.80843	468769
4.81655	501741
4.82468	472913
4.83280	419150
4.84092	416681
4.84905	412925
4.85717	419209
4.86530	410368
4.87342	383453
4.88153	380122
4.88967	347403
4.89778	339986
4.90590	331923
4.91403	322374
4.92215	322071
4.93028	373941
4.93840	664056
4.94652	1517065
4.95465	3049799
4.96277	4605153
4.97090	5134981
4.97902	4412402
4.98713	3209185
4.99527	2213139
5.00338	1607741
5.01150	1226566
5.01963	1035639
5.02775	1018127
5.03588	1239828
5.04400	1581696
5.05212	1719567
5.06025	1496497
5.06837	1181586
5.07650	985778
5.08462	868796
5.09273	790703
5.10087	721093
5.10898	685974
5.11712	652298
5.12523	635523
5.13335	604577
5.14148	601161
5.14960	570030
5.15772	595591
5.16585	637395
5.17397	703778
5.18210	707178
5.19022	647848
5.19833	641841
5.20647	669915
5.21458	718888
5.22272	729113
5.23083	674207
5.23895	588192
5.24708	554216
5.25520	515362
5.26333	478105
5.27145	438502
5.27957	403665
5.28770	402188
5.29582	374993
5.30393	375865
5.31207	373436
5.32018	363909
5.32832	369550
5.33643	383863
5.34455	398702
5.35268	406799
5.36080	390727
5.36893	374609
5.37705	353445
5.38517	373539
5.39330	384793
5.40142	424486
5.40955	446058
5.41767	420408
5.42578	400913
5.43392	370306
5.44203	353746
5.45015	359694
5.45828	362262
5.46640	370985
5.47453	357073
5.48265	345893
5.49077	330375
5.49890	312233
5.50702	300918
5.51515	298475
5.52327	308846
5.53138	300487
5.53952	302317
5.54763	291564
5.55575	317773
5.56388	334338
5.57200	426939
5.58013	480178
5.58825	479846
5.59637	432683
5.60450	361898
5.61262	319982
5.62075	306734
5.62887	302812
5.63698	308253
5.64512	303733
5.65323	296272
5.66137	295916
5.66948	290767
5.67760	306346
5.68573	322170
5.69385	358098
5.70197	378042
5.71010	355337
5.71822	330065
5.72635	316397
5.73447	302921
5.74258	288825
5.75072	277901
5.75883	272588
5.76697	259018
5.77508	261252
5.78320	252674
5.79133	247772
5.79945	249524
5.80757	245588
5.81570	242251
5.82382	245032
5.83195	247771
5.84007	252260
5.84818	263171
5.85632	267338
5.86443	259383
5.87257	263468
5.88068	240047
5.88880	240900
5.89693	230320
5.90505	223587
5.91318	209224
5.92130	187584
5.92942	173517
5.93755	175277
5.94567	185232
5.95378	198242
5.96192	211471
5.97003	240865
5.97817	264094
5.98628	312025
5.99440	344215
6.00253	336425
6.01065	296882
6.01878	254748
6.02690	229144
6.03502	214121
6.04315	203702
6.05127	204165
6.05940	184205
6.06752	173798
6.07563	176131
6.08377	165790
6.09188	172373
6.10000	166547
6.10813	168467
6.11625	169404
6.12438	184854
6.13250	270267
6.14062	422659
6.14875	617835
6.15687	704227
6.16500	618609
6.17312	471973
6.18123	343446
6.18937	279175
6.19748	268907
6.20560	242133
6.21373	229921
6.22185	225045
6.22998	222817
6.23810	220820
6.24622	219815
6.25435	242161
6.26247	249661
6.27060	268985
6.27872	260439
6.28683	234029
6.29497	228596
6.30308	212022
6.31122	225333
6.31933	218769
6.32745	229042
6.33558	232456
6.34370	227996
6.35182	225623
6.35995	222963
6.36807	219569
6.37620	219899
6.38432	226972
6.39243	220931
6.40057	218031
6.40868	218737
6.41682	214849
6.42493	214487
6.43305	210865
6.44118	217361
6.44930	216354
6.45743	220650
6.46555	218479
6.47367	215902
6.48180	223545
6.48992	214604
6.49803	210712
6.50617	220707
6.51428	222844
6.52242	219985
6.53053	230179
6.53865	233707
6.54678	224537
6.55490	232303
6.56303	239456
6.57115	299340
6.57927	370513
6.58740	441889
6.59552	441403
6.60363	392316
6.61177	320883
6.61988	276747
6.62802	270347
6.63613	259456
6.64425	254137
6.65238	255911
6.66050	303530
6.66863	383096
6.67675	447159
6.68487	450138
6.69300	393791
6.70112	327371
6.70925	298178
6.71737	274489
6.72548	268642
6.73362	275629
6.74173	272181
6.74985	253212
6.75798	257879
6.76610	256743
6.77423	255889
6.78235	234472
6.79047	214988
6.79860	203866
6.80672	195206
6.81485	184082
6.82297	175400
6.83108	166319
6.83922	167760
6.84733	194920
6.85545	219384
6.86358	258457
6.87170	265160
6.87983	238959
6.88795	184240
6.89607	151170
6.90420	129348
6.91232	122225
6.92045	109619
6.92857	112920
6.93668	107982
6.94482	106310
6.95293	108188
6.96107	108516
6.96918	118224
6.97730	144942
6.98543	158335
6.99355	158963
7.00167	137742
7.00980	127903
7.01792	116140
7.02605	109574
7.03417	104255
7.04228	117277
7.05042	120314
7.05853	126445
7.06667	129801
7.07478	125768
7.08290	120423
7.09103	106226
7.09915	101743
7.10728	98041
7.11540	101131
7.12352	89536
7.13165	93509
7.13977	103916
7.14788	115492
7.15602	156881
7.16413	200263
7.17227	212542
7.18038	204663
7.18850	172525
7.19663	135035
7.20475	119750
7.21288	118812
7.22100	161922
7.22912	323130
7.23725	709075
7.24537	1232479
7.25348	1555344
7.26162	1420240
7.26973	963365
7.27787	578981
7.28598	385220
7.29410	313026
7.30223	270601
7.31035	218243
7.31848	164811
7.32660	148507
7.33472	135956
7.34285	129351
7.35097	117320
7.35910	110221
7.36722	109341
7.37533	110989
7.38347	114498
7.39158	109358
7.39970	106153
7.40783	113059
7.41595	100678
7.42408	101067
7.43220	95796
7.44032	100048
7.44845	98111
7.45657	106077
7.46470	103857
7.47282	104867
7.48093	95140
7.48907	96966
7.49718	94563
7.50532	109385
7.51343	161074
7.52155	279513
7.52968	525682
7.53780	876827
7.54592	1303415
7.55405	1630077
7.56217	1703091
7.57030	1503675
7.57842	1130189
7.58653	780405
7.59467	497539
7.60278	338331
7.61092	245445
7.61903	195231
7.62715	169551
7.63528	154433
7.64340	136922
7.65152	128857
7.65965	113829
7.66777	107615
7.67590	106468
7.68402	102055
7.69213	105278
7.70027	99366
7.70838	103530
7.71652	98893
7.72463	95130
7.73275	94244
7.74088	94291
7.74900	95647
7.75713	93783
7.76525	92075
7.77337	93025
7.78150	106416
7.78962	113106
7.79773	119767
7.80587	133611
7.81398	144853
7.82212	134178
7.83023	128469
7.83835	116577
7.84648	111423
7.85460	120743
7.86273	128878
7.87085	154584
7.87897	173456
7.88710	186480
7.89522	172317
7.90333	160002
7.91147	132031
7.91958	121700
7.92772	124781
7.93583	139334
7.94395	171667
7.95208	177286
7.96020	177892
7.96833	156849
7.97645	134306
7.98457	111649
7.99270	100288
8.00082	95899
8.00895	86635
8.01707	90636
8.02518	92732
8.03332	82547
8.04143	88078
8.04955	89669
8.05768	85920
8.06580	83034
8.07393	85969
8.08205	82585
8.09017	80154
8.09830	79136
8.10642	82763
8.11455	77913
8.12267	78906
8.13078	87990
8.13892	99120
8.14703	120447
8.15517	134474
8.16328	134045
8.17140	123335
8.17953	104644
8.18765	94501
8.19577	85812
8.20390	81129
8.21202	80844
8.22015	81101
8.22827	83338
8.23638	80858
8.24452	82058
8.25263	76912
8.26077	76429
8.26888	74573
8.27700	70397
8.28513	73821
8.29325	68779
8.30137	72985
8.30950	77982
8.31762	83107
8.32575	81266
8.33387	80130
8.34198	77654
8.35012	74019
8.35823	73219
8.36637	70377
8.37448	69719
8.38260	69477
8.39073	72681
8.39885	71013
8.40698	70457
8.41510	69042
8.42322	68435
8.43135	63817
8.43947	64512
8.44758	63957
8.45572	65672
8.46383	64688
8.47197	64299
8.48008	64821
8.48820	67813
8.49633	61514
8.50445	66892
8.51258	66162
8.52070	63805
8.52882	72567
8.53695	101545
8.54507	156042
8.55320	239572
8.56132	285211
8.56943	279279
8.57757	232607
8.58568	163222
8.59380	117011
8.60193	102519
8.61005	99551
8.61818	93045
8.62630	86785
8.63442	84354
8.64255	78041
8.65067	70983
8.65880	71768
8.66692	72600
8.67503	77966
8.68317	78437
8.69128	82297
8.69940	82451
8.70753	90279
8.71565	83442
8.72378	79709
8.73190	80232
8.74002	111320
8.74815	232601
8.75627	532530
8.76440	1121343
8.77252	1839199
8.78063	2332104
8.78877	2251540
8.79688	1728565
8.80502	1107931
8.81313	658033
8.82125	400272
8.82938	290985
8.83750	246786
8.84562	245658
8.85375	249280
8.86187	241148
8.87000	235751
8.87812	218865
8.88623	204770
8.89437	183526
8.90248	176868
8.91062	175318
8.91873	171763
8.92685	155244
8.93498	166681
8.94310	170442
8.95123	185324
8.95935	185086
8.96747	196365
8.97560	180610
8.98372	177838
8.99183	179664
8.99997	167893
9.00808	160101
9.01622	148788
9.02433	136938
9.03245	131226
9.04058	126901
9.04870	121176
9.05683	121334
9.06495	115245
9.07307	115998
9.08120	114754
9.08932	121544
9.09743	140381
9.10557	164669
9.11368	201934
9.12182	215185
9.12993	215469
9.13805	193644
9.14618	161518
9.15430	142369
9.16243	131508
9.17055	119790
9.17867	113682
9.18680	108120
9.19492	106191
9.20305	100629
9.21117	106493
9.21928	104405
9.22742	99301
9.23553	104014
9.24365	101956
9.25178	97571
9.25990	95575
9.26803	99399
9.27615	93459
9.28427	100922
9.29240	93445
9.30052	97880
9.30865	96885
9.31677	91950
9.32488	94695
9.33302	96088
9.34113	92990
9.34925	96535
9.35738	90512
9.36550	90782
9.37363	93678
9.38175	90141
9.38987	99332
9.39800	99577
9.40612	121258
9.41425	153981
9.42237	203478
9.43048	259167
9.43862	294027
9.44673	303541
9.45487	261135
9.46298	206353
9.47110	171933
9.47923	135340
9.48735	112711
9.49547	100256
9.50360	107454
9.51172	114393
9.51985	120102
9.52797	138952
9.53608	130861
9.54422	126398
9.55233	110305
9.56047	98387
9.56858	87591
9.57670	85008
9.58483	96375
9.59295	93997
9.60108	96358
9.60920	86831
9.61732	75881
9.62545	66769
9.63357	63321
9.64168	56469
9.64982	63401
9.65793	62778
9.66607	59652
9.67418	63937
9.68230	61456
9.69043	57838
9.69855	56565
9.70668	55694
9.71480	57887
9.72292	52012
9.73105	51344
9.73917	55355
9.74728	53984
9.75542	49995
9.76353	50181
9.77167	51022
9.77978	50709
9.78790	51763
9.79603	49388
9.80415	49904
9.81228	49817
9.82040	48684
9.82852	49947
9.83665	49491
9.84477	48655
9.85290	48304
9.86102	51922
9.86913	52393
9.87727	50635
9.88538	59038
9.89350	58120
9.90163	54805
9.90975	55416
9.91788	57915
9.92600	62968
9.93412	75423
9.94225	91884
9.95037	114338
9.95850	131295
9.96662	133252
9.97473	125421
9.98287	99509
9.99098	89403
9.99912	79246
10.00723	75128
10.01535	72293
10.02348	63747
10.03160	60249
10.03972	55676
10.04785	56226
10.05597	53754
10.06410	54372
10.07222	57365
10.08033	57991
10.08847	55725
10.09658	59784
10.10472	57035
10.11283	53868
10.12095	56595
10.12908	57979
10.13720	57203
10.14532	56807
10.15345	56324
10.16157	55060
10.16970	53009
10.17782	54298
10.18593	51562
10.19407	54567
10.20218	55068
10.21032	53254
10.21843	55435
10.22655	63005
10.23468	62466
10.24280	67715
10.25093	78297
10.25905	83492
10.26717	135845
10.27530	285031
10.28342	602925
10.29153	1182154
10.29967	1940015
10.30778	2713354
10.31592	3730496
10.32403	5282407
10.33215	7355071
10.34028	8985557
10.34840	9328147
10.35653	8018440
10.36465	6164596
10.37277	4607782
10.38090	3489271
10.38902	2495366
10.39713	1658177
10.40527	1065964
10.41338	685882
10.42152	482657
10.42963	382948
10.43775	338039
10.44588	348063
10.45400	351246
10.46213	362906
10.47025	375797
10.47837	340831
10.48650	322928
10.49462	290570
10.50275	276272
10.51087	242710
10.51898	229060
10.52712	221047
10.53523	204354
10.54335	192142
10.55148	189381
10.55960	181673
10.56773	179630
10.57585	173959
10.58397	171995
10.59210	168672
10.60022	152506
10.60835	145239
10.61647	145150
10.62458	140393
10.63272	131012
10.64083	129208
10.64897	120015
10.65708	119592
10.66520	116565
10.67333	116845
10.68145	110236
10.68957	116379
10.69770	119731
10.70582	116086
10.71395	113207
10.72207	117028
10.73018	110628
10.73832	105373
10.74643	106309
10.75457	105971
10.76268	100944
10.77080	92664
10.77893	87930
10.78705	97270
10.79518	94328
10.80330	106679
10.81142	118015
10.81955	120335
10.82767	108277
10.83578	108905
10.84392	89474
10.85203	90596
10.86017	80511
10.86828	83323
10.87640	80094
10.88453	78623
10.89265	76618
10.90078	81180
10.90890	77808
10.91702	74464
10.92515	70857
10.93327	71120
10.94138	75437
10.94952	73432
10.95763	74286
10.96577	70174
10.97388	73557
10.98200	77241
10.99013	79465
10.99825	82334
11.00638	86431
11.01450	90110
11.02262	88582
11.03075	76983
11.03887	76150
11.04700	71696
11.05512	72148
11.06323	72462
11.07137	77114
11.07948	85399
11.08760	89767
11.09573	91522
11.10385	99066
11.11198	89907
11.12010	88520
11.12822	76806
11.13635	69288
11.14447	63136
11.15260	65500
11.16072	67588
11.16883	63821
11.17697	71727
11.18508	66358
11.19320	66322
11.20133	71279
11.20945	65929
11.21758	66307
11.22570	60417
11.23382	57761
11.24195	54891
11.25007	54283
11.25820	55641
11.26632	53780
11.27443	56113
11.28257	56265
11.29068	72759
11.29882	122589
11.30693	247219
11.31505	548181
11.32318	1138142
11.33130	1942025
11.33942	2714373
11.34755	3105812
11.35567	2952660
11.36380	2300050
11.37192	1612586
11.38003	1007530
11.38817	646338
11.39628	452214
11.40442	380608
11.41253	349139
11.42065	355509
11.42878	328111
11.43690	308291
11.44503	280332
11.45315	243948
11.46127	215281
11.46940	206602
11.47752	196350
11.48563	205565
11.49377	216978
11.50188	228553
11.51002	235178
11.51813	208710
11.52625	177360
11.53438	164598
11.54250	156956
11.55063	140321
11.55875	146005
11.56687	154944
11.57500	154554
11.58312	149283
11.59123	140037
11.59937	140199
11.60748	149127
11.61562	161878
11.62373	172137
11.63185	169491
11.63998	152971
11.64810	134715
11.65623	111980
11.66435	100988
11.67247	95752
11.68060	96353
11.68872	98977
11.69685	100861
11.70497	104780
11.71308	98426
11.72122	92882
11.72933	89171
11.73745	83477
11.74558	76772
11.75370	79218
11.76183	76406
11.76995	70222
11.77807	70495
11.78620	71580
11.79432	72042
11.80245	70217
11.81057	64930
11.81868	68838
11.82682	63877
11.83493	61779
11.84307	64936
11.85118	64947
11.85930	71346
11.86743	69359
11.87555	70498
11.88367	69509
11.89180	63223
11.89992	58819
11.90805	61039
11.91617	61734
11.92428	62101
11.93242	63660
11.94053	64371
11.94867	58387
11.95678	54223
11.96490	56390
11.97303	60536
11.98115	61398
11.98927	68942
11.99740	90943
12.00552	117029
12.01365	139752
12.02177	147548
12.02988	141915
12.03802	119427
12.04613	93333
12.05427	80694
12.06238	83409
12.07050	86126
12.07863	94610
12.08675	100151
12.09488	113309
12.10300	120715
12.11112	119794
12.11925	130085
12.12737	147605
12.13548	159764
12.14362	165015
12.15173	140957
12.15987	117152
12.16798	89051
12.17610	74215
12.18423	68947
12.19235	65810
12.20048	61238
12.20860	62347
12.21672	65106
12.22485	68520
12.23297	64401
12.24108	66585
12.24922	65986
12.25733	67218
12.26547	68611
12.27358	66338
12.28170	64743
12.28983	58521
12.29795	58716
12.30608	59949
12.31420	56600
12.32232	52632
12.33045	51496
12.33857	55081
12.34670	51921
12.35482	52923
12.36293	49688
12.37107	53434
12.37918	52005
12.38730	53892
12.39543	57932
12.40355	66951
12.41168	75953
12.41980	102933
12.42792	121218
12.43605	126984
12.44417	119898
12.45230	105024
12.46042	93640
12.46853	79616
12.47667	76907
12.48478	73004
12.49292	72200
12.50103	68228
12.50915	68715
12.51728	60693
12.52540	66603
12.53352	71107
12.54165	76141
12.54977	92463
12.55790	116651
12.56602	138017
12.57413	154227
12.58227	145633
12.59038	131612
12.59852	111317
12.60663	90977
12.61475	83682
12.62288	78944
12.63100	75100
12.63912	69533
12.64725	68388
12.65537	64465
12.66350	63190
12.67162	56532
12.67973	57610
12.68787	52010
12.69598	57524
12.70412	54618
12.71223	58219
12.72035	56676
12.72848	58495
12.73660	65155
12.74473	63658
12.75285	60596
12.76097	59903
12.76910	60119
12.77722	55360
12.78533	48648
12.79347	47465
12.80158	48835
12.80972	49004
12.81783	47292
12.82595	43184
12.83408	46486
12.84220	43976
12.85033	46296
12.85845	43883
12.86657	45985
12.87470	46937
12.88282	45234
12.89095	41584
12.89907	43880
12.90718	42150
12.91532	45049
12.92343	42676
12.93155	43062
12.93968	36784
12.94780	48259
12.95593	47160
12.96405	50830
12.97217	62640
12.98030	69511
12.98842	76167
12.99655	76146
13.00467	77475
13.01278	70398
13.02092	63814
13.02903	56531
13.03715	56172
13.04528	59056
13.05340	50578
13.06153	49970
13.06965	46680
13.07777	50462
13.08590	45056
13.09402	46522
13.10215	45285
13.11027	44095
13.11838	43061
13.12652	45566
13.13463	46534
13.14277	45231
13.15088	42300
13.15900	45287
13.16713	45759
13.17525	46864
13.18337	48622
13.19150	47540
13.19962	49986
13.20775	50319
13.21587	57692
13.22398	59005
13.23212	56852
13.24023	53399
13.24837	51060
13.25648	49626
13.26460	46817
13.27273	45252
13.28085	43570
13.28897	41873
13.29710	45822
13.30522	45691
13.31335	39177
13.32147	40879
13.32958	39007
13.33772	42349
13.34583	38782
13.35397	41154
13.36208	44074
13.37020	38804
13.37833	41822
13.38645	41810
13.39458	39902
13.40270	38418
13.41082	38251
13.41895	39714
13.42707	42003
13.43518	43314
13.44332	41741
13.45143	47319
13.45957	45364
13.46768	49684
13.47580	48056
13.48393	54238
13.49205	47001
13.50018	44197
13.50830	41036
13.51642	41084
13.52455	42416
13.53267	44465
13.54080	44092
13.54892	47371
13.55703	41889
13.56517	42424
13.57328	47779
13.58140	51718
13.58953	57448
13.59765	63330
13.60578	82355
13.61390	111857
13.62202	137111
13.63015	156687
13.63827	147980
13.64640	124611
13.65452	92221
13.66263	72470
13.67077	59892
13.67888	58814
13.68700	51069
13.69513	49886
13.70325	50384
13.71138	44977
13.71950	48793
13.72762	47722
13.73575	64812
13.74387	108130
13.75200	231672
13.76012	472391
13.76823	859411
13.77637	1250927
13.78448	1477738
13.79262	1464226
13.80073	1257204
13.80885	978776
13.81698	825163
13.82510	814577
13.83322	861330
13.84135	900072
13.84947	842312
13.85760	691022
13.86572	541679
13.87383	414552
13.88197	323129
13.89008	271834
13.89822	236321
13.90633	203257
13.91445	189406
13.92258	174488
13.93070	163277
13.93883	146269
13.94695	143732
13.95507	140210
13.96320	137464
13.97132	129836
13.97943	143128
13.98757	131132
13.99568	136685
14.00382	127393
14.01193	129581
14.02005	117395
14.02818	112918
14.03630	114504
14.04443	111328
14.05255	116014
14.06067	110138
14.06880	108777
14.07692	101829
14.08503	102837
14.09317	102702
14.10128	101638
14.10942	97405
14.11753	95395
14.12565	97478
14.13378	106174
14.14190	104265
14.15003	107139
14.15815	115949
14.16627	167329
14.17440	253051
14.18252	390782
14.19065	575655
14.19877	712961
14.20688	718234
14.21502	580608
14.22313	422388
14.23125	326015
14.23938	260108
14.24750	225953
14.25563	216235
14.26375	203769
14.27187	186383
14.28000	157403
14.28812	154027
14.29625	125690
14.30437	118429
14.31248	109007
14.32062	111387
14.32873	105486
14.33687	98513
14.34498	93265
14.35310	87015
14.36123	74133
14.36935	71685
14.37747	71509
14.38560	70267
14.39372	88138
14.40185	132334
14.40997	210441
14.41808	317170
14.42622	390312
14.43433	403126
14.44247	337778
14.45058	258859
14.45870	181960
14.46683	143696
14.47495	126735
14.48307	118316
14.49120	110897
14.49932	103000
14.50745	93726
14.51557	92298
14.52368	88782
14.53182	85465
14.53993	85710
14.54807	77349
14.55618	76190
14.56430	69596
14.57243	67331
14.58055	63937
14.58868	68067
14.59680	63888
14.60492	58907
14.61305	62725
14.62117	52910
14.62928	54296
14.63742	55649
14.64553	54031
14.65367	55832
14.66178	53150
14.66990	53666
14.67803	52373
14.68615	54517
14.69428	50118
14.70240	51764
14.71052	53967
14.71865	60453
14.72677	61981
14.73488	62869
14.74302	60653
14.75113	71436
14.75927	66273
14.76738	60481
14.77550	63452
14.78363	69558
14.79175	105593
14.79988	212754
14.80800	477591
14.81612	1032798
14.82425	1856162
14.83237	2589791
14.84050	2852752
14.84862	2549824
14.85673	1893877
14.86487	1231275
14.87298	770541
14.88110	494205
14.88923	360863
14.89735	268114
14.90548	232293
14.91360	212242
14.92172	198943
14.92985	189464
14.93797	169495
14.94610	155760
14.95422	146708
14.96233	129532
14.97047	126387
14.97858	122129
14.98672	109502
14.99483	116365
15.00295	107509
15.01108	109432
15.01920	114241
15.02732	113764
15.03545	114288
15.04357	106430
15.05170	102118
15.05982	98491
15.06793	92854
15.07607	89416
15.08418	84179
15.09232	77540
15.10043	82272
15.10855	80976
15.11668	76588
15.12480	78989
15.13292	85207
15.14105	87420
15.14917	85816
15.15730	88758
15.16542	82549
15.17353	74334
15.18167	70141
15.18978	62739
15.19792	68054
15.20603	63101
15.21415	60744
15.22228	61833
15.23040	59680
15.23853	58658
15.24665	58520
15.25477	55590
15.26290	56765
15.27102	56072
15.27913	49866
15.28727	52180
15.29538	54452
15.30352	47926
15.31163	50539
15.31975	49841
15.32788	44097
15.33600	44213
15.34413	51349
15.35225	43336
15.36037	45916
15.36850	47838
15.37662	46245
15.38475	48968
15.39287	49883
15.40098	49970
15.40912	50379
15.41723	54856
15.42535	53247
15.43348	51414
15.44160	53160
15.44973	52987
15.45785	64741
15.46597	89274
15.47410	144958
15.48222	244795
15.49035	370412
15.49847	511278
15.50658	607513
15.51472	580543
15.52283	511255
15.53095	403113
15.53908	324035
15.54720	270092
15.55533	219007
15.56345	190575
15.57157	157088
15.57970	128472
15.58782	113392
15.59595	105273
15.60407	90455
15.61218	88731
15.62032	79511
15.62843	83215
15.63657	75278
15.64468	71200
15.65280	70730
15.66093	65965
15.66905	64907
15.67717	61368
15.68530	67151
15.69342	60607
15.70155	55426
15.70967	59522
15.71778	57863
15.72592	57497
15.73403	60290
15.74217	55589
15.75028	60881
15.75840	77910
15.76653	108905
15.77465	157363
15.78277	220495
15.79090	267537
15.79902	281966
15.80715	251169
15.81527	202230
15.82338	147637
15.83152	116260
15.83963	95036
15.84777	83677
15.85588	77663
15.86400	77219
15.87213	79372
15.88025	74231
15.88838	72723
15.89650	69090
15.90462	68632
15.91275	68304
15.92087	67340
15.92898	68351
15.93712	62537
15.94523	64921
15.95337	72050
15.96148	83271
15.96960	93998
15.97773	115224
15.98585	116074
15.99398	113991
16.00210	105608
16.01022	101975
16.01835	99465
16.02647	97906
16.03460	93155
16.04272	93293
16.05083	82859
16.05897	78654
16.06708	74169
16.07520	74172
16.08333	62912
16.09145	60620
16.09958	59005
16.10770	61992
16.11582	65499
16.12395	65349
16.13207	69092
16.14020	75764
16.14832	78483
16.15643	85467
16.16457	83507
16.17268	71728
16.18082	70031
16.18893	64384
16.19705	66200
16.20518	69076
16.21330	67381
16.22142	63193
16.22955	60711
16.23767	57988
16.24580	56019
16.25392	58064
16.26203	54795
16.27017	54893
16.27828	59544
16.28642	65134
16.29453	69932
16.30265	75514
16.31078	76694
16.31890	79692
16.32702	72108
16.33515	62065
16.34327	62797
16.35140	70340
16.35952	75447
16.36763	80386
16.37577	89885
16.38388	94636
16.39202	90764
16.40013	86913
16.40825	76799
16.41638	67626
16.42450	65646
16.43263	58758
16.44075	62329
16.44887	82083
16.45700	109178
16.46512	173618
16.47323	259316
16.48137	352453
16.48948	399008
16.49762	357796
16.50573	292702
16.51385	210872
16.52198	155779
16.53010	116045
16.53823	93961
16.54635	84032
16.55447	78045
16.56260	72370
16.57072	74548
16.57883	76084
16.58697	78399
16.59508	89065
16.60322	96527
16.61133	99104
16.61945	107912
16.62758	104674
16.63570	100242
16.64383	91707
16.65195	83642
16.66007	70809
16.66820	68032
16.67632	64714
16.68445	64563
16.69257	63667
16.70068	61170
16.70882	60320
16.71693	57748
16.72505	57497
16.73318	55093
16.74130	54068
16.74943	56173
16.75755	51820
16.76567	62187
16.77380	57385
16.78192	62702
16.79005	52820
16.79817	51486
16.80628	50456
16.81442	51813
16.82253	51566
16.83067	48919
16.83878	45109
16.84690	50638
16.85503	47575
16.86315	46203
16.87127	49718
16.87940	49098
16.88752	47334
16.89565	46809
16.90377	47764
16.91188	49725
16.92002	48384
16.92813	47799
16.93627	47191
16.94438	47208
16.95250	49696
16.96063	46684
16.96875	45667
16.97687	47045
16.98500	49941
16.99312	47127
17.00125	52830
17.00937	54487
17.01748	55070
17.02562	50592
17.03373	60036
17.04187	58502
17.04998	62602
17.05810	62607
17.06623	63499
17.07435	60134
17.08248	60937
17.09060	61411
17.09872	61010
17.10685	66135
17.11497	67034
17.12308	71820
17.13122	71001
17.13933	66954
17.14747	72100
17.15558	69260
17.16370	69599
17.17183	65401
17.17995	61591
17.18808	60612
17.19620	53295
17.20432	55545
17.21245	47882
17.22057	46404
17.22870	49524
17.23682	51544
17.24493	49030
17.25307	48783
17.26118	48884
17.26930	50685
17.27743	48357
17.28555	49780
17.29368	47596
17.30180	50820
17.30992	51820
17.31805	53584
17.32617	57366
17.33430	68264
17.34242	78757
17.35053	80581
17.35867	87619
17.36678	82218
17.37490	80058
17.38303	76564
17.39115	76558
17.39928	73540
17.40740	78734
17.41552	75769
17.42365	82192
17.43177	80273
17.43990	80322
17.44802	73920
17.45613	72880
17.46427	67853
17.47238	62307
17.48052	58367
17.48863	56946
17.49675	55306
17.50488	50808
17.51300	49749
17.52112	48169
17.52925	50869
17.53737	58164
17.54550	55900
17.55362	60790
17.56173	75642
17.56987	110826
17.57798	192239
17.58612	307187
17.59423	487094
17.60235	722173
17.61048	872705
17.61860	887416
17.62672	803865
17.63485	591938
17.64297	437703
17.65110	306059
17.65922	242869
17.66733	195116
17.67547	170730
17.68358	150512
17.69172	138840
17.69983	129044
17.70795	118144
17.71608	111882
17.72420	115046
17.73233	110300
17.74045	107881
17.74857	101492
17.75670	99041
17.76482	91144
17.77293	92042
17.78107	93308
17.78918	86707
17.79732	83020
17.80543	93681
17.81355	103497
17.82168	122726
17.82980	137105
17.83793	146546
17.84605	146415
17.85417	134174
17.86230	133775
17.87042	127920
17.87855	115371
17.88667	104386
17.89478	90533
17.90292	82647
17.91103	75297
17.91915	71140
17.92728	67048
17.93540	65828
17.94353	63043
17.95165	62323
17.95977	59768
17.96790	55066
17.97602	58548
17.98415	61047
17.99227	54150
18.00038	58788
18.00852	60354
18.01663	64124
18.02475	79363
18.03288	95964
18.04100	110563
18.04913	120384
18.05725	174180
18.06537	305465
18.07350	605338
18.08162	1050274
18.08975	1542940
18.09787	1852513
18.10598	1824417
18.11412	1569217
18.12223	1148973
18.13037	801609
18.13848	579761
18.14660	445587
18.15473	369493
18.16285	326186
18.17097	294726
18.17910	257925
18.18722	234030
18.19535	218295
18.20347	198155
18.21158	184578
18.21972	171877
18.22783	168037
18.23597	153926
18.24408	152118
18.25220	146133
18.26033	133897
18.26845	123427
18.27658	116344
18.28470	104905
18.29282	81427
18.30095	76769
18.30907	67122
18.31718	65103
18.32532	66453
18.33343	61172
18.34157	61359
18.34968	57738
18.35780	60907
18.36593	53965
18.37405	58892
18.38218	63666
18.39030	63264
18.39842	63047
18.40655	66847
18.41467	73449
18.42278	92284
18.43092	111918
18.43903	128681
18.44717	153604
18.45528	178220
18.46340	208540
18.47153	242556
18.47965	277375
18.48778	285417
18.49590	282020
18.50402	239433
18.51215	198956
18.52027	156838
18.52840	129673
18.53652	106243
18.54463	94901
18.55277	85415
18.56088	80900
18.56900	78645
18.57713	77198
18.58525	80418
18.59338	82463
18.60150	82521
18.60962	97259
18.61775	103108
18.62587	113811
18.63400	119183
18.64212	114871
18.65023	106690
18.65837	103113
18.66648	86410
18.67462	79395
18.68273	71341
18.69085	71633
18.69898	68266
18.70710	68861
18.71522	67606
18.72335	64863
18.73147	66152
18.73960	60099
18.74772	57798
18.75583	58237
18.76397	56242
18.77208	54961
18.78022	54713
18.78833	54340
18.79645	57667
18.80458	59251
18.81270	55833
18.82082	53460
18.82895	57465
18.83707	57500
18.84520	57550
18.85332	64531
18.86143	85677
18.86957	103614
18.87768	115856
18.88582	122742
18.89393	128346
18.90205	131863
18.91018	131521
18.91830	136132
18.92643	136690
18.93455	141228
18.94267	145911
18.95080	147526
18.95892	148242
18.96703	152323
18.97517	148423
18.98328	150057
18.99142	150158
18.99953	143001
19.00765	142505
19.01578	138394
19.02390	138783
19.03203	139519
19.04015	140955
19.04827	141927
19.05640	142575
19.06452	149766
19.07263	175622
19.08077	218475
19.08888	304736
19.09702	396396
19.10513	487639
19.11325	510955
19.12138	476717
19.12950	402242
19.13763	308938
19.14575	245075
19.15387	210758
19.16200	185607
19.17012	173308
19.17825	166273
19.18637	153529
19.19448	145726
19.20262	145194
19.21073	145013
19.21885	139455
19.22698	135375
19.23510	132624
19.24323	127496
19.25135	130349
19.25947	128666
19.26760	130006
19.27572	133563
19.28385	134865
19.29197	141698
19.30008	137122
19.30822	136671
19.31633	138010
19.32447	136759
19.33258	136456
19.34070	130463
19.34883	145316
19.35695	155311
19.36507	170001
19.37320	194721
19.38132	200960
19.38945	197294
19.39757	175349
19.40568	152558
19.41382	142904
19.42193	130927
19.43007	125825
19.43818	121207
19.44630	118173
19.45443	127304
19.46255	140840
19.47067	175036
19.47880	228052
19.48692	332192
19.49505	418810
19.50317	464749
19.51128	456898
19.51942	377362
19.52753	288294
19.53567	224068
19.54378	184364
19.55190	162157
19.56003	152825
19.56815	142248
19.57628	138024
19.58440	123795
19.59252	119417
19.60065	111849
19.60877	107240
19.61688	106535
19.62502	111863
19.63313	121222
19.64127	140150
19.64938	172340
19.65750	218015
19.66563	261002
19.67375	310684
19.68188	316508
19.69000	332557
19.69812	311528
19.70625	285657
19.71437	255168
19.72250	237947
19.73062	205135
19.73873	177818
19.74687	166268
19.75498	152227
19.76310	145438
19.77123	161774
19.77935	178485
19.78748	204465
19.79560	228200
19.80372	254900
19.81185	253193
19.81997	243707
19.82810	198661
19.83622	171783
19.84433	168703
19.85247	234616
19.86058	450948
19.86870	1045378
19.87683	2291534
19.88495	4250714
19.89308	6413955
19.90120	8192970
19.90932	8787400
19.91745	7934466
19.92557	6115710
19.93370	4212673
19.94182	2744095
19.94993	1879894
19.95807	1406929
19.96618	1146453
19.97432	989518
19.98243	898748
19.99055	823785
19.99868	755504
20.00680	701725
20.01492	663806
20.02305	638497
20.03117	595770
20.03930	544753
20.04742	498778
20.05553	439292
20.06367	413460
20.07178	396604
20.07992	398553
20.08803	412132
20.09615	410453
20.10428	371808
20.11240	332411
20.12052	283222
20.12865	240345
20.13677	228312
20.14490	235621
20.15302	293535
20.16113	426733
20.16927	600410
20.17738	850751
20.18552	1099596
20.19363	1330770
20.20175	1417366
20.20988	1383332
20.21800	1217404
20.22613	1029645
20.23425	839293
20.24237	730382
20.25050	725835
20.25862	808329
20.26673	912642
20.27487	998153
20.28298	1014021
20.29112	986895
20.29923	861543
20.30735	707032
20.31548	561582
20.32360	415790
20.33173	330477
20.33985	268496
20.34797	207216
20.35610	183233
20.36422	150708
20.37235	130275
20.38047	123080
20.38858	115713
20.39672	117374
20.40483	113173
20.41295	105851
20.42108	112599
20.42920	111959
20.43733	117221
20.44545	116375
20.45357	124778
20.46170	114220
20.46982	110089
20.47795	100465
20.48607	98231
20.49418	95897
20.50232	88842
20.51043	88821
20.51857	86215
20.52668	85609
20.53480	83159
20.54293	81544
20.55105	79910
20.55917	85021
20.56730	79239
20.57542	74817
20.58355	77470
20.59167	76073
20.59978	78440
20.60792	80406
20.61603	79528
20.62417	80989
20.63228	84117
20.64040	89255
20.64853	96941
20.65665	98837
20.66477	96035
20.67290	96539
20.68102	87024
20.68915	80907
20.69727	76748
20.70538	73695
20.71352	74944
20.72163	71034
20.72977	65684
20.73788	71273
20.74600	76460
20.75413	76571
20.76225	82429
20.77038	89583
20.77850	112674
20.78662	149148
20.79475	235199
20.80287	376292
20.81098	544193
20.81912	693888
20.82723	728607
20.83537	637845
20.84348	498356
20.85160	338599
20.85973	223723
20.86785	166411
20.87598	130059
20.88410	117606
20.89222	109032
20.90035	112074
20.90847	118058
20.91658	120349
20.92472	130871
20.93283	141808
20.94097	138422
20.94908	139315
20.95720	134507
20.96533	121585
20.97345	110209
20.98158	103245
20.98970	96632
20.99782	88813
21.00595	84372
21.01407	80042
21.02220	82809
21.03032	88058
21.03843	86345
21.04657	88196
21.05468	85077
21.06280	77798
21.07093	73772
21.07905	74121
21.08718	72723
21.09530	66503
21.10342	71328
21.11155	71121
21.11967	73396
21.12780	82107
21.13592	94065
21.14403	109617
21.15217	150428
21.16028	166732
21.16842	185666
21.17653	175973
21.18465	157975
21.19278	139179
21.20090	117379
21.20902	99623
21.21715	86879
21.22527	89196
21.23340	79219
21.24152	84264
21.24963	74003
21.25777	73369
21.26588	76170
21.27402	77012
21.28213	73981
21.29025	70459
21.29838	72139
21.30650	73090
21.31462	70486
21.32275	63997
21.33087	67072
21.33900	64922
21.34712	63512
21.35523	70372
21.36337	68844
21.37148	65204
21.37962	67641
21.38773	69882
21.39585	89426
21.40398	101184
21.41210	108454
21.42023	112093
21.42835	103466
21.43647	91152
21.44460	87421
21.45272	76631
21.46083	73785
21.46897	68967
21.47708	74267
21.48522	66429
21.49333	64702
21.50145	64191
21.50958	61450
21.51770	64798
21.52583	60762
21.53395	65244
21.54207	63676
21.55020	62540
21.55832	59347
21.56645	63775
21.57457	66796
21.58268	71103
21.59082	79004
21.59893	86878
21.60705	90322
21.61518	90210
21.62330	91742
21.63143	98867
21.63955	96602
21.64767	102381
21.65580	97690
21.66392	99527
21.67205	107322
21.68017	106081
21.68828	104806
21.69642	101628
21.70453	87744
21.71265	80498
21.72078	75157
21.72890	70263
21.73703	70894
21.74515	69545
21.75327	65200
21.76140	64659
21.76952	64806
21.77765	62766
21.78577	66843
21.79388	66886
21.80202	67257
21.81013	74407
21.81827	80429
21.82638	83258
21.83450	83891
21.84263	89111
21.85075	78148
21.85887	75782
21.86700	73007
21.87512	73228
21.88325	63196
21.89137	65991
21.89948	64708
21.90762	63211
21.91573	62577
21.92387	62762
21.93198	62271
21.94010	58252
21.94823	58060
21.95635	59690
21.96447	55602
21.97260	53272
21.98072	52151
21.98885	55499
21.99697	53163
22.00508	55650
22.01322	54867
22.02133	56712
22.02947	57911
22.03758	54498
22.04570	58529
22.05383	53784
22.06195	58327
22.07008	56341
22.07820	55424
22.08632	52505
22.09445	50777
22.10257	54598
22.11068	50729
22.11882	51107
22.12693	51007
22.13507	51907
22.14318	49720
22.15130	54950
22.15943	52985
22.16755	51258
22.17568	49976
22.18380	48555
22.19192	49979
22.20005	49975
22.20817	55007
22.21630	53608
22.22442	61818
22.23253	67964
22.24067	68748
22.24878	73391
22.25690	71943
22.26503	74536
22.27315	81246
22.28128	90732
22.28940	90757
22.29752	96976
22.30565	95478
22.31377	102836
22.32190	100543
22.33002	94450
22.33813	92490
22.34627	85677
22.35438	86833
22.36250	77542
22.37063	86646
22.37875	84404
22.38688	94827
22.39500	112790
22.40312	138616
22.41125	171594
22.41937	206091
22.42750	212270
22.43562	200750
22.44373	172914
22.45187	146426
22.45998	119569
22.46812	107057
22.47623	105515
22.48435	111555
22.49248	125350
22.50060	139508
22.50872	148292
22.51685	150491
22.52497	151910
22.53310	128442
22.54122	116470
22.54933	105785
22.55747	94148
22.56558	81904
22.57372	74944
22.58183	74603
22.58995	64953
22.59808	66024
22.60620	59877
22.61433	62064
22.62245	56124
22.63057	57942
22.63870	55629
22.64682	56562
22.65493	61853
22.66307	62705
22.67118	63256
22.67932	65674
22.68743	68339
22.69555	73703
22.70368	84181
22.71180	90887
22.71993	96110
22.72805	107010
22.73617	108271
22.74430	110691
22.75242	110268
22.76053	106008
22.76867	119907
22.77678	117355
22.78492	132685
22.79303	149207
22.80115	161638
22.80928	176273
22.81740	181589
22.82553	178270
22.83365	169644
22.84177	153814
22.84990	146725
22.85802	150524
22.86615	169305
22.87427	180631
22.88238	205034
22.89052	223466
22.89863	248803
22.90675	258124
22.91488	277130
22.92300	284628
22.93113	276894
22.93925	254985
22.94737	235381
22.95550	197099
22.96362	172933
22.97175	154087
22.97987	138469
22.98798	137525
22.99612	124574
23.00423	128432
23.01235	122174
23.02048	118447
23.02860	114642
23.03673	111207
23.04485	120921
23.05297	112310
23.06110	113376
23.06922	110894
23.07735	118423
23.08547	114778
23.09358	121236
23.10172	111233
23.10983	111414
23.11797	110679
23.12608	105007
23.13420	96157
23.14233	99535
23.15045	100974
23.15857	101895
23.16670	102337
23.17482	99450
23.18295	95012
23.19107	95935
23.19918	96790
23.20732	92068
23.21543	91905
23.22357	92727
23.23168	90199
23.23980	93875
23.24793	95320
23.25605	102277
23.26418	107305
23.27230	103702
23.28042	106411
23.28855	97969
23.29667	95868
23.30478	93456
23.31292	99284
23.32103	96915
23.32917	110632
23.33728	115684
23.34540	137282
23.35353	168707
23.36165	186510
23.36978	199963
23.37790	222873
23.38602	216022
23.39415	208840
23.40227	186711
23.41038	171017
23.41852	171205
23.42663	165529
23.43477	155100
23.44288	152067
23.45100	149669
23.45913	140252
23.46725	136144
23.47538	129848
23.48350	122226
23.49162	112146
23.49975	116139
23.50787	109867
23.51600	115830
23.52412	113603
23.53223	110545
23.54037	119609
23.54848	133358
23.55660	158830
23.56473	171243
23.57285	204878
23.58098	242208
23.58910	291511
23.59722	343238
23.60535	373892
23.61347	383865
23.62160	338063
23.62972	280925
23.63783	228754
23.64597	200084
23.65408	179096
23.66222	168885
23.67033	171876
23.67845	159121
23.68658	152056
23.69470	131524
23.70282	127448
23.71095	107082
23.71907	99280
23.72720	105809
23.73532	107053
23.74343	149491
23.75157	280456
23.75968	588735
23.76782	1259273
23.77593	2198729
23.78405	3247227
23.79218	3924878
23.80030	4042076
23.80842	3695451
23.81655	3005351
23.82467	2334251
23.83280	1751099
23.84092	1305045
23.84903	1031642
23.85717	823625
23.86528	674118
23.87342	574539
23.88153	488547
23.88965	437797
23.89778	417072
23.90590	381461
23.91403	357806
23.92215	333947
23.93027	311668
23.93840	281602
23.94652	264797
23.95463	248697
23.96277	232226
23.97088	217168
23.97902	207315
23.98713	194588
23.99525	186630
24.00338	186002
24.01150	188617
24.01963	191690
24.02775	195604
24.03587	201771
24.04400	197999
24.05212	181122
24.06025	174696
24.06837	160678
24.07648	157077
24.08462	142985
24.09273	136304
24.10085	130357
24.10898	128977
24.11710	132331
24.12523	138276
24.13335	137390
24.14147	140837
24.14960	147864
24.15772	155828
24.16585	152945
24.17397	149201
24.18208	153938
24.19022	157220
24.19833	157225
24.20645	149975
24.21458	146856
24.22270	136861
24.23083	126519
24.23895	115547
24.24707	109226
24.25520	103918
24.26332	102387
24.27145	92545
24.27957	92712
24.28768	96717
24.29582	91832
24.30393	90628
24.31207	91718
24.32018	94816
24.32830	99445
24.33643	93708
24.34455	95502
24.35267	100783
24.36080	117805
24.36892	141905
24.37705	180037
24.38517	222175
24.39328	233765
24.40142	229282
24.40953	176876
24.41767	142874
24.42578	112163
24.43390	94820
24.44203	87507
24.45015	91304
24.45827	98240
24.46640	105086
24.47452	127027
24.48265	151222
24.49077	185251
24.49888	200631
24.50702	217187
24.51513	225879
24.52327	245018
24.53138	270065
24.53950	309940
24.54763	359746
24.55575	383289
24.56388	399291
24.57200	379852
24.58012	334736
24.58825	293809
24.59637	263096
24.60448	226109
24.61262	206185
24.62073	193098
24.62887	185788
24.63698	182231
24.64510	184617
24.65323	182600
24.66135	179322
24.66948	169219
24.67760	173839
24.68572	171986
24.69385	177177
24.70197	169996
24.71010	168180
24.71822	163542
24.72633	164861
24.73447	158237
24.74258	166350
24.75070	158255
24.75883	164809
24.76695	163855
24.77508	171436
24.78320	174362
24.79132	177210
24.79945	176929
24.80757	179369
24.81570	180139
24.82382	183328
24.83193	203582
24.84007	236882
24.84818	269335
24.85630	329974
24.86443	403329
24.87255	512745
24.88068	622573
24.88880	739449
24.89692	761931
24.90505	725667
24.91317	625001
24.92130	498011
24.92942	373659
24.93753	293480
24.94567	239366
24.95378	207742
24.96192	195778
24.97003	174644
24.97815	181864
24.98628	172007
24.99440	168267
25.00252	164184
25.01065	160629
25.01877	157505
25.02690	150169
25.03502	152543
25.04313	147353
25.05127	144869
25.05938	149578
25.06752	145007
25.07563	149608
25.08375	151327
25.09188	173322
25.10000	219801
25.10813	378227
25.11625	701020
25.12437	1323420
25.13250	2171792
25.14062	3036515
25.14873	3688373
25.15687	3629437
25.16498	2918703
25.17312	2069577
25.18123	1359075
25.18935	817078
25.19748	506557
25.20560	341960
25.21373	259006
25.22185	211291
25.22997	195476
25.23810	197222
25.24622	226845
25.25433	273293
25.26247	315480
25.27058	375364
25.27872	384908
25.28683	355900
25.29495	313439
25.30308	242320
25.31120	200630
25.31933	153818
25.32745	135029
25.33557	121701
25.34370	109095
25.35182	103362
25.35995	94460
25.36807	91543
25.37618	89157
25.38432	84624
25.39243	81389
25.40055	78528
25.40868	83934
25.41680	78457
25.42493	77573
25.43305	80038
25.44117	74696
25.44930	75722
25.45742	89809
25.46555	80300
25.47367	81348
25.48178	76266
25.48992	79130
25.49803	78116
25.50615	74941
25.51428	74128
25.52240	68909
25.53053	70766
25.53865	71058
25.54677	71012
25.55490	69636
25.56302	69024
25.57115	70813
25.57927	72974
25.58738	75435
25.59552	75274
25.60363	70493
25.61177	74043
25.61988	70143
25.62800	73075
25.63613	77005
25.64425	96952
25.65237	121774
25.66050	142939
25.66862	156190
25.67675	173404
25.68487	181195
25.69298	190283
25.70112	190466
25.70923	196086
25.71737	199691
25.72548	186103
25.73360	192742
25.74173	183356
25.74985	186496
25.75798	188591
25.76610	184509
25.77422	195463
25.78235	188354
25.79047	195250
25.79858	188326
25.80672	188899
25.81483	189371
25.82297	191776
25.83108	185291
25.83920	191258
25.84733	199525
25.85545	197503
25.86358	196825
25.87170	190293
25.87982	186063
25.88795	184094
25.89607	178681
25.90420	177590
25.91232	173847
25.92043	177258
25.92857	172123
25.93668	171618
25.94480	168286
25.95293	170570
25.96105	167183
25.96918	162720
25.97730	168511
25.98542	158769
25.99355	155969
26.00167	156669
26.00980	151231
26.01792	150276
26.02603	151782
26.03417	152125
26.04228	147387
26.05040	147220
26.05853	143523
26.06665	147923
26.07478	144947
26.08290	151140
26.09102	146661
26.09915	150752
26.10727	150826
26.11540	142135
26.12352	143896
26.13163	144346
26.13977	148047
26.14788	153192
26.15602	153896
26.16413	150213
26.17225	147417
26.18038	143345
26.18850	140353
26.19662	135021
26.20475	135049
26.21287	122617
26.22100	130094
26.22912	125789
26.23723	125771
26.24537	119755
26.25348	116320
26.26162	115157
26.26973	119038
26.27785	115141
26.28598	110948
26.29410	110297
26.30222	104937
26.31035	104766
26.31847	109890
26.32660	105439
26.33472	104044
26.34283	108858
26.35097	119829
26.35908	143378
26.36722	184822
26.37533	253994
26.38345	332673
26.39158	435666
26.39970	489324
26.40783	502312
26.41595	470542
26.42407	379960
26.43220	305747
26.44032	229666
26.44843	170541
26.45657	145634
26.46468	122800
26.47282	110109
26.48093	107122
26.48905	106144
26.49718	98993
26.50530	99346
26.51343	91848
26.52155	92229
26.52967	85093
26.53780	86047
26.54592	83767
26.55405	88313
26.56217	86478
26.57028	82993
26.57842	85724
26.58653	81552
26.59465	81745
26.60278	75867
26.61090	77542
26.61903	80755
26.62715	76211
26.63527	82152
26.64340	78051
26.65152	77455
26.65965	82482
26.66777	83253
26.67588	82432
26.68402	79070
26.69213	77733
26.70025	80377
26.70838	76645
26.71650	76885
26.72463	78116
26.73275	79462
26.74087	76199
26.74900	74667
26.75712	78398
26.76525	80108
26.77337	77900
26.78148	80135
26.78962	83200
26.79773	81733
26.80587	88210
26.81398	84973
26.82210	84965
26.83023	79775
26.83835	80045
26.84647	72331
26.85460	69845
26.86272	69308
26.87085	70315
26.87897	69492
26.88708	67201
26.89522	68517
26.90333	70016
26.91147	67491
26.91958	69803
26.92770	70828
26.93583	68959
26.94395	68852
26.95208	68488
26.96020	79604
26.96832	100162
26.97645	144684
26.98457	211662
26.99268	338218
27.00082	517744
27.00893	783288
27.01707	1033713
27.02518	1238525
27.03330	1361159
27.04143	1289096
27.04955	1157826
27.05768	985549
27.06580	763213
27.07392	629996
27.08205	500562
27.09017	411397
27.09828	355596
27.10642	302481
27.11453	263506
27.12267	241790
27.13078	221431
27.13890	215216
27.14703	205013
27.15515	192253
27.16328	195659
27.17140	194489
27.17952	196355
27.18765	198882
27.19577	185447
27.20390	181696
27.21202	169418
27.22013	152486
27.22827	143113
27.23638	136878
27.24450	129890
27.25263	123200
27.26075	124637
27.26888	119420
27.27700	112018
27.28512	109833
27.29325	105798
27.30137	100855
27.30950	104328
27.31762	106289
27.32573	101203
27.33387	103580
27.34198	100811
27.35010	100548
27.35823	101946
27.36635	104455
27.37448	100460
27.38260	99362
27.39072	98138
27.39885	90113
27.40697	92823
27.41510	90553
27.42322	92771
27.43133	89918
27.43947	88792
27.44758	84337
27.45572	84416
27.46383	80933
27.47195	78133
27.48008	79778
27.48820	76089
27.49632	76723
27.50445	77217
27.51257	82028
27.52070	83236
27.52882	89170
27.53693	87995
27.54507	83701
27.55318	79512
27.56132	73957
27.56943	80466
27.57755	87213
27.58568	95872
27.59380	105773
27.60193	113679
27.61005	114171
27.61817	110724
27.62630	100619
27.63442	94411
27.64253	85423
27.65067	88135
27.65878	92099
27.66692	95124
27.67503	107844
27.68315	110727
27.69128	122506
27.69940	114146
27.70753	114572
27.71565	96246
27.72377	94201
27.73190	81660
27.74002	73272
27.74813	69820
27.75627	67287
27.76438	69562
27.77252	71364
27.78063	70000
27.78875	71464
27.79688	68905
27.80500	70746
27.81313	68305
27.82125	68851
27.82937	65991
27.83750	63246
27.84562	67530
27.85375	64331
27.86187	64061
27.86998	63789
27.87812	65761
27.88623	63290
27.89435	58671
27.90248	60897
27.91060	59319
27.91873	56596
27.92685	59056
27.93497	62932
27.94310	62004
27.95122	60379
27.95935	61488
27.96747	56507
27.97558	58652
27.98372	59357
27.99183	63131
27.99997	64980
28.00808	76776
28.01620	99476
28.02433	119483
28.03245	160364
28.04057	206016
28.04870	254477
28.05682	259939
28.06495	234459
28.07307	192663
28.08118	158795
28.08932	124578
28.09743	109382
28.10557	92215
28.11368	83096
28.12180	75517
28.12993	72828
28.13805	66588
28.14617	64502
28.15430	63815
28.16242	62870
28.17055	66627
28.17867	73541
28.18678	71970
28.19492	87802
28.20303	88224
28.21117	98724
28.21928	106388
28.22740	102888
28.23553	96772
28.24365	84931
28.25178	80802
28.25990	73378
28.26802	68810
28.27615	64565
28.28427	68219
28.29238	73314
28.30052	80982
28.30863	101503
28.31677	127562
28.32488	155039
28.33300	188905
28.34113	217122
28.34925	248183
28.35738	290545
28.36550	327464
28.37362	361244
28.38175	371215
28.38987	377171
28.39800	382774
28.40612	381013
28.41423	357530
28.42237	352737
28.43048	325298
28.43860	302627
28.44673	272875
28.45485	247430
28.46298	233880
28.47110	212696
28.47922	202307
28.48735	189868
28.49547	182293
28.50360	174607
28.51172	172317
28.51983	162863
28.52797	146124
28.53608	128493
28.54420	123667
28.55233	122041
28.56045	115285
28.56858	110435
28.57670	108888
28.58482	100911
28.59295	97221
28.60107	100879
28.60920	94350
28.61732	97720
28.62543	97409
28.63357	103643
28.64168	100356
28.64982	103996
28.65793	105293
28.66605	94518
28.67418	98035
28.68230	97494
28.69042	91553
28.69855	87467
28.70667	81437
28.71480	89850
28.72292	79864
28.73103	88131
28.73917	104109
28.74728	111681
28.75542	124209
28.76353	132149
28.77165	127611
28.77978	118419
28.78790	107049
28.79602	96746
28.80415	94734
28.81227	88075
28.82040	88682
28.82852	90513
28.83663	77992
28.84477	80823
28.85288	79668
28.86102	76717
28.86913	79577
28.87725	84598
28.88538	89593
28.89350	95089
28.90163	98459
28.90975	91393
28.91787	90516
28.92600	88639
28.93412	83408
28.94223	76201
28.95037	83052
28.95848	82431
28.96662	77359
28.97473	75258
28.98285	73716
28.99098	72466
28.99910	66230
29.00723	69082
29.01535	67457
29.02347	67964
29.03160	63240
29.03972	62538
29.04785	63520
29.05597	66377
29.06408	66397
29.07222	68719
29.08033	68875
29.08845	71742
29.09658	70886
29.10470	70548
29.11283	63028
29.12095	64189
29.12907	63383
29.13720	63827
29.14532	64408
29.15345	66779
29.16157	62576
29.16968	74592
29.17782	67886
29.18593	75878
29.19405	87157
29.20218	97622
29.21030	107519
29.21843	121896
29.22655	113213
29.23467	117790
29.24280	122717
29.25092	129326
29.25905	137955
29.26717	145594
29.27528	149945
29.28342	134924
29.29153	118417
29.29967	103116
29.30778	87111
29.31590	73221
29.32403	71181
29.33215	68445
29.34027	64942
29.34840	61786
29.35652	61360
29.36465	59258
29.37277	64466
29.38088	58688
29.38902	57976
29.39713	58236
29.40527	61636
29.41338	61637
29.42150	62778
29.42963	64675
29.43775	63259
29.44588	61592
29.45400	62973
29.46212	62642
29.47025	63878
29.47837	61411
29.48648	60141
29.49462	63005
29.50273	63060
29.51087	59655
29.51898	63503
29.52710	62011
29.53523	57801
29.54335	57705
29.55148	52894
29.55960	58164
29.56772	57949
29.57585	53644
29.58397	53357
29.59208	52012
29.60022	52433
29.60833	51865
29.61647	52368
29.62458	53465
29.63270	53269
29.64083	54337
29.64895	53640
29.65708	51177
29.66520	54447
29.67332	53195
29.68145	61178
29.68957	60967
29.69770	67492
29.70582	62472
29.71393	68179
29.72207	61989
29.73018	57820
29.73830	60371
29.74643	55533
29.75455	53108
29.76268	54402
29.77080	53451
29.77892	58895
29.78705	50481
29.79517	51255
29.80330	48413
29.81142	47777
29.81953	52856
29.82767	48218
29.83578	50503
29.84390	49658
29.85203	48135
29.86015	52459
29.86828	56064
29.87640	59350
29.88452	69216
29.89265	80676
29.90077	91313
29.90890	82419
29.91702	85798
29.92513	79946
29.93327	72905
29.94138	72621
29.94952	76613
29.95763	85826
29.96575	91605
29.97388	112027
29.98200	128229
29.99012	141716
29.99825	153517
30.00637	179377
30.01450	181005
30.02262	181910
30.03073	187183
30.03887	186195
30.04698	186906
30.05512	180859
30.06323	183854
30.07135	186551
30.07948	176457
30.08760	172669
30.09573	172228
30.10385	163273
30.11197	160134
30.12010	149447
30.12822	137160
30.13633	137584
30.14447	141787
30.15258	125881
30.16072	120774
30.16883	118526
30.17695	125559
30.18508	126346
30.19320	129338
30.20133	125998
30.20945	115099
30.21757	113936
30.22570	104844
30.23382	93819
30.24193	86261
30.25007	87054
30.25818	82134
30.26632	71141
30.27443	79130
30.28255	72579
30.29068	80304
30.29880	69085
30.30693	71329
30.31505	72051
30.32317	71025
30.33130	73517
30.33942	69349
30.34755	70301
30.35567	69753
30.36378	70678
30.37192	72422
30.38003	66459
30.38815	66560
30.39628	63256
30.40440	66295
30.41253	58883
30.42065	59226
30.42877	62186
30.43690	59859
30.44502	61986
30.45315	60762
30.46127	63125
30.46938	59019
30.47752	63254
30.48563	58526
30.49377	59061
30.50188	58997
30.51000	53876
30.51813	59433
30.52625	58476
30.53437	55196
30.54250	59691
30.55062	57244
30.55875	56823
30.56687	58446
30.57498	59847
30.58312	62448
30.59123	60378
30.59937	61451
30.60748	57567
30.61560	60182
30.62373	55052
30.63185	54221
30.63997	54145
30.64810	49971
30.65622	53027
30.66435	54508
30.67247	52896
30.68058	54377
30.68872	50865
30.69683	57338
30.70497	51156
30.71308	52600
30.72120	51737
30.72933	57124
30.73745	54623
30.74558	52802
30.75370	56673
30.76182	60176
30.76995	64409
30.77807	69720
30.78618	77395
30.79432	89462
30.80243	93153
30.81057	105742
30.81868	105049
30.82680	92775
30.83493	86288
30.84305	71477
30.85118	69800
30.85930	70233
30.86742	67282
30.87555	67772
30.88367	62514
30.89178	63376
30.89992	59043
30.90803	60418
30.91617	57554
30.92428	54247
30.93240	55107
30.94053	52460
30.94865	53840
30.95678	57877
30.96490	54605
30.97302	53234
30.98115	55443
30.98927	58180
30.99740	54122
31.00552	52709
31.01363	59373
31.02177	57049
31.02988	57525
31.03800	64603
31.04613	64885
31.05425	68921
31.06238	67987
31.07050	68649
31.07862	75058
31.08675	75084
31.09487	78487
31.10300	87736
31.11112	90662
31.11923	89631
31.12737	84233
31.13548	82619
31.14362	75845
31.15173	79745
31.15985	78419
31.16798	86536
31.17610	89663
31.18422	99537
31.19235	116279
31.20047	143420
31.20860	182466
31.21672	216105
31.22483	247330
31.23297	254609
31.24108	220626
31.24922	189364
31.25733	144837
31.26545	117422
31.27358	88775
31.28170	82916
31.28983	75182
31.29795	76791
31.30607	70962
31.31420	78087
31.32232	79345
31.33043	72308
31.33857	74351
31.34668	75015
31.35482	72667
31.36293	67724
31.37105	69949
31.37918	71988
31.38730	70258
31.39543	74319
31.40355	67738
31.41167	68861
31.41980	68678
31.42792	63026
31.43603	67489
31.44417	65750
31.45228	61602
31.46042	61939
31.46853	64494
31.47665	61776
31.48478	62709
31.49290	63825
31.50103	67625
31.50915	70137
31.51727	77568
31.52540	75875
31.53352	80745
31.54165	81243
31.54977	77091
31.55788	75593
31.56602	70416
31.57413	68019
31.58225	66494
31.59038	64500
31.59850	64873
31.60663	62982
31.61475	59558
31.62287	59851
31.63100	60834
31.63912	58726
31.64725	63771
31.65537	62339
31.66348	63288
31.67162	62841
31.67973	64347
31.68785	64841
31.69598	61437
31.70410	62780
31.71223	62428
31.72035	56623
31.72847	55830
31.73660	57951
31.74472	56395
31.75285	55153
31.76097	56880
31.76908	55237
31.77722	64497
31.78533	56945
31.79347	58023
31.80158	57336
31.80970	56898
31.81783	60773
31.82595	56622
31.83407	59051
31.84220	56617
31.85032	60231
31.85845	57135
31.86657	61828
31.87468	61872
31.88282	66142
31.89093	70259
31.89907	76116
31.90718	88849
31.91530	102731
31.92343	111442
31.93155	119684
31.93968	130569
31.94780	133703
31.95592	138130
31.96405	140525
31.97217	144986
31.98028	147055
31.98842	151212
31.99653	155449
32.00467	150127
32.01278	141130
32.02090	135124
32.02903	133570
32.03715	129029
32.04528	127351
32.05340	116106
32.06152	119304
32.06965	109751
32.07777	106495
32.08588	100195
32.09402	93028
32.10213	87646
32.11027	87871
32.11838	84348
32.12650	81764
32.13463	83529
32.14275	79148
32.15088	76864
32.15900	71279
32.16712	72231
32.17525	77391
32.18337	77715
32.19150	75616
32.19962	72092
32.20773	71169
32.21587	70982
32.22398	68775
32.23210	68080
32.24023	64799
32.24835	67154
32.25648	66012
32.26460	66909
32.27272	65849
32.28085	63898
32.28897	66280
32.29710	68974
32.30522	62463
32.31333	59363
32.32147	62534
32.32958	59763
32.33772	64599
32.34583	63406
32.35395	68722
32.36208	66331
32.37020	61980
32.37832	62455
32.38645	58435
32.39457	56461
32.40270	62825
32.41082	57445
32.41893	61230
32.42707	60441
32.43518	59580
32.44332	59939
32.45143	56062
32.45955	52358
32.46768	56143
32.47580	52825
32.48392	50951
32.49205	50448
32.50017	51631
32.50830	52359
32.51642	53896
32.52453	55145
32.53267	54514
32.54078	53258
32.54892	55513
32.55703	56314
32.56515	56616
32.57328	52717
32.58140	52340
32.58953	50784
32.59765	53323
32.60577	56043
32.61390	58392
32.62202	57928
32.63013	65611
32.63827	74288
32.64638	82394
32.65452	92829
32.66263	88470
32.67075	77877
32.67888	69774
32.68700	65943
32.69513	61661
32.70325	64764
32.71137	56349
32.71950	58476
32.72762	55511
32.73573	60957
32.74387	56767
32.75198	56530
32.76012	57843
32.76823	53802
32.77635	55848
32.78448	53777
32.79260	53816
32.80073	54795
32.80885	54333
32.81697	56546
32.82510	51936
32.83322	52910
32.84135	51754
32.84947	55917
32.85758	56657
32.86572	58803
32.87383	57824
32.88195	67340
32.89008	73009
32.89820	80708
32.90633	84104
32.91445	89917
32.92257	83695
32.93070	79289
32.93882	72461
32.94695	63025
32.95507	62325
32.96318	55625
32.97132	62136
32.97943	64795
32.98757	72377
32.99568	76242
33.00380	86269
33.01193	74399
33.02005	75335
33.02817	71687
33.03630	66752
33.04442	61334
33.05255	56585
33.06067	64773
33.06878	66074
33.07692	76692
33.08503	87106
33.09317	87222
33.10128	85193
33.10940	91195
33.11753	94301
33.12565	84674
33.13377	82008
33.14190	74910
33.15002	70125
33.15815	64817
33.16627	67578
33.17438	61386
33.18252	63610
33.19063	63691
33.19877	57588
33.20688	55948
33.21500	54931
33.22313	57806
33.23125	59355
33.23938	60792
33.24750	57132
33.25562	55074
33.26375	57201
33.27187	58622
33.27998	56251
33.28812	56160
33.29623	60160
33.30437	59293
33.31248	57791
33.32060	56850
33.32873	57986
33.33685	60542
33.34498	65840
33.35310	60431
33.36122	62501
33.36935	61467
33.37747	66148
33.38560	62311
33.39372	58420
33.40183	54771
33.40997	57144
33.41808	52110
33.42620	54714
33.43433	51153
33.44245	50517
33.45058	51741
33.45870	51397
33.46682	51974
33.47495	50892
33.48307	52241
33.49120	49018
33.49932	50682
33.50743	52936
33.51557	58495
33.52368	54078
33.53180	55772
33.53993	56597
33.54805	60784
33.55618	60864
33.56430	66324
33.57242	58582
33.58055	53765
33.58867	56465
33.59680	52314
33.60492	51562
33.61303	49545
33.62117	55499
33.62928	59999
33.63742	51160
33.64553	55867
33.65365	60893
33.66178	55189
33.66990	56328
33.67802	53321
33.68615	55344
33.69427	54987
33.70240	50955
33.71052	48294
33.71863	49852
33.72677	51378
33.73488	45830
33.74302	54712
33.75113	49927
33.75925	51067
33.76738	47196
33.77550	50276
33.78363	49337
33.79175	49078
33.79987	46796
33.80800	54232
33.81612	47472
33.82423	48205
33.83237	49462
33.84048	50993
33.84862	48141
33.85673	51828
33.86485	49675
33.87298	58749
33.88110	58372
33.88923	57909
33.89735	68856
33.90547	66850
33.91360	66079
33.92172	64035
33.92983	59917
33.93797	62016
33.94608	55609
33.95422	51436
33.96233	52814
33.97045	52346
33.97858	53660
33.98670	51108
33.99483	47476
34.00295	48908
34.01107	49409
34.01920	52970
34.02732	49855
34.03545	47711
34.04357	50663
34.05168	51831
34.05982	51227
34.06793	51875
34.07605	52993
34.08418	53224
34.09230	54811
34.10043	56067
34.10855	55660
34.11667	54679
34.12480	54940
34.13292	59838
34.14105	55063
34.14917	53100
34.15728	54623
34.16542	56874
34.17353	56687
34.18165	58216
34.18978	55548
34.19790	56355
34.20603	53849
34.21415	56713
34.22227	53585
34.23040	53872
34.23852	51936
34.24665	49465
34.25477	51237
34.26288	51447
34.27102	54698
34.27913	52629
34.28727	52163
34.29538	54612
34.30350	50985
34.31163	54284
34.31975	57240
34.32787	50778
34.33600	54928
34.34412	49891
34.35225	56013
34.36037	51834
34.36848	51424
34.37662	51536
34.38473	50579
34.39287	50153
34.40098	49996
34.40910	51346
34.41723	53011
34.42535	48799
34.43348	48371
34.44160	51372
34.44972	54834
34.45785	50128
34.46597	53246
34.47408	48747
34.48222	53989
34.49033	58882
34.49847	63743
34.50658	78485
34.51470	93819
34.52283	106218
34.53095	118314
34.53908	131477
34.54720	131796
34.55532	133081
34.56345	132169
34.57157	127932
34.57968	117513
34.58782	109678
34.59593	99177
34.60407	94091
34.61218	86255
34.62030	84949
34.62843	85465
34.63655	77281
34.64468	77075
34.65280	69883
34.66092	69495
34.66905	73354
34.67717	68494
34.68530	67669
34.69342	68941
34.70153	62013
34.70967	64091
34.71778	64026
34.72590	60693
34.73403	61305
34.74215	60687
34.75028	58968
34.75840	60889
34.76652	63736
34.77465	61101
34.78277	63294
34.79090	65733
34.79902	62746
34.80713	62751
34.81527	61954
34.82338	59094
34.83152	58564
34.83963	61070
34.84775	61819
34.85588	59827
34.86400	62015
34.87212	62523
34.88025	59032
34.88837	64305
34.89650	58370
34.90462	67030
34.91273	59791
34.92087	62146
34.92898	66855
34.93712	65771
34.94523	61128
34.95335	66007
34.96148	67162
34.96960	68070
34.97772	66039
34.98585	68491
34.99397	62054
35.00210	61626
35.01022	59056
35.01833	59079
35.02647	58297
35.03458	56122
35.04272	53226
35.05083	57261
35.05895	60719
35.06708	58345
35.07520	53389
35.08333	53943
35.09145	54925
35.09957	54320
35.10770	52444
35.11582	52707
35.12393	53927
35.13207	57361
35.14018	57132
35.14832	56781
35.15643	57816
35.16455	58723
35.17268	58149
35.18080	59446
35.18893	60502
35.19705	53875
35.20517	55168
35.21330	53994
35.22142	50873
35.22953	51314
35.23767	53361
35.24578	55337
35.25392	52815
35.26203	53935
35.27015	52239
35.27828	52378
35.28640	51497
35.29453	51788
35.30265	53916
35.31077	52348
35.31890	53630
35.32702	55108
35.33515	53599
35.34327	54682
35.35138	52074
35.35952	59035
35.36763	53258
35.37575	60093
35.38388	60919
35.39200	70612
35.40013	79740
35.40825	96169
35.41637	108442
35.42450	118010
35.43262	124826
35.44075	117524
35.44887	113540
35.45698	95620
35.46512	88429
35.47323	76134
35.48137	69363
35.48948	60297
35.49760	62814
35.50573	65914
35.51385	60453
35.52197	57756
35.53010	55968
35.53822	57240
35.54635	53674
35.55447	55085
35.56258	55917
35.57072	54931
35.57883	54072
35.58697	56078
35.59508	56901
35.60320	55307
35.61133	54122
35.61945	55380
35.62757	55014
35.63570	56413
35.64382	53796
35.65195	59717
35.66007	56525
35.66818	59866
35.67632	61440
35.68443	60491
35.69257	53474
35.70068	58018
35.70880	51482
35.71693	53954
35.72505	50957
35.73318	62768
35.74130	55762
35.74942	63613
35.75755	66036
35.76567	63423
35.77378	62469
35.78192	62648
35.79003	60537
35.79817	57042
35.80628	57311
35.81440	56015
35.82253	56925
35.83065	59833
35.83878	55738
35.84690	55092
35.85502	54924
35.86315	56153
35.87127	51863
35.87940	52660
35.88752	51875
35.89563	55250
35.90377	56198
35.91188	54691
35.92000	55928
35.92813	54757
35.93625	51746
35.94438	55285
35.95250	53532
35.96062	55645
35.96875	53533
35.97687	55775
35.98500	53996
35.99312	56547
36.00123	56001
36.00937	61394
36.01748	61192
36.02560	53194
36.03373	57868
36.04185	54883
36.04998	55868
36.05810	55844
36.06622	56579
36.07435	57647
36.08247	59760
36.09060	57521
36.09872	56742
36.10683	55917
36.11497	55082
36.12308	60107
36.13122	57614
36.13933	58676
36.14745	58792
36.15558	59850
36.16370	58322
36.17182	57037
36.17995	56616
36.18807	56486
36.19620	57606
36.20432	53685
36.21243	54088
36.22057	54683
36.22868	53032
36.23682	52082
36.24493	53941
36.25305	50943
36.26118	60419
36.26930	62885
36.27742	71633
36.28555	76878
36.29367	93604
36.30180	89326
36.30992	82530
36.31803	76488
36.32617	66706
36.33428	61291
36.34242	66736
36.35053	58498
36.35865	58785
36.36678	58879
36.37490	58807
36.38303	54951
36.39115	57148
36.39927	59400
36.40740	58394
36.41552	58082
36.42363	58346
36.43177	56223
36.43988	59850
36.44802	57803
36.45613	56865
36.46425	54959
36.47238	57252
36.48050	57286
36.48863	57226
36.49675	58982
36.50487	57843
36.51300	64032
36.52112	62999
36.52925	57223
36.53737	62877
36.54548	57320
36.55362	61811
36.56173	56059
36.56985	63428
36.57798	61753
36.58610	59104
36.59423	66781
36.60235	59760
36.61047	59255
36.61860	57636
36.62672	62298
36.63485	65601
36.64297	61683
36.65108	62254
36.65922	60062
36.66733	61845
36.67547	62545
36.68358	56876
36.69170	63784
36.69983	59776
36.70795	60100
36.71607	65455
36.72420	60068
36.73232	62705
36.74045	62480
36.74857	63375
36.75668	65663
36.76482	65491
36.77293	59269
36.78107	63440
36.78918	66181
36.79730	65921
36.80543	65719
36.81355	65095
36.82167	59696
36.82980	58473
36.83792	65422
36.84605	60095
36.85417	59483
36.86228	57717
36.87042	62538
36.87853	58134
36.88667	63208
36.89478	61351
36.90290	59536
36.91103	59234
36.91915	59855
36.92728	62001
36.93540	66933
36.94352	69385
36.95165	70759
36.95977	77430
36.96788	73575
36.97602	79525
36.98413	75901
36.99227	76729
37.00038	71319
37.00850	65770
37.01663	66797
37.02475	63686
37.03288	62809
37.04100	62428
37.04912	60810
37.05725	58441
37.06537	62559
37.07348	65037
37.08162	65646
37.08973	64710
37.09787	66443
37.10598	66402
37.11410	62916
37.12223	60243
37.13035	58586
37.13848	60127
37.14660	65414
37.15472	61855
37.16285	65883
37.17097	60944
37.17910	63552
37.18722	60115
37.19533	66861
37.20347	68809
37.21158	62275
37.21970	61450
37.22783	63610
37.23595	67512
37.24408	67384
37.25220	59252
37.26032	59890
37.26845	57664
37.27657	63507
37.28470	64762
37.29282	67185
37.30093	73326
37.30907	79768
37.31718	90125
37.32532	107817
37.33343	120315
37.34155	130122
37.34968	119517
37.35780	125120
37.36592	111108
37.37405	107405
37.38217	100070
37.39030	94560
37.39842	90232
37.40653	88535
37.41467	86889
37.42278	87676
37.43092	84482
37.43903	82028
37.44715	82962
37.45528	82315
37.46340	75913
37.47152	74868
37.47965	74946
37.48777	78685
