Z:\data\JTB-E02\BACandBLUE\JTB-E02-189-06.D Mon Dec 10 13:40:24 2018
Start of data points
2.09540,93874
2.10353,99292
2.11165,97460
2.11977,109520
2.12790,106783
2.13602,111362
2.14415,107342
2.15227,111461
2.16038,101639
2.16852,107628
2.17663,102846
2.18475,103444
2.19288,102468
2.20100,99895
2.20913,91573
2.21725,88947
2.22537,86002
2.23350,85075
2.24162,75999
2.24975,77429
2.25787,79330
2.26598,84454
2.27412,268284
2.28223,988248
2.29037,1383112
2.29848,767163
2.30660,416855
2.31473,304622
2.32285,270319
2.33097,236482
2.33910,220045
2.34722,213662
2.35535,185834
2.36347,173157
2.37158,167885
2.37972,165163
2.38783,158442
2.39597,156974
2.40408,157118
2.41220,152158
2.42033,146286
2.42845,165029
2.43658,177081
2.44470,149888
2.45282,152409
2.46095,143493
2.46907,145099
2.47718,148683
2.48532,145724
2.49343,153466
2.50157,161816
2.50968,160063
2.51780,155478
2.52593,147578
2.53405,152544
2.54218,146212
2.55030,143892
2.55842,151450
2.56655,165685
2.57467,150615
2.58278,147259
2.59092,137294
2.59903,133987
2.60717,157897
2.61528,259677
2.62340,386581
2.63153,310268
2.63965,220154
2.64778,181758
2.65590,164387
2.66402,149834
2.67215,150859
2.68027,140289
2.68840,138657
2.69652,136453
2.70463,131340
2.71277,124376
2.72088,128904
2.72900,122100
2.73713,124042
2.74525,128225
2.75338,116745
2.76150,119726
2.76962,132284
2.77775,427409
2.78587,2885329
2.79400,7364116
2.80212,7149003
2.81023,3826331
2.81837,2176215
2.82648,1639500
2.83460,1265753
2.84273,961314
2.85085,783822
2.85898,644346
2.86710,546737
2.87522,484381
2.88335,417022
2.89147,374189
2.89960,346072
2.90772,314769
2.91583,299529
2.92397,275782
2.93208,261311
2.94022,247876
2.94833,233151
2.95645,222275
2.96458,215124
2.97270,212823
2.98082,210438
2.98895,190864
2.99707,196324
3.00520,208171
3.01332,215925
3.02143,209977
3.02957,211377
3.03768,185677
3.04582,175615
3.05393,166176
3.06205,160482
3.07018,155716
3.07830,159633
3.08643,182381
3.09455,344573
3.10267,806873
3.11080,2131671
3.11892,3829542
3.12703,3534396
3.13517,2125648
3.14328,1347071
3.15142,989139
3.15953,783596
3.16765,676408
3.17578,782087
3.18390,1120250
3.19203,2873283
3.20015,6834491
3.20827,8367912
3.21640,6013457
3.22452,3750673
3.23263,2726666
3.24077,2107797
3.24888,1662084
3.25702,1364648
3.26513,1139668
3.27325,980330
3.28138,865860
3.28950,792872
3.29763,980253
3.30575,1927975
3.31387,3569602
3.32200,4483570
3.33012,3967176
3.33825,2827611
3.34637,2000893
3.35448,1510898
3.36262,1242741
3.37073,1058979
3.37885,922408
3.38698,844449
3.39510,750757
3.40323,691222
3.41135,643725
3.41947,602213
3.42760,576962
3.43572,593524
3.44385,628414
3.45197,649248
3.46008,578001
3.46822,603413
3.47633,794175
3.48447,921959
3.49258,801404
3.50070,613326
3.50883,478013
3.51695,437361
3.52507,416916
3.53320,419310
3.54132,476765
3.54945,557938
3.55757,531385
3.56568,459860
3.57382,385738
3.58193,346418
3.59007,338018
3.59818,323445
3.60630,318934
3.61443,308549
3.62255,308068
3.63067,316376
3.63880,337750
3.64692,342693
3.65505,375570
3.66317,1296774
3.67128,9218942
3.67942,3.170331E+07
3.68753,5.28476E+07
3.69567,5.87325E+07
3.70378,4.904914E+07
3.71190,3.38421E+07
3.72003,2.368288E+07
3.72815,1.857988E+07
3.73628,1.530424E+07
3.74440,1.268488E+07
3.75252,1.103177E+07
3.76065,9497587
3.76877,8316087
3.77688,7252332
3.78502,6436781
3.79313,5912164
3.80127,5439803
3.80938,5158459
3.81750,5297654
3.82563,5621055
3.83375,5399603
3.84188,4680209
3.85000,4094391
3.85812,3691419
3.86625,3378865
3.87437,3132109
3.88248,2944239
3.89062,2816039
3.89873,2649746
3.90687,2508620
3.91498,2431390
3.92310,2605669
3.93123,3200948
3.93935,3740513
3.94748,3562859
3.95560,2888830
3.96372,2433979
3.97185,2258627
3.97997,2189318
3.98810,1967925
3.99622,1757615
4.00433,1658972
4.01247,1664065
4.02058,1734447
4.02870,1719400
4.03683,1604194
4.04495,1444002
4.05308,1339812
4.06120,1288047
4.06932,1217871
4.07745,1192569
4.08557,1176278
4.09370,1161670
4.10182,1147831
4.10993,1152230
4.11807,1095955
4.12618,1043353
4.13432,999488
4.14243,969651
4.15055,964537
4.15868,971658
4.16680,969766
4.17492,967107
4.18305,954114
4.19117,957651
4.19930,942706
4.20742,961841
4.21553,1759079
4.22367,5284545
4.23178,1.252606E+07
4.23992,2.15933E+07
4.24803,2.822276E+07
4.25615,3.297591E+07
4.26428,3.554497E+07
4.27240,3.443816E+07
4.28052,2.197156E+07
4.28865,1.038167E+07
4.29677,7194328
4.30490,5621828
4.31302,4566456
4.32113,3826191
4.32927,3262548
4.33738,2888465
4.34552,2537959
4.35363,2294535
4.36175,2201449
4.36988,2417337
4.37800,2757915
4.38613,2748573
4.39425,2296387
4.40237,1801933
4.41050,1513600
4.41862,1359333
4.42673,1229234
4.43487,1150848
4.44298,1087539
4.45112,1027434
4.45923,982792
4.46735,938249
4.47548,890493
4.48360,882294
4.49173,844940
4.49985,822481
4.50797,797186
4.51610,776834
4.52422,765319
4.53235,766622
4.54047,771178
4.54858,814624
4.55672,891729
4.56483,890194
4.57295,831473
4.58108,741942
4.58920,693856
4.59733,668878
4.60545,647546
4.61357,655328
4.62170,668714
4.62982,909698
4.63795,1639204
4.64607,2814694
4.65418,3641530
4.66232,3343341
4.67043,2414291
4.67855,1740063
4.68668,1442273
4.69480,1263647
4.70293,1066459
4.71105,892298
4.71917,766500
4.72730,690044
4.73542,647398
4.74355,613688
4.75167,577559
4.75978,556905
4.76792,549780
4.77603,522644
4.78417,519268
4.79228,544060
4.80040,639140
4.80853,797909
4.81665,916751
4.82477,868032
4.83290,742275
4.84102,693061
4.84915,775577
4.85727,922261
4.86538,955471
4.87352,840103
4.88163,708473
4.88977,607718
4.89788,554031
4.90600,524865
4.91413,496719
4.92225,475880
4.93038,470376
4.93850,468685
4.94662,540373
4.95475,703722
4.96287,1032186
4.97098,1374901
4.97912,1496474
4.98723,1397134
4.99537,1200012
5.00348,1016872
5.01160,913558
5.01973,873801
5.02785,966285
5.03598,1324822
5.04410,2013508
5.05222,2560713
5.06035,2472259
5.06847,1978111
5.07658,1561236
5.08472,1281562
5.09283,1127883
5.10097,1022501
5.10908,932083
5.11720,873885
5.12533,816243
5.13345,756801
5.14158,736942
5.14970,730283
5.15782,878206
5.16595,1241696
5.17407,1672165
5.18220,1785234
5.19032,1631836
5.19843,1360142
5.20657,1344889
5.21468,1532614
5.22280,1651722
5.23093,1507872
5.23905,1248783
5.24718,1021105
5.25530,870159
5.26342,802778
5.27155,623053
5.27967,587604
5.28780,524447
5.29592,479468
5.30403,489707
5.31217,462361
5.32028,456642
5.32840,442000
5.33653,472628
5.34465,502754
5.35278,516361
5.36090,513181
5.36902,478500
5.37715,447829
5.38527,450040
5.39340,494488
5.40152,601099
5.40963,717465
5.41777,728524
5.42588,638955
5.43402,549141
5.44213,483183
5.45025,544519
5.45838,671415
5.46650,815082
5.47462,824992
5.48275,697072
5.49087,567738
5.49900,461236
5.50712,408887
5.51523,390473
5.52337,376362
5.53148,375481
5.53962,380228
5.54773,399013
5.55585,525742
5.56398,956468
5.57210,1853635
5.58023,2804199
5.58835,3259392
5.59647,2827923
5.60460,1963248
5.61272,1243083
5.62083,824840
5.62897,624492
5.63708,531438
5.64522,485269
5.65333,439106
5.66145,414806
5.66958,395269
5.67770,399129
5.68583,409132
5.69395,483979
5.70207,551013
5.71020,594656
5.71832,594697
5.72643,533740
5.73457,481903
5.74268,413464
5.75082,373760
5.75893,348546
5.76705,339745
5.77518,329648
5.78330,323376
5.79143,313301
5.79955,310843
5.80767,304615
5.81580,311928
5.82392,306998
5.83205,299627
5.84017,303569
5.84828,302775
5.85642,288027
5.86453,290064
5.87265,287028
5.88078,286854
5.88890,289888
5.89703,285820
5.90515,305619
5.91327,340699
5.92140,411425
5.92952,482179
5.93765,483726
5.94577,433413
5.95388,415292
5.96202,452784
5.97013,553963
5.97827,694962
5.98638,904445
5.99450,1114846
6.00263,1223016
6.01075,1158251
6.01887,925604
6.02700,698200
6.03512,514099
6.04325,404473
6.05137,340998
6.05948,315779
6.06762,303818
6.07573,297988
6.08387,301703
6.09198,296211
6.10010,281330
6.10823,264715
6.11635,254151
6.12447,323601
6.13260,550697
6.14072,1151979
6.14885,2028970
6.15697,2596942
6.16508,2479070
6.17322,1838914
6.18133,1243385
6.18947,891459
6.19758,732803
6.20570,626214
6.21383,542478
6.22195,493964
6.23008,455541
6.23820,445248
6.24632,453977
6.25445,520800
6.26257,664508
6.27068,776729
6.27882,797218
6.28693,654607
6.29507,538589
6.30318,449049
6.31130,435035
6.31943,397985
6.32755,391196
6.33568,386388
6.34380,374968
6.35192,374710
6.36005,355914
6.36817,341542
6.37628,354339
6.38442,355875
6.39253,370422
6.40067,354576
6.40878,357940
6.41690,328814
6.42503,317919
6.43315,318507
6.44128,315913
6.44940,336110
6.45752,355507
6.46565,388517
6.47377,380845
6.48190,363756
6.49002,347587
6.49813,330854
6.50627,329653
6.51438,330074
6.52250,341741
6.53063,346200
6.53875,365324
6.54688,364203
6.55500,351879
6.56312,460831
6.57125,857793
6.57937,1707017
6.58750,2800638
6.59562,3239107
6.60373,2764499
6.61187,1825895
6.61998,1096428
6.62812,745000
6.63623,590516
6.64435,451436
6.65248,402221
6.66060,361470
6.66872,343376
6.67685,347832
6.68497,326604
6.69310,304379
6.70122,271547
6.70933,250013
6.71747,255180
6.72558,249815
6.73372,242146
6.74183,231279
6.74995,236270
6.75808,227370
6.76620,229243
6.77433,216510
6.78245,227235
6.79057,228541
6.79870,215018
6.80682,204926
6.81493,194848
6.82307,185014
6.83118,179026
6.83932,176528
6.84743,189259
6.85555,190716
6.86368,209501
6.87180,226150
6.87993,241221
6.88805,239147
6.89617,224537
6.90430,209294
6.91242,192386
6.92053,176115
6.92867,166024
6.93678,156726
6.94492,149376
6.95303,146177
6.96115,156241
6.96928,164773
6.97740,183263
6.98553,215788
6.99365,229938
7.00177,224427
7.00990,201540
7.01802,191037
7.02615,185214
7.03427,186675
7.04238,183944
7.05052,174059
7.05863,192896
7.06675,262244
7.07488,415693
7.08300,597709
7.09113,778234
7.09925,859980
7.10737,772318
7.11550,603660
7.12362,436946
7.13175,341195
7.13987,302235
7.14798,305640
7.15612,326837
7.16423,357396
7.17235,416371
7.18048,572307
7.18860,1190490
7.19673,2971078
7.20485,6030148
7.21297,9363199
7.22110,1.090018E+07
7.22922,9106144
7.23735,5560414
7.24547,2545596
7.25358,1010843
7.26172,418817
7.26983,256044
7.27797,219985
7.28608,206385
7.29420,210148
7.30233,216061
7.31045,218762
7.31857,224936
7.32670,213166
7.33482,240171
7.34295,296131
7.35107,361904
7.35918,427248
7.36732,454824
7.37543,433187
7.38357,375150
7.39168,304578
7.39980,251243
7.40793,238143
7.41605,203760
7.42418,192356
7.43230,168733
7.44042,162536
7.44855,156578
7.45667,164369
7.46478,171435
7.47292,181846
7.48103,190319
7.48917,198059
7.49728,185588
7.50540,161724
7.51353,162092
7.52165,168211
7.52978,214096
7.53790,373232
7.54602,850925
7.55415,1977299
7.56227,4274246
7.57038,7637470
7.57852,1.156384E+07
7.58663,1.471509E+07
7.59477,1.558025E+07
7.60288,1.389964E+07
7.61100,1.048956E+07
7.61913,6930525
7.62725,4045135
7.63538,2349025
7.64350,1477543
7.65162,998102
7.65975,724309
7.66787,560335
7.67600,414694
7.68412,328678
7.69223,254003
7.70037,222430
7.70848,213593
7.71660,245117
7.72473,341525
7.73285,460347
7.74098,560700
7.74910,624894
7.75722,627486
7.76535,583921
7.77347,511514
7.78160,450952
7.78972,392919
7.79783,375955
7.80597,378518
7.81408,431780
7.82222,494585
7.83033,519116
7.83845,474118
7.84658,405018
7.85470,319924
7.86282,309209
7.87095,328311
7.87907,385524
7.88720,483276
7.89532,612989
7.90343,771212
7.91157,841737
7.91968,789895
7.92782,627232
7.93593,461431
7.94405,388013
7.95218,386420
7.96030,406215
7.96842,394057
7.97655,360894
7.98467,306119
7.99280,262851
8.00092,216236
8.00903,191759
8.01717,174597
8.02528,167590
8.03342,157840
8.04153,150404
8.04965,147043
8.05778,140742
8.06590,138556
8.07403,144409
8.08215,144691
8.09027,151164
8.09840,145491
8.10652,136675
8.11463,136021
8.12277,131535
8.13088,140691
8.13902,188416
8.14713,277777
8.15525,404168
8.16338,488052
8.17150,499041
8.17963,430156
8.18775,330891
8.19587,258416
8.20400,209368
8.21212,181634
8.22023,162789
8.22837,159375
8.23648,135037
8.24462,128698
8.25273,119260
8.26085,126690
8.26898,125396
8.27710,112384
8.28523,112130
8.29335,117232
8.30147,119539
8.30960,115005
8.31772,129335
8.32585,160401
8.33397,204497
8.34208,238766
8.35022,259235
8.35833,228989
8.36645,188903
8.37458,148699
8.38270,123326
8.39083,109321
8.39895,102083
8.40707,105028
8.41520,106025
8.42332,103189
8.43145,101132
8.43957,98883
8.44768,102316
8.45582,104335
8.46393,104219
8.47207,102041
8.48018,99848
8.48830,90193
8.49643,93900
8.50455,98913
8.51267,106791
8.52080,126436
8.52892,182694
8.53705,266092
8.54517,316808
8.55328,291408
8.56142,228357
8.56953,168361
8.57767,123508
8.58578,107656
8.59390,106150
8.60203,107884
8.61015,111363
8.61827,120424
8.62640,145367
8.63452,166137
8.64265,183010
8.65077,163474
8.65888,150540
8.66702,123707
8.67513,113065
8.68327,104012
8.69138,93017
8.69950,98578
8.70763,94179
8.71575,99131
8.72388,96417
8.73200,93899
8.74012,91917
8.74825,90713
8.75637,89730
8.76448,97014
8.77262,120964
8.78073,184547
8.78887,316369
8.79698,464515
8.80510,592968
8.81323,636406
8.82135,545689
8.82948,436903
8.83760,342884
8.84572,294636
8.85385,262716
8.86197,247127
8.87010,227639
8.87822,221552
8.88633,202459
8.89447,198066
8.90258,190035
8.91070,193190
8.91883,222135
8.92695,271241
8.93508,382124
8.94320,479049
8.95132,488376
8.95945,435807
8.96757,345385
8.97570,312880
8.98382,346979
8.99193,424879
9.00007,488300
9.00818,500156
9.01630,434523
9.02443,358004
9.03255,276903
9.04068,222227
9.04880,193235
9.05692,177521
9.06505,171340
9.07317,171072
9.08130,166363
9.08942,179271
9.09753,213395
9.10567,293840
9.11378,448728
9.12192,646786
9.13003,795484
9.13815,813946
9.14628,688160
9.15440,519326
9.16252,369841
9.17065,286697
9.17877,247858
9.18690,232893
9.19502,221202
9.20313,210131
9.21127,202941
9.21938,187386
9.22752,193119
9.23563,195485
9.24375,200191
9.25188,216625
9.26000,215746
9.26813,215761
9.27625,199277
9.28437,187096
9.29250,177719
9.30062,166619
9.30873,165869
9.31687,167431
9.32498,165870
9.33312,164267
9.34123,155330
9.34935,149261
9.35748,150307
9.36560,141609
9.37373,140697
9.38185,150373
9.38997,192652
9.39810,288059
9.40622,452855
9.41433,654974
9.42247,879884
9.43058,1058449
9.43872,1167210
9.44683,1247512
9.45495,1255661
9.46308,1193689
9.47120,995309
9.47933,749263
9.48745,527273
9.49557,366787
9.50370,293703
9.51182,278544
9.51995,322792
9.52807,390016
9.53618,450051
9.54432,488336
9.55243,481333
9.56055,411114
9.56868,345756
9.57680,271353
9.58493,205220
9.59305,173381
9.60117,158319
9.60930,148439
9.61742,141217
9.62555,143261
9.63367,143196
9.64178,135546
9.64992,127533
9.65803,132230
9.66615,130811
9.67428,123867
9.68240,126889
9.69053,138986
9.69865,129167
9.70677,125978
9.71490,122272
9.72302,123265
9.73115,127992
9.73927,117826
9.74738,117770
9.75552,110749
9.76363,104314
9.77177,103838
9.77988,95866
9.78800,98963
9.79613,101188
9.80425,99855
9.81237,92427
9.82050,99069
9.82862,95871
9.83675,92052
9.84487,95030
9.85298,98269
9.86112,102493
9.86923,101376
9.87737,93449
9.88548,90447
9.89360,87634
9.90173,87748
9.90985,90388
9.91798,91679
9.92610,102445
9.93422,128061
9.94235,205511
9.95047,365935
9.95858,678552
9.96672,1085667
9.97483,1469919
9.98297,1550896
9.99108,1381081
9.99920,1028107
10.00733,660346
10.01545,388314
10.02358,238831
10.03170,183644
10.03982,184702
10.04795,202085
10.05607,225542
10.06418,255451
10.07232,260844
10.08043,265766
10.08857,256216
10.09668,238702
10.10480,227943
10.11293,205878
10.12105,192840
10.12918,187279
10.13730,180904
10.14542,174451
10.15355,168739
10.16167,160938
10.16980,156056
10.17792,156234
10.18603,143286
10.19417,150112
10.20228,146538
10.21040,136782
10.21853,132027
10.22665,132018
10.23478,135851
10.24290,135816
10.25102,158423
10.25915,213595
10.26727,446030
10.27540,1110333
10.28352,2488274
10.29163,4868524
10.29977,7898918
10.30788,1.151207E+07
10.31602,1.521366E+07
10.32413,1.949006E+07
10.33225,2.473174E+07
10.34038,3.137796E+07
10.34850,3.879965E+07
10.35662,4.724997E+07
10.36475,5.331046E+07
10.37287,5.153468E+07
10.38100,3.813565E+07
10.38912,2.346361E+07
10.39723,1.588327E+07
10.40537,1.175903E+07
10.41348,8021078
10.42162,5061889
10.42973,3204524
10.43785,2362200
10.44598,2146942
10.45410,2170112
10.46222,2235810
10.47035,2238908
10.47847,2124088
10.48660,1824916
10.49472,1457089
10.50283,1169576
10.51097,962377
10.51908,818137
10.52722,740548
10.53533,698838
10.54345,639269
10.55158,638122
10.55970,591547
10.56783,574646
10.57595,566455
10.58407,529920
10.59220,538925
10.60032,506419
10.60843,480431
10.61657,451705
10.62468,425453
10.63282,409063
10.64093,397606
10.64905,385677
10.65718,370217
10.66530,348250
10.67343,339273
10.68155,333464
10.68967,340747
10.69780,354282
10.70592,371457
10.71403,396335
10.72217,425539
10.73028,432249
10.73842,392789
10.74653,365876
10.75465,332133
10.76278,307614
10.77090,287949
10.77903,282462
10.78715,256647
10.79527,263746
10.80340,280716
10.81152,311906
10.81965,371752
10.82777,425674
10.83588,429150
10.84402,398690
10.85213,337956
10.86025,281328
10.86838,234602
10.87650,214782
10.88463,211236
10.89275,204015
10.90087,202431
10.90900,195225
10.91712,198283
10.92525,193456
10.93337,196154
10.94148,193830
10.94962,185740
10.95773,178468
10.96587,172533
10.97398,177242
10.98210,175914
10.99023,180630
10.99835,198486
11.00647,228636
11.01460,261600
11.02272,306200
11.03085,326557
11.03897,318482
11.04708,288196
11.05522,264342
11.06333,236348
11.07147,251197
11.07958,291178
11.08770,367543
11.09583,424164
11.10395,454956
11.11208,471667
11.12020,413539
11.12832,372808
11.13645,325117
11.14457,274213
11.15268,224946
11.16082,210772
11.16893,199203
11.17707,203775
11.18518,189136
11.19330,178804
11.20143,169086
11.20955,158255
11.21768,133850
11.22580,132530
11.23392,123444
11.24205,120189
11.25017,108597
11.25828,110626
11.26642,103452
11.27453,102823
11.28267,98879
11.29078,102514
11.29890,121736
11.30703,205336
11.31515,475894
11.32328,1219048
11.33140,2761441
11.33952,5350799
11.34765,8582160
11.35577,1.134963E+07
11.36390,1.259042E+07
11.37202,1.166877E+07
11.38013,9448570
11.38827,6812548
11.39638,4803091
11.40450,3580577
11.41263,2764017
11.42075,2207556
11.42888,1716898
11.43700,1367289
11.44512,1089881
11.45325,915942
11.46137,788332
11.46950,649674
11.47762,587137
11.48573,550315
11.49387,536257
11.50198,589921
11.51010,681257
11.51823,797351
11.52635,844863
11.53448,825630
11.54260,740879
11.55072,689292
11.55885,626632
11.56697,581749
11.57510,576549
11.58322,555701
11.59133,550384
11.59947,574857
11.60758,681360
11.61572,819778
11.62383,961903
11.63195,993082
11.64008,892115
11.64820,707842
11.65632,522608
11.66445,390734
11.67257,298721
11.68070,267821
11.68882,258410
11.69693,261606
11.70507,250993
11.71318,259971
11.72132,254419
11.72943,259101
11.73755,245005
11.74568,233718
11.75380,206179
11.76193,180933
11.77005,169616
11.77817,157338
11.78630,142780
11.79442,136414
11.80253,135926
11.81067,125375
11.81878,126873
11.82692,122710
11.83503,116576
11.84315,122114
11.85128,115026
11.85940,119495
11.86753,110565
11.87565,110978
11.88377,102370
11.89190,103347
11.90002,112619
11.90813,100375
11.91627,107821
11.92438,110183
11.93252,118508
11.94063,116061
11.94875,124918
11.95688,110962
11.96500,110583
11.97313,106810
11.98125,97649
11.98937,96259
11.99750,93739
12.00562,85435
12.01375,90210
12.02187,87493
12.02998,89502
12.03812,83906
12.04623,88041
12.05435,89237
12.06248,99426
12.07060,102872
12.07873,123449
12.08685,140303
12.09497,191772
12.10310,286825
12.11122,542975
12.11935,1098865
12.12747,2116626
12.13558,3656557
12.14372,5270283
12.15183,6296282
12.15997,6089142
12.16808,5063163
12.17620,3595682
12.18433,2497397
12.19245,1756522
12.20057,1427310
12.20870,1222157
12.21682,1081128
12.22495,965461
12.23307,838545
12.24118,749360
12.24932,668883
12.25743,630229
12.26557,584491
12.27368,557736
12.28180,541569
12.28993,518763
12.29805,477981
12.30617,425298
12.31430,408448
12.32242,388561
12.33055,356059
12.33867,337940
12.34678,336632
12.35492,321542
12.36303,307345
12.37117,292424
12.37928,287593
12.38740,292722
12.39553,297517
12.40365,338492
12.41178,428912
12.41990,607512
12.42802,757917
12.43615,873745
12.44427,858326
12.45238,702612
12.46052,566035
12.46863,448611
12.47677,372828
12.48488,329000
12.49300,320807
12.50113,306894
12.50925,298672
12.51738,283681
12.52550,292532
12.53362,321074
12.54175,402738
12.54987,513839
12.55798,643196
12.56612,706745
12.57423,670471
12.58237,619758
12.59048,498388
12.59860,410338
12.60673,341307
12.61485,295961
12.62298,264258
12.63110,246090
12.63922,234127
12.64735,219683
12.65547,213037
12.66360,198473
12.67172,193881
12.67983,187034
12.68797,172404
12.69608,177407
12.70420,178383
12.71233,177266
12.72045,183436
12.72858,173731
12.73670,164726
12.74482,166775
12.75295,166824
12.76107,157461
12.76920,155624
12.77732,149187
12.78543,143571
12.79357,143236
12.80168,145247
12.80982,134344
12.81793,128591
12.82605,117514
12.83418,108764
12.84230,95690
12.85042,85763
12.85855,84166
12.86667,80057
12.87480,76175
12.88292,78034
12.89103,75794
12.89917,78222
12.90728,79155
12.91542,80526
12.92353,77729
12.93165,79797
12.93978,77234
12.94790,78392
12.95602,76339
12.96415,87088
12.97227,86624
12.98040,98634
12.98852,109429
12.99663,112572
13.00477,102023
13.01288,96435
13.02102,90313
13.02913,87022
13.03725,83308
13.04538,72989
13.05350,71143
13.06163,77881
13.06975,79984
13.07787,85165
13.08600,84648
13.09412,94845
13.10223,93064
13.11037,93381
13.11848,84913
13.12662,78780
13.13473,77934
13.14285,85834
13.15098,79897
13.15910,76302
13.16723,80339
13.17535,83603
13.18347,95267
13.19160,91460
13.19972,95499
13.20785,93174
13.21597,103743
13.22408,103684
13.23222,112448
13.24033,124643
13.24845,130550
13.25658,125615
13.26470,126387
13.27283,124119
13.28095,116218
13.28907,117324
13.29720,93390
13.30532,92124
13.31345,86632
13.32157,78856
13.32968,76083
13.33782,74552
13.34593,72651
13.35405,70882
13.36218,72373
13.37030,73312
13.37843,73216
13.38655,78276
13.39467,72631
13.40280,69936
13.41092,69205
13.41905,73370
13.42717,69183
13.43528,70103
13.44342,70235
13.45153,76104
13.45967,82787
13.46778,94945
13.47590,102951
13.48403,107191
13.49215,115333
13.50027,105046
13.50840,95045
13.51652,99511
13.52465,99341
13.53277,108963
13.54088,99632
13.54902,99756
13.55713,89329
13.56527,84561
13.57338,81944
13.58150,97543
13.58963,114875
13.59775,138435
13.60588,174995
13.61400,198436
13.62212,215936
13.63025,226155
13.63837,210944
13.64648,185678
13.65462,159542
13.66273,126006
13.67087,106367
13.67898,86304
13.68710,75580
13.69523,73356
13.70335,66152
13.71148,64608
13.71960,61032
13.72772,61702
13.73585,67839
13.74397,68433
13.75208,75919
13.76022,99169
13.76833,145331
13.77647,205355
13.78458,295900
13.79270,442219
13.80083,630703
13.80895,805738
13.81708,1052152
13.82520,1320580
13.83332,1699941
13.84145,2134733
13.84957,2484072
13.85770,2556852
13.86582,2317672
13.87393,1885284
13.88207,1372691
13.89018,942549
13.89830,657898
13.90643,446562
13.91455,339267
13.92268,256866
13.93080,214511
13.93892,175639
13.94705,162021
13.95517,146858
13.96330,129339
13.97142,119783
13.97953,110288
13.98767,106110
13.99578,109314
14.00390,115872
14.01203,109695
14.02015,124336
14.02828,111738
14.03640,105271
14.04452,96030
14.05265,91750
14.06077,89496
14.06890,88593
14.07702,93061
14.08513,96527
14.09327,89266
14.10138,95610
14.10952,93666
14.11763,86556
14.12575,82944
14.13388,83310
14.14200,95255
14.15012,114790
14.15825,138725
14.16637,180185
14.17450,206226
14.18262,217327
14.19073,228536
14.19887,226516
14.20698,221334
14.21512,251328
14.22323,279039
14.23135,302564
14.23948,341171
14.24760,382258
14.25573,421629
14.26385,486301
14.27197,500160
14.28010,453745
14.28822,403574
14.29633,326812
14.30447,255494
14.31258,206564
14.32072,189630
14.32883,177033
14.33695,168924
14.34508,161720
14.35320,160375
14.36133,151432
14.36945,144618
14.37757,136578
14.38570,120548
14.39382,116385
14.40193,126620
14.41007,144820
14.41818,196064
14.42632,257952
14.43443,290637
14.44255,305013
14.45068,269728
14.45880,242853
14.46693,199378
14.47505,187854
14.48317,189675
14.49130,199278
14.49942,213905
14.50755,209136
14.51567,195154
14.52378,174357
14.53192,161235
14.54003,142852
14.54815,137481
14.55628,126016
14.56440,116979
14.57253,115753
14.58065,107905
14.58877,93855
14.59690,91415
14.60502,85645
14.61315,77672
14.62127,82486
14.62938,71039
14.63752,71424
14.64563,74575
14.65377,72520
14.66188,73236
14.67000,70448
14.67813,65924
14.68625,71558
14.69437,67050
14.70250,66470
14.71062,70549
14.71875,72987
14.72687,71023
14.73498,77673
14.74312,85374
14.75123,91112
14.75937,90304
14.76748,107166
14.77560,107387
14.78373,122209
14.79185,155640
14.79997,316246
14.80810,830617
14.81622,2205579
14.82435,5034656
14.83247,9588390
14.84058,1.563331E+07
14.84872,2.170884E+07
14.85683,2.59834E+07
14.86497,2.608883E+07
14.87308,2.146098E+07
14.88120,1.350232E+07
14.88933,7248081
14.89745,3737988
14.90558,2430089
14.91370,1823769
14.92182,1521126
14.92995,1333050
14.93807,1222904
14.94618,1087108
14.95432,1008626
14.96243,947758
14.97057,862386
14.97868,787325
14.98680,731394
14.99493,682207
15.00305,640168
15.01118,608426
15.01930,600055
15.02742,575889
15.03555,557637
15.04367,555276
15.05178,516275
15.05992,513204
15.06803,480478
15.07617,440880
15.08428,418909
15.09240,394078
15.10053,381889
15.10865,358023
15.11678,339368
15.12490,344198
15.13302,356890
15.14115,414967
15.14927,483048
15.15740,535345
15.16552,536230
15.17363,466851
15.18177,366316
15.18988,264947
15.19800,199250
15.20613,170648
15.21425,152232
15.22238,141281
15.23050,138408
15.23862,132549
15.24675,125578
15.25487,134743
15.26300,125718
15.27112,120567
15.27923,115959
15.28737,109843
15.29548,110337
15.30362,104112
15.31173,98978
15.31985,98122
15.32798,100988
15.33610,98448
15.34422,91929
15.35235,85829
15.36047,94013
15.36860,92254
15.37672,96488
15.38483,106866
15.39297,111779
15.40108,114226
15.40922,111317
15.41733,111898
15.42545,100179
15.43358,98341
15.44170,98738
15.44982,101666
15.45795,108490
15.46607,125835
15.47420,197348
15.48232,337440
15.49043,630989
15.49857,1092823
15.50668,1607811
15.51482,2083341
15.52293,2244663
15.53105,2164356
15.53918,1840854
15.54730,1441201
15.55543,1046595
15.56355,744354
15.57167,539610
15.57980,400254
15.58792,303095
15.59603,251473
15.60417,217601
15.61228,205940
15.62042,186283
15.62853,179913
15.63665,163132
15.64478,161161
15.65290,144097
15.66103,140805
15.66915,148195
15.67727,130169
15.68540,119302
15.69352,109696
15.70165,106909
15.70977,99128
15.71788,95643
15.72602,93640
15.73413,97857
15.74225,97177
15.75038,109984
15.75850,145555
15.76663,250864
15.77475,490581
15.78287,925562
15.79100,1534334
15.79912,2045571
15.80725,2207419
15.81537,1987682
15.82348,1456455
15.83162,955838
15.83973,594460
15.84785,412621
15.85598,299059
15.86410,264376
15.87223,225303
15.88035,215558
15.88847,205246
15.89660,201355
15.90472,190196
15.91285,182087
15.92097,178503
15.92908,163891
15.93722,157158
15.94533,156667
15.95347,151254
15.96158,157089
15.96970,135651
15.97783,140059
15.98595,131884
15.99407,125591
16.00220,132609
16.01032,135105
16.01845,149033
16.02657,169833
16.03468,172235
16.04282,180134
16.05093,173116
16.05907,153946
16.06718,143234
16.07530,126134
16.08343,118795
16.09155,101124
16.09967,104364
16.10780,103342
16.11592,106118
16.12405,119751
16.13217,134962
16.14028,163191
16.14842,201760
16.15653,232451
16.16467,253675
16.17278,253239
16.18090,242395
16.18903,204006
16.19715,170967
16.20528,147020
16.21340,132097
16.22152,135024
16.22965,131965
16.23777,129374
16.24588,129819
16.25402,114857
16.26213,107850
16.27027,103419
16.27838,105544
16.28650,114727
16.29463,134094
16.30275,178813
16.31088,212651
16.31900,233428
16.32712,232721
16.33525,221292
16.34337,189148
16.35150,166584
16.35962,144024
16.36773,129550
16.37587,136880
16.38398,123029
16.39210,122453
16.40023,119032
16.40835,113993
16.41648,100794
16.42460,105050
16.43272,107875
16.44085,115803
16.44897,161017
16.45710,323112
16.46522,768926
16.47333,1795143
16.48147,3427671
16.48958,5169381
16.49772,6387100
16.50583,6351587
16.51395,5267702
16.52208,3627819
16.53020,2139369
16.53832,1179435
16.54645,749320
16.55457,547549
16.56270,445153
16.57082,374621
16.57893,333523
16.58707,323275
16.59518,306991
16.60332,300346
16.61143,280528
16.61955,267144
16.62768,259422
16.63580,235413
16.64392,215950
16.65205,206378
16.66017,193324
16.66830,183194
16.67642,178172
16.68453,169844
16.69267,163894
16.70078,162908
16.70892,149554
16.71703,140607
16.72515,139573
16.73328,124651
16.74140,116725
16.74953,115918
16.75765,132397
16.76577,160734
16.77390,203303
16.78202,222162
16.79013,201928
16.79827,183045
16.80638,146618
16.81452,102023
16.82263,95328
16.83075,92669
16.83888,93077
16.84700,85774
16.85513,84264
16.86325,82178
16.87137,77957
16.87950,75227
16.88762,77866
16.89573,75046
16.90387,74951
16.91198,74900
16.92012,79329
16.92823,76503
16.93635,76079
16.94448,75707
16.95260,75861
16.96073,77713
16.96885,81540
16.97697,77016
16.98510,75884
16.99322,83534
17.00135,82293
17.00947,88366
17.01758,89141
17.02572,92102
17.03383,103153
17.04195,107998
17.05008,140460
17.05820,160677
17.06633,184736
17.07445,202517
17.08257,189226
17.09070,167980
17.09882,133357
17.10695,113112
17.11507,98797
17.12318,99251
17.13132,113140
17.13943,125472
17.14757,129128
17.15568,139280
17.16380,141585
17.17193,128775
17.18005,127520
17.18817,117941
17.19630,113369
17.20442,102894
17.21255,92598
17.22067,95246
17.22878,81812
17.23692,82977
17.24503,83979
17.25317,87667
17.26128,97727
17.26940,89860
17.27753,90430
17.28565,89062
17.29377,87512
17.30190,80881
17.31002,83760
17.31815,92698
17.32627,111586
17.33438,150867
17.34252,211374
17.35063,260284
17.35877,305081
17.36688,327286
17.37500,317974
17.38313,291215
17.39125,269649
17.39938,258674
17.40750,254016
17.41562,248990
17.42375,249516
17.43187,247343
17.43998,258137
17.44812,253900
17.45623,242647
17.46437,217876
17.47248,191800
17.48060,170667
17.48873,157278
17.49685,143241
17.50498,131559
17.51310,132941
17.52122,124955
17.52935,122390
17.53747,123684
17.54560,130630
17.55372,124276
17.56183,132817
17.56997,204686
17.57808,399060
17.58620,860799
17.59433,1768952
17.60245,3102910
17.61058,4552676
17.61870,5496165
17.62682,5799793
17.63495,5110630
17.64307,3851780
17.65120,2614528
17.65932,1560659
17.66743,937722
17.67557,561444
17.68368,390355
17.69180,306526
17.69993,281664
17.70805,250796
17.71618,262093
17.72430,249339
17.73242,256179
17.74055,252193
17.74867,255770
17.75680,254310
17.76492,240284
17.77303,220126
17.78117,197460
17.78928,167847
17.79742,151435
17.80553,139307
17.81365,137101
17.82178,129588
17.82990,131623
17.83802,143515
17.84615,167541
17.85427,222810
17.86240,287387
17.87052,387360
17.87863,450294
17.88677,463955
17.89488,409709
17.90302,330442
17.91113,237722
17.91925,167251
17.92738,137469
17.93550,119561
17.94362,112233
17.95175,111806
17.95987,99956
17.96800,93094
17.97612,89461
17.98423,87460
17.99237,84392
18.00048,90158
18.00862,89995
18.01673,117453
18.02485,161148
18.03298,261451
18.04110,390709
18.04923,543083
18.05735,690125
18.06547,875176
18.07360,1405881
18.08172,2627913
18.08983,4723929
18.09797,7495099
18.10608,9779076
18.11422,1.068895E+07
18.12233,9641716
18.13045,7609450
18.13858,5366387
18.14670,3903279
18.15483,2919844
18.16295,2386038
18.17107,1991521
18.17920,1759520
18.18732,1486329
18.19545,1315956
18.20357,1203788
18.21168,1053690
18.21982,963365
18.22793,850213
18.23605,808436
18.24418,735982
18.25230,715207
18.26043,670342
18.26855,628831
18.27667,565091
18.28480,478758
18.29292,408232
18.30105,320428
18.30917,247182
18.31728,192185
18.32542,171964
18.33353,152430
18.34165,138721
18.34978,143070
18.35790,131896
18.36603,131995
18.37415,122824
18.38227,124347
18.39040,121635
18.39852,128557
18.40665,130123
18.41477,157826
18.42288,201777
18.43102,270751
18.43913,401627
18.44727,559398
18.45538,692841
18.46350,882666
18.47163,1155134
18.47975,1540759
18.48787,1919544
18.49600,2157305
18.50412,2186600
18.51225,1858379
18.52037,1406264
18.52848,954906
18.53662,608160
18.54473,394802
18.55287,280881
18.56098,219731
18.56910,180789
18.57723,161589
18.58535,148742
18.59348,142938
18.60160,152766
18.60972,177896
18.61785,205955
18.62597,249406
18.63408,277511
18.64222,282685
18.65033,282406
18.65847,257058
18.66658,225350
18.67470,188400
18.68283,156835
18.69095,135739
18.69908,127910
18.70720,115747
18.71532,127223
18.72345,126423
18.73157,123374
18.73968,121202
18.74782,124772
18.75593,110734
18.76407,106428
18.77218,103435
18.78030,104429
18.78843,98646
18.79655,101555
18.80468,102085
18.81280,99918
18.82092,106593
18.82905,109798
18.83717,98231
18.84530,98734
18.85342,101926
18.86153,116189
18.86967,133770
18.87778,158520
18.88590,194318
18.89403,214583
18.90215,221752
18.91028,208129
18.91840,196198
18.92652,173718
18.93465,174504
18.94277,184420
18.95090,207067
18.95902,217465
18.96713,240997
18.97527,261595
18.98338,238243
18.99152,232260
18.99963,200289
19.00775,171625
19.01588,154156
19.02400,136142
19.03212,129281
19.04025,110046
19.04837,115191
19.05650,109816
19.06462,106573
19.07273,104704
19.08087,100636
19.08898,121176
19.09712,150323
19.10523,187896
19.11335,232696
19.12148,267606
19.12960,272428
19.13772,236887
19.14585,191066
19.15397,155938
19.16210,119537
19.17022,104431
19.17833,95437
19.18647,91715
19.19458,86938
19.20272,82858
19.21083,79071
19.21895,79701
19.22708,80588
19.23520,83738
19.24333,84758
19.25145,92002
19.25957,82613
19.26770,85370
19.27582,87648
19.28393,89412
19.29207,98395
19.30018,125131
19.30832,136540
19.31643,145792
19.32455,150408
19.33268,143883
19.34080,133644
19.34893,129601
19.35705,138096
19.36517,183060
19.37330,259444
19.38142,365238
19.38953,441418
19.39767,461831
19.40578,440986
19.41392,351297
19.42203,282947
19.43015,221585
19.43828,178268
19.44640,160684
19.45453,154361
19.46265,141913
19.47077,136692
19.47890,133607
19.48702,129385
19.49515,139445
19.50327,157036
19.51138,189039
19.51952,224225
19.52763,289157
19.53575,352431
19.54388,415255
19.55200,452268
19.56013,473878
19.56825,435196
19.57637,389485
19.58450,340013
19.59262,291508
19.60075,257684
19.60887,230339
19.61698,213711
19.62512,206413
19.63323,203731
19.64137,208517
19.64948,235120
19.65760,291687
19.66573,377805
19.67385,518545
19.68197,676311
19.69010,795212
19.69822,862784
19.70635,890952
19.71447,825552
19.72258,749926
19.73072,665788
19.73883,601840
19.74697,513833
19.75508,452716
19.76320,399646
19.77133,361791
19.77945,388266
19.78757,459394
19.79570,577797
19.80382,754962
19.81195,919204
19.82007,1021302
19.82818,1022956
19.83632,894130
19.84443,719072
19.85257,557366
19.86068,429102
19.86880,361829
19.87693,345494
19.88505,387685
19.89318,507079
19.90130,617749
19.90942,751813
19.91755,850321
19.92567,831461
19.93378,765617
19.94192,633609
19.95003,539577
19.95817,461308
19.96628,410141
19.97440,368166
19.98253,348923
19.99065,328546
19.99878,313695
20.00690,316713
20.01502,315361
20.02315,321571
20.03127,315748
20.03940,334682
20.04752,349406
20.05563,353715
20.06377,403712
20.07188,532079
20.08000,738634
20.08813,1007726
20.09625,1220410
20.10438,1343876
20.11250,1351719
20.12062,1185134
20.12875,941836
20.13687,748872
20.14500,632712
20.15312,681720
20.16123,1047284
20.16937,1793617
20.17748,3035365
20.18560,4709029
20.19373,6809148
20.20185,8395392
20.20998,9121994
20.21810,9041876
20.22622,7888204
20.23435,6305180
20.24247,4716430
20.25060,3804269
20.25872,3600962
20.26683,4097201
20.27497,5008874
20.28308,5796524
20.29122,6146423
20.29933,5936544
20.30745,5192331
20.31558,4152300
20.32370,3070450
20.33182,2142057
20.33995,1453239
20.34807,1002125
20.35620,756282
20.36432,567953
20.37243,453434
20.38057,401044
20.38868,337126
20.39682,311578
20.40493,290093
20.41305,257899
20.42118,247747
20.42930,236830
20.43742,239541
20.44555,238003
20.45367,261943
20.46180,281406
20.46992,302887
20.47803,302224
20.48617,288787
20.49428,277553
20.50242,242027
20.51053,221228
20.51865,204319
20.52678,189744
20.53490,181790
20.54303,192334
20.55115,198585
20.55927,205703
20.56740,207345
20.57552,198879
20.58363,197894
20.59177,181354
20.59988,175951
20.60802,161159
20.61613,166393
20.62425,168755
20.63238,178833
20.64050,194283
20.64863,206803
20.65675,228575
20.66487,255529
20.67300,272148
20.68112,259293
20.68925,239621
20.69737,209353
20.70548,185020
20.71362,164029
20.72173,162801
20.72985,150495
20.73798,155278
20.74610,156881
20.75423,166829
20.76235,194760
20.77047,225353
20.77860,266705
20.78672,329535
20.79485,474191
20.80297,838387
20.81108,1510388
20.81922,2499624
20.82733,3570072
20.83547,3977091
20.84358,3988609
20.85170,3306418
20.85983,2237020
20.86795,1401097
20.87607,801285
20.88420,505418
20.89232,357010
20.90045,299289
20.90857,280923
20.91668,308998
20.92482,339895
20.93293,412905
20.94107,444515
20.94918,483149
20.95730,497313
20.96543,480135
20.97355,425026
20.98167,348286
20.98980,302145
20.99792,242578
21.00605,224150
21.01417,198425
21.02228,193377
21.03042,191551
21.03853,203104
21.04667,210467
21.05478,213739
21.06290,207451
21.07103,201580
21.07915,179616
21.08728,173752
21.09540,156714
21.10352,154305
21.11165,152942
21.11977,145434
21.12788,153797
21.13602,185919
21.14413,258164
21.15227,418245
21.16038,663938
21.16850,998526
21.17663,1224986
21.18475,1251333
21.19288,1136142
21.20100,925920
21.20912,668318
21.21725,484906
21.22537,366863
21.23348,291414
21.24162,254174
21.24973,226866
21.25787,203210
21.26598,184513
21.27410,167312
21.28223,163359
21.29035,151954
21.29848,147000
21.30660,145686
21.31472,145425
21.32285,145931
21.33097,134400
21.33910,141693
21.34722,139241
21.35533,142889
21.36347,158756
21.37158,159076
21.37970,160772
21.38783,184976
21.39595,206090
21.40408,251232
21.41220,303482
21.42032,359397
21.42845,430680
21.43657,436128
21.44470,410028
21.45282,370170
21.46093,320315
21.46907,288721
21.47718,250824
21.48532,220487
21.49343,210357
21.50155,197981
21.50968,189655
21.51780,159743
21.52592,162167
21.53405,153804
21.54217,141708
21.55030,140980
21.55842,138479
21.56653,145509
21.57467,139932
21.58278,161648
21.59092,189518
21.59903,207260
21.60715,246705
21.61528,249867
21.62340,246464
21.63152,232188
21.63965,220259
21.64777,220777
21.65590,243002
21.66402,284557
21.67213,328481
21.68027,374791
21.68838,433308
21.69652,460660
21.70463,443903
21.71275,399325
21.72088,339119
21.72900,272370
21.73713,216870
21.74525,180087
21.75337,163376
21.76150,155698
21.76962,137925
21.77773,148607
21.78587,140786
21.79398,145164
21.80212,149561
21.81023,158477
21.81835,162716
21.82648,168734
21.83460,177754
21.84273,173444
21.85085,189860
21.85897,221893
21.86710,241830
21.87522,244233
21.88335,235230
21.89147,224388
21.89958,208149
21.90772,197053
21.91583,179070
21.92395,173999
21.93208,172254
21.94020,161963
21.94833,141926
21.95645,136245
21.96457,124085
21.97270,120533
21.98082,110032
21.98895,108825
21.99707,103896
22.00518,102221
22.01332,110958
22.02143,117839
22.02955,127798
22.03768,138789
22.04580,152322
22.05393,168146
22.06205,172898
22.07017,171034
22.07830,162682
22.08642,157342
22.09455,150905
22.10267,137173
22.11078,137505
22.11892,118762
22.12703,120502
22.13517,111253
22.14328,103639
22.15140,107672
22.15953,98192
22.16765,101261
22.17577,100296
22.18390,100206
22.19202,105642
22.20015,104532
22.20827,103803
22.21638,102600
22.22452,102750
22.23263,110104
22.24077,118108
22.24888,123273
22.25700,137739
22.26513,147482
22.27325,152133
22.28137,166590
22.28950,187108
22.29762,204742
22.30575,234699
22.31387,239857
22.32198,233735
22.33012,212300
22.33823,196371
22.34637,169933
22.35448,151577
22.36260,153196
22.37073,137400
22.37885,129563
22.38698,140419
22.39510,176832
22.40322,257830
22.41135,394454
22.41947,614846
22.42758,860908
22.43572,1039638
22.44383,1068469
22.45197,958848
22.46008,742319
22.46820,520119
22.47633,380577
22.48445,298175
22.49258,279660
22.50070,309965
22.50882,372477
22.51695,466577
22.52507,537585
22.53320,601390
22.54132,598790
22.54943,537009
22.55757,463559
22.56568,390273
22.57380,316571
22.58193,255491
22.59005,228882
22.59818,197374
22.60630,184596
22.61442,163885
22.62255,145903
22.63067,137150
22.63880,129985
22.64692,122470
22.65503,134596
22.66317,148112
22.67128,152583
22.67940,161789
22.68753,168878
22.69565,180973
22.70378,217582
22.71190,258195
22.72002,334463
22.72815,395231
22.73627,435700
22.74440,429106
22.75252,365814
22.76063,312276
22.76877,271391
22.77688,237496
22.78502,235316
22.79313,258542
22.80125,293467
22.80938,365133
22.81750,444315
22.82562,527591
22.83375,536093
22.84187,485524
22.85000,430614
22.85812,384089
22.86623,357405
22.87437,360132
22.88248,423451
22.89062,516347
22.89873,629820
22.90685,731496
22.91498,754712
22.92310,742405
22.93123,725745
22.93935,656428
22.94747,617060
22.95560,551489
22.96372,474778
22.97183,373769
22.97997,286292
22.98808,219343
22.99622,186649
23.00433,159096
23.01245,143775
23.02058,131098
23.02870,118327
23.03683,116119
23.04495,114944
23.05307,111514
23.06120,122860
23.06932,142260
23.07743,163440
23.08557,178530
23.09368,191022
23.10182,183549
23.10993,176915
23.11805,160342
23.12618,142761
23.13430,136215
23.14243,135452
23.15055,125968
23.15867,125738
23.16680,133174
23.17492,125084
23.18305,115182
23.19117,109225
23.19928,101366
23.20742,94808
23.21553,101774
23.22365,95278
23.23178,92878
23.23990,96145
23.24803,105493
23.25615,128751
23.26427,161581
23.27240,202124
23.28052,253150
23.28865,269028
23.29677,254049
23.30488,219331
23.31302,182401
23.32113,147054
23.32925,143997
23.33738,160046
23.34550,199248
23.35363,280675
23.36175,389391
23.36987,528293
23.37800,653199
23.38612,717326
23.39425,670472
23.40237,588830
23.41048,452660
23.41862,329122
23.42673,253067
23.43487,184897
23.44298,145434
23.45110,129274
23.45923,116302
23.46735,106384
23.47547,105388
23.48360,99373
23.49172,92963
23.49985,93219
23.50797,92970
23.51608,100350
23.52422,98806
23.53233,100720
23.54047,104072
23.54858,110710
23.55670,129370
23.56483,159959
23.57295,227162
23.58108,315776
23.58920,487826
23.59732,707821
23.60545,967656
23.61357,1167856
23.62168,1256919
23.62982,1177318
23.63793,959185
23.64607,691768
23.65418,463529
23.66230,305187
23.67043,229259
23.67855,195793
23.68668,175704
23.69480,161955
23.70292,147431
23.71105,144647
23.71917,127210
23.72728,130029
23.73542,112505
23.74353,115410
23.75167,117076
23.75978,121948
23.76790,191506
23.77603,357762
23.78415,724487
23.79228,1366815
23.80040,2095336
23.80852,2702127
23.81665,2996948
23.82477,2677836
23.83290,2090202
23.84102,1559146
23.84913,1159773
23.85727,829360
23.86538,643601
23.87350,530538
23.88163,448866
23.88975,379854
23.89788,379855
23.90600,411623
23.91412,463858
23.92225,580586
23.93037,661913
23.93850,717072
23.94662,696567
23.95473,574151
23.96287,448317
23.97098,352244
23.97912,285143
23.98723,247445
23.99535,227831
24.00348,217102
24.01160,200986
24.01972,208294
24.02785,205599
24.03597,210002
24.04410,217951
24.05222,214975
24.06033,205881
24.06847,195214
24.07658,182167
24.08472,173616
24.09283,165273
24.10095,153908
24.10908,148735
24.11720,147952
24.12532,149647
24.13345,168710
24.14157,188279
24.14970,252204
24.15782,328545
24.16593,405910
24.17407,458949
24.18218,465147
24.19032,456487
24.19843,446713
24.20655,441181
24.21468,429061
24.22280,404838
24.23093,370079
24.23905,310702
24.24717,277104
24.25530,236934
24.26342,206596
24.27153,198011
24.27967,184492
24.28778,162105
24.29592,161874
24.30403,151679
24.31215,159502
24.32028,168486
24.32840,171483
24.33653,177541
24.34465,183924
24.35277,183613
24.36090,173355
24.36902,163546
24.37715,146351
24.38527,139798
24.39338,142516
24.40152,149084
24.40963,162288
24.41775,198148
24.42588,218123
24.43400,237755
24.44213,233481
24.45025,213743
24.45837,191044
24.46650,177996
24.47462,167650
24.48275,162970
24.49087,162873
24.49898,168864
24.50712,167663
24.51523,178563
24.52335,181230
24.53148,195365
24.53960,229341
24.54773,288647
24.55585,359210
24.56397,434805
24.57210,521512
24.58022,547182
24.58835,520730
24.59647,460259
24.60458,408714
24.61272,340531
24.62083,282636
24.62897,234484
24.63708,207469
24.64520,179687
24.65333,160932
24.66145,164185
24.66957,160507
24.67770,162116
24.68582,164867
24.69395,162348
24.70207,153808
24.71018,152038
24.71832,149844
24.72643,146112
24.73457,147045
24.74268,147500
24.75080,150070
24.75893,147990
24.76705,151681
24.77517,166606
24.78330,173345
24.79142,190293
24.79955,211527
24.80767,231765
24.81578,232357
24.82392,237514
24.83203,247545
24.84017,286418
24.84828,356496
24.85640,495521
24.86453,686081
24.87265,976251
24.88078,1393273
24.88890,1953411
24.89702,2680338
24.90515,3281243
24.91327,3446881
24.92138,3320864
24.92952,2705871
24.93763,1883448
24.94577,1178228
24.95388,706713
24.96200,418507
24.97013,276586
24.97825,219953
24.98638,188700
24.99450,175135
25.00262,156231
25.01075,147268
25.01887,152989
25.02700,150943
25.03512,156278
25.04323,154247
25.05137,154760
25.05948,147629
25.06760,155562
25.07573,147205
25.08385,151578
25.09198,156445
25.10010,184304
25.10822,263034
25.11635,565588
25.12447,1359316
25.13260,3151478
25.14072,6434959
25.14883,1.057685E+07
25.15697,1.497083E+07
25.16508,1.847133E+07
25.17320,1.880838E+07
25.18133,1.681779E+07
25.18945,1.246028E+07
25.19758,7834327
25.20570,4421979
25.21382,2320294
25.22195,1180782
25.23007,679639
25.23820,461798
25.24632,383089
25.25443,413545
25.26257,547207
25.27068,714400
25.27882,901623
25.28693,1027074
25.29505,1031195
25.30318,902400
25.31130,718584
25.31942,535847
25.32755,390394
25.33567,273860
25.34380,221565
25.35192,189497
25.36003,165347
25.36817,158409
25.37628,156108
25.38442,148226
25.39253,136763
25.40065,130827
25.40878,127120
25.41690,126880
25.42503,116161
25.43315,119364
25.44127,125648
25.44940,122397
25.45752,121572
25.46563,132121
25.47377,131212
25.48188,130946
25.49002,129750
25.49813,136498
25.50625,140621
25.51438,141358
25.52250,135927
25.53063,135581
25.53875,126649
25.54687,124460
25.55500,107435
25.56312,110345
25.57123,115430
25.57937,111153
25.58748,111055
25.59562,118182
25.60373,122422
25.61185,118230
25.61998,116102
25.62810,116449
25.63623,101104
25.64435,100163
25.65247,101947
25.66060,101677
25.66872,109435
25.67685,119175
25.68497,132801
25.69308,149454
25.70122,176281
25.70933,194149
25.71745,213805
25.72558,207285
25.73370,187455
25.74183,169635
25.74995,149410
25.75807,134698
25.76620,127900
25.77432,116793
25.78245,108019
25.79057,92732
25.79868,104390
25.80682,99733
25.81493,98102
25.82305,95932
25.83118,99609
25.83930,104882
25.84743,105022
25.85555,108090
25.86367,110800
25.87180,110285
25.87992,112925
25.88805,117402
25.89617,124283
25.90428,126201
25.91242,128762
25.92053,131690
25.92867,126902
25.93678,122899
25.94490,124497
25.95303,126253
25.96115,131034
25.96927,133194
25.97740,140206
25.98552,132144
25.99365,125204
26.00177,123641
26.00988,120174
26.01802,111934
26.02613,102704
26.03427,98549
26.04238,95313
26.05050,107518
26.05863,108357
26.06675,122132
26.07488,134222
26.08300,158955
26.09112,167365
26.09925,169808
26.10737,173209
26.11548,180473
26.12362,180577
26.13173,163208
26.13987,149686
26.14798,143769
26.15610,159645
26.16423,163405
26.17235,176476
26.18048,183677
26.18860,188858
26.19672,198807
26.20485,189450
26.21297,177842
26.22108,160334
26.22922,147963
26.23733,136913
26.24547,137693
26.25358,126316
26.26170,127410
26.26983,119008
26.27795,118888
26.28608,108617
26.29420,106236
26.30232,104518
26.31045,100195
26.31857,99385
26.32670,102949
26.33482,108309
26.34293,103609
26.35107,129287
26.35918,204013
26.36730,385103
26.37543,767321
26.38355,1416733
26.39168,2372797
26.39980,3422573
26.40792,4323735
26.41605,4838913
26.42417,4556642
26.43230,3867598
26.44042,2845910
26.44853,1933259
26.45667,1223550
26.46478,829920
26.47292,605299
26.48103,493614
26.48915,439014
26.49728,412524
26.50540,394519
26.51352,371614
26.52165,344804
26.52977,333298
26.53790,318263
26.54602,316625
26.55413,306488
26.56227,301024
26.57038,296010
26.57852,298028
26.58663,296166
26.59475,294111
26.60288,300965
26.61100,293810
26.61912,305122
26.62725,303139
26.63537,291710
26.64350,305324
26.65162,296975
26.65973,304225
26.66787,290973
26.67598,288478
26.68412,293128
26.69223,285383
26.70035,284730
26.70848,276507
26.71660,275256
26.72473,281795
26.73285,276722
26.74097,276867
26.74910,288230
26.75722,293490
26.76533,291615
26.77347,292398
26.78158,290260
26.78972,294863
26.79783,289551
26.80595,301216
26.81408,307035
26.82220,307598
26.83033,303865
26.83845,300003
26.84657,293907
26.85470,277061
26.86282,274834
26.87093,268430
26.87907,279728
26.88718,273378
26.89532,279760
26.90343,274309
26.91155,267094
26.91968,269852
26.92780,261164
26.93593,256471
26.94405,250532
26.95217,251595
26.96030,249878
26.96842,254463
26.97655,265882
26.98467,304413
26.99278,355060
27.00092,474604
27.00903,669120
27.01715,961981
27.02528,1282757
27.03340,1564256
27.04153,1645427
27.04965,1544056
27.05777,1307413
27.06590,1072524
27.07402,860972
27.08215,678646
27.09027,554423
27.09838,486440
27.10652,454550
27.11463,429155
27.12277,396925
27.13088,388621
27.13900,375238
27.14713,386718
27.15525,350848
27.16337,352922
27.17150,376418
27.17962,423471
27.18775,522232
27.19587,625551
27.20398,723925
27.21212,763572
27.22023,718135
27.22837,643113
27.23648,562217
27.24460,479132
27.25273,409293
27.26085,367252
27.26898,321618
27.27710,298470
27.28522,275259
27.29335,258919
27.30147,259381
27.30958,241057
27.31772,255305
27.32583,270362
27.33397,264744
27.34208,272342
27.35020,281518
27.35833,286076
27.36645,293267
27.37458,285688
27.38270,286779
27.39082,285534
27.39895,263031
27.40707,255901
27.41518,248228
27.42332,243707
27.43143,247396
27.43957,248697
27.44768,248755
27.45580,238788
27.46393,254099
27.47205,238262
27.48018,230629
27.48830,229304
27.49642,218160
27.50455,201984
27.51267,192825
27.52080,207853
27.52892,198782
27.53703,197845
27.54517,201975
27.55328,193524
27.56140,208325
27.56953,211072
27.57765,214367
27.58578,246995
27.59390,287920
27.60202,345246
27.61015,403336
27.61827,437973
27.62640,438449
27.63452,392169
27.64263,359683
27.65077,317963
27.65888,281059
27.66700,256636
27.67513,261151
27.68325,251545
27.69138,261781
27.69950,282275
27.70762,300391
27.71575,301265
27.72387,290650
27.73200,254903
27.74012,242556
27.74823,209676
27.75637,188938
27.76448,175545
27.77262,165593
27.78073,174793
27.78885,179562
27.79698,185242
27.80510,204848
27.81322,202887
27.82135,203942
27.82947,192431
27.83760,184538
27.84572,170016
27.85383,162610
27.86197,159178
27.87008,160154
27.87822,149054
27.88633,150741
27.89445,149562
27.90258,153508
27.91070,152674
27.91883,155422
27.92695,156743
27.93507,154866
27.94320,157422
27.95132,152216
27.95943,146959
27.96757,148279
27.97568,149809
27.98382,150677
27.99193,148876
28.00005,155443
28.00818,167452
28.01630,175576
28.02443,211872
28.03255,254048
28.04067,326766
28.04880,430391
28.05692,548873
28.06503,640768
28.07317,631421
28.08128,578825
28.08942,481708
28.09753,368865
28.10565,274955
28.11378,204831
28.12190,178174
28.13003,165859
28.13815,152453
28.14627,146061
28.15440,140958
28.16252,141306
28.17065,144571
28.17877,142066
28.18688,148606
28.19502,153936
28.20313,181437
28.21125,216774
28.21938,273245
28.22750,326486
28.23563,372349
28.24375,400320
28.25187,386774
28.26000,351295
28.26812,283849
28.27625,231525
28.28437,194411
28.29248,166982
28.30062,160309
28.30873,167573
28.31687,211242
28.32498,273629
28.33310,342062
28.34123,362331
28.34935,389078
28.35747,387747
28.36560,380479
28.37372,365910
28.38185,374604
28.38997,375713
28.39808,375238
28.40622,375351
28.41433,370443
28.42247,361573
28.43058,351712
28.43870,315773
28.44683,290982
28.45495,263475
28.46307,233864
28.47120,223331
28.47932,223428
28.48745,231339
28.49557,243795
28.50368,283882
28.51182,329239
28.51993,356157
28.52807,373906
28.53618,368830
28.54430,329340
28.55243,272302
28.56055,214313
28.56868,176378
28.57680,152142
28.58492,148094
28.59305,136862
28.60117,138900
28.60928,136065
28.61742,154550
28.62553,156789
28.63367,192497
28.64178,200036
28.64990,225061
28.65803,236591
28.66615,229878
28.67428,214883
28.68240,198883
28.69052,181648
28.69865,155341
28.70677,144698
28.71488,134036
28.72302,136126
28.73113,122809
28.73927,121921
28.74738,120815
28.75550,111604
28.76363,119869
28.77175,131732
28.77988,136901
28.78800,143652
28.79612,160452
28.80425,184954
28.81237,213358
28.82050,223625
28.82862,228813
28.83673,214671
28.84487,202524
28.85298,186152
28.86110,167470
28.86923,161323
28.87735,160217
28.88548,175779
28.89360,200146
28.90172,230779
28.90985,270641
28.91797,306369
28.92610,301059
28.93422,274243
28.94233,254978
28.95047,215466
28.95858,187544
28.96672,179134
28.97483,169593
28.98295,148976
28.99108,137689
28.99920,129110
29.00732,123355
29.01545,124301
29.02357,121867
29.03170,124688
29.03982,124953
29.04793,123582
29.05607,119839
29.06418,120287
29.07232,118617
29.08043,128468
29.08855,124436
29.09668,128739
29.10480,134670
29.11292,144209
29.12105,137139
29.12917,127365
29.13730,125309
29.14542,116064
29.15353,108425
29.16167,106513
29.16978,105892
29.17792,111349
29.18603,118295
29.19415,123009
29.20228,164468
29.21040,212035
29.21853,300716
29.22665,391512
29.23477,444020
29.24290,452799
29.25102,432537
29.25913,393961
29.26727,358674
29.27538,342207
29.28352,300821
29.29163,267652
29.29975,215974
29.30788,181053
29.31600,153333
29.32413,136442
29.33225,125207
29.34037,112313
29.34850,99854
29.35662,102414
29.36475,99955
29.37287,99879
29.38098,102043
29.38912,101690
29.39723,111124
29.40535,116875
29.41348,114548
29.42160,122249
29.42973,122005
29.43785,131216
29.44597,132573
29.45410,127451
29.46222,124716
29.47035,125882
29.47847,114937
29.48658,110324
29.49472,107335
29.50283,115677
29.51095,116272
29.51908,116175
29.52720,126109
29.53533,123382
29.54345,126116
29.55157,124065
29.55970,109216
29.56782,110398
29.57595,108747
29.58407,99970
29.59218,106775
29.60032,98758
29.60843,100134
29.61657,102469
29.62468,91412
29.63280,99999
29.64093,100534
29.64905,102936
29.65717,105992
29.66530,101339
29.67342,101210
29.68155,105305
29.68967,116309
29.69778,129248
29.70592,158326
29.71403,167448
29.72217,177811
29.73028,171074
29.73840,151592
29.74653,140366
29.75465,130883
29.76278,126779
29.77090,110562
29.77902,105594
29.78715,106281
29.79527,101960
29.80338,97035
29.81152,94486
29.81963,90726
29.82777,98554
29.83588,95912
29.84400,96842
29.85213,98109
29.86025,97555
29.86838,99985
29.87650,101666
29.88462,121220
29.89275,147470
29.90087,184203
29.90898,244840
29.91712,280697
29.92523,288584
29.93337,265460
29.94148,226372
29.94960,179005
29.95773,144158
29.96585,123983
29.97398,114547
29.98210,120775
29.99022,124329
29.99835,131514
30.00647,147109
30.01460,163255
30.02272,181727
30.03083,193567
30.03897,205406
30.04708,197996
30.05520,205415
30.06333,204058
30.07145,208301
30.07958,205133
30.08770,196673
30.09582,194114
30.10395,180687
30.11207,180518
30.12020,173705
30.12832,170842
30.13643,159213
30.14457,148504
30.15268,143430
30.16080,148409
30.16893,146496
30.17705,150120
30.18518,154451
30.19330,162952
30.20142,175020
30.20955,199525
30.21767,218737
30.22580,223099
30.23392,212764
30.24203,199075
30.25017,172544
30.25828,146585
30.26642,134990
30.27453,116694
30.28265,106192
30.29078,103404
30.29890,103480
30.30702,102557
30.31515,100542
30.32327,107275
30.33140,108424
30.33952,110625
30.34763,105872
30.35577,112457
30.36388,111271
30.37202,119034
30.38013,112669
30.38825,108467
30.39638,105300
30.40450,104706
30.41263,100173
30.42075,101365
30.42887,96847
30.43700,97145
30.44512,100741
30.45323,94740
30.46137,102635
30.46948,102001
30.47762,104033
30.48573,101872
30.49385,109043
30.50198,114778
30.51010,116857
30.51823,117030
30.52635,121969
30.53447,116953
30.54260,119018
30.55072,116499
30.55883,111648
30.56697,118547
30.57508,116994
30.58322,126650
30.59133,122569
30.59945,131596
30.60758,130067
30.61570,126806
30.62383,132032
30.63195,122061
30.64007,128478
30.64820,123318
30.65632,121260
30.66445,117634
30.67257,111668
30.68068,104396
30.68882,106535
30.69693,102358
30.70505,98381
30.71318,99769
30.72130,101539
30.72943,98988
30.73755,107434
30.74567,111228
30.75380,111398
30.76192,109384
30.77005,108826
30.77817,115718
30.78628,118486
30.79442,139913
30.80253,189651
30.81067,262257
30.81878,343390
30.82690,428243
30.83503,448518
30.84315,412281
30.85127,329302
30.85940,261181
30.86752,208053
30.87565,187690
30.88377,176987
30.89188,184117
30.90002,185720
30.90813,200124
30.91627,182688
30.92438,179401
30.93250,148662
30.94063,142817
30.94875,133878
30.95687,139711
30.96500,155264
30.97312,156488
30.98125,163562
30.98937,167795
30.99748,160325
31.00562,147617
31.01373,128456
31.02187,121854
31.02998,116835
31.03810,110785
31.04623,110961
31.05435,115386
31.06248,109105
31.07060,113495
31.07872,113837
31.08685,115614
31.09497,119200
31.10308,134554
31.11122,155022
31.11933,177953
31.12747,201100
31.13558,201407
31.14370,178279
31.15183,169351
31.15995,155348
31.16808,158995
31.17620,163434
31.18432,158296
31.19245,160186
31.20057,154959
31.20868,157697
31.21682,169310
31.22493,185255
31.23307,191569
31.24118,208693
31.24930,200302
31.25743,185818
31.26555,163434
31.27368,146850
31.28180,123235
31.28992,117321
31.29805,112026
31.30617,110822
31.31430,111845
31.32242,122392
31.33053,123606
31.33867,135861
31.34678,147428
31.35490,162096
31.36303,163154
31.37115,164241
31.37928,145189
31.38740,132308
31.39552,127369
31.40365,112217
31.41177,106546
31.41990,106752
31.42802,105464
31.43613,100955
31.44427,105835
31.45238,105283
31.46052,109187
31.46863,104394
31.47675,112755
31.48488,113788
31.49300,114408
31.50112,126518
31.50925,135014
31.51737,150981
31.52550,174296
31.53362,202813
31.54173,223320
31.54987,232126
31.55798,233351
31.56612,215970
31.57423,193375
31.58235,173466
31.59048,153614
31.59860,139381
31.60672,120206
31.61485,118752
31.62297,113713
31.63110,114630
31.63922,105093
31.64733,111736
31.65547,121024
31.66358,128688
31.67172,141426
31.67983,162981
31.68795,178351
31.69608,179875
31.70420,182586
31.71233,181870
31.72045,156832
31.72857,137126
31.73670,131208
31.74482,111131
31.75293,106142
31.76107,96957
31.76918,99061
31.77732,101350
31.78543,100154
31.79355,98238
31.80168,98960
31.80980,102276
31.81793,114228
31.82605,104067
31.83417,105111
31.84230,104081
31.85042,105659
31.85855,110925
31.86667,109290
31.87478,112842
31.88292,113126
31.89103,110160
31.89915,115161
31.90728,107611
31.91540,110191
31.92353,111801
31.93165,107656
31.93977,119391
31.94790,126388
31.95602,136925
31.96415,147343
31.97227,159994
31.98038,179134
31.98852,185232
31.99663,209042
32.00475,224525
32.01288,238650
32.02100,270624
32.02913,284913
32.03725,278201
32.04537,276584
32.05350,255465
32.06162,218356
32.06975,189801
32.07787,165287
32.08598,162115
32.09412,153059
32.10223,143269
32.11037,148174
32.11848,145213
32.12660,138613
32.13473,141064
32.14285,131888
32.15097,124821
32.15910,125685
32.16722,115615
32.17535,120096
32.18347,114565
32.19158,114074
32.19972,117097
32.20783,118276
32.21597,118047
32.22408,115083
32.23220,115272
32.24033,117192
32.24845,115202
32.25657,114386
32.26470,116868
32.27282,115379
32.28095,120927
32.28907,115751
32.29718,123299
32.30532,119228
32.31343,127830
32.32157,122821
32.32968,116895
32.33780,119699
32.34593,120054
32.35405,118945
32.36218,121961
32.37030,113424
32.37842,121918
32.38655,115745
32.39467,116158
32.40278,121542
32.41092,112089
32.41903,109427
32.42717,101346
32.43528,114251
32.44340,115139
32.45153,113987
32.45965,107717
32.46778,115357
32.47590,107636
32.48402,103539
32.49215,107880
32.50027,105388
32.50840,108728
32.51652,115770
32.52463,113429
32.53277,112555
32.54088,116424
32.54900,115527
32.55713,136182
32.56525,122201
32.57338,125154
32.58150,126010
32.58962,127941
32.59775,129450
32.60587,123175
32.61400,129794
32.62212,122863
32.63023,118050
32.63837,121478
32.64648,120927
32.65462,124182
32.66273,116433
32.67085,126108
32.67898,118128
32.68710,132769
32.69522,143773
32.70335,150798
32.71147,149924
32.71960,147377
32.72772,141020
32.73583,134120
32.74397,132399
32.75208,129792
32.76022,121389
32.76833,118011
32.77645,114496
32.78458,113326
32.79270,104053
32.80082,110857
32.80895,113069
32.81707,114806
32.82520,115224
32.83332,120318
32.84143,125785
32.84957,120229
32.85768,130932
32.86582,131053
32.87393,127173
32.88205,125734
32.89018,130270
32.89830,126927
32.90643,130230
32.91455,146482
32.92267,149873
32.93080,149193
32.93892,149440
32.94703,139976
32.95517,129762
32.96328,125275
32.97142,123748
32.97953,125852
32.98765,156972
32.99578,185431
33.00390,254656
33.01203,315863
33.02015,385172
33.02827,396031
33.03640,376840
33.04452,303558
33.05263,250702
33.06077,212129
33.06888,203254
33.07702,220132
33.08513,255310
33.09325,312360
33.10138,387338
33.10950,479287
33.11763,570205
33.12575,603789
33.13387,569096
33.14200,482282
33.15012,418004
33.15825,320433
33.16637,269567
33.17448,232314
33.18262,214311
33.19073,182190
33.19885,166901
33.20698,151837
33.21510,141093
33.22323,131026
33.23135,142279
33.23947,150675
33.24760,158451
33.25572,156013
33.26385,151574
33.27197,150869
33.28008,140811
33.28822,134529
33.29633,139020
33.30447,136934
33.31258,143555
33.32070,141575
33.32883,138501
33.33695,146775
33.34507,142906
33.35320,149369
33.36132,168451
33.36945,185709
33.37757,194191
33.38568,201752
33.39382,204050
33.40193,185090
33.41007,152944
33.41818,134974
33.42630,128910
33.43443,126935
33.44255,119918
33.45067,109432
33.45880,114744
33.46692,114659
33.47505,105897
33.48317,113147
33.49128,114444
33.49942,106223
33.50753,124300
33.51567,119893
33.52378,135859
33.53190,142827
33.54003,142922
33.54815,151306
33.55628,161773
33.56440,178475
33.57252,189964
33.58065,203978
33.58877,190790
33.59688,177306
33.60502,156189
33.61313,136567
33.62127,125170
33.62938,130925
33.63750,118759
33.64563,126083
33.65375,142265
33.66188,158829
33.67000,152596
33.67812,162099
33.68625,155975
33.69437,150772
33.70250,135974
33.71062,129222
33.71873,120687
33.72687,118034
33.73498,114443
33.74310,111768
33.75123,118486
33.75935,111380
33.76748,109626
33.77560,105861
33.78372,111002
33.79185,114677
33.79997,108197
33.80810,109461
33.81622,110896
33.82433,105523
33.83247,113979
33.84058,110165
33.84870,107892
33.85683,110469
33.86495,110489
33.87308,120031
33.88120,123988
33.88932,120592
33.89745,131575
33.90557,135489
33.91370,131375
33.92182,130717
33.92993,125318
33.93807,125078
33.94618,122333
33.95432,118956
33.96243,119849
33.97055,114313
33.97868,117500
33.98680,106112
33.99492,111179
34.00305,111408
34.01117,113167
34.01930,109279
34.02742,105520
34.03553,112551
34.04367,106849
34.05178,117119
34.05992,112912
34.06803,115981
34.07615,117828
34.08428,118415
34.09240,117292
34.10052,116116
34.10865,117693
34.11677,111951
34.12490,115594
34.13302,116272
34.14113,113325
34.14927,125754
34.15738,116997
34.16552,117236
34.17363,113476
34.18175,122196
34.18988,115743
34.19800,116704
34.20613,120871
34.21425,124992
34.22237,126648
34.23050,122429
34.23862,122475
34.24673,118488
34.25487,117774
34.26298,116055
34.27112,113406
34.27923,107377
34.28735,108445
34.29548,115882
34.30360,120560
34.31173,112239
34.31985,111727
34.32797,113355
34.33610,113826
34.34422,121517
34.35235,117021
34.36047,126257
34.36858,126424
34.37672,128176
34.38483,121847
34.39295,117421
34.40108,125216
34.40920,120527
34.41733,127291
34.42545,122939
34.43357,121040
34.44170,122537
34.44982,129065
34.45795,126286
34.46607,128679
34.47418,133457
34.48232,130597
34.49043,126362
34.49855,121802
34.50668,123904
34.51480,126123
34.52293,127430
34.53105,133070
34.53917,138910
34.54730,146585
34.55542,177112
34.56355,197246
34.57167,227000
34.57978,246831
34.58792,256575
34.59603,248083
34.60417,239519
34.61228,226780
34.62040,194491
34.62853,172733
34.63665,161621
34.64477,154812
34.65290,155284
34.66102,145794
34.66915,146759
34.67727,141592
34.68538,143665
34.69352,135678
34.70163,131887
34.70977,133119
34.71788,132649
34.72600,127268
34.73413,130173
34.74225,129325
34.75038,131775
34.75850,137363
34.76662,139678
34.77475,146370
34.78287,155145
34.79098,153736
34.79912,156098
34.80723,158534
34.81537,151945
34.82348,150389
34.83160,139782
34.83973,143969
34.84785,136966
34.85598,131154
34.86410,133245
34.87222,136122
34.88035,136187
34.88847,129887
34.89658,126302
34.90472,130847
34.91283,127639
34.92097,124292
34.92908,126327
34.93720,128795
34.94533,136585
34.95345,141954
34.96158,138252
34.96970,146431
34.97782,155880
34.98595,160517
34.99407,163857
35.00220,162072
35.01032,156319
35.01843,150596
35.02657,142416
35.03468,139908
35.04280,132762
35.05093,135260
35.05905,133756
35.06718,131336
35.07530,131224
35.08342,126959
35.09155,128648
35.09967,125748
35.10780,133093
35.11592,129546
35.12403,129635
35.13217,131378
35.14028,139936
35.14840,143193
35.15653,144616
35.16465,148227
35.17278,146003
35.18090,152720
35.18902,154350
35.19715,148940
35.20527,141618
35.21340,136442
35.22152,137387
35.22963,130255
35.23777,126307
35.24588,137295
35.25402,131581
35.26213,134565
35.27025,131275
35.27838,132727
35.28650,132182
35.29462,136981
35.30275,131200
35.31087,134514
35.31900,144522
35.32712,129274
35.33523,131476
35.34337,130279
35.35148,132531
35.35962,135329
35.36773,133596
35.37585,129371
35.38398,125652
35.39210,122747
35.40023,137862
35.40835,145924
35.41647,161888
35.42460,177222
35.43272,201763
35.44083,222254
35.44897,231915
35.45708,236802
35.46522,226138
35.47333,199266
35.48145,180417
35.48958,160709
35.49770,152379
35.50583,155130
35.51395,149869
35.52207,152649
35.53020,156911
35.53832,148911
35.54643,142029
35.55457,136665
35.56268,144874
35.57082,134300
35.57893,132548
35.58705,131030
35.59518,135418
35.60330,133940
35.61143,130541
35.61955,134022
35.62767,136030
35.63580,136837
35.64392,139554
35.65205,132291
35.66017,138640
35.66828,127277
35.67642,130448
35.68453,138108
35.69265,135064
35.70078,138567
35.70890,142668
35.71703,143809
35.72515,142093
35.73327,152275
35.74140,157826
35.74952,167780
35.75765,180877
35.76577,209621
35.77388,249292
35.78202,279509
35.79013,303877
35.79827,296170
35.80638,269327
35.81450,240624
35.82263,197239
35.83075,174159
35.83887,157772
35.84700,147974
35.85512,141590
35.86325,148097
35.87137,148936
35.87948,143060
35.88762,143520
35.89573,144492
35.90387,147401
35.91198,147512
35.92010,153932
35.92823,147642
35.93635,147179
35.94447,137913
35.95260,146796
35.96072,134891
35.96885,144247
35.97697,140986
35.98508,137065
35.99322,137778
36.00133,136039
36.00947,145651
36.01758,136526
36.02570,147575
36.03383,144792
36.04195,151588
36.05008,144709
36.05820,157582
36.06632,152065
36.07445,143154
36.08257,143646
36.09068,146251
36.09882,146220
36.10693,148465
36.11507,152368
36.12318,147198
36.13130,156644
36.13943,164831
36.14755,171357
36.15568,191997
36.16380,200584
36.17192,203806
36.18005,208533
36.18817,192451
36.19630,175319
36.20442,159531
36.21253,156221
36.22067,158554
36.22878,145501
36.23690,140666
36.24503,146223
36.25315,154217
36.26128,158808
36.26940,148098
36.27752,149519
36.28565,148069
36.29377,153022
36.30190,149806
36.31002,146365
36.31813,154412
36.32627,166563
36.33438,170599
36.34250,184751
36.35063,185257
36.35875,180732
36.36688,189924
36.37500,178136
36.38312,176362
36.39125,166606
36.39937,175651
36.40750,172640
36.41562,171694
36.42373,169816
36.43187,174942
36.43998,171648
36.44812,168462
36.45623,160980
36.46435,163579
36.47248,167729
36.48060,157591
36.48872,156748
36.49685,147502
36.50497,148085
36.51310,144759
36.52122,150035
36.52933,143331
36.53747,151362
36.54558,144423
36.55372,155491
36.56183,158278
36.56995,160046
36.57808,149405
36.58620,144521
36.59432,146385
36.60245,154495
36.61057,148956
36.61870,152720
36.62682,156687
36.63493,159513
36.64307,154389
36.65118,164255
36.65932,160413
36.66743,166459
36.67555,156105
36.68368,158820
36.69180,146254
36.69993,162702
36.70805,156131
36.71617,163709
36.72430,157468
36.73242,159948
36.74053,172228
36.74867,173501
36.75678,170609
36.76492,174591
36.77303,170347
36.78115,161437
36.78928,163030
36.79740,163453
36.80553,160603
36.81365,166921
36.82177,158668
36.82990,160951
36.83802,166922
36.84615,159289
36.85427,152133
36.86238,164149
36.87052,155488
36.87863,155728
36.88675,151387
36.89488,152186
36.90300,153086
36.91113,155506
36.91925,152229
36.92737,148363
36.93550,153635
36.94362,165808
36.95175,177498
36.95987,210317
36.96798,262778
36.97612,319753
36.98423,388946
36.99235,403946
37.00048,392957
37.00860,353093
37.01673,292488
37.02485,244117
37.03297,206930
37.04110,180025
37.04922,176482
37.05735,165807
37.06547,167663
37.07358,167957
37.08172,170245
37.08983,180884
37.09797,184693
37.10608,191692
37.11420,201103
37.12233,198361
37.13045,196047
37.13857,191063
37.14670,185065
37.15482,185495
37.16295,177746
37.17107,165499
37.17918,168934
37.18732,161183
37.19543,160159
37.20357,165848
37.21168,164152
37.21980,166006
37.22793,169894
37.23605,173386
37.24418,172196
37.25230,170481
37.26042,174365
37.26855,178103
37.27667,172536
37.28478,177054
37.29292,169713
37.30103,172191
37.30917,162235
37.31728,165721
37.32540,161449
37.33353,167906
37.34165,180190
37.34978,177795
37.35790,175595
37.36602,181843
37.37415,188951
37.38227,191258
37.39038,206266
37.39852,218660
37.40663,222747
37.41477,217007
37.42288,222803
37.43100,217968
37.43913,230706
37.44725,225247
37.45538,229868
37.46350,230149
37.47162,218749
37.47975,225183
37.48787,198838
