C:\MassHunter\GCMS\1\data\JTB-E02\BACandBLUE\JTB-E18-016-13.D Thu Jun 27 15:27:49 2019
Start of data points
2.09523,63561
2.10335,59715
2.11147,64082
2.11960,62929
2.12772,62316
2.13583,63626
2.14397,65660
2.15208,61728
2.16022,62477
2.16833,64819
2.17645,58963
2.18458,60269
2.19270,57113
2.20083,58284
2.20895,59162
2.21707,57094
2.22520,57322
2.23332,59243
2.24145,58548
2.24957,83508
2.25768,479337
2.26582,1152347
2.27393,697451
2.28205,327821
2.29018,235289
2.29830,195372
2.30643,182845
2.31455,249522
2.32267,524522
2.33080,315064
2.33892,204470
2.34705,181205
2.35517,159765
2.36328,147004
2.37142,144509
2.37953,136902
2.38767,121045
2.39578,124739
2.40390,125038
2.41203,128574
2.42015,113291
2.42827,115355
2.43640,115394
2.44452,109919
2.45265,111648
2.46077,104167
2.46888,102367
2.47702,134478
2.48513,139012
2.49327,116830
2.50138,110989
2.50950,107947
2.51763,104608
2.52575,105008
2.53387,109048
2.54200,120773
2.55012,151452
2.55825,131120
2.56637,111263
2.57448,114596
2.58262,118247
2.59073,271134
2.59887,687958
2.60698,625830
2.61510,355521
2.62323,242305
2.63135,194255
2.63948,171388
2.64760,154088
2.65572,142205
2.66385,135663
2.67197,123641
2.68008,119326
2.68822,119843
2.69633,116944
2.70447,109791
2.71258,104855
2.72070,105184
2.72883,104264
2.73695,101138
2.74508,100975
2.75320,105174
2.76132,115727
2.76945,188399
2.77757,262680
2.78570,188527
2.79382,151343
2.80193,146649
2.81007,146735
2.81818,137314
2.82630,126690
2.83443,121177
2.84255,111432
2.85068,109072
2.85880,111248
2.86692,106307
2.87505,102949
2.88317,98427
2.89130,99823
2.89942,95800
2.90753,98032
2.91567,93403
2.92378,96906
2.93190,93876
2.94003,99197
2.94815,106015
2.95628,108351
2.96440,102037
2.97252,93889
2.98065,103449
2.98877,98204
2.99690,98747
3.00502,93422
3.01313,95207
3.02127,97954
3.02938,94483
3.03752,94494
3.04563,94295
3.05375,92867
3.06188,110074
3.07000,391868
3.07812,1348428
3.08625,2650157
3.09437,4614419
3.10250,5209492
3.11062,3371854
3.11873,2109544
3.12687,1586894
3.13498,1234343
3.14312,1011589
3.15123,860158
3.15935,778098
3.16748,750498
3.17560,1056745
3.18372,1549086
3.19185,1377875
3.19997,961575
3.20810,755691
3.21622,656115
3.22433,562322
3.23247,497146
3.24058,453818
3.24872,413746
3.25683,381920
3.26495,370892
3.27308,487465
3.28120,1298478
3.28933,3595486
3.29745,6197812
3.30557,6421764
3.31370,4663796
3.32182,3090909
3.32993,2208745
3.33807,1735116
3.34618,1455262
3.35432,1222196
3.36243,1057166
3.37055,931831
3.37868,864208
3.38680,781772
3.39493,698754
3.40305,644394
3.41117,610396
3.41930,572973
3.42742,537085
3.43555,523513
3.44367,497932
3.45178,486733
3.45992,503903
3.46803,497456
3.47615,478791
3.48428,442979
3.49240,427810
3.50053,410945
3.50865,393413
3.51677,384504
3.52490,393935
3.53302,380622
3.54115,370053
3.54927,360180
3.55738,367849
3.56552,373927
3.57363,364367
3.58175,347062
3.58988,339648
3.59800,335420
3.60613,344615
3.61425,337998
3.62237,325884
3.63050,324093
3.63862,308721
3.64675,379196
3.65487,1016362
3.66298,3104269
3.67112,5154615
3.67923,4385507
3.68737,2595829
3.69548,1647002
3.70360,1276628
3.71173,1066964
3.71985,939285
3.72797,843773
3.73610,783441
3.74422,709302
3.75235,665613
3.76047,633666
3.76858,616552
3.77672,587872
3.78483,612845
3.79297,950287
3.80108,1841372
3.80920,2407489
3.81733,1968297
3.82545,1337226
3.83358,993419
3.84170,847659
3.84982,753007
3.85795,691647
3.86607,643579
3.87418,608043
3.88232,571443
3.89043,541516
3.89857,524401
3.90668,578927
3.91480,690914
3.92293,748169
3.93105,732598
3.93918,1063556
3.94730,2287072
3.95542,3876143
3.96355,3974079
3.97167,2707876
3.97978,1983737
3.98792,3699704
3.99603,9731668
4.00417,1.664691E+07
4.01228,1.701783E+07
4.02040,1.109273E+07
4.02853,5982158
4.03665,3589577
4.04478,2550359
4.05290,1989039
4.06102,1638273
4.06915,1367577
4.07727,1208038
4.08540,1080364
4.09352,948405
4.10163,874079
4.10977,804345
4.11788,763176
4.12600,774938
4.13413,862118
4.14225,912760
4.15038,856974
4.15850,756286
4.16662,687197
4.17475,645502
4.18287,611515
4.19100,612313
4.19912,1165153
4.20723,3789279
4.21537,9334413
4.22348,1.461898E+07
4.23160,1.53665E+07
4.23973,1.148898E+07
4.24785,6991666
4.25598,4686064
4.26410,3460916
4.27222,2704348
4.28035,2201707
4.28847,1840913
4.29660,1590254
4.30472,1402685
4.31283,1256582
4.32097,1139159
4.32908,1048029
4.33722,984777
4.34533,960136
4.35345,916273
4.36158,887949
4.36970,809282
4.37782,765131
4.38595,723213
4.39407,686792
4.40220,642818
4.41032,640034
4.41843,611375
4.42657,585599
4.43468,576673
4.44282,549308
4.45093,537804
4.45905,523674
4.46718,495114
4.47530,482854
4.48343,480302
4.49155,467292
4.49967,452834
4.50780,446638
4.51592,430932
4.52403,424902
4.53217,416028
4.54028,419743
4.54842,412179
4.55653,403405
4.56465,380531
4.57278,388143
4.58090,365278
4.58903,359603
4.59715,358284
4.60527,365150
4.61340,397420
4.62152,514094
4.62965,663068
4.63777,700861
4.64588,637021
4.65402,510350
4.66213,442142
4.67025,397670
4.67838,380237
4.68650,358603
4.69463,354207
4.70275,331439
4.71087,318095
4.71900,309339
4.72712,313725
4.73525,302483
4.74337,302600
4.75148,292181
4.75962,292287
4.76773,285977
4.77585,284750
4.78398,306198
4.79210,335133
4.80023,355589
4.80835,359747
4.81647,331157
4.82460,329691
4.83272,342489
4.84085,347799
4.84897,343438
4.85708,322842
4.86522,302058
4.87333,289932
4.88147,278916
4.88958,271841
4.89770,269835
4.90583,268002
4.91395,279327
4.92207,343842
4.93020,672631
4.93832,1564005
4.94645,3058848
4.95457,4404737
4.96268,4712001
4.97082,3892591
4.97893,2727588
4.98707,1881423
4.99518,1392391
5.00330,1092224
5.01143,938349
5.01955,987937
5.02767,1218059
5.03580,1362002
5.04392,1282171
5.05205,1040153
5.06017,843471
5.06828,735861
5.07642,667411
5.08453,619137
5.09267,578107
5.10078,542471
5.10890,511257
5.11703,480135
5.12515,467438
5.13328,461620
5.14140,460543
5.14952,466123
5.15765,502950
5.16577,504037
5.17388,479940
5.18202,445204
5.19013,451973
5.19827,462344
5.20638,459463
5.21450,450168
5.22263,440646
5.23075,437125
5.23888,425564
5.24700,390125
5.25512,376005
5.26325,346936
5.27137,341100
5.27950,327095
5.28762,311247
5.29573,311061
5.30387,313018
5.31198,305963
5.32010,328128
5.32823,355785
5.33635,366166
5.34448,361271
5.35260,329386
5.36072,306309
5.36885,297290
5.37697,297012
5.38510,297754
5.39322,294583
5.40133,289910
5.40947,283458
5.41758,273933
5.42570,281483
5.43383,272048
5.44195,274424
5.45008,278809
5.45820,272836
5.46632,269080
5.47445,251028
5.48257,255040
5.49070,249291
5.49882,242619
5.50693,252364
5.51507,252840
5.52318,257262
5.53132,246007
5.53943,252899
5.54755,246072
5.55568,255574
5.56380,275750
5.57192,282586
5.58005,264098
5.58817,249136
5.59630,252756
5.60442,249278
5.61253,242234
5.62067,243309
5.62878,248003
5.63692,264301
5.64503,254120
5.65315,250309
5.66128,247249
5.66940,259711
5.67753,288516
5.68565,320508
5.69377,331424
5.70190,301691
5.71002,265074
5.71813,257606
5.72627,244796
5.73438,219201
5.74252,221046
5.75063,221833
5.75875,208877
5.76688,212605
5.77500,211586
5.78313,208037
5.79125,210473
5.79937,204395
5.80750,206471
5.81562,209253
5.82373,207978
5.83187,196276
5.83998,206803
5.84812,199528
5.85623,199049
5.86435,196326
5.87248,206820
5.88060,191333
5.88873,190473
5.89685,190776
5.90497,190168
5.91310,166884
5.92122,155303
5.92935,149567
5.93747,152032
5.94558,177554
5.95372,186359
5.96183,210526
5.96995,249838
5.97808,278602
5.98620,298431
5.99433,279336
6.00245,242370
6.01057,206726
6.01870,184124
6.02682,157318
6.03495,160304
6.04307,154681
6.05118,148613
6.05932,143487
6.06743,136124
6.07555,142667
6.08368,137995
6.09180,134590
6.09993,133511
6.10805,139330
6.11617,156820
6.12430,222957
6.13242,333371
6.14055,442776
6.14867,446889
6.15678,368970
6.16492,281892
6.17303,223452
6.18117,205921
6.18928,192506
6.19740,185209
6.20553,179317
6.21365,178238
6.22177,166684
6.22990,178427
6.23802,185769
6.24615,175929
6.25427,180254
6.26238,181378
6.27052,182465
6.27863,175955
6.28677,176016
6.29488,170735
6.30300,177079
6.31113,173591
6.31925,177419
6.32738,172609
6.33550,177341
6.34362,180264
6.35175,178503
6.35987,180965
6.36798,181160
6.37612,182848
6.38423,179928
6.39237,177655
6.40048,179529
6.40860,182768
6.41673,174241
6.42485,184884
6.43298,182733
6.44110,184503
6.44922,177550
6.45735,175475
6.46547,172439
6.47358,177153
6.48172,188135
6.48983,187564
6.49797,188162
6.50608,198555
6.51420,189172
6.52233,191799
6.53045,195760
6.53858,186961
6.54670,189482
6.55482,197260
6.56295,194343
6.57107,205275
6.57920,218148
6.58732,213303
6.59543,213494
6.60357,199506
6.61168,195935
6.61980,203532
6.62793,197215
6.63605,208757
6.64418,246876
6.65230,317691
6.66042,459898
6.66855,540795
6.67667,532447
6.68480,436960
6.69292,336085
6.70103,281770
6.70917,265194
6.71728,241398
6.72542,243544
6.73353,234516
6.74165,230704
6.74978,214503
6.75790,186502
6.76602,177432
6.77415,174135
6.78227,166350
6.79040,161252
6.79852,150941
6.80663,145872
6.81477,143559
6.82288,142253
6.83102,148030
6.83913,148919
6.84725,162756
6.85538,172337
6.86350,165044
6.87162,147578
6.87975,130343
6.88787,106772
6.89600,99808
6.90412,91707
6.91223,88119
6.92037,86516
6.92848,86130
6.93662,80762
6.94473,85667
6.95285,90424
6.96098,102220
6.96910,124727
6.97723,138321
6.98535,128301
6.99347,120975
7.00160,101261
7.00972,88848
7.01783,88674
7.02597,87239
7.03408,86650
7.04222,92288
7.05033,84096
7.05845,80548
7.06658,82259
7.07470,77215
7.08283,78166
7.09095,73395
7.09907,75712
7.10720,71677
7.11532,76325
7.12345,73886
7.13157,86170
7.13968,102815
7.14782,139347
7.15593,175448
7.16405,193685
7.17218,167690
7.18030,140919
7.18843,115253
7.19655,99939
7.20467,131195
7.21280,264846
7.22092,600600
7.22905,1102759
7.23717,1443003
7.24528,1374044
7.25342,968792
7.26153,618417
7.26965,407991
7.27778,299665
7.28590,236011
7.29403,167352
7.30215,121543
7.31027,105956
7.31840,102967
7.32652,104033
7.33465,105438
7.34277,92210
7.35088,90178
7.35902,89770
7.36713,91668
7.37527,94711
7.38338,100238
7.39150,93058
7.39963,97597
7.40775,91948
7.41587,85037
7.42400,78843
7.43212,76785
7.44025,77597
7.44837,76381
7.45648,78082
7.46462,75409
7.47273,72431
7.48087,72082
7.48898,66875
7.49710,73142
7.50523,78679
7.51335,88658
7.52147,106392
7.52960,145463
7.53772,182318
7.54585,216007
7.55397,249789
7.56208,231063
7.57022,195604
7.57833,162906
7.58647,128361
7.59458,103994
7.60270,94120
7.61083,90024
7.61895,80243
7.62708,76739
7.63520,73133
7.64332,69786
7.65145,69912
7.65957,67286
7.66768,68347
7.67582,67730
7.68393,67844
7.69207,67922
7.70018,66259
7.70830,70145
7.71643,64695
7.72455,66663
7.73268,69038
7.74080,70614
7.74892,70943
7.75705,68990
7.76517,73083
7.77330,70992
7.78142,75859
7.78953,73955
7.79767,79349
7.80578,78992
7.81390,72355
7.82203,72394
7.83015,66410
7.83828,66813
7.84640,63911
7.85452,70030
7.86265,67963
7.87077,76335
7.87890,78086
7.88702,77270
7.89513,73757
7.90327,70853
7.91138,69021
7.91950,76614
7.92763,90673
7.93575,119437
7.94388,125476
7.95200,123072
7.96012,114216
7.96825,100140
7.97637,81498
7.98450,75701
7.99262,72359
8.00073,66284
8.00887,62281
8.01698,58941
8.02512,65419
8.03323,62908
8.04135,61187
8.04948,59398
8.05760,62301
8.06572,61139
8.07385,62472
8.08197,59068
8.09010,61305
8.09822,61980
8.10633,59249
8.11447,56077
8.12258,61882
8.13072,71420
8.13883,87574
8.14695,90953
8.15508,97533
8.16320,88064
8.17133,75969
8.17945,67938
8.18757,62775
8.19570,59027
8.20382,63841
8.21193,63625
8.22007,60871
8.22818,59843
8.23632,58406
8.24443,58225
8.25255,55785
8.26068,56719
8.26880,59355
8.27693,60996
8.28505,59120
8.29317,62193
8.30130,63514
8.30942,65623
8.31753,66498
8.32567,66506
8.33378,66752
8.34192,62097
8.35003,59435
8.35815,59461
8.36628,60952
8.37440,59335
8.38253,60527
8.39065,60091
8.39877,59342
8.40690,57092
8.41502,56487
8.42315,56200
8.43127,54475
8.43938,54412
8.44752,54121
8.45563,52975
8.46375,54580
8.47188,54968
8.48000,53901
8.48813,51605
8.49625,51770
8.50437,54036
8.51250,54834
8.52062,75357
8.52875,126649
8.53687,212874
8.54498,319252
8.55312,359996
8.56123,320526
8.56935,233599
8.57748,156449
8.58560,108329
8.59373,88686
8.60185,84005
8.60997,80659
8.61810,76255
8.62622,70992
8.63435,66939
8.64247,65839
8.65058,63074
8.65872,60158
8.66683,61607
8.67497,60107
8.68308,62908
8.69120,62917
8.69933,70320
8.70745,68470
8.71557,67171
8.72370,63145
8.73182,57869
8.73995,78556
8.74807,127036
8.75618,287982
8.76432,612960
8.77243,1057655
8.78057,1412982
8.78868,1498700
8.79680,1234591
8.80493,838063
8.81305,533898
8.82118,332582
8.82930,249888
8.83742,211320
8.84555,202972
8.85367,200044
8.86178,187890
8.86992,185713
8.87803,169681
8.88617,153557
8.89428,148391
8.90240,144899
8.91053,134704
8.91865,129817
8.92678,138074
8.93490,141745
8.94302,147282
8.95115,151758
8.95927,148937
8.96738,141792
8.97552,131963
8.98363,123186
8.99177,123688
8.99988,111830
9.00800,106322
9.01613,110413
9.02425,104064
9.03238,101203
9.04050,95875
9.04862,93581
9.05675,99628
9.06487,91663
9.07300,91102
9.08112,92865
9.08923,95957
9.09737,95723
9.10548,105592
9.11360,115089
9.12173,116562
9.12985,105074
9.13798,98283
9.14610,98509
9.15422,99152
9.16235,95698
9.17047,90093
9.17860,86377
9.18672,82151
9.19483,82095
9.20297,88457
9.21108,82127
9.21922,78172
9.22733,78786
9.23545,80576
9.24358,78112
9.25170,75587
9.25982,80991
9.26795,78622
9.27607,76513
9.28420,74109
9.29232,76825
9.30043,78048
9.30857,72103
9.31668,72434
9.32482,72635
9.33293,76068
9.34105,73676
9.34918,75097
9.35730,66598
9.36542,70121
9.37355,66279
9.38167,71394
9.38980,77154
9.39792,78575
9.40603,82043
9.41417,84473
9.42228,89407
9.43042,98443
9.43853,103878
9.44665,97055
9.45478,91816
9.46290,84430
9.47103,80981
9.47915,78698
9.48727,73999
9.49540,74823
9.50352,75091
9.51163,82981
9.51977,86543
9.52788,88927
9.53602,85936
9.54413,82817
9.55225,85423
9.56038,97667
9.56850,142011
9.57663,208277
9.58475,287550
9.59287,332226
9.60100,299761
9.60912,233486
9.61723,158272
9.62537,107386
9.63348,75601
9.64162,62167
9.64973,59493
9.65785,60530
9.66598,54077
9.67410,57398
9.68223,56837
9.69035,55456
9.69847,59816
9.70660,51939
9.71472,53235
9.72285,52089
9.73097,53282
9.73908,49976
9.74722,48055
9.75533,49084
9.76345,47585
9.77158,45098
9.77970,48293
9.78783,47597
9.79595,49204
9.80407,44589
9.81220,43087
9.82032,44205
9.82845,46094
9.83657,44458
9.84468,43211
9.85282,42719
9.86093,46671
9.86907,47639
9.87718,52145
9.88530,51802
9.89343,46743
9.90155,50143
9.90967,45458
9.91780,50908
9.92592,54589
9.93405,73892
9.94217,95154
9.95028,121145
9.95842,134027
9.96653,122632
9.97467,105619
9.98278,86301
9.99090,74630
9.99903,66113
10.00715,65709
10.01528,64464
10.02340,57320
10.03152,54563
10.03965,52790
10.04777,49957
10.05588,48697
10.06402,50667
10.07213,51508
10.08027,54143
10.08838,52218
10.09650,49304
10.10463,51449
10.11275,54471
10.12088,55428
10.12900,51584
10.13712,48941
10.14525,45984
10.15337,47999
10.16148,45196
10.16962,46912
10.17773,43296
10.18587,44199
10.19398,43312
10.20210,45741
10.21023,45735
10.21835,48394
10.22648,47530
10.23460,52265
10.24272,56848
10.25085,66101
10.25897,94903
10.26710,215796
10.27522,505007
10.28333,1035874
10.29147,1781871
10.29958,2679135
10.30770,3828288
10.31583,5662670
10.32395,8377030
10.33208,1.079406E+07
10.34020,1.164969E+07
10.34832,9775197
10.35645,6526682
10.36457,3616858
10.37270,1911769
10.38082,1123866
10.38893,779136
10.39707,594156
10.40518,484266
10.41330,387076
10.42143,337514
10.42955,302593
10.43768,278257
10.44580,254013
10.45392,241460
10.46205,222973
10.47017,215239
10.47830,193651
10.48642,188142
10.49453,181032
10.50267,175459
10.51078,157446
10.51892,153091
10.52703,148033
10.53515,146969
10.54328,149877
10.55140,141485
10.55952,137419
10.56765,137035
10.57577,136460
10.58390,132224
10.59202,122062
10.60013,118254
10.60827,109948
10.61638,107856
10.62452,106656
10.63263,97399
10.64075,96565
10.64888,97704
10.65700,89934
10.66513,87569
10.67325,87767
10.68137,86659
10.68950,86273
10.69762,85872
10.70573,84618
10.71387,83968
10.72198,81068
10.73012,87326
10.73823,81282
10.74635,82519
10.75448,87135
10.76260,79346
10.77073,79223
10.77885,74289
10.78697,70334
10.79510,71234
10.80322,72293
10.81133,68259
10.81947,71398
10.82758,66478
10.83572,67318
10.84383,64213
10.85195,61514
10.86008,59504
10.86820,63553
10.87633,60543
10.88445,60034
10.89257,59637
10.90070,55325
10.90882,60411
10.91695,58776
10.92507,59525
10.93318,56832
10.94132,53178
10.94943,54358
10.95755,56409
10.96568,57652
10.97380,58329
10.98193,55525
10.99005,53343
10.99817,54363
11.00630,59190
11.01442,53460
11.02255,54095
11.03067,52081
11.03878,51089
11.04692,50486
11.05503,49127
11.06317,52778
11.07128,52972
11.07940,55768
11.08753,53710
11.09565,57688
11.10377,57173
11.11190,49954
11.12002,49387
11.12815,53239
11.13627,40957
11.14438,40728
11.15252,43865
11.16063,41969
11.16877,46150
11.17688,49440
11.18500,47884
11.19313,48493
11.20125,50358
11.20937,53733
11.21750,48012
11.22562,44487
11.23375,41157
11.24187,40658
11.24998,40016
11.25812,39243
11.26623,37010
11.27437,38945
11.28248,40616
11.29060,44451
11.29873,52944
11.30685,72643
11.31498,100710
11.32310,152465
11.33122,210447
11.33935,258095
11.34747,268381
11.35558,249549
11.36372,197250
11.37183,138945
11.37997,112870
11.38808,94131
11.39620,75080
11.40433,75224
11.41245,70637
11.42058,70498
11.42870,67003
11.43682,56877
11.44495,57567
11.45307,55338
11.46118,57656
11.46932,68158
11.47743,98867
11.48557,136034
11.49368,171705
11.50180,195924
11.50993,184590
11.51805,155644
11.52618,124484
11.53430,105267
11.54242,92560
11.55055,80744
11.55867,75051
11.56680,77296
11.57492,69303
11.58303,72982
11.59117,69942
11.59928,83761
11.60740,97264
11.61553,120421
11.62365,120980
11.63178,111564
11.63990,97950
11.64802,83169
11.65615,60062
11.66427,58600
11.67240,58314
11.68052,58707
11.68863,57230
11.69677,58675
11.70488,57046
11.71302,51958
11.72113,53720
11.72925,52045
11.73738,48319
11.74550,47861
11.75362,48171
11.76175,45425
11.76987,44715
11.77800,45859
11.78612,47094
11.79423,47616
11.80237,44438
11.81048,46921
11.81862,48713
11.82673,50122
11.83485,47271
11.84298,46022
11.85110,48597
11.85922,47728
11.86735,47666
11.87547,43285
11.88360,42784
11.89172,40103
11.89983,44364
11.90797,44311
11.91608,46545
11.92422,52845
11.93233,49247
11.94045,52267
11.94858,47248
11.95670,46575
11.96483,42731
11.97295,42972
11.98107,55187
11.98920,78654
11.99732,119186
12.00543,155154
12.01357,176141
12.02168,172880
12.02982,146091
12.03793,111133
12.04605,85218
12.05418,67849
12.06230,59884
12.07043,53031
12.07855,55756
12.08667,55320
12.09480,53628
12.10292,50038
12.11105,50235
12.11917,47454
12.12728,54251
12.13542,50015
12.14353,48941
12.15165,54136
12.15978,45666
12.16790,46728
12.17603,44636
12.18415,46819
12.19227,41701
12.20040,45408
12.20852,46607
12.21665,44207
12.22477,43618
12.23288,42354
12.24102,42540
12.24913,48424
12.25725,44464
12.26538,42027
12.27350,44274
12.28163,40684
12.28975,40612
12.29787,39427
12.30600,37654
12.31412,37502
12.32225,36276
12.33037,38409
12.33848,41706
12.34662,39088
12.35473,40739
12.36287,36603
12.37098,37185
12.37910,37274
12.38723,41769
12.39535,44037
12.40347,45256
12.41160,56430
12.41972,63785
12.42785,74098
12.43597,76263
12.44408,70768
12.45222,65431
12.46033,57874
12.46847,59469
12.47658,54301
12.48470,51884
12.49283,45222
12.50095,45803
12.50908,44217
12.51720,42803
12.52532,50794
12.53345,52009
12.54157,66202
12.54968,85521
12.55782,104141
12.56593,118589
12.57407,128970
12.58218,108314
12.59030,87852
12.59843,74886
12.60655,59877
12.61468,53965
12.62280,49683
12.63092,50817
12.63905,47673
12.64717,50232
12.65528,41538
12.66342,39598
12.67153,40934
12.67967,39669
12.68778,42604
12.69590,43070
12.70403,43311
12.71215,43745
12.72028,42110
12.72840,48017
12.73652,51202
12.74465,52108
12.75277,52394
12.76090,47340
12.76902,43653
12.77713,37946
12.78527,35942
12.79338,36802
12.80150,36195
12.80963,35247
12.81775,37241
12.82588,34868
12.83400,35167
12.84212,36276
12.85025,35219
12.85837,30921
12.86650,30539
12.87462,33150
12.88273,32903
12.89087,31945
12.89898,33125
12.90710,31437
12.91523,32323
12.92335,30845
12.93148,32359
12.93960,33505
12.94772,35488
12.95585,41968
12.96397,49742
12.97210,69727
12.98022,81454
12.98833,85933
12.99647,86294
13.00458,76166
13.01272,64159
13.02083,50908
13.02895,41479
13.03708,46890
13.04520,40630
13.05332,39906
13.06145,35783
13.06957,38221
13.07770,40232
13.08582,40160
13.09393,38668
13.10207,38840
13.11018,37583
13.11832,38488
13.12643,33748
13.13455,32558
13.14268,38296
13.15080,36191
13.15893,35519
13.16705,37700
13.17517,38058
13.18330,40028
13.19142,38131
13.19953,40036
13.20767,39008
13.21578,37463
13.22392,42001
13.23203,39863
13.24015,35978
13.24828,36297
13.25640,41568
13.26453,34979
13.27265,35392
13.28077,36070
13.28890,32586
13.29702,38099
13.30513,30062
13.31327,32365
13.32138,32287
13.32952,32821
13.33763,35831
13.34575,32669
13.35388,31765
13.36200,33041
13.37013,33813
13.37825,28372
13.38637,31685
13.39450,31645
13.40262,35186
13.41075,30360
13.41887,29555
13.42698,29938
13.43512,33102
13.44323,30778
13.45135,31121
13.45948,30621
13.46760,33563
13.47573,30760
13.48385,30980
13.49197,34246
13.50010,30615
13.50822,34015
13.51635,28463
13.52447,32304
13.53258,31727
13.54072,29340
13.54883,29798
13.55697,32902
13.56508,29689
13.57320,28752
13.58133,35049
13.58945,41374
13.59757,48910
13.60570,71248
13.61382,96342
13.62195,125411
13.63007,127229
13.63818,122104
13.64632,96288
13.65443,76051
13.66257,57910
13.67068,46973
13.67880,40766
13.68693,38158
13.69505,39527
13.70317,39834
13.71130,39110
13.71942,34860
13.72755,41224
13.73567,70679
13.74378,132486
13.75192,288494
13.76003,602425
13.76817,1028119
13.77628,1336623
13.78440,1497060
13.79253,1400560
13.80065,1034441
13.80878,725255
13.81690,516615
13.82502,427953
13.83315,384400
13.84127,341531
13.84938,313417
13.85752,261209
13.86563,220725
13.87377,193041
13.88188,171207
13.89000,156618
13.89813,145442
13.90625,131489
13.91438,126116
13.92250,121089
13.93062,114062
13.93875,109161
13.94687,102987
13.95498,105131
13.96312,104089
13.97123,106496
13.97937,111644
13.98748,118957
13.99560,111849
14.00373,115428
14.01185,98720
14.01998,96106
14.02810,90041
14.03622,82262
14.04435,82030
14.05247,83845
14.06060,77764
14.06872,78192
14.07683,81189
14.08497,78787
14.09308,74073
14.10120,77374
14.10933,79868
14.11745,78520
14.12558,77621
14.13370,82949
14.14182,81310
14.14995,83877
14.15807,88889
14.16620,95915
14.17432,122571
14.18243,185867
14.19057,277531
14.19868,356860
14.20682,433129
14.21493,413917
14.22305,351711
14.23118,271866
14.23930,211221
14.24742,174116
14.25555,164921
14.26367,146761
14.27180,123716
14.27992,115980
14.28803,105114
14.29617,98559
14.30428,91320
14.31242,86647
14.32053,82802
14.32865,77443
14.33678,79638
14.34490,79748
14.35303,66475
14.36115,62168
14.36927,59266
14.37740,55119
14.38552,56580
14.39363,76151
14.40177,124179
14.40988,193686
14.41802,296908
14.42613,346814
14.43425,353652
14.44238,283605
14.45050,207920
14.45863,140630
14.46675,108689
14.47487,84150
14.48300,77660
14.49112,73500
14.49923,68365
14.50737,69176
14.51548,66873
14.52362,64459
14.53173,63196
14.53985,64998
14.54798,53924
14.55610,57426
14.56423,52650
14.57235,52661
14.58047,49650
14.58860,50591
14.59672,50194
14.60485,45756
14.61297,43113
14.62108,46701
14.62922,44879
14.63733,40601
14.64545,43659
14.65358,42702
14.66170,42078
14.66983,42092
14.67795,41849
14.68607,42313
14.69420,41993
14.70232,43030
14.71045,42918
14.71857,45236
14.72668,45729
14.73482,42781
14.74293,43766
14.75105,46570
14.75918,45972
14.76730,44965
14.77543,45239
14.78355,62072
14.79167,86441
14.79980,163983
14.80792,379698
14.81605,762534
14.82417,1314915
14.83228,1739930
14.84042,1853843
14.84853,1609808
14.85667,1156646
14.86478,763115
14.87290,479665
14.88103,324040
14.88915,241498
14.89727,192602
14.90540,158494
14.91352,148466
14.92165,137426
14.92977,122871
14.93788,113668
14.94602,107252
14.95413,102329
14.96227,96070
14.97038,91327
14.97850,92426
14.98663,88478
14.99475,84439
15.00287,85797
15.01100,80714
15.01912,78456
15.02725,72167
15.03537,73830
15.04348,66383
15.05162,67229
15.05973,69747
15.06787,64401
15.07598,73581
15.08410,63998
15.09223,62804
15.10035,59602
15.10848,60056
15.11660,60624
15.12472,60532
15.13285,67677
15.14097,72908
15.14908,74997
15.15722,69014
15.16533,67982
15.17347,60993
15.18158,51872
15.18970,52035
15.19783,47980
15.20595,44368
15.21408,43966
15.22220,45484
15.23032,43573
15.23845,42293
15.24657,39222
15.25470,40590
15.26282,37489
15.27093,37397
15.27907,39906
15.28718,39641
15.29530,38692
15.30343,40449
15.31155,40928
15.31968,39330
15.32780,38777
15.33592,36684
15.34405,33636
15.35217,37462
15.36030,37177
15.36842,37226
15.37653,36012
15.38467,41166
15.39278,39029
15.40092,36683
15.40903,39637
15.41715,37976
15.42528,41175
15.43340,35877
15.44152,37140
15.44965,36269
15.45777,37522
15.46590,42548
15.47402,50128
15.48213,52736
15.49027,68260
15.49838,71002
15.50652,84291
15.51463,82477
15.52275,89411
15.53088,91334
15.53900,93789
15.54712,99556
15.55525,106739
15.56337,96187
15.57150,81899
15.57962,63770
15.58773,54660
15.59587,51140
15.60398,47786
15.61212,38836
15.62023,47432
15.62835,42139
15.63648,37810
15.64460,36929
15.65273,37707
15.66085,36693
15.66897,40963
15.67710,34816
15.68522,37714
15.69333,38214
15.70147,34454
15.70958,40112
15.71772,37192
15.72583,43765
15.73395,43740
15.74208,44852
15.75020,49969
15.75833,63616
15.76645,86809
15.77457,133833
15.78270,190773
15.79082,228554
15.79893,233308
15.80707,205995
15.81518,158937
15.82332,112025
15.83143,89964
15.83955,69670
15.84768,64202
15.85580,57255
15.86393,53125
15.87205,57603
15.88017,50396
15.88830,47822
15.89642,47370
15.90455,47157
15.91267,50418
15.92078,46521
15.92892,46209
15.93703,41446
15.94515,46834
15.95328,53096
15.96140,59924
15.96953,76657
15.97765,87782
15.98577,88143
15.99390,84510
16.00202,80763
16.01015,77657
16.01827,70127
16.02638,69185
16.03452,67604
16.04263,62764
16.05077,60013
16.05888,60477
16.06700,53196
16.07513,47546
16.08325,48719
16.09137,41471
16.09950,46808
16.10762,43196
16.11575,45082
16.12387,45397
16.13198,44790
16.14012,48188
16.14823,44387
16.15637,50231
16.16448,49704
16.17260,46094
16.18073,42676
16.18885,44122
16.19697,42497
16.20510,40575
16.21322,39917
16.22135,42636
16.22947,43766
16.23758,40054
16.24572,41798
16.25383,38928
16.26197,36847
16.27008,39071
16.27820,37805
16.28633,39820
16.29445,41271
16.30258,46809
16.31070,41550
16.31882,41122
16.32695,40797
16.33507,41534
16.34318,41519
16.35132,53841
16.35943,60482
16.36757,75095
16.37568,89556
16.38380,98954
16.39193,92043
16.40005,81950
16.40818,68671
16.41630,56411
16.42442,52326
16.43255,48564
16.44067,43759
16.44880,47025
16.45692,49852
16.46503,58526
16.47317,64626
16.48128,70939
16.48940,67494
16.49753,65995
16.50565,55966
16.51378,53877
16.52190,47455
16.53002,45017
16.53815,45282
16.54627,44130
16.55440,41046
16.56252,44891
16.57063,44413
16.57877,46592
16.58688,52406
16.59500,54448
16.60313,64214
16.61125,64542
16.61938,70836
16.62750,70717
16.63562,59620
16.64375,58673
16.65187,53362
16.66000,47210
16.66812,42363
16.67623,41378
16.68437,40145
16.69248,40234
16.70062,41324
16.70873,39922
16.71685,40353
16.72498,42692
16.73310,39004
16.74122,38097
16.74935,37009
16.75747,40792
16.76560,43858
16.77372,39706
16.78183,39101
16.78997,40243
16.79808,39106
16.80622,36936
16.81433,35356
16.82245,35888
16.83058,33349
16.83870,31600
16.84682,35808
16.85495,34243
16.86307,33380
16.87120,36605
16.87932,34999
16.88743,37400
16.89557,33036
16.90368,35864
16.91182,31671
16.91993,35022
16.92805,34722
16.93618,31638
16.94430,32641
16.95243,32475
16.96055,31746
16.96867,33971
16.97680,37035
16.98492,37154
16.99303,35609
17.00117,34885
17.00928,32810
17.01742,38150
17.02553,35509
17.03365,38390
17.04178,40262
17.04990,41959
17.05803,41268
17.06615,41820
17.07427,45152
17.08240,40934
17.09052,41018
17.09865,40366
17.10677,36328
17.11488,33224
17.12302,39350
17.13113,39956
17.13925,42027
17.14738,37948
17.15550,37787
17.16363,34929
17.17175,38208
17.17987,36284
17.18800,34959
17.19612,38307
17.20425,35406
17.21237,37224
17.22048,34483
17.22862,35604
17.23673,32994
17.24485,36560
17.25298,34418
17.26110,34747
17.26923,35931
17.27735,31517
17.28547,32533
17.29360,30577
17.30172,34851
17.30985,36733
17.31797,37917
17.32608,42342
17.33422,43935
17.34233,50981
17.35047,52996
17.35858,55248
17.36670,54060
17.37483,50624
17.38295,47128
17.39107,47224
17.39920,42714
17.40732,44015
17.41545,44079
17.42357,45354
17.43168,44516
17.43982,44372
17.44793,39788
17.45607,39950
17.46418,37840
17.47230,37946
17.48043,39513
17.48855,36822
17.49668,38273
17.50480,39419
17.51292,34482
17.52105,37022
17.52917,36705
17.53728,35979
17.54542,38156
17.55353,44705
17.56167,57524
17.56978,84409
17.57790,141798
17.58603,233149
17.59415,357267
17.60228,516627
17.61040,639128
17.61852,672639
17.62665,595907
17.63477,451986
17.64288,335989
17.65102,257704
17.65913,204809
17.66727,165110
17.67538,138847
17.68350,125716
17.69163,114857
17.69975,103685
17.70788,95090
17.71600,89623
17.72412,80131
17.73225,74287
17.74037,70898
17.74850,67474
17.75662,63843
17.76473,63082
17.77287,62071
17.78098,55138
17.78910,61592
17.79723,69192
17.80535,89812
17.81348,122494
17.82160,170201
17.82972,199454
17.83785,203768
17.84597,181843
17.85410,158232
17.86222,125320
17.87033,110068
17.87847,95428
17.88658,84547
17.89472,76805
17.90283,68415
17.91095,66758
17.91908,61220
17.92720,54035
17.93532,55331
17.94345,53662
17.95157,55006
17.95970,47153
17.96782,49499
17.97593,47977
17.98407,46949
17.99218,46903
18.00032,49754
18.00843,52348
18.01655,52877
18.02468,62021
18.03280,60978
18.04092,66138
18.04905,73459
18.05717,92832
18.06530,112370
18.07342,193786
18.08153,306571
18.08967,431136
18.09778,519425
18.10592,507688
18.11403,430724
18.12215,343727
18.13028,267552
18.13840,198816
18.14653,171328
18.15465,146540
18.16277,134681
18.17090,127353
18.17902,116893
18.18713,113260
18.19527,102822
18.20338,100863
18.21152,93497
18.21963,87703
18.22775,86406
18.23588,78961
18.24400,78460
18.25213,74270
18.26025,69357
18.26837,68937
18.27650,66505
18.28462,61031
18.29273,54899
18.30087,50230
18.30898,50720
18.31712,45759
18.32523,42348
18.33335,42558
18.34148,44632
18.34960,37952
18.35773,43061
18.36585,44509
18.37397,43945
18.38210,41631
18.39022,40348
18.39835,43249
18.40647,42884
18.41458,51739
18.42272,70635
18.43083,115063
18.43895,163383
18.44708,215903
18.45520,262143
18.46333,313783
18.47145,381692
18.47957,424436
18.48770,467296
18.49582,463101
18.50395,429465
18.51207,391572
18.52018,341800
18.52832,316612
18.53643,309581
18.54457,298741
18.55268,281847
18.56080,276783
18.56893,272113
18.57705,281080
18.58517,262465
18.59330,269536
18.60142,262908
18.60955,265114
18.61767,258803
18.62578,257177
18.63392,259641
18.64203,249631
18.65017,251720
18.65828,246984
18.66640,242725
18.67453,231175
18.68265,231026
18.69077,227880
18.69890,228239
18.70702,219862
18.71515,220532
18.72327,216946
18.73138,205289
18.73952,221952
18.74763,213421
18.75577,200321
18.76388,209509
18.77200,202286
18.78013,200258
18.78825,207074
18.79638,200009
18.80450,199928
18.81262,195844
18.82075,196485
18.82887,200705
18.83698,184615
18.84512,187382
18.85323,184288
18.86137,184852
18.86948,184827
18.87760,181990
18.88573,183553
18.89385,179365
18.90198,178495
18.91010,181688
18.91822,178803
18.92635,173287
18.93447,180886
18.94260,177085
18.95072,175253
18.95883,172299
18.96697,173841
18.97508,178065
18.98320,171066
18.99133,163064
18.99945,164577
19.00758,155225
19.01570,157645
19.02382,154045
19.03195,153622
19.04007,162434
19.04820,155808
19.05632,161071
19.06443,172942
19.07257,197207
19.08068,279414
19.08880,408480
19.09693,568761
19.10505,693357
19.11318,738468
19.12130,683507
19.12942,561855
19.13755,436378
19.14567,331927
19.15380,267627
19.16192,229080
19.17003,194013
19.17817,185482
19.18628,169662
19.19442,161512
19.20253,160408
19.21065,154127
19.21878,146815
19.22690,142062
19.23502,144334
19.24315,140040
19.25127,134612
19.25940,137314
19.26752,139008
19.27563,136289
19.28377,140620
19.29188,142870
19.30002,142017
19.30813,137970
19.31625,139351
19.32438,133377
19.33250,132109
19.34062,134628
19.34875,143064
19.35687,154044
19.36500,174999
19.37312,183857
19.38123,199765
19.38937,193355
19.39748,172874
19.40562,154547
19.41373,137316
19.42185,126199
19.42998,128853
19.43810,122260
19.44623,115348
19.45435,121329
19.46247,118276
19.47060,124507
19.47872,137583
19.48683,184418
19.49497,221683
19.50308,273795
19.51122,308252
19.51933,293201
19.52745,252856
19.53558,200091
19.54370,160495
19.55183,136748
19.55995,121581
19.56807,112950
19.57620,114269
19.58432,106713
19.59245,104202
19.60057,96134
19.60868,99975
19.61682,100609
19.62493,107934
19.63305,98034
19.64118,120585
19.64930,133762
19.65743,163419
19.66555,197612
19.67367,228551
19.68180,244754
19.68992,252329
19.69805,234877
19.70617,219292
19.71428,188373
19.72242,172356
19.73053,159711
19.73865,143089
19.74678,127453
19.75490,123049
19.76303,117663
19.77115,116459
19.77927,115651
19.78740,114705
19.79552,121164
19.80365,116944
19.81177,117810
19.81988,109322
19.82802,110083
19.83613,103394
19.84427,103818
19.85238,117392
19.86050,159048
19.86863,278774
19.87675,529731
19.88487,924028
19.89300,1399032
19.90112,1787695
19.90925,1946351
19.91737,1769241
19.92548,1391765
19.93362,1067871
19.94173,785277
19.94987,608929
19.95798,530290
19.96610,463300
19.97423,435101
19.98235,406970
19.99048,367375
19.99860,354431
20.00672,333597
20.01485,329373
20.02297,303955
20.03108,294446
20.03922,277335
20.04733,250425
20.05547,218813
20.06358,185952
20.07170,165091
20.07983,149489
20.08795,135324
20.09608,127682
20.10420,118438
20.11232,121913
20.12045,115748
20.12857,103198
20.13668,106242
20.14482,105019
20.15293,105062
20.16107,108495
20.16918,113713
20.17730,113051
20.18543,118019
20.19355,129151
20.20168,128068
20.20980,122081
20.21792,118652
20.22605,115715
20.23417,109554
20.24230,113584
20.25042,122215
20.25853,144027
20.26667,174452
20.27478,202481
20.28290,222250
20.29103,232982
20.29915,216759
20.30728,203643
20.31540,179220
20.32352,148306
20.33165,133683
20.33977,117683
20.34790,109781
20.35602,99310
20.36413,90994
20.37227,90716
20.38038,81154
20.38850,76024
20.39663,78020
20.40475,75467
20.41288,77859
20.42100,74389
20.42912,77795
20.43725,83992
20.44537,86209
20.45350,87751
20.46162,89009
20.46973,84562
20.47787,80418
20.48598,82761
20.49412,79173
20.50223,65690
20.51035,68907
20.51848,71580
20.52660,68205
20.53472,70299
20.54285,70045
20.55097,66165
20.55910,72569
20.56722,65625
20.57533,61033
20.58347,63881
20.59158,64866
20.59972,64404
20.60783,62411
20.61595,58245
20.62408,59236
20.63220,59611
20.64033,65530
20.64845,66389
20.65657,63544
20.66470,67255
20.67282,65456
20.68093,66234
20.68907,60334
20.69718,65251
20.70532,63383
20.71343,62038
20.72155,66856
20.72968,60212
20.73780,58470
20.74593,55238
20.75405,66445
20.76217,63433
20.77030,67254
20.77842,74229
20.78655,85478
20.79467,109366
20.80278,137068
20.81092,184495
20.81903,209750
20.82715,220452
20.83528,204384
20.84340,175242
20.85153,134520
20.85965,105009
20.86777,93000
20.87590,83122
20.88402,72238
20.89215,70963
20.90027,70376
20.90838,75347
20.91652,69966
20.92463,67747
20.93275,65762
20.94088,64091
20.94900,65293
20.95713,62965
20.96525,63494
20.97337,62062
20.98150,61301
20.98962,57965
20.99775,60001
21.00587,55924
21.01398,59932
21.02212,59455
21.03023,57758
21.03837,61252
21.04648,58379
21.05460,54802
21.06273,62401
21.07085,58164
21.07897,58335
21.08710,56678
21.09522,53983
21.10335,54194
21.11147,55548
21.11958,56442
21.12772,61291
21.13583,56002
21.14397,63709
21.15208,68790
21.16020,72881
21.16833,78988
21.17645,77761
21.18457,71400
21.19270,70501
21.20082,64156
21.20895,62388
21.21707,57311
21.22518,60486
21.23332,62187
21.24143,58852
21.24957,56985
21.25768,55069
21.26580,53908
21.27393,52923
21.28205,53835
21.29018,51018
21.29830,49504
21.30642,48256
21.31455,53318
21.32267,46121
21.33078,49395
21.33892,46374
21.34703,49410
21.35517,48621
21.36328,44386
21.37140,48934
21.37953,44928
21.38765,50679
21.39578,46414
21.40390,49079
21.41202,49254
21.42015,53101
21.42827,52415
21.43640,55688
21.44452,52600
21.45263,52378
21.46077,49197
21.46888,51511
21.47700,45634
21.48513,47967
21.49325,46647
21.50138,46958
21.50950,44268
21.51762,46202
21.52575,45668
21.53387,42335
21.54200,46569
21.55012,45508
21.55823,45819
21.56637,43481
21.57448,48207
21.58260,55748
21.59073,59909
21.59885,59410
21.60698,64861
21.61510,67966
21.62322,68735
21.63135,75055
21.63947,71170
21.64760,77496
21.65572,78218
21.66383,77934
21.67197,77816
21.68008,86038
21.68822,76442
21.69633,75808
21.70445,70198
21.71258,67550
21.72070,64847
21.72882,57588
21.73695,57224
21.74507,57321
21.75320,58689
21.76132,56793
21.76943,54434
21.77757,53603
21.78568,55926
21.79382,50448
21.80193,55175
21.81005,52470
21.81818,53785
21.82630,61160
21.83443,65598
21.84255,69507
21.85067,69423
21.85880,68575
21.86692,62660
21.87503,56460
21.88317,55325
21.89128,54540
21.89942,54289
21.90753,49530
21.91565,50118
21.92378,49662
21.93190,48401
21.94003,46552
21.94815,42754
21.95627,45662
21.96440,42872
21.97252,44028
21.98063,40092
21.98877,39384
21.99688,42008
22.00502,42616
22.01313,42196
22.02125,41943
22.02938,43409
22.03750,48188
22.04563,58112
22.05375,62368
22.06187,63190
22.07000,66049
22.07812,74001
22.08625,70519
22.09437,76829
22.10248,72639
22.11062,74429
22.11873,75101
22.12685,79466
22.13498,77000
22.14310,75524
22.15123,83569
22.15935,78713
22.16747,80061
22.17560,79536
22.18372,77713
22.19185,73324
22.19997,79383
22.20808,82854
22.21622,83626
22.22433,82894
22.23245,79331
22.24058,79519
22.24870,79591
22.25683,75003
22.26495,74064
22.27307,70322
22.28120,68670
22.28932,61892
22.29745,61858
22.30557,60732
22.31368,61213
22.32182,62856
22.32993,63769
22.33807,61661
22.34618,57245
22.35430,59682
22.36243,54189
22.37055,55731
22.37867,53383
22.38680,58061
22.39492,64027
22.40305,77535
22.41117,87882
22.41928,93143
22.42742,109297
22.43553,103600
22.44367,90369
22.45178,84012
22.45990,69796
22.46803,65492
22.47615,63088
22.48428,70857
22.49240,80446
22.50052,80265
22.50865,79970
22.51677,78052
22.52488,75335
22.53302,73561
22.54113,65305
22.54927,66423
22.55738,62260
22.56550,64760
22.57363,84449
22.58175,94016
22.58988,96992
22.59800,104680
22.60612,111419
22.61425,113597
22.62237,117548
22.63048,124096
22.63862,127373
22.64673,129316
22.65487,135859
22.66298,135288
22.67110,138743
22.67923,133077
22.68735,141392
22.69548,146308
22.70360,149162
22.71172,147819
22.71985,154359
22.72797,151856
22.73610,148129
22.74422,147149
22.75233,151856
22.76047,142089
22.76858,141491
22.77670,144324
22.78483,152915
22.79295,157040
22.80108,173021
22.80920,186988
22.81732,183037
22.82545,176802
22.83357,173169
22.84170,162701
22.84982,152560
22.85793,148204
22.86607,148709
22.87418,147920
22.88232,152056
22.89043,151960
22.89855,169764
22.90668,183578
22.91480,209734
22.92292,238637
22.93105,245260
22.93917,241149
22.94730,220436
22.95542,198985
22.96353,172306
22.97167,148677
22.97978,141595
22.98792,135890
22.99603,128062
23.00415,119538
23.01228,119847
23.02040,116344
23.02852,112073
23.03665,111678
23.04477,107562
23.05290,107770
23.06102,106245
23.06913,105651
23.07727,106654
23.08538,105781
23.09352,101168
23.10163,97125
23.10975,97912
23.11788,96765
23.12600,94236
23.13413,92028
23.14225,93796
23.15037,95520
23.15850,97489
23.16662,97764
23.17473,90481
23.18287,90032
23.19098,95563
23.19912,91213
23.20723,87773
23.21535,87677
23.22348,87331
23.23160,85364
23.23973,85930
23.24785,86463
23.25597,86777
23.26410,93949
23.27222,94441
23.28035,92823
23.28847,88567
23.29658,85589
23.30472,87631
23.31283,86922
23.32095,90569
23.32908,87531
23.33720,98331
23.34533,109935
23.35345,142419
23.36157,179544
23.36970,232562
23.37782,321554
23.38595,392023
23.39407,464541
23.40218,519152
23.41032,571579
23.41843,610496
23.42655,607748
23.43468,619486
23.44280,589116
23.45093,558086
23.45905,519116
23.46717,495641
23.47530,463881
23.48342,421390
23.49155,381089
23.49967,354939
23.50778,332176
23.51592,315791
23.52403,290169
23.53217,272005
23.54028,253238
23.54840,241313
23.55653,220688
23.56465,226831
23.57277,226925
23.58090,245366
23.58902,277752
23.59715,314450
23.60527,348529
23.61338,329240
23.62152,320407
23.62963,278299
23.63777,244100
23.64588,230226
23.65400,224354
23.66213,226092
23.67025,231345
23.67837,217153
23.68650,200548
23.69462,177395
23.70275,158148
23.71087,140492
23.71898,128688
23.72712,124891
23.73523,121871
23.74337,133454
23.75148,167952
23.75960,255261
23.76773,462574
23.77585,789507
23.78398,1252299
23.79210,1665377
23.80022,1839987
23.80835,1861260
23.81647,1665085
23.82458,1347745
23.83272,1056152
23.84083,847855
23.84897,650354
23.85708,528885
23.86520,456741
23.87333,383698
23.88145,349927
23.88958,307730
23.89770,282370
23.90582,256170
23.91395,246679
23.92207,231504
23.93020,217077
23.93832,209338
23.94643,189549
23.95457,180385
23.96268,175003
23.97080,160246
23.97893,153861
23.98705,146979
23.99518,149389
24.00330,158221
24.01142,187587
24.01955,247131
24.02767,313177
24.03580,382971
24.04392,387230
24.05203,348128
24.06017,273753
24.06828,204635
24.07640,154796
24.08453,130914
24.09265,121280
24.10078,110699
24.10890,110523
24.11702,105897
24.12515,110036
24.13327,109249
24.14140,107061
24.14952,104379
24.15763,101417
24.16577,101015
24.17388,97892
24.18202,101475
24.19013,96219
24.19825,100968
24.20638,99737
24.21450,93555
24.22262,90804
24.23075,92277
24.23887,90517
24.24700,87531
24.25512,82118
24.26323,80033
24.27137,77502
24.27948,74892
24.28762,80600
24.29573,72148
24.30385,82137
24.31198,71878
24.32010,74648
24.32823,80487
24.33635,90063
24.34447,111237
24.35260,135957
24.36072,152013
24.36883,170118
24.37697,192756
24.38508,216293
24.39322,252642
24.40133,264998
24.40945,259483
24.41758,248993
24.42570,219832
24.43383,201607
24.44195,197268
24.45007,195997
24.45820,188924
24.46632,194068
24.47443,194857
24.48257,194831
24.49068,205910
24.49882,205849
24.50693,209833
24.51505,205042
24.52318,211756
24.53130,216317
24.53943,221308
24.54755,221214
24.55567,239593
24.56380,244761
24.57192,238122
24.58005,233383
24.58817,225764
24.59628,215824
24.60442,197558
24.61253,205241
24.62065,198971
24.62878,193709
24.63690,203152
24.64503,195017
24.65315,195505
24.66127,192870
24.66940,189951
24.67752,185903
24.68565,192500
24.69377,192913
24.70188,188379
24.71002,191290
24.71813,193210
24.72625,196555
24.73438,200100
24.74250,186526
24.75063,191773
24.75875,188403
24.76687,190514
24.77500,196507
24.78312,198078
24.79125,201797
24.79937,190465
24.80748,184608
24.81562,192656
24.82373,187351
24.83187,198914
24.83998,210275
24.84810,229556
24.85623,272970
24.86435,317429
24.87247,387362
24.88060,464850
24.88872,541587
24.89685,587850
24.90497,584386
24.91308,495069
24.92122,412341
24.92933,320648
24.93747,264060
24.94558,230183
24.95370,193538
24.96183,168164
24.96995,155506
24.97808,158384
24.98620,153231
24.99432,157866
25.00245,143932
25.01057,147499
25.01868,145420
25.02682,140625
25.03493,133366
25.04307,128675
25.05118,127952
25.05930,123772
25.06743,115701
25.07555,108725
25.08368,100008
25.09180,104906
25.09992,130327
25.10805,203133
25.11617,375678
25.12428,702195
25.13242,1207859
25.14053,1744498
25.14867,2113814
25.15678,2108132
25.16490,1747785
25.17303,1264988
25.18115,843315
25.18928,525636
25.19740,325315
25.20552,209762
25.21365,157048
25.22177,128840
25.22990,122306
25.23802,124204
25.24613,136495
25.25427,165189
25.26238,194835
25.27050,216371
25.27863,226537
25.28675,212013
25.29488,200495
25.30300,161702
25.31112,132517
25.31925,112141
25.32737,101383
25.33550,88837
25.34362,84005
25.35173,81206
25.35987,70948
25.36798,69599
25.37612,63271
25.38423,66186
25.39235,62329
25.40048,64045
25.40860,62194
25.41672,58447
25.42485,63241
25.43297,56922
25.44110,59573
25.44922,60070
25.45733,59934
25.46547,62650
25.47358,69980
25.48172,86962
25.48983,116152
25.49795,148361
25.50608,168428
25.51420,196910
25.52232,215071
25.53045,214319
25.53857,214905
25.54670,217591
25.55482,227615
25.56293,222805
25.57107,227843
25.57918,230629
25.58732,231305
25.59543,236262
25.60355,233687
25.61168,241102
25.61980,250797
25.62793,245190
25.63605,238368
25.64417,241985
25.65230,241259
25.66042,237618
25.66853,234848
25.67667,234222
25.68478,226532
25.69292,232635
25.70103,218027
25.70915,222772
25.71728,214918
25.72540,216582
25.73353,218609
25.74165,216470
25.74977,210713
25.75790,209245
25.76602,213966
25.77413,205232
25.78227,208039
25.79038,218801
25.79852,206841
25.80663,204789
25.81475,196245
25.82288,197482
25.83100,199491
25.83913,191317
25.84725,190128
25.85537,195944
25.86350,195026
25.87162,187182
25.87975,178850
25.88787,172078
25.89598,178375
25.90412,175554
25.91223,170031
25.92035,172714
25.92848,169743
25.93660,162116
25.94473,161923
25.95285,161020
25.96097,160020
25.96910,154962
25.97722,152291
25.98535,146474
25.99347,150912
26.00158,146226
26.00972,140542
26.01783,144543
26.02597,141770
26.03408,146140
26.04220,134295
26.05033,140582
26.05845,134330
26.06657,131719
26.07470,133699
26.08282,127122
26.09095,141130
26.09907,132536
26.10718,130932
26.11532,129640
26.12343,126460
26.13157,132615
26.13968,131720
26.14780,129606
26.15593,128258
26.16405,128541
26.17218,124746
26.18030,125086
26.18842,119021
26.19655,115289
26.20467,108122
26.21278,120854
26.22092,108954
26.22903,110705
26.23717,119035
26.24528,107115
26.25340,104917
26.26153,100268
26.26965,104436
26.27778,102175
26.28590,107714
26.29402,100962
26.30215,100076
26.31027,101316
26.31838,93960
26.32652,92988
26.33463,91661
26.34277,92020
26.35088,91426
26.35900,83832
26.36713,90597
26.37525,90980
26.38338,95621
26.39150,99519
26.39962,96807
26.40775,95187
26.41587,93957
26.42400,94930
26.43212,90313
26.44023,86037
26.44837,86712
26.45648,84681
26.46460,81181
26.47273,86202
26.48085,83117
26.48898,87692
26.49710,78353
26.50522,81743
26.51335,79558
26.52147,73151
26.52960,72002
26.53772,71927
26.54583,69540
26.55397,69064
26.56208,66579
26.57020,71436
26.57833,72256
26.58645,71532
26.59458,69861
26.60270,70663
26.61082,66462
26.61895,67980
26.62707,63585
26.63520,66108
26.64332,68797
26.65143,70787
26.65957,71725
26.66768,75692
26.67582,79159
26.68393,70485
26.69205,71849
26.70018,66500
26.70830,65839
26.71642,61331
26.72455,60053
26.73267,63940
26.74080,60716
26.74892,60228
26.75703,63517
26.76517,64365
26.77328,60356
26.78142,59431
26.78953,73169
26.79765,65200
26.80578,64693
26.81390,66117
26.82202,62455
26.83015,63370
26.83827,65111
26.84640,59844
26.85452,55642
26.86263,56569
26.87077,54051
26.87888,61558
26.88702,52441
26.89513,52794
26.90325,50422
26.91138,49095
26.91950,51932
26.92763,54645
26.93575,51739
26.94387,53256
26.95200,51786
26.96012,58581
26.96823,58148
26.97637,74567
26.98448,90161
26.99262,125414
27.00073,166496
27.00885,215103
27.01698,283130
27.02510,320040
27.03323,346330
27.04135,350778
27.04947,324107
27.05760,281435
27.06572,251724
27.07385,206622
27.08197,182708
27.09008,161054
27.09822,144581
27.10633,132674
27.11445,125106
27.12258,116635
27.13070,115282
27.13883,108366
27.14695,103913
27.15507,98561
27.16320,97139
27.17132,94942
27.17945,90198
27.18757,96717
27.19568,92034
27.20382,87754
27.21193,87179
27.22007,86803
27.22818,82742
27.23630,78543
27.24443,75429
27.25255,70361
27.26067,65804
27.26880,66713
27.27692,70203
27.28505,65837
27.29317,64141
27.30128,63110
27.30942,62874
27.31753,58329
27.32567,58616
27.33378,64027
27.34190,62904
27.35003,56140
27.35815,64233
27.36627,63645
27.37440,64474
27.38252,61226
27.39065,59364
27.39877,57756
27.40688,55584
27.41502,57628
27.42313,58072
27.43127,54546
27.43938,50226
27.44750,53252
27.45563,52475
27.46375,55363
27.47188,49564
27.48000,51357
27.48812,54318
27.49625,53885
27.50437,53958
27.51248,53015
27.52062,57201
27.52873,52797
27.53687,55231
27.54498,53366
27.55310,56775
27.56123,59457
27.56935,54043
27.57748,59181
27.58560,68184
27.59372,71229
27.60185,72058
27.60997,71003
27.61808,70866
27.62622,59760
27.63433,59053
27.64247,50870
27.65058,51932
27.65870,55780
27.66683,52051
27.67495,47703
27.68308,48809
27.69120,53394
27.69932,54494
27.70745,49325
27.71557,45307
27.72370,45004
27.73182,49497
27.73993,46378
27.74807,45160
27.75618,44178
27.76430,47159
27.77243,45587
27.78055,49489
27.78868,46916
27.79680,47932
27.80492,48663
27.81305,45480
27.82117,43695
27.82930,46466
27.83742,43901
27.84553,44017
27.85367,48436
27.86178,49865
27.86992,47924
27.87803,46225
27.88615,40945
27.89428,47487
27.90240,44205
27.91052,50005
27.91865,43063
27.92677,43876
27.93490,41702
27.94302,42356
27.95113,43072
27.95927,43197
27.96738,41002
27.97552,42250
27.98363,41722
27.99175,42763
27.99988,41418
28.00800,45149
28.01612,50382
28.02425,50650
28.03237,50272
28.04050,55036
28.04862,58338
28.05673,58688
28.06487,58056
28.07298,54278
28.08112,52228
28.08923,48955
28.09735,48146
28.10548,44246
28.11360,40547
28.12173,45208
28.12985,41856
28.13797,38582
28.14610,39068
28.15422,39680
28.16233,40650
28.17047,44072
28.17858,43866
28.18672,51787
28.19483,53820
28.20295,63178
28.21108,65198
28.21920,69492
28.22733,69764
28.23545,70146
28.24357,70890
28.25170,61048
28.25982,56542
28.26795,46318
28.27607,51585
28.28418,43525
28.29232,44434
28.30043,50091
28.30855,55758
28.31668,58228
28.32480,66795
28.33293,69047
28.34105,83703
28.34917,96145
28.35730,98887
28.36542,120072
28.37355,124845
28.38167,132660
28.38978,138634
28.39792,139799
28.40603,144788
28.41415,142969
28.42228,138354
28.43040,132121
28.43853,125235
28.44665,115106
28.45477,108474
28.46290,101919
28.47102,101288
28.47915,91488
28.48727,91177
28.49538,88069
28.50352,83724
28.51163,78311
28.51977,74921
28.52788,72916
28.53600,67325
28.54413,70119
28.55225,67361
28.56037,68111
28.56850,62232
28.57662,60875
28.58475,59452
28.59287,59612
28.60098,59610
28.60912,59813
28.61723,60787
28.62537,59423
28.63348,61568
28.64160,57232
28.64973,62141
28.65785,66040
28.66597,65137
28.67410,62224
28.68222,61076
28.69035,58055
28.69847,57852
28.70658,53147
28.71472,53146
28.72283,50920
28.73097,54970
28.73908,55113
28.74720,60303
28.75533,68811
28.76345,75392
28.77158,81852
28.77970,79015
28.78782,75218
28.79595,67769
28.80407,65236
28.81218,64859
28.82032,61094
28.82843,55125
28.83657,55868
28.84468,52514
28.85280,53935
28.86093,55618
28.86905,57056
28.87718,57500
28.88530,61242
28.89342,68101
28.90155,73171
28.90967,65210
28.91780,69103
28.92592,62205
28.93403,58564
28.94217,57505
28.95028,56882
28.95840,54586
28.96653,55319
28.97465,53306
28.98278,48401
28.99090,50153
28.99902,45171
29.00715,47408
29.01527,49682
29.02340,48735
29.03152,45876
29.03963,46290
29.04777,46143
29.05588,44766
29.06400,47484
29.07213,47966
29.08025,49735
29.08838,52320
29.09650,50020
29.10462,50450
29.11275,52395
29.12087,48190
29.12900,43564
29.13712,45593
29.14523,45837
29.15337,45364
29.16148,46322
29.16962,50824
29.17773,56425
29.18585,51897
29.19398,62651
29.20210,75495
29.21022,81873
29.21835,92769
29.22647,92620
29.23460,82314
29.24272,76885
29.25083,71970
29.25897,71127
29.26708,67793
29.27522,74226
29.28333,69338
29.29145,63834
29.29958,60214
29.30770,50587
29.31583,48323
29.32395,49851
29.33207,45910
29.34020,42427
29.34832,46445
29.35643,39876
29.36457,44926
29.37268,43503
29.38082,41452
29.38893,42375
29.39705,43187
29.40518,46289
29.41330,45369
29.42143,50605
29.42955,45794
29.43767,46598
29.44580,43735
29.45392,42979
29.46203,44226
29.47017,41413
29.47828,44207
29.48642,44112
29.49453,45738
29.50265,45553
29.51078,47748
29.51890,41082
29.52703,40253
29.53515,47965
29.54327,45811
29.55140,44532
29.55952,42899
29.56765,38113
29.57577,39746
29.58388,40690
29.59202,42688
29.60013,40803
29.60825,39435
29.61638,38934
29.62450,37482
29.63263,37679
29.64075,36115
29.64887,40878
29.65700,39924
29.66512,39873
29.67325,43611
29.68137,43520
29.68948,44958
29.69762,44845
29.70573,43763
29.71387,45878
29.72198,41544
29.73010,41573
29.73823,44102
29.74635,41192
29.75447,39175
29.76260,36524
29.77072,39263
29.77885,37173
29.78697,39817
29.79508,35893
29.80322,38112
29.81133,37992
29.81947,35066
29.82758,39056
29.83570,41569
29.84383,39781
29.85195,42406
29.86007,41686
29.86820,55660
29.87632,67713
29.88445,92200
29.89257,128360
29.90068,152473
29.90882,163181
29.91693,144070
29.92507,112139
29.93318,89581
29.94130,67263
29.94943,62117
29.95755,59560
29.96568,57084
29.97380,58399
29.98192,64360
29.99005,70193
29.99817,78124
30.00628,74225
30.01442,82335
30.02253,84318
30.03067,87632
30.03878,86015
30.04690,90322
30.05503,92637
30.06315,89804
30.07128,91065
30.07940,80848
30.08752,92415
30.09565,83663
30.10377,84744
30.11188,81567
30.12002,81638
30.12813,76610
30.13627,71679
30.14438,73366
30.15250,69622
30.16063,69997
30.16875,62499
30.17688,68148
30.18500,63262
30.19312,63090
30.20125,63767
30.20937,62175
30.21750,60911
30.22562,58896
30.23373,56541
30.24187,52219
30.24998,52333
30.25810,52723
30.26623,50848
30.27435,52543
30.28248,45965
30.29060,48656
30.29872,50088
30.30685,49411
30.31497,50613
30.32310,51055
30.33122,45710
30.33933,44942
30.34747,48246
30.35558,48435
30.36372,48591
30.37183,46647
30.37995,44484
30.38808,44194
30.39620,43284
30.40432,43795
30.41245,44814
30.42057,40248
30.42870,44743
30.43682,43920
30.44493,40408
30.45307,42896
30.46118,41643
30.46932,45893
30.47743,46822
30.48555,42427
30.49368,42960
30.50180,43522
30.50992,39522
30.51805,38378
30.52617,38524
30.53430,42427
30.54242,39172
30.55053,44182
30.55867,41814
30.56678,39315
30.57492,37840
30.58303,40269
30.59115,39348
30.59928,41517
30.60740,43305
30.61553,39124
30.62365,39722
30.63177,37515
30.63990,41460
30.64802,38327
30.65613,40804
30.66427,41347
30.67238,36330
30.68052,38736
30.68863,38016
30.69675,39724
30.70488,38738
30.71300,39083
30.72113,41080
30.72925,41614
30.73737,37442
30.74550,36853
30.75362,37242
30.76175,37831
30.76987,43396
30.77798,50455
30.78612,62100
30.79423,76569
30.80235,94683
30.81048,98514
30.81860,105626
30.82673,96661
30.83485,79503
30.84297,62733
30.85110,54420
30.85922,46614
30.86735,44208
30.87547,43115
30.88358,41399
30.89172,38308
30.89983,40059
30.90795,39153
30.91608,40199
30.92420,44871
30.93233,45237
30.94045,46991
30.94857,50220
30.95670,52398
30.96482,49603
30.97295,48761
30.98107,51320
30.98918,52486
30.99732,51859
31.00543,49492
31.01357,56136
31.02168,53559
31.02980,50275
31.03793,55756
31.04605,53836
31.05417,56581
31.06230,51928
31.07042,58836
31.07855,59250
31.08667,65946
31.09478,67505
31.10292,66593
31.11103,73055
31.11917,72088
31.12728,72479
31.13540,68045
31.14353,58780
31.15165,60220
31.15977,67525
31.16790,67454
31.17602,62335
31.18415,69460
31.19227,81857
31.20038,96880
31.20852,113447
31.21663,136173
31.22477,151336
31.23288,150402
31.24100,144862
31.24913,121257
31.25725,98477
31.26538,81048
31.27350,71451
31.28162,67419
31.28975,61064
31.29787,57170
31.30598,57245
31.31412,54976
31.32223,55927
31.33037,57729
31.33848,57821
31.34660,56503
31.35473,57017
31.36285,58405
31.37098,60674
31.37910,58739
31.38722,59313
31.39535,61283
31.40347,60208
31.41160,57122
31.41972,59413
31.42783,54036
31.43597,57832
31.44408,50828
31.45220,51218
31.46033,50947
31.46845,55102
31.47658,50424
31.48470,54259
31.49282,54232
31.50095,54970
31.50907,52902
31.51720,48074
31.52532,49617
31.53343,52126
31.54157,48889
31.54968,50521
31.55782,47754
31.56593,46431
31.57405,50474
31.58218,57267
31.59030,50775
31.59842,50557
31.60655,49992
31.61467,44974
31.62280,46113
31.63092,49585
31.63903,47075
31.64717,49524
31.65528,47150
31.66342,50219
31.67153,51219
31.67965,50900
31.68778,47424
31.69590,47748
31.70402,47667
31.71215,52599
31.72027,45035
31.72840,44209
31.73652,45171
31.74463,45679
31.75277,43185
31.76088,49813
31.76902,50588
31.77713,43228
31.78525,44380
31.79338,46073
31.80150,46532
31.80963,47396
31.81775,44177
31.82587,42266
31.83400,40519
31.84212,42628
31.85023,45975
31.85837,43511
31.86648,45822
31.87462,48053
31.88273,49262
31.89085,52792
31.89898,57345
31.90710,65427
31.91523,64503
31.92335,68233
31.93147,70757
31.93960,75425
31.94772,77698
31.95583,80096
31.96397,82001
31.97208,84662
31.98022,88362
31.98833,86501
31.99645,82332
32.00458,83838
32.01270,78001
32.02083,78899
32.02895,79848
32.03707,72926
32.04520,78983
32.05332,75403
32.06145,73365
32.06957,72128
32.07768,68360
32.08582,66897
32.09393,68698
32.10205,61330
32.11018,61590
32.11830,56760
32.12643,53773
32.13455,55805
32.14267,52688
32.15080,50090
32.15892,54250
32.16705,49433
32.17517,45415
32.18328,50472
32.19142,49195
32.19953,51825
32.20767,49772
32.21578,48520
32.22390,46976
32.23203,45966
32.24015,50260
32.24827,47239
32.25640,52632
32.26452,52288
32.27265,52525
32.28077,51517
32.28888,49945
32.29702,47694
32.30513,46252
32.31327,47353
32.32138,47531
32.32950,45552
32.33763,45625
32.34575,46353
32.35387,46014
32.36200,45682
32.37012,46556
32.37825,43180
32.38637,47134
32.39448,46033
32.40262,43793
32.41073,42499
32.41887,42098
32.42698,41413
32.43510,44438
32.44323,47308
32.45135,42922
32.45948,41441
32.46760,43718
32.47572,42840
32.48385,42886
32.49197,41763
32.50008,41787
32.50822,38985
32.51633,46744
32.52447,40574
32.53258,42636
32.54070,41031
32.54883,43728
32.55695,43585
32.56508,45860
32.57320,42424
32.58132,41680
32.58945,39065
32.59757,39038
32.60570,39244
32.61382,45178
32.62193,42665
32.63007,41205
32.63818,44629
32.64630,47955
32.65443,53194
32.66255,56947
32.67068,59281
32.67880,56232
32.68692,53222
32.69505,52204
32.70317,46396
32.71130,45728
32.71942,46559
32.72753,44847
32.73567,44429
32.74378,48036
32.75190,46150
32.76003,43120
32.76815,43115
32.77628,40991
32.78440,37117
32.79252,40026
32.80065,41294
32.80877,38898
32.81690,45703
32.82502,41161
32.83313,38805
32.84127,42284
32.84938,35997
32.85752,37077
32.86563,39371
32.87375,41810
32.88188,39829
32.89000,40066
32.89812,41060
32.90625,44894
32.91437,44327
32.92250,45339
32.93062,42733
32.93873,40676
32.94687,40552
32.95498,41043
32.96312,38922
32.97123,41290
32.97935,45451
32.98748,53821
32.99560,52957
33.00372,57151
33.01185,57673
33.01997,56475
33.02810,54174
33.03622,47760
33.04433,50118
33.05247,47558
33.06058,44137
33.06872,48069
33.07683,50445
33.08495,50157
33.09308,51816
33.10120,62848
33.10933,63018
33.11745,61328
33.12557,61894
33.13370,61133
33.14182,52747
33.14993,52480
33.15807,46079
33.16618,45164
33.17432,42657
33.18243,41946
33.19055,43772
33.19868,39894
33.20680,42131
33.21493,41298
33.22305,40320
33.23117,39605
33.23930,41385
33.24742,42406
33.25555,43254
33.26367,41052
33.27178,38955
33.27992,44594
33.28803,40306
33.29615,41573
33.30428,42901
33.31240,41347
33.32053,35035
33.32865,36722
33.33677,38017
33.34490,39345
33.35302,42334
33.36115,46484
33.36927,47310
33.37738,43330
33.38552,46423
33.39363,46626
33.40175,43537
33.40988,37251
33.41800,36999
33.42613,38850
33.43425,39312
33.44237,37950
33.45050,37815
33.45862,39326
33.46675,40225
33.47487,39158
33.48298,39584
33.49112,42714
33.49923,40150
33.50737,39667
33.51548,41275
33.52360,41192
33.53173,41248
33.53985,45066
33.54797,41883
33.55610,44487
33.56422,44132
33.57235,51513
33.58047,44918
33.58858,41047
33.59672,43374
33.60483,42745
33.61297,38471
33.62108,41111
33.62920,40855
33.63733,42096
33.64545,42642
33.65358,40706
33.66170,40888
33.66982,46758
33.67795,42866
33.68607,43203
33.69418,43601
33.70232,38653
33.71043,40753
33.71857,37623
33.72668,35550
33.73480,39254
33.74293,41494
33.75105,40644
33.75918,36462
33.76730,41943
33.77542,39795
33.78355,39718
33.79167,39871
33.79978,40444
33.80792,38046
33.81603,40125
33.82417,39023
33.83228,40049
33.84040,39296
33.84853,41744
33.85665,40087
33.86478,39612
33.87290,46576
33.88102,45619
33.88915,41432
33.89727,41314
33.90540,44345
33.91352,40824
33.92163,41075
33.92977,39566
33.93788,40496
33.94600,42098
33.95413,39359
33.96225,40553
33.97038,42564
33.97850,41891
33.98662,42195
33.99475,37234
34.00287,36717
34.01100,38380
34.01912,39866
34.02723,38073
34.03537,38199
34.04348,40089
34.05160,39928
34.05973,41254
34.06785,41896
34.07598,40274
34.08410,41132
34.09222,39905
34.10035,40614
34.10847,41720
34.11660,42482
34.12472,39541
34.13283,41480
34.14097,42305
34.14908,42203
34.15722,40669
34.16533,41747
34.17345,43259
34.18158,45196
34.18970,42093
34.19782,42675
34.20595,41496
34.21407,41621
34.22220,39517
34.23032,41432
34.23843,44487
34.24657,44264
34.25468,41224
34.26282,42100
34.27093,39088
34.27905,41370
34.28718,43059
34.29530,41708
34.30343,42194
34.31155,45125
34.31967,41600
34.32780,41943
34.33592,44484
34.34403,38830
34.35217,38458
34.36028,44101
34.36842,42763
34.37653,42502
34.38465,38635
34.39278,38207
34.40090,35974
34.40903,41208
34.41715,40977
34.42527,44411
34.43340,37600
34.44152,47564
34.44963,40001
34.45777,40758
34.46588,37988
34.47402,38775
34.48213,41987
34.49025,41777
34.49838,43480
34.50650,43633
34.51463,48535
34.52275,58085
34.53087,60018
34.53900,72117
34.54712,73504
34.55525,78384
34.56337,76753
34.57148,74196
34.57962,71148
34.58773,68308
34.59585,68432
34.60398,68267
34.61210,60498
34.62023,56359
34.62835,56994
34.63647,56246
34.64460,56896
34.65272,47935
34.66085,51553
34.66897,52917
34.67708,51061
34.68522,50799
34.69333,45236
34.70147,47860
34.70958,50728
34.71770,44469
34.72583,47773
34.73395,49345
34.74207,47865
34.75020,48601
34.75832,47634
34.76645,46188
34.77457,47714
34.78268,44030
34.79082,47116
34.79893,47994
34.80707,44245
34.81518,51141
34.82330,42924
34.83143,41649
34.83955,48048
34.84767,46587
34.85580,43874
34.86392,45111
34.87205,45182
34.88017,49094
34.88828,46570
34.89642,45457
34.90453,46305
34.91267,44343
34.92078,46040
34.92890,47044
34.93703,49438
34.94515,41964
34.95328,53738
34.96140,49253
34.96952,47828
34.97765,53328
34.98577,54615
34.99388,54212
35.00202,54901
35.01013,46504
35.01827,49117
35.02638,49368
35.03450,44719
35.04263,48736
35.05075,46562
35.05888,43025
35.06700,44988
35.07512,42942
35.08325,47680
35.09137,44517
35.09950,45381
35.10762,42709
35.11573,44246
35.12387,39299
35.13198,43649
35.14010,42158
35.14823,46565
35.15635,48035
35.16448,45597
35.17260,47450
35.18072,46398
35.18885,42258
35.19697,43897
35.20510,44771
35.21322,45427
35.22133,45753
35.22947,42872
35.23758,41846
35.24570,42283
35.25383,43968
35.26195,41003
35.27008,45048
35.27820,41847
35.28632,45372
35.29445,42732
35.30257,45526
35.31070,42169
35.31882,45687
35.32693,42088
35.33507,39402
35.34318,44573
35.35132,43678
35.35943,42874
35.36755,44959
35.37568,43152
35.38380,42420
35.39192,43468
35.40005,42427
35.40817,47556
35.41630,43272
35.42442,46036
35.43253,45454
35.44067,47338
35.44878,46581
35.45692,44438
35.46503,46411
35.47315,49347
35.48128,45545
35.48940,48182
35.49752,45957
35.50565,43059
35.51377,44942
35.52190,44501
35.53002,44158
35.53813,47174
35.54627,48659
35.55438,45072
35.56252,45794
35.57063,42807
35.57875,43761
35.58688,43301
35.59500,44887
35.60313,45025
35.61125,43343
35.61937,45361
35.62750,42605
35.63562,46144
35.64373,47536
35.65187,43573
35.65998,44415
35.66812,46852
35.67623,51373
35.68435,49828
35.69248,42516
35.70060,45634
35.70873,42989
35.71685,47043
35.72497,46786
35.73310,44462
35.74122,49162
35.74935,47245
35.75747,49509
35.76558,51099
35.77372,48199
35.78183,52189
35.78995,45264
35.79808,48788
35.80620,46264
35.81433,46436
35.82245,45374
35.83057,44814
35.83870,42323
35.84682,44602
35.85495,43586
35.86307,43256
35.87118,44488
35.87932,45817
35.88743,47102
35.89555,44769
35.90368,40773
35.91180,47782
35.91993,43651
35.92805,43693
35.93617,45490
35.94430,41531
35.95242,39963
35.96055,43315
35.96867,47473
35.97678,45806
35.98492,44750
35.99303,46381
36.00117,47847
36.00928,46396
36.01740,45899
36.02553,48066
36.03365,47445
36.04177,49268
36.04990,47195
36.05802,46643
36.06615,46582
36.07427,46209
36.08238,45711
36.09052,46129
36.09863,44151
36.10677,45827
36.11488,47413
36.12300,44299
36.13113,46520
36.13925,45689
36.14738,48298
36.15550,51155
36.16362,48333
36.17175,46307
36.17987,49533
36.18798,47836
36.19612,45193
36.20423,45980
36.21237,46854
36.22048,43711
36.22860,49598
36.23673,46286
36.24485,44168
36.25298,46640
36.26110,45630
36.26922,48060
36.27735,46117
36.28547,53822
36.29358,53550
36.30172,62577
36.30983,63090
36.31797,58780
36.32608,60145
36.33420,56231
36.34233,48129
36.35045,47974
36.35858,48016
36.36670,44773
36.37482,46637
36.38295,48531
36.39107,47669
36.39920,51273
36.40732,46143
36.41543,46549
36.42357,42886
36.43168,45575
36.43980,49774
36.44793,49285
36.45605,44438
36.46418,54654
36.47230,46334
36.48042,44294
36.48855,45548
36.49667,46859
36.50480,47946
36.51292,44780
36.52103,46023
36.52917,49210
36.53728,52031
36.54540,48229
36.55353,46970
36.56165,45105
36.56978,49474
36.57790,53074
36.58602,48510
36.59415,47225
36.60227,53823
36.61040,49561
36.61852,49846
36.62663,50750
36.63477,50517
36.64288,47453
36.65102,49697
36.65913,49222
36.66725,51857
36.67538,57926
36.68350,54704
36.69162,52684
36.69975,52232
36.70787,50093
36.71600,52162
36.72412,53175
36.73223,58389
36.74037,52208
36.74848,47238
36.75662,52373
36.76473,48428
36.77285,50382
36.78098,47996
36.78910,51502
36.79723,53928
36.80535,51816
36.81347,51446
36.82160,48077
36.82972,52300
36.83783,51344
36.84597,46959
36.85408,48405
36.86222,51875
36.87033,50587
36.87845,50017
36.88658,50170
36.89470,50896
36.90283,57120
36.91095,48163
36.91907,55700
36.92720,54829
36.93532,51566
36.94345,59261
36.95157,52625
36.95968,59660
36.96782,65345
36.97593,62404
36.98405,63720
36.99218,59483
37.00030,56307
37.00843,51522
37.01655,54640
37.02467,48483
37.03280,51504
37.04092,49599
37.04905,53411
37.05717,54472
37.06528,54269
37.07342,50677
37.08153,52047
37.08965,51335
37.09778,51413
37.10590,54184
37.11403,58500
37.12215,52881
37.13027,49920
37.13840,53278
37.14652,50082
37.15465,56289
37.16277,54569
37.17088,51225
37.17902,51488
37.18713,52761
37.19527,51138
37.20338,53275
37.21150,55193
37.21963,51567
37.22775,54294
37.23587,52942
37.24400,50282
37.25212,48468
37.26025,48621
37.26837,53168
37.27648,50118
37.28462,52279
37.29273,50868
37.30087,54250
37.30898,51790
37.31710,57846
37.32523,61466
37.33335,69010
37.34147,75424
37.34960,75363
37.35772,75101
37.36585,75959
37.37397,78283
37.38208,75690
37.39022,72413
37.39833,67238
37.40647,67842
37.41458,68302
37.42270,64787
37.43083,67803
37.43895,64707
37.44708,64201
37.45520,60467
37.46332,62013
37.47145,56352
37.47957,61496
37.48768,59101
