C:\MassHunter\GCMS\1\data\JTB-E18\BURNOFFS\JTB-E18-02.D Wed Aug 21 13:02:41 2019
Start of data points
2.09522,169134
2.10335,184473
2.11147,191612
2.11958,199359
2.12772,191143
2.13583,169927
2.14397,153483
2.15208,139199
2.16020,126081
2.16833,107884
2.17645,102381
2.18458,90364
2.19270,90551
2.20082,84251
2.20895,81454
2.21707,73912
2.22518,72164
2.23332,73453
2.24143,70288
2.24957,68554
2.25768,69237
2.26580,64751
2.27393,61780
2.28205,63626
2.29018,66228
2.29830,61168
2.30642,63218
2.31455,59564
2.32267,59392
2.33080,61838
2.33892,54767
2.34703,62695
2.35517,57422
2.36328,55573
2.37140,56353
2.37953,61729
2.38765,60602
2.39578,54646
2.40390,53441
2.41202,55575
2.42015,53763
2.42827,51342
2.43640,54192
2.44452,55177
2.45263,53732
2.46077,53068
2.46888,51449
2.47700,50362
2.48513,51083
2.49325,52260
2.50138,56320
2.50950,55507
2.51762,52920
2.52575,51193
2.53387,50034
2.54200,48754
2.55012,49575
2.55823,48107
2.56637,49091
2.57448,51861
2.58262,51576
2.59073,47397
2.59885,50583
2.60698,49163
2.61510,53664
2.62322,51950
2.63135,49156
2.63947,50190
2.64760,50733
2.65572,48939
2.66383,46505
2.67197,51220
2.68008,51761
2.68822,47767
2.69633,47554
2.70445,50496
2.71258,51124
2.72070,53750
2.72883,50765
2.73695,48225
2.74507,51513
2.75320,47227
2.76132,47219
2.76943,48609
2.77757,47210
2.78568,47188
2.79382,48682
2.80193,47758
2.81005,48441
2.81818,50598
2.82630,48517
2.83443,48062
2.84255,50059
2.85067,48093
2.85880,47579
2.86692,48184
2.87503,47096
2.88317,50460
2.89128,47154
2.89942,50019
2.90753,46255
2.91565,46761
2.92378,48476
2.93190,49553
2.94003,50492
2.94815,47098
2.95627,49989
2.96440,45496
2.97252,44401
2.98065,48351
2.98877,49071
2.99688,46503
3.00502,48666
3.01313,48027
3.02125,45763
3.02938,45962
3.03750,46161
3.04563,52100
3.05375,43543
3.06187,46502
3.07000,47981
3.07812,45521
3.08625,46571
3.09437,47997
3.10248,48044
3.11062,46645
3.11873,48772
3.12687,44056
3.13498,45782
3.14310,53276
3.15123,48006
3.15935,47366
3.16747,46812
3.17560,44198
3.18372,45007
3.19185,49143
3.19997,48244
3.20808,46560
3.21622,49255
3.22433,46003
3.23247,46574
3.24058,44558
3.24870,47300
3.25683,48201
3.26495,49127
3.27307,49269
3.28120,48626
3.28932,46244
3.29745,48609
3.30557,47373
3.31368,53785
3.32182,49641
3.32993,52789
3.33807,50799
3.34618,45790
3.35430,51909
3.36243,46517
3.37055,56031
3.37868,46980
3.38680,49788
3.39492,47528
3.40305,48650
3.41117,54453
3.41928,50092
3.42742,47531
3.43553,55005
3.44367,47781
3.45178,53017
3.45990,52976
3.46803,50844
3.47615,45855
3.48428,50523
3.49240,51475
3.50052,55384
3.50865,48837
3.51677,47640
3.52488,51785
3.53302,50699
3.54113,48478
3.54927,46956
3.55738,54970
3.56550,48164
3.57363,49481
3.58175,52758
3.58988,50415
3.59800,52113
3.60612,47816
3.61425,52745
3.62237,46952
3.63050,48881
3.63862,52551
3.64673,51624
3.65487,46295
3.66298,51585
3.67110,55640
3.67923,53403
3.68735,52465
3.69548,48737
3.70360,49135
3.71172,49377
3.71985,50454
3.72797,52558
3.73610,53304
3.74422,53521
3.75233,49556
3.76047,50372
3.76858,59669
3.77672,47329
3.78483,53800
3.79295,51777
3.80108,51299
3.80920,48938
3.81732,51784
3.82545,50221
3.83357,50771
3.84170,49142
3.84982,52171
3.85793,50095
3.86607,52000
3.87418,49118
3.88232,49169
3.89043,47455
3.89855,53256
3.90668,55249
3.91480,52106
3.92293,50230
3.93105,48964
3.93917,52472
3.94730,55419
3.95542,46185
3.96353,46916
3.97167,51454
3.97978,51592
3.98792,51018
3.99603,52903
4.00415,53154
4.01228,46295
4.02040,48340
4.02853,51154
4.03665,52350
4.04477,50134
4.05290,52241
4.06102,51799
4.06913,51811
4.07727,52343
4.08538,49878
4.09352,51237
4.10163,47027
4.10975,51104
4.11788,53078
4.12600,48962
4.13413,50935
4.14225,52886
4.15037,48474
4.15850,49873
4.16662,50897
4.17475,51038
4.18287,48293
4.19098,53465
4.19912,51420
4.20723,51226
4.21535,52537
4.22348,52552
4.23160,47653
4.23973,49772
4.24785,47953
4.25597,50578
4.26410,49902
4.27222,48652
4.28035,50348
4.28847,51022
4.29658,53440
4.30472,52119
4.31283,61742
4.32095,55727
4.32908,49067
4.33720,52035
4.34533,48050
4.35345,53574
4.36157,47366
4.36970,49905
4.37782,50619
4.38595,49781
4.39407,48273
4.40218,50785
4.41032,47426
4.41843,53725
4.42657,48731
4.43468,50958
4.44280,53233
4.45093,56203
4.45905,52425
4.46717,53107
4.47530,54924
4.48342,48746
4.49155,55144
4.49967,51924
4.50778,50639
4.51592,50479
4.52403,50982
4.53217,55862
4.54028,52942
4.54840,44756
4.55653,48029
4.56465,48909
4.57278,50974
4.58090,48719
4.58902,47847
4.59715,54323
4.60527,51176
4.61338,49668
4.62152,50124
4.62963,51503
4.63777,49941
4.64588,49742
4.65400,51718
4.66213,49051
4.67025,52747
4.67838,57029
4.68650,54025
4.69462,52690
4.70275,48778
4.71087,50752
4.71898,53255
4.72712,51868
4.73523,52793
4.74337,49690
4.75148,49002
4.75960,52725
4.76773,51308
4.77585,51728
4.78398,49966
4.79210,47701
4.80022,49007
4.80835,50222
4.81647,51487
4.82460,51095
4.83272,51987
4.84083,50342
4.84897,45709
4.85708,48628
4.86520,48055
4.87333,53112
4.88145,50627
4.88958,53571
4.89770,50289
4.90582,50168
4.91395,49054
4.92207,51387
4.93020,55146
4.93832,50012
4.94643,57753
4.95457,52180
4.96268,50041
4.97082,56415
4.97893,53368
4.98705,53160
4.99518,53756
5.00330,52263
5.01142,51067
5.01955,53066
5.02767,53714
5.03580,51457
5.04392,60080
5.05203,52764
5.06017,52059
5.06828,49893
5.07642,51271
5.08453,54770
5.09265,52234
5.10078,51018
5.10890,53690
5.11702,52288
5.12515,54596
5.13327,53361
5.14140,52524
5.14952,56510
5.15763,52678
5.16577,54859
5.17388,59479
5.18202,55309
5.19013,57639
5.19825,52286
5.20638,57310
5.21450,53984
5.22263,56421
5.23075,53244
5.23887,56489
5.24700,55639
5.25512,54465
5.26323,53013
5.27137,53480
5.27948,45194
5.28762,53038
5.29573,48348
5.30385,53689
5.31198,49924
5.32010,51774
5.32823,53724
5.33635,53551
5.34447,48853
5.35260,52687
5.36072,50359
5.36883,53307
5.37697,50363
5.38508,52074
5.39322,50112
5.40133,47704
5.40945,50745
5.41758,52359
5.42570,50293
5.43383,47751
5.44195,49899
5.45007,44752
5.45820,51619
5.46632,48466
5.47445,53368
5.48257,52034
5.49068,52111
5.49882,50061
5.50693,47871
5.51505,50133
5.52318,52868
5.53130,49650
5.53943,49161
5.54755,45689
5.55567,48169
5.56380,50502
5.57192,51033
5.58005,50305
5.58817,49301
5.59628,50834
5.60442,49752
5.61253,48771
5.62067,47964
5.62878,54187
5.63690,50062
5.64503,46502
5.65315,54545
5.66127,53336
5.66940,52395
5.67752,50327
5.68565,48718
5.69377,49781
5.70188,53040
5.71002,50665
5.71813,52060
5.72627,54733
5.73438,52334
5.74250,50539
5.75063,51094
5.75875,48049
5.76687,52905
5.77500,51389
5.78312,49369
5.79125,52052
5.79937,51977
5.80748,47690
5.81562,49115
5.82373,51047
5.83187,50970
5.83998,52736
5.84810,51076
5.85623,53319
5.86435,51438
5.87248,50689
5.88060,52094
5.88872,50805
5.89685,50115
5.90497,51670
5.91308,49910
5.92122,43286
5.92933,45542
5.93747,44657
5.94558,41171
5.95370,39592
5.96183,43975
5.96995,41073
5.97808,39249
5.98620,45640
5.99432,44033
6.00245,45048
6.01057,40824
6.01870,42697
6.02682,40415
6.03493,41953
6.04307,43951
6.05118,41283
6.05930,43396
6.06743,40223
6.07555,42468
6.08368,43230
6.09180,40679
6.09992,43834
6.10805,44271
6.11617,39566
6.12430,40565
6.13242,42931
6.14053,42518
6.14867,45473
6.15678,40679
6.16490,38843
6.17303,41972
6.18115,45798
6.18928,43048
6.19740,48494
6.20552,45255
6.21365,39704
6.22177,40666
6.22990,41673
6.23802,43062
6.24613,43671
6.25427,43278
6.26238,41264
6.27052,42373
6.27863,37578
6.28675,39248
6.29488,41744
6.30300,42517
6.31112,39804
6.31925,42682
6.32737,39929
6.33550,40633
6.34362,43310
6.35173,43499
6.35987,41155
6.36798,39700
6.37612,42101
6.38423,47531
6.39235,43453
6.40048,42924
6.40860,38617
6.41673,39215
6.42485,40000
6.43297,41224
6.44110,45617
6.44922,42067
6.45733,42047
6.46547,41735
6.47358,40661
6.48172,43416
6.48983,42235
6.49795,40616
6.50608,39512
6.51420,40324
6.52233,37352
6.53045,41727
6.53857,43405
6.54670,43371
6.55482,41631
6.56293,41841
6.57107,44466
6.57918,39826
6.58732,40284
6.59543,39493
6.60355,44444
6.61168,42312
6.61980,43818
6.62793,40718
6.63605,40076
6.64417,39387
6.65230,39730
6.66042,42157
6.66855,42777
6.67667,42083
6.68478,40488
6.69292,42509
6.70103,42469
6.70915,41163
6.71728,41569
6.72540,43340
6.73353,41248
6.74165,42683
6.74977,41506
6.75790,39903
6.76602,42779
6.77415,42811
6.78227,40259
6.79038,42184
6.79852,40930
6.80663,40458
6.81475,41466
6.82288,39758
6.83100,43112
6.83913,41257
6.84725,43375
6.85537,35001
6.86350,39206
6.87162,37217
6.87975,34547
6.88787,34332
6.89598,34253
6.90412,36971
6.91223,34602
6.92037,32912
6.92848,35548
6.93660,38626
6.94473,33608
6.95285,36445
6.96097,37017
6.96910,33679
6.97722,37526
6.98535,35617
6.99347,34958
7.00158,37386
7.00972,34377
7.01783,33595
7.02597,35367
7.03408,35240
7.04220,33804
7.05033,35135
7.05845,34907
7.06658,41101
7.07470,31967
7.08282,39568
7.09095,31959
7.09907,35575
7.10718,35260
7.11532,34124
7.12343,33619
7.13157,34518
7.13968,36322
7.14780,33913
7.15593,35076
7.16405,39352
7.17218,33428
7.18030,37591
7.18842,37276
7.19655,34368
7.20467,34608
7.21278,33551
7.22092,33045
7.22903,37228
7.23717,34690
7.24528,32531
7.25340,35356
7.26153,35967
7.26965,34393
7.27778,37579
7.28590,33791
7.29402,33515
7.30215,34377
7.31027,37209
7.31840,33605
7.32652,37803
7.33463,32831
7.34277,33542
7.35088,34725
7.35900,34579
7.36713,34010
7.37525,32344
7.38338,32820
7.39150,33648
7.39962,38467
7.40775,39446
7.41587,34356
7.42400,34182
7.43212,34714
7.44023,34423
7.44837,37266
7.45648,34646
7.46462,35151
7.47273,35958
7.48085,37326
7.48898,35321
7.49710,34219
7.50522,35830
7.51335,35955
7.52147,35537
7.52960,34793
7.53772,37537
7.54583,34762
7.55397,32858
7.56208,37332
7.57022,34881
7.57833,34655
7.58645,32151
7.59458,33221
7.60270,36984
7.61082,33675
7.61895,34956
7.62707,38481
7.63520,35946
7.64332,34470
7.65143,34633
7.65957,35945
7.66768,34882
7.67582,33589
7.68393,32978
7.69205,34168
7.70018,34065
7.70830,33554
7.71643,34577
7.72455,33977
7.73267,36449
7.74080,32759
7.74892,33506
7.75703,33533
7.76517,33181
7.77328,34028
7.78142,32384
7.78953,35768
7.79765,34355
7.80578,35746
7.81390,35371
7.82203,32642
7.83015,33848
7.83827,33411
7.84640,35136
7.85452,34204
7.86263,32151
7.87077,39384
7.87888,34396
7.88702,32914
7.89513,33430
7.90325,33899
7.91138,34660
7.91950,34753
7.92763,33980
7.93575,34816
7.94387,34465
7.95200,32668
7.96012,32647
7.96825,35671
7.97637,35051
7.98448,34619
7.99262,33585
8.00073,35549
8.00885,33782
8.01698,36211
8.02510,32082
8.03323,34185
8.04135,34042
8.04947,33361
8.05760,34479
8.06572,33598
8.07385,34480
8.08197,33391
8.09008,33762
8.09822,34769
8.10633,35048
8.11447,36126
8.12258,36324
8.13070,32290
8.13883,31360
8.14695,33788
8.15507,32482
8.16320,35186
8.17132,32473
8.17945,30362
8.18757,35256
8.19568,34872
8.20382,38405
8.21193,32959
8.22007,34004
8.22818,36709
8.23630,34013
8.24443,36325
8.25255,33072
8.26067,32839
8.26880,33061
8.27692,35418
8.28505,34975
8.29317,31606
8.30128,32311
8.30942,33726
8.31753,35020
8.32567,32345
8.33378,33768
8.34190,32437
8.35003,33736
8.35815,35899
8.36628,33631
8.37440,35289
8.38252,31967
8.39065,33048
8.39877,32080
8.40688,34998
8.41502,34070
8.42313,34446
8.43127,34915
8.43938,34914
8.44750,36453
8.45563,35311
8.46375,31970
8.47188,33725
8.48000,35689
8.48812,37535
8.49625,32157
8.50437,32512
8.51250,35123
8.52062,35599
8.52873,35226
8.53687,33672
8.54498,34057
8.55310,30647
8.56123,33941
8.56935,32808
8.57748,32684
8.58560,31030
8.59372,33682
8.60185,38494
8.60997,34149
8.61810,32127
8.62622,33755
8.63433,34594
8.64247,35131
8.65058,32888
8.65870,34496
8.66683,33404
8.67495,35053
8.68308,36685
8.69120,33563
8.69932,33718
8.70745,35358
8.71557,33529
8.72370,33762
8.73182,32500
8.73993,33730
8.74807,34218
8.75618,34285
8.76432,34220
8.77243,32240
8.78055,33929
8.78868,33760
8.79680,34807
8.80492,40724
8.81305,36848
8.82117,34075
8.82930,34651
8.83742,35137
8.84553,36179
8.85367,36711
8.86178,31190
8.86992,34015
8.87803,39876
8.88615,34643
8.89428,34211
8.90240,35273
8.91052,33027
8.91865,39944
8.92677,34279
8.93490,36643
8.94302,37958
8.95113,38150
8.95927,36755
8.96738,35798
8.97552,36791
8.98363,35209
8.99175,35427
8.99988,36816
9.00800,35606
9.01613,39081
9.02425,35289
9.03237,37070
9.04050,41348
9.04862,37267
9.05673,40862
9.06487,34463
9.07298,35668
9.08112,37582
9.08923,36994
9.09735,38653
9.10548,36623
9.11360,36869
9.12173,35056
9.12985,36704
9.13797,39419
9.14610,36516
9.15422,39471
9.16235,35332
9.17047,34284
9.17858,40265
9.18672,36034
9.19483,41017
9.20295,40861
9.21108,36894
9.21920,37754
9.22733,35894
9.23545,35858
9.24357,36589
9.25170,35138
9.25982,39454
9.26795,39328
9.27607,43839
9.28418,39259
9.29232,35758
9.30043,36673
9.30857,36141
9.31668,34353
9.32480,38035
9.33293,37160
9.34105,36223
9.34917,36817
9.35730,38891
9.36542,38527
9.37355,39023
9.38167,41166
9.38978,34112
9.39792,40279
9.40603,37701
9.41417,34430
9.42228,37378
9.43040,38646
9.43853,38448
9.44665,39258
9.45477,36831
9.46290,37931
9.47102,37355
9.47915,36116
9.48727,39541
9.49538,34326
9.50352,38463
9.51163,34867
9.51977,35782
9.52788,35752
9.53600,33277
9.54413,36169
9.55225,35892
9.56038,31488
9.56850,33734
9.57662,31712
9.58475,36523
9.59287,34089
9.60098,34899
9.60912,36083
9.61723,33068
9.62537,33803
9.63348,33626
9.64160,33778
9.64973,36085
9.65785,35301
9.66598,34696
9.67410,36925
9.68222,33940
9.69035,31195
9.69847,32706
9.70658,33721
9.71472,34464
9.72283,32658
9.73097,33344
9.73908,35367
9.74720,32758
9.75533,31194
9.76345,33953
9.77158,32063
9.77970,30968
9.78782,32398
9.79595,33854
9.80407,32359
9.81220,34350
9.82032,33896
9.82843,35609
9.83657,35949
9.84468,32193
9.85280,35812
9.86093,34811
9.86905,35552
9.87718,33290
9.88530,34740
9.89342,34527
9.90155,34266
9.90967,35327
9.91780,35219
9.92592,33645
9.93403,33011
9.94217,35106
9.95028,32480
9.95842,30489
9.96653,33362
9.97465,33062
9.98278,42372
9.99090,35131
9.99902,33644
10.00715,36157
10.01527,33595
10.02340,34807
10.03152,32370
10.03963,32376
10.04777,35524
10.05588,34240
10.06402,37978
10.07213,31736
10.08025,35877
10.08838,34142
10.09650,37829
10.10462,33491
10.11275,34132
10.12087,32214
10.12900,34513
10.13712,34091
10.14523,32940
10.15337,35634
10.16148,36515
10.16962,33011
10.17773,36663
10.18585,38903
10.19398,37278
10.20210,34513
10.21023,33608
10.21835,35066
10.22647,36077
10.23460,33581
10.24272,34777
10.25083,33671
10.25897,37338
10.26708,31497
10.27522,38880
10.28333,33544
10.29145,35288
10.29958,33419
10.30770,32119
10.31583,32513
10.32395,35294
10.33207,36194
10.34020,36599
10.34832,36709
10.35645,32026
10.36457,36313
10.37268,32661
10.38082,32771
10.38893,36767
10.39705,38202
10.40518,32968
10.41330,38592
10.42143,32379
10.42955,34532
10.43767,38640
10.44580,36761
10.45392,37822
10.46205,35235
10.47017,33447
10.47828,33972
10.48642,36712
10.49453,34166
10.50265,35024
10.51078,33735
10.51890,35785
10.52703,36121
10.53515,37546
10.54327,35142
10.55140,34526
10.55952,34045
10.56765,36288
10.57577,35604
10.58388,34518
10.59202,33440
10.60013,33498
10.60827,32778
10.61638,33216
10.62450,35539
10.63263,34879
10.64075,36028
10.64887,38210
10.65700,34206
10.66512,40009
10.67325,37459
10.68137,36849
10.68948,31580
10.69762,36352
10.70573,35395
10.71387,34232
10.72198,35196
10.73010,30576
10.73823,34072
10.74635,33855
10.75447,33188
10.76260,30249
10.77072,34196
10.77885,34620
10.78697,33241
10.79508,34821
10.80322,37578
10.81133,35762
10.81947,33856
10.82758,35546
10.83570,35441
10.84383,32476
10.85195,35009
10.86008,35762
10.86820,38184
10.87632,36481
10.88445,35021
10.89257,33154
10.90068,34260
10.90882,34799
10.91693,36976
10.92507,36276
10.93318,34350
10.94130,34047
10.94943,33366
10.95755,38616
10.96568,32781
10.97380,35608
10.98192,33458
10.99005,34131
10.99817,34089
11.00630,34726
11.01442,31351
11.02253,35022
11.03067,32852
11.03878,35181
11.04690,35413
11.05503,35141
11.06315,38046
11.07128,32710
11.07940,33378
11.08752,35511
11.09565,38354
11.10377,38727
11.11190,30369
11.12002,37166
11.12813,37608
11.13627,35488
11.14438,36766
11.15250,34504
11.16063,35645
11.16875,37383
11.17688,40424
11.18500,37317
11.19312,34742
11.20125,37455
11.20937,38253
11.21750,34814
11.22562,36145
11.23373,38248
11.24187,36145
11.24998,33570
11.25812,38832
11.26623,34571
11.27435,34948
11.28248,38889
11.29060,34115
11.29872,33020
11.30685,35905
11.31497,40829
11.32310,35523
11.33122,34820
11.33933,32788
11.34747,35991
11.35558,34839
11.36372,35106
11.37183,35915
11.37995,36567
11.38808,33875
11.39620,33826
11.40433,35768
11.41245,37670
11.42057,35317
11.42870,34291
11.43682,34194
11.44493,34567
11.45307,34207
11.46118,34793
11.46932,35806
11.47743,40343
11.48555,34502
11.49368,35278
11.50180,36345
11.50993,33365
11.51805,34992
11.52617,33930
11.53430,33286
11.54242,36696
11.55053,36637
11.55867,36928
11.56678,40793
11.57492,34862
11.58303,35721
11.59115,36406
11.59928,35556
11.60740,35686
11.61553,35136
11.62365,32125
11.63177,33943
11.63990,35266
11.64802,34185
11.65615,36278
11.66427,40329
11.67238,35587
11.68052,33612
11.68863,34708
11.69675,34591
11.70488,37090
11.71300,34858
11.72113,35342
11.72925,37381
11.73737,35107
11.74550,36139
11.75362,33940
11.76175,35001
11.76987,38338
11.77798,32969
11.78612,34959
11.79423,35922
11.80237,38803
11.81048,35415
11.81860,36982
11.82673,35818
11.83485,35629
11.84297,39340
11.85110,32658
11.85922,35473
11.86735,34448
11.87547,39891
11.88358,34873
11.89172,35737
11.89983,33296
11.90797,35046
11.91608,37911
11.92420,37581
11.93233,36209
11.94045,38949
11.94857,36419
11.95670,37357
11.96482,36735
11.97295,39036
11.98107,36085
11.98918,37509
11.99732,35989
12.00543,35559
12.01357,38279
12.02168,35423
12.02980,34899
12.03793,36777
12.04605,36185
12.05418,36327
12.06230,34969
12.07042,33616
12.07855,35280
12.08667,36321
12.09478,36563
12.10292,39293
12.11103,40717
12.11917,35473
12.12728,37225
12.13540,35597
12.14353,37222
12.15165,39714
12.15978,35726
12.16790,36365
12.17602,37517
12.18415,37634
12.19227,36917
12.20038,35783
12.20852,37472
12.21663,38190
12.22477,35662
12.23288,35826
12.24100,36622
12.24913,35158
12.25725,38446
12.26538,38552
12.27350,37087
12.28162,33751
12.28975,37366
12.29787,38947
12.30600,38715
12.31412,36089
12.32223,36011
12.33037,36761
12.33848,37827
12.34660,36935
12.35473,37058
12.36285,37249
12.37098,38004
12.37910,36168
12.38722,38226
12.39535,36381
12.40347,37178
12.41160,38998
12.41972,40832
12.42783,36635
12.43597,35850
12.44408,37014
12.45222,36842
12.46033,38936
12.46845,35638
12.47658,34094
12.48470,35977
12.49282,36063
12.50095,37972
12.50907,38788
12.51720,37632
12.52532,39625
12.53343,39690
12.54157,39063
12.54968,37784
12.55782,36677
12.56593,37089
12.57405,36878
12.58218,36618
12.59030,36639
12.59842,35007
12.60655,40457
12.61467,36806
12.62280,36433
12.63092,37059
12.63903,38936
12.64717,37655
12.65528,40248
12.66342,42020
12.67153,37960
12.67965,39503
12.68778,36107
12.69590,37713
12.70403,38158
12.71215,38079
12.72027,40395
12.72840,41708
12.73652,35914
12.74463,38518
12.75277,38230
12.76088,37833
12.76902,38810
12.77713,39733
12.78525,37471
12.79338,34049
12.80150,37954
12.80963,38296
12.81775,36241
12.82587,36571
12.83400,38128
12.84212,36934
12.85025,37810
12.85837,37310
12.86648,40459
12.87462,38880
12.88273,37619
12.89085,38302
12.89898,39470
12.90710,36680
12.91523,38296
12.92335,38216
12.93147,40544
12.93960,40863
12.94772,39087
12.95585,37624
12.96397,37361
12.97208,38921
12.98022,41680
12.98833,40258
12.99645,33957
13.00458,37182
13.01270,38050
13.02083,36119
13.02895,35141
13.03707,37615
13.04520,41560
13.05332,34589
13.06145,38820
13.06957,36243
13.07768,39338
13.08582,38298
13.09393,39113
13.10207,37686
13.11018,36296
13.11830,39336
13.12643,37440
13.13455,39228
13.14267,37659
13.15080,37150
13.15892,38202
13.16705,38795
13.17517,40807
13.18328,43596
13.19142,38355
13.19953,39286
13.20767,39919
13.21578,38626
13.22390,39526
13.23203,38543
13.24015,39233
13.24827,39001
13.25640,38335
13.26452,41240
13.27265,41813
13.28077,37259
13.28888,38825
13.29702,37941
13.30513,42900
13.31327,39096
13.32138,38615
13.32950,38557
13.33763,36534
13.34575,36384
13.35388,42025
13.36200,38113
13.37012,41813
13.37825,39339
13.38637,43832
13.39448,35603
13.40262,40149
13.41073,41562
13.41887,41640
13.42698,37884
13.43510,40003
13.44323,39064
13.45135,38798
13.45948,39062
13.46760,41341
13.47572,39400
13.48385,38740
13.49197,40147
13.50010,38464
13.50822,39997
13.51633,39168
13.52447,39854
13.53258,40341
13.54070,37003
13.54883,39260
13.55695,39940
13.56508,36172
13.57320,37918
13.58132,44800
13.58945,39652
13.59757,36182
13.60570,38079
13.61382,43882
13.62193,39379
13.63007,38663
13.63818,40452
13.64630,38003
13.65443,40590
13.66255,38073
13.67068,39670
13.67880,40391
13.68692,38740
13.69505,42211
13.70317,42677
13.71130,37778
13.71942,37960
13.72753,40876
13.73567,38559
13.74378,39060
13.75192,40710
13.76003,38529
13.76815,38374
13.77628,41554
13.78440,40441
13.79252,39115
13.80065,38603
13.80877,35204
13.81690,40770
13.82502,43647
13.83313,39797
13.84127,37971
13.84938,42200
13.85752,39628
13.86563,40236
13.87375,40334
13.88188,40644
13.89000,39250
13.89813,39360
13.90625,39919
13.91437,40797
13.92250,36335
13.93062,45997
13.93873,36361
13.94687,40168
13.95498,41116
13.96312,41031
13.97123,41634
13.97935,41926
13.98748,42980
13.99560,42374
14.00373,41038
14.01185,40426
14.01997,40222
14.02810,39353
14.03622,42914
14.04433,38608
14.05247,43912
14.06058,45172
14.06872,43019
14.07683,41562
14.08495,37869
14.09308,45322
14.10120,43438
14.10933,41090
14.11745,38118
14.12557,40100
14.13370,40091
14.14182,43680
14.14995,43729
14.15807,40947
14.16618,40635
14.17432,40588
14.18243,40391
14.19055,45380
14.19868,44648
14.20680,40704
14.21493,43649
14.22305,45498
14.23117,43358
14.23930,45156
14.24742,40865
14.25555,45561
14.26367,49907
14.27178,44600
14.27992,44946
14.28803,44025
14.29615,43633
14.30428,42429
14.31240,43054
14.32053,43275
14.32865,39766
14.33677,43791
14.34490,41229
14.35302,41563
14.36115,45248
14.36927,43156
14.37738,39723
14.38552,42307
14.39363,40349
14.40177,43008
14.40988,44534
14.41800,41545
14.42613,42141
14.43425,41065
14.44237,38639
14.45050,44383
14.45862,40914
14.46675,41497
14.47487,42693
14.48298,45090
14.49112,42669
14.49923,41122
14.50737,46029
14.51548,39373
14.52360,44365
14.53173,41421
14.53985,44147
14.54798,41289
14.55610,41581
14.56422,39404
14.57235,39772
14.58047,41634
14.58858,36843
14.59672,42845
14.60483,39271
14.61297,41761
14.62108,43098
14.62920,39364
14.63733,39332
14.64545,42106
14.65358,44190
14.66170,40623
14.66982,40082
14.67795,42841
14.68607,43703
14.69420,43232
14.70232,41837
14.71043,39766
14.71857,45842
14.72668,41399
14.73480,41213
14.74293,40286
14.75105,42127
14.75918,38924
14.76730,41372
14.77542,43555
14.78355,42881
14.79167,39942
14.79980,42300
14.80792,41722
14.81603,40065
14.82417,43461
14.83228,42315
14.84040,42287
14.84853,41947
14.85665,42130
14.86478,44791
14.87290,39963
14.88102,41928
14.88915,40443
14.89727,43607
14.90540,40373
14.91352,43120
14.92163,42204
14.92977,42200
14.93788,43344
14.94602,41788
14.95413,41527
14.96225,44338
14.97038,44299
14.97850,38835
14.98662,46844
14.99475,41965
15.00287,40870
15.01100,41434
15.01912,42009
15.02723,41468
15.03537,44636
15.04348,45483
15.05162,44765
15.05973,41545
15.06785,42420
15.07598,43364
15.08410,41641
15.09222,41844
15.10035,48716
15.10847,42566
15.11660,43170
15.12472,42654
15.13283,42160
15.14097,41507
15.14908,43228
15.15722,42051
15.16533,44090
15.17345,42405
15.18158,42728
15.18970,41066
15.19783,42470
15.20595,45838
15.21407,44433
15.22220,40227
15.23032,42122
15.23843,43054
15.24657,42293
15.25468,44066
15.26282,43908
15.27093,44123
15.27905,45678
15.28718,45153
15.29530,46732
15.30343,46838
15.31155,41504
15.31967,43615
15.32780,44255
15.33592,40906
15.34405,45743
15.35217,41283
15.36028,44492
15.36842,41391
15.37653,44386
15.38465,43300
15.39278,45303
15.40090,42838
15.40903,44940
15.41715,41744
15.42527,42775
15.43340,41536
15.44152,42490
15.44965,43199
15.45777,43795
15.46588,41634
15.47402,47655
15.48213,47128
15.49025,44928
15.49838,41666
15.50650,47164
15.51463,40009
15.52275,42286
15.53087,41045
15.53900,46197
15.54712,44116
15.55525,41249
15.56337,44010
15.57148,44680
15.57962,43679
15.58773,43232
15.59587,42346
15.60398,43542
15.61210,44955
15.62023,47050
15.62835,43394
15.63647,44636
15.64460,44532
15.65272,48095
15.66085,46646
15.66897,46910
15.67708,43422
15.68522,44225
15.69333,45269
15.70147,46027
15.70958,42889
15.71770,41547
15.72583,46589
15.73395,44560
15.74208,44171
15.75020,42752
15.75832,47507
15.76645,48472
15.77457,42700
15.78268,44868
15.79082,43056
15.79893,47591
15.80707,41844
15.81518,44423
15.82330,44462
15.83143,45652
15.83955,44105
15.84768,43884
15.85580,42790
15.86392,42633
15.87205,42543
15.88017,50448
15.88828,42748
15.89642,40840
15.90453,44425
15.91267,43398
15.92078,43631
15.92890,44900
15.93703,43955
15.94515,44468
15.95328,46190
15.96140,46425
15.96952,47620
15.97765,46636
15.98577,46177
15.99390,42431
16.00202,45947
16.01013,43918
16.01827,43837
16.02638,43562
16.03450,41228
16.04263,44564
16.05075,46543
16.05888,46096
16.06700,47342
16.07512,46929
16.08325,44379
16.09137,44576
16.09950,46809
16.10762,48029
16.11573,45056
16.12387,46636
16.13198,48434
16.14010,43582
16.14823,45715
16.15635,42821
16.16448,46569
16.17260,51565
16.18072,46499
16.18885,43938
16.19697,44233
16.20510,50178
16.21322,46457
16.22133,43745
16.22947,50995
16.23758,47402
16.24572,42677
16.25383,47875
16.26195,42828
16.27008,44435
16.27820,47688
16.28632,46817
16.29445,44111
16.30257,46460
16.31070,51454
16.31882,48483
16.32693,47871
16.33507,47378
16.34318,50097
16.35132,47797
16.35943,47734
16.36755,44669
16.37568,44998
16.38380,44377
16.39193,44384
16.40005,45540
16.40817,47655
16.41630,47997
16.42442,45174
16.43253,50522
16.44067,50424
16.44878,45255
16.45692,43639
16.46503,45479
16.47315,41449
16.48128,43389
16.48940,43796
16.49753,48564
16.50565,47449
16.51377,48484
16.52190,47156
16.53002,44138
16.53813,46345
16.54627,46350
16.55438,44360
16.56252,48346
16.57063,46783
16.57875,49766
16.58688,50248
16.59500,48048
16.60313,46011
16.61125,48696
16.61937,44998
16.62750,48281
16.63562,46919
16.64375,43566
16.65187,45262
16.65998,47345
16.66812,45966
16.67623,48550
16.68435,44686
16.69248,49706
16.70060,46565
16.70873,50867
16.71685,48151
16.72497,50706
16.73310,49373
16.74122,46449
16.74935,48078
16.75747,47976
16.76558,45409
16.77372,51847
16.78183,48197
16.78997,49556
16.79808,47076
16.80620,48899
16.81433,46099
16.82245,44651
16.83057,45594
16.83870,51232
16.84682,48176
16.85495,49133
16.86307,48146
16.87118,47260
16.87932,45509
16.88743,49226
16.89557,45648
16.90368,48548
16.91180,45933
16.91993,48845
16.92805,47281
16.93617,51316
16.94430,51525
16.95242,47000
16.96055,50787
16.96867,50876
16.97678,46949
16.98492,47822
16.99303,47796
17.00117,46646
17.00928,48611
17.01740,46716
17.02553,45913
17.03365,53063
17.04178,45486
17.04990,48669
17.05802,45667
17.06615,50286
17.07427,47701
17.08238,46132
17.09052,47778
17.09863,47122
17.10677,47153
17.11488,48254
17.12300,50199
17.13113,47717
17.13925,49045
17.14738,47092
17.15550,51823
17.16362,45750
17.17175,48275
17.17987,48524
17.18800,45849
17.19612,50033
17.20423,52446
17.21237,49485
17.22048,48431
17.22860,46159
17.23673,46157
17.24485,50921
17.25298,47808
17.26110,50850
17.26922,49363
17.27735,50519
17.28547,48209
17.29360,47437
17.30172,46804
17.30983,48761
17.31797,51381
17.32608,48987
17.33420,49038
17.34233,51251
17.35045,49157
17.35858,50495
17.36670,54502
17.37482,48760
17.38295,54759
17.39107,49963
17.39920,48735
17.40732,48543
17.41543,47256
17.42357,50280
17.43168,49077
17.43982,46059
17.44793,47597
17.45605,48348
17.46418,47898
17.47230,51772
17.48042,50569
17.48855,52334
17.49667,49909
17.50480,51135
17.51292,50659
17.52103,54363
17.52917,51361
17.53728,46731
17.54542,46029
17.55353,48552
17.56165,53086
17.56978,52922
17.57790,50080
17.58602,53945
17.59415,50514
17.60227,52606
17.61040,50606
17.61852,49399
17.62663,48589
17.63477,50283
17.64288,50931
17.65102,47475
17.65913,47717
17.66725,53059
17.67538,51050
17.68350,48770
17.69163,46588
17.69975,52254
17.70787,53416
17.71600,49758
17.72412,51085
17.73223,50793
17.74037,51919
17.74848,49169
17.75662,51888
17.76473,51521
17.77285,48879
17.78098,51560
17.78910,50062
17.79723,51090
17.80535,49336
17.81347,51318
17.82160,50161
17.82972,50717
17.83785,50594
17.84597,46832
17.85408,53166
17.86222,52908
17.87033,53627
17.87845,52028
17.88658,53092
17.89470,51640
17.90283,48243
17.91095,52253
17.91907,50359
17.92720,52319
17.93532,49770
17.94345,50257
17.95157,54363
17.95968,50271
17.96782,52813
17.97593,51290
17.98405,49906
17.99218,49705
18.00030,49676
18.00843,45550
18.01655,52554
18.02467,50652
18.03280,53255
18.04092,56200
18.04905,48777
18.05717,49965
18.06528,54593
18.07342,53598
18.08153,50561
18.08967,49587
18.09778,51648
18.10590,51920
18.11403,48161
18.12215,50940
18.13027,52233
18.13840,52558
18.14652,50461
18.15465,48551
18.16277,51293
18.17088,55040
18.17902,53874
18.18713,52393
18.19527,51175
18.20338,55376
18.21150,53596
18.21963,52553
18.22775,53108
18.23588,53580
18.24400,53048
18.25212,54430
18.26025,52885
18.26837,55484
18.27648,51072
18.28462,53850
18.29273,55546
18.30087,52926
18.30898,54259
18.31710,55385
18.32523,55664
18.33335,51994
18.34148,51172
18.34960,54268
18.35772,51984
18.36585,56761
18.37397,50675
18.38208,54881
18.39022,57217
18.39833,54880
18.40647,51847
18.41458,54027
18.42270,53685
18.43083,53228
18.43895,53681
18.44708,53423
18.45520,52804
18.46332,53692
18.47145,49948
18.47957,52520
18.48770,52148
18.49582,52698
18.50393,52723
18.51207,57049
18.52018,54442
18.52830,54141
18.53643,52968
18.54455,54530
18.55268,53210
18.56080,49714
18.56892,51647
18.57705,52410
18.58517,54772
18.59330,50703
18.60142,53111
18.60953,54830
18.61767,58181
18.62578,55588
18.63390,59325
18.64203,56993
18.65015,52332
18.65828,51897
18.66640,53877
18.67452,53229
18.68265,52693
18.69077,51858
18.69890,53279
18.70702,51592
18.71513,54164
18.72327,53939
18.73138,55743
18.73952,55112
18.74763,51974
18.75575,54789
18.76388,55307
18.77200,56618
18.78012,54119
18.78825,58945
18.79637,53178
18.80450,57876
18.81262,55895
18.82073,57498
18.82887,58449
18.83698,52383
18.84512,54679
18.85323,55658
18.86135,55128
18.86948,57669
18.87760,52816
18.88573,54905
18.89385,53974
18.90197,53075
18.91010,57780
18.91822,62035
18.92633,53985
18.93447,52830
18.94258,51451
18.95072,51519
18.95883,54347
18.96695,56422
18.97508,57058
18.98320,54665
18.99133,53402
18.99945,54223
19.00757,53885
19.01570,55324
19.02382,51581
19.03193,53902
19.04007,58335
19.04818,57897
19.05632,56044
19.06443,56093
19.07255,53880
19.08068,57917
19.08880,54659
19.09693,53626
19.10505,56964
19.11317,55603
19.12130,57514
19.12942,57041
19.13755,55150
19.14567,55390
19.15378,55487
19.16192,53884
19.17003,55739
19.17815,56789
19.18628,53533
19.19440,55495
19.20253,57617
19.21065,55075
19.21877,59496
19.22690,52458
19.23502,54052
19.24315,54134
19.25127,52296
19.25938,51253
19.26752,57794
19.27563,58767
19.28377,57466
19.29188,55991
19.30000,54712
19.30813,52754
19.31625,53917
19.32437,56056
19.33250,55889
19.34062,54297
19.34875,52508
19.35687,55575
19.36498,60917
19.37312,58189
19.38123,57154
19.38937,54249
19.39748,54715
19.40560,56942
19.41373,54648
19.42185,56734
19.42997,59866
19.43810,54287
19.44622,53907
19.45435,55439
19.46247,57392
19.47058,56574
19.47872,56979
19.48683,57288
19.49497,60986
19.50308,60912
19.51120,58764
19.51933,58669
19.52745,57539
19.53558,54917
19.54370,58325
19.55182,57475
19.55995,57248
19.56807,58661
19.57618,55805
19.58432,55185
19.59243,57397
19.60057,51864
19.60868,58885
19.61680,58078
19.62493,61007
19.63305,55157
19.64118,60436
19.64930,55209
19.65742,58517
19.66555,57117
19.67367,60392
19.68180,60383
19.68992,58084
19.69803,56805
19.70617,57398
19.71428,61741
19.72240,58673
19.73053,58918
19.73865,56650
19.74678,59888
19.75490,58353
19.76302,56077
19.77115,62738
19.77927,60954
19.78740,53070
19.79552,60794
19.80363,57769
19.81177,58477
19.81988,59583
19.82800,58878
19.83613,56987
19.84425,57792
19.85238,55759
19.86050,58061
19.86862,58718
19.87675,54191
19.88487,57769
19.89300,56878
19.90112,55124
19.90923,57372
19.91737,61099
19.92548,61554
19.93362,60352
19.94173,58381
19.94985,60445
19.95798,58357
19.96610,55862
19.97422,60417
19.98235,59897
19.99047,58944
19.99860,59562
20.00672,57421
20.01483,56277
20.02297,58581
20.03108,55499
20.03922,60920
20.04733,55570
20.05545,62274
20.06358,58394
20.07170,62504
20.07983,57607
20.08795,60192
20.09607,53891
20.10420,58886
20.11232,59408
20.12043,63957
20.12857,58551
20.13668,63009
20.14482,59289
20.15293,62284
20.16105,60085
20.16918,61315
20.17730,57964
20.18543,57573
20.19355,60700
20.20167,60203
20.20980,58010
20.21792,64975
20.22603,57276
20.23417,60331
20.24228,58682
20.25042,60247
20.25853,61643
20.26665,63113
20.27478,62802
20.28290,60485
20.29103,65329
20.29915,64150
20.30727,62394
20.31540,62614
20.32352,61135
20.33165,64239
20.33977,57307
20.34788,59436
20.35602,60786
20.36413,63003
20.37225,56118
20.38038,59823
20.38850,59855
20.39663,60552
20.40475,63937
20.41287,65217
20.42100,62155
20.42912,63260
20.43725,61307
20.44537,64036
20.45348,65410
20.46162,58208
20.46973,59395
20.47785,58147
20.48598,61659
20.49410,60701
20.50223,59347
20.51035,60685
20.51847,60508
20.52660,58473
20.53472,60398
20.54285,59410
20.55097,59380
20.55908,60304
20.56722,63019
20.57533,62242
20.58347,58768
20.59158,57350
20.59970,59433
20.60783,58651
20.61595,58009
20.62407,62333
20.63220,60147
20.64032,61762
20.64845,62499
20.65657,59612
20.66468,61657
20.67282,64126
20.68093,63610
20.68907,64775
20.69718,63880
20.70530,59754
20.71343,64195
20.72155,61968
20.72968,62113
20.73780,64353
20.74592,61161
20.75405,64555
20.76217,59856
20.77028,61330
20.77842,61547
20.78653,66942
20.79467,61125
20.80278,68082
20.81090,60931
20.81903,60796
20.82715,63143
20.83528,63960
20.84340,62325
20.85152,62290
20.85965,64193
20.86777,61001
20.87588,62882
20.88402,68760
20.89213,65823
20.90027,64738
20.90838,61358
20.91650,62838
20.92463,62248
20.93275,66243
20.94088,60987
20.94900,62536
20.95712,63904
20.96525,65561
20.97337,61782
20.98150,61496
20.98962,64346
20.99773,64294
21.00587,60118
21.01398,63643
21.02210,62049
21.03023,65474
21.03835,63851
21.04648,64503
21.05460,62965
21.06272,62988
21.07085,62054
21.07897,65289
21.08710,64792
21.09522,66353
21.10333,65234
21.11147,66970
21.11958,65177
21.12772,66203
21.13583,64342
21.14395,65189
21.15208,70773
21.16020,66289
21.16832,61769
21.17645,66139
21.18457,67621
21.19270,66435
21.20082,67449
21.20893,65764
21.21707,68909
21.22518,67351
21.23332,63052
21.24143,64556
21.24955,65839
21.25768,68036
21.26580,67060
21.27392,68583
21.28205,65118
21.29017,72102
21.29830,70801
21.30642,69165
21.31453,63392
21.32267,66592
21.33078,70281
21.33892,70909
21.34703,65260
21.35515,65375
21.36328,70876
21.37140,70610
21.37953,66798
21.38765,68163
21.39577,69606
21.40390,65778
21.41202,63719
21.42013,63724
21.42827,66005
21.43638,66130
21.44452,67098
21.45263,67913
21.46075,63907
21.46888,71686
21.47700,67790
21.48513,70801
21.49325,66611
21.50137,66802
21.50950,66279
21.51762,67271
21.52573,70269
21.53387,70118
21.54198,66458
21.55012,65635
21.55823,69548
21.56635,71002
21.57448,70818
21.58260,68037
21.59073,68763
21.59885,62771
21.60697,67491
21.61510,70834
21.62322,66775
21.63135,69168
21.63947,68752
21.64758,66797
21.65572,69804
21.66383,69814
21.67195,73522
21.68008,68614
21.68820,68376
21.69633,69504
21.70445,70133
21.71257,71464
21.72070,71516
21.72882,63224
21.73695,73377
21.74507,69185
21.75318,72558
21.76132,67006
21.76943,70747
21.77757,75807
21.78568,68812
21.79380,72397
21.80193,74296
21.81005,73785
21.81817,71305
21.82630,68882
21.83442,72234
21.84255,68235
21.85067,68201
21.85878,71385
21.86692,73971
21.87503,69843
21.88317,73602
21.89128,65997
21.89940,72465
21.90753,76167
21.91565,69973
21.92377,74445
21.93190,75801
21.94002,70833
21.94815,68821
21.95627,77513
21.96438,72332
21.97252,71410
21.98063,72411
21.98877,71187
21.99688,72847
22.00500,73919
22.01313,72175
22.02125,69813
22.02938,70051
22.03750,73387
22.04562,71425
22.05375,74364
22.06187,73045
22.06998,72484
22.07812,74359
22.08623,72849
22.09437,72662
22.10248,70354
22.11060,73908
22.11873,74291
22.12685,72253
22.13498,72918
22.14310,74903
22.15122,72097
22.15935,76847
22.16747,72707
22.17560,72595
22.18372,75517
22.19183,72048
22.19997,77257
22.20808,73599
22.21620,72181
22.22433,73626
22.23245,70828
22.24058,73303
22.24870,71891
22.25682,71569
22.26495,75855
22.27307,73778
22.28120,75462
22.28932,74523
22.29743,74297
22.30557,72228
22.31368,74930
22.32180,70974
22.32993,75809
22.33805,73928
22.34618,78544
22.35430,72894
22.36242,75022
22.37055,74389
22.37867,77409
22.38680,75242
22.39492,76365
22.40303,77460
22.41117,71892
22.41928,75194
22.42742,73408
22.43553,72744
22.44365,79050
22.45178,74548
22.45990,76477
22.46802,80827
22.47615,72017
22.48427,77526
22.49240,72655
22.50052,77371
22.50863,76116
22.51677,80201
22.52488,73434
22.53302,75842
22.54113,76651
22.54925,76478
22.55738,78356
22.56550,76708
22.57363,76709
22.58175,77023
22.58987,79963
22.59800,76123
22.60612,79476
22.61423,77151
22.62237,81704
22.63048,79400
22.63862,75576
22.64673,78409
22.65485,73885
22.66298,84044
22.67110,80005
22.67923,79082
22.68735,80411
22.69547,77459
22.70360,78282
22.71172,81071
22.71983,79455
22.72797,81770
22.73608,78836
22.74422,83585
22.75233,80757
22.76045,81198
22.76858,79814
22.77670,77053
22.78483,77080
22.79295,76202
22.80107,79270
22.80920,78556
22.81732,85326
22.82545,86191
22.83357,84069
22.84168,81850
22.84982,80384
22.85793,79417
22.86605,87803
22.87418,82035
22.88230,77818
22.89043,80054
22.89855,80958
22.90667,82745
22.91480,81944
22.92292,82679
22.93105,81270
22.93917,80496
22.94728,81194
22.95542,87572
22.96353,83555
22.97165,84207
22.97978,85243
22.98790,85268
22.99603,84405
23.00415,87064
23.01227,84087
23.02040,86905
23.02852,84516
23.03665,88324
23.04477,90559
23.05288,88848
23.06102,89005
23.06913,87731
23.07727,87995
23.08538,92050
23.09350,88372
23.10163,89464
23.10975,98356
23.11787,89541
23.12600,90585
23.13412,93367
23.14225,92265
23.15037,92785
23.15848,98036
23.16662,91913
23.17473,99715
23.18287,90605
23.19098,98275
23.19910,90742
23.20723,90672
23.21535,94148
23.22348,94350
23.23160,91888
23.23972,96706
23.24785,94875
23.25597,92862
23.26408,96448
23.27222,96527
23.28033,90801
23.28847,90508
23.29658,95587
23.30470,92448
23.31283,93204
23.32095,97019
23.32908,92874
23.33720,92634
23.34532,98170
23.35345,95159
23.36157,92061
23.36968,97781
23.37782,92932
23.38593,95585
23.39407,94190
23.40218,93743
23.41030,97460
23.41843,91712
23.42655,94423
23.43468,94657
23.44280,94395
23.45092,97273
23.45905,97564
23.46717,94915
23.47530,97515
23.48342,96311
23.49153,97885
23.49967,94996
23.50778,94490
23.51590,96558
23.52403,95575
23.53215,93966
23.54028,100185
23.54840,93666
23.55652,96025
23.56465,100233
23.57277,98060
23.58090,98607
23.58902,96025
23.59713,97303
23.60527,98258
23.61338,98440
23.62152,94168
23.62963,93731
23.63775,98469
23.64588,93662
23.65400,91797
23.66212,93181
23.67025,97451
23.67837,100039
23.68650,95590
23.69462,97080
23.70273,95048
23.71087,96253
23.71898,93624
23.72712,94415
23.73523,93596
23.74335,93975
23.75148,94218
23.75960,95052
23.76772,96770
23.77585,98776
23.78397,93750
23.79210,89101
23.80022,88934
23.80833,98402
23.81647,91069
23.82458,90380
23.83272,90781
23.84083,87319
23.84895,90070
23.85708,86905
23.86520,83270
23.87333,88400
23.88145,87836
23.88957,86509
23.89770,87633
23.90582,86864
23.91393,89936
23.92207,86007
23.93018,91569
23.93832,87369
23.94643,89780
23.95455,91983
23.96268,86012
23.97080,88784
23.97893,85728
23.98705,84179
23.99517,86246
24.00330,85392
24.01142,87878
24.01953,83762
24.02767,87818
24.03578,84600
24.04392,93368
24.05203,87890
24.06015,86756
24.06828,90692
24.07640,86706
24.08453,89061
24.09265,91992
24.10077,87406
24.10890,85474
24.11702,91306
24.12515,88356
24.13327,85842
24.14138,93297
24.14952,88324
24.15763,87484
24.16575,86392
24.17388,85636
24.18200,93550
24.19013,88315
24.19825,85238
24.20637,84842
24.21450,89784
24.22262,85978
24.23075,89399
24.23887,82692
24.24698,85246
24.25512,86075
24.26323,87341
24.27137,88589
24.27948,86371
24.28760,91488
24.29573,89340
24.30385,88300
24.31197,89341
24.32010,91562
24.32822,87911
24.33635,89509
24.34447,90862
24.35258,90967
24.36072,90059
24.36883,87588
24.37697,90221
24.38508,87626
24.39320,92160
24.40133,86558
24.40945,90463
24.41758,87756
24.42570,88663
24.43382,88950
24.44195,90392
24.45007,88724
24.45818,88967
24.46632,91697
24.47443,87335
24.48257,90619
24.49068,92879
24.49880,90242
24.50693,92611
24.51505,91536
24.52318,88549
24.53130,89292
24.53942,91524
24.54755,84690
24.55567,88836
24.56378,87865
24.57192,88931
24.58003,90772
24.58817,87421
24.59628,90691
24.60440,93334
24.61253,92125
24.62065,93033
24.62878,94295
24.63690,89840
24.64502,91087
24.65315,92426
24.66127,90690
24.66940,91384
24.67752,91112
24.68563,94223
24.69377,93544
24.70188,94794
24.71000,90207
24.71813,91728
24.72625,92647
24.73438,87894
24.74250,90338
24.75062,93154
24.75875,97265
24.76687,92312
24.77500,93321
24.78312,97106
24.79123,92166
24.79937,92071
24.80748,90613
24.81560,95934
24.82373,93303
24.83185,91277
24.83998,98872
24.84810,91578
24.85622,93451
24.86435,92848
24.87247,94052
24.88060,95766
24.88872,95874
24.89683,90574
24.90497,95192
24.91308,90982
24.92122,95308
24.92933,93954
24.93745,92928
24.94558,96158
24.95370,93548
24.96182,96414
24.96995,93353
24.97807,91590
24.98620,93653
24.99432,92224
25.00243,96618
25.01057,97340
25.01868,95950
25.02682,96432
25.03493,92926
25.04305,93514
25.05118,97167
25.05930,98912
25.06743,94557
25.07555,103322
25.08367,97886
25.09180,91856
25.09992,97845
25.10803,89966
25.11617,96260
25.12428,95667
25.13242,94444
25.14053,93266
25.14865,98353
25.15678,94588
25.16490,101338
25.17303,97613
25.18115,100026
25.18927,103996
25.19740,93558
25.20552,88023
25.21363,96585
25.22177,96848
25.22988,89932
25.23802,99538
25.24613,94218
25.25425,100829
25.26238,98115
25.27050,97942
25.27863,95660
25.28675,102617
25.29487,101552
25.30300,95859
25.31112,100904
25.31925,99684
25.32737,105232
25.33548,97292
25.34362,101092
25.35173,95019
25.35985,90274
25.36798,99537
25.37610,95495
25.38423,97408
25.39235,94228
25.40047,99186
25.40860,97290
25.41672,99345
25.42485,98941
25.43297,97126
25.44108,96601
25.44922,106346
25.45733,98145
25.46547,100443
25.47358,101790
25.48170,96903
25.48983,100426
25.49795,101453
25.50607,98624
25.51420,99563
25.52232,99958
25.53045,102739
25.53857,101786
25.54668,95417
25.55482,95154
25.56293,95847
25.57107,98183
25.57918,98480
25.58730,99536
25.59543,101630
25.60355,103029
25.61167,101605
25.61980,102644
25.62792,101971
25.63605,98109
25.64417,98155
25.65228,97949
25.66042,98341
25.66853,103343
25.67667,104449
25.68478,104295
25.69290,100307
25.70103,103043
25.70915,101572
25.71728,100264
25.72540,102922
25.73352,104821
25.74165,103742
25.74977,104427
25.75788,103960
25.76602,98286
25.77413,101376
25.78227,104279
25.79038,105039
25.79850,103931
25.80663,103470
25.81475,106999
25.82288,106753
25.83100,106520
25.83912,102636
25.84725,104051
25.85537,101691
25.86348,108647
25.87162,106673
25.87973,101376
25.88787,102196
25.89598,104876
25.90410,108850
25.91223,101134
25.92035,103570
25.92848,104515
25.93660,105222
25.94472,104253
25.95285,104308
25.96097,111030
25.96910,105873
25.97722,101706
25.98533,108398
25.99347,105410
26.00158,111197
26.00970,104296
26.01783,102541
26.02595,101650
26.03408,115258
26.04220,103056
26.05032,103967
26.05845,109719
26.06657,103522
26.07470,106301
26.08282,108113
26.09093,101481
26.09907,108267
26.10718,113472
26.11532,107825
26.12343,107483
26.13155,113652
26.13968,109965
26.14780,110397
26.15592,109175
26.16405,108383
26.17217,104518
26.18030,107692
26.18842,105867
26.19653,107613
26.20467,106599
26.21278,108014
26.22092,109324
26.22903,110569
26.23715,107394
26.24528,109966
26.25340,106995
26.26152,107058
26.26965,108037
26.27777,108061
26.28590,108348
26.29402,107690
26.30213,108408
26.31027,115022
26.31838,109378
26.32652,115442
26.33463,112556
26.34275,115506
26.35088,117068
26.35900,111074
26.36713,112917
26.37525,114634
26.38337,118307
26.39150,112067
26.39962,113370
26.40773,115761
26.41587,111172
26.42398,114980
26.43212,115327
26.44023,111495
26.44835,120983
26.45648,115025
26.46460,115967
26.47273,116455
26.48085,114120
26.48897,119693
26.49710,116506
26.50522,111698
26.51335,108389
26.52147,111808
26.52958,112895
26.53772,117679
26.54583,117399
26.55395,114732
26.56208,118916
26.57020,114170
26.57833,116430
26.58645,113437
26.59457,114334
26.60270,112601
26.61082,112826
26.61895,117831
26.62707,116543
26.63518,118386
26.64332,121817
26.65143,116678
26.65955,119297
26.66768,118066
26.67580,119276
26.68393,118960
26.69205,120200
26.70017,115718
26.70830,122077
26.71642,117591
26.72455,117098
26.73267,116395
26.74078,119521
26.74892,116973
26.75703,114701
26.76517,123921
26.77328,121063
26.78140,123443
26.78953,120725
26.79765,123833
26.80577,121679
26.81390,123807
26.82202,122337
26.83015,125198
26.83827,133976
26.84638,128480
26.85452,127775
26.86263,125639
26.87077,124029
26.87888,125062
26.88700,124385
26.89513,129816
26.90325,131440
26.91137,127268
26.91950,127586
26.92762,126025
26.93575,126216
26.94387,129110
26.95198,129930
26.96012,125397
26.96823,126671
26.97637,126677
26.98448,125971
26.99260,129380
27.00073,130828
27.00885,124871
27.01698,129957
27.02510,125596
27.03322,128582
27.04135,126707
27.04947,125373
27.05758,121842
27.06572,128067
27.07383,124759
27.08197,129456
27.09008,129713
27.09820,124188
27.10633,129126
27.11445,126164
27.12258,123621
27.13070,125244
27.13882,125289
27.14695,124359
27.15507,128377
27.16320,123597
27.17132,125971
27.17943,130979
27.18757,125628
27.19568,128840
27.20380,123924
27.21193,123221
27.22005,131417
27.22818,131255
27.23630,131432
27.24442,127409
27.25255,129759
27.26067,123685
27.26880,127987
27.27692,130043
27.28503,127866
27.29317,131540
27.30128,126307
27.30940,129884
27.31753,123848
27.32565,128306
27.33378,128164
27.34190,124284
27.35002,127294
27.35815,130365
27.36627,135482
27.37440,124131
27.38252,130565
27.39063,136085
27.39877,129801
27.40688,134088
27.41502,128304
27.42313,129619
27.43125,132031
27.43938,126269
27.44750,129730
27.45562,129182
27.46375,131658
27.47187,133846
27.48000,131359
27.48812,132820
27.49623,131649
27.50437,128194
27.51248,138125
27.52062,126710
27.52873,132074
27.53685,133521
27.54498,135162
27.55310,131897
27.56123,132076
27.56935,132375
27.57747,130690
27.58560,125773
27.59372,134288
27.60183,133493
27.60997,130552
27.61808,130955
27.62622,136545
27.63433,140064
27.64245,130209
27.65058,129588
27.65870,133905
27.66683,136291
27.67495,129346
27.68307,134010
27.69120,136368
27.69932,134720
27.70743,132974
27.71557,134045
27.72368,137534
27.73182,131018
27.73993,135375
27.74805,133852
27.75618,138828
27.76430,138419
27.77243,134556
27.78055,142346
27.78867,134305
27.79680,133326
27.80492,138486
27.81305,134061
27.82117,130440
27.82928,136818
27.83742,133774
27.84553,139290
27.85365,140097
27.86178,132404
27.86990,137798
27.87803,135457
27.88615,142721
27.89427,134075
27.90240,138915
27.91052,137949
27.91865,141236
27.92677,139690
27.93488,136574
27.94302,131539
27.95113,143826
27.95927,138183
27.96738,141076
27.97550,136147
27.98363,140634
27.99175,143311
27.99987,142584
28.00800,144465
28.01612,147200
28.02425,143669
28.03237,142066
28.04048,141024
28.04862,143116
28.05673,136779
28.06487,145216
28.07298,147325
28.08110,142475
28.08923,139710
28.09735,139405
28.10547,139841
28.11360,136002
28.12172,142319
28.12985,138882
28.13797,147474
28.14608,142034
28.15422,141645
28.16233,140131
28.17047,146065
28.17858,140305
28.18670,147850
28.19483,144140
28.20295,145831
28.21108,142809
28.21920,144424
28.22732,145495
28.23545,140307
28.24357,149383
28.25168,149854
28.25982,148088
28.26793,144497
28.27607,144288
28.28418,146598
28.29230,150848
28.30043,147432
28.30855,147465
28.31668,143464
28.32480,147504
28.33292,145329
28.34105,149222
28.34917,148022
28.35728,150820
28.36542,144818
28.37353,148809
28.38167,142470
28.38978,150472
28.39790,149225
28.40603,148011
28.41415,150617
28.42228,148206
28.43040,151396
28.43852,152426
28.44665,143736
28.45477,151350
28.46290,151438
28.47102,154028
28.47913,156185
28.48727,156516
28.49538,142995
28.50350,156071
28.51163,149342
28.51975,148000
28.52788,150770
28.53600,159356
28.54412,152704
28.55225,150196
28.56037,154657
28.56850,148609
28.57662,159015
28.58473,154317
28.59287,145545
28.60098,150403
28.60912,151071
28.61723,155500
28.62535,150871
28.63348,154472
28.64160,153839
28.64972,150415
28.65785,151148
28.66597,152373
28.67410,154023
28.68222,152496
28.69033,151845
28.69847,155207
28.70658,155721
28.71472,156286
28.72283,157640
28.73095,153546
28.73908,153239
28.74720,157807
28.75532,152914
28.76345,153641
28.77157,151166
28.77970,156640
28.78782,162421
28.79593,149699
28.80407,157805
28.81218,160203
28.82032,158971
28.82843,160814
28.83655,160455
28.84468,165200
28.85280,164382
28.86093,164273
28.86905,153054
28.87717,161040
28.88530,158105
28.89342,156519
28.90153,159244
28.90967,156195
28.91778,156232
28.92592,159978
28.93403,161123
28.94215,161068
28.95028,162331
28.95840,166894
28.96653,163200
28.97465,169290
28.98277,164736
28.99090,155004
28.99902,160242
29.00715,159418
29.01527,163380
29.02338,160106
29.03152,164218
29.03963,166278
29.04775,165595
29.05588,165208
29.06400,159802
29.07213,167763
29.08025,166019
29.08837,163797
29.09650,166183
29.10462,163660
29.11275,163854
29.12087,164606
29.12898,168527
29.13712,161360
29.14523,166164
29.15335,162934
29.16148,167910
29.16960,176684
29.17773,171674
29.18585,170435
29.19397,165028
29.20210,161777
29.21022,172808
29.21835,176895
29.22647,167882
29.23458,165403
29.24272,169552
29.25083,169779
29.25897,171250
29.26708,174880
29.27520,170098
29.28333,168704
29.29145,172424
29.29957,174310
29.30770,168548
29.31582,168083
29.32395,169229
29.33207,169470
29.34018,171580
29.34832,167623
29.35643,168550
29.36457,170859
29.37268,168020
29.38080,168659
29.38893,175147
29.39705,165853
29.40517,173097
29.41330,170824
29.42142,176620
29.42955,170925
29.43767,179487
29.44578,172137
29.45392,170179
29.46203,178097
29.47017,169386
29.47828,176863
29.48640,169507
29.49453,176749
29.50265,173337
29.51078,173275
29.51890,171182
29.52702,169827
29.53515,173756
29.54327,177524
29.55138,177354
29.55952,175346
29.56763,173073
29.57577,175038
29.58388,180198
29.59200,178256
29.60013,170943
29.60825,176044
29.61638,176682
29.62450,176308
29.63262,176192
29.64075,173658
29.64887,181840
29.65700,178172
29.66512,181005
29.67323,180382
29.68137,179927
29.68948,180428
29.69760,182070
29.70573,179666
29.71385,186285
29.72198,181823
29.73010,185613
29.73822,189392
29.74635,183731
29.75447,189062
29.76260,187430
29.77072,184031
29.77883,191281
29.78697,184266
29.79508,185234
29.80322,183091
29.81133,184961
29.81945,188877
29.82758,187929
29.83570,184794
29.84382,190660
29.85195,181876
29.86007,188170
29.86820,181707
29.87632,192052
29.88443,185190
29.89257,186809
29.90068,189817
29.90882,181753
29.91693,188482
29.92505,190571
29.93318,183361
29.94130,183541
29.94942,188608
29.95755,189908
29.96567,188470
29.97380,189841
29.98192,191526
29.99003,196216
29.99817,186932
30.00628,194537
30.01442,184287
30.02253,193276
30.03065,191617
30.03878,190034
30.04690,193124
30.05503,189841
30.06315,187837
30.07127,188854
30.07940,186673
30.08752,198400
30.09563,190963
30.10377,187035
30.11188,192173
30.12002,189172
30.12813,191276
30.13625,193892
30.14438,196620
30.15250,190214
30.16063,185080
30.16875,196858
30.17687,189720
30.18500,197871
30.19312,189138
30.20123,194350
30.20937,193654
30.21748,195127
30.22562,190596
30.23373,198332
30.24185,195857
30.24998,195647
30.25810,194473
30.26623,195039
30.27435,199765
30.28247,191601
30.29060,199949
30.29872,203137
30.30685,198137
30.31497,198013
30.32308,203006
30.33122,203446
30.33933,201875
30.34745,199559
30.35558,202539
30.36370,196542
30.37183,204407
30.37995,195277
30.38807,207721
30.39620,201001
30.40432,208045
30.41245,206258
30.42057,210096
30.42868,201138
30.43682,200553
30.44493,204900
30.45307,201098
30.46118,202700
30.46930,207827
30.47743,201709
30.48555,208566
30.49367,202268
30.50180,202525
30.50992,201417
30.51805,204281
30.52617,207639
30.53428,207674
30.54242,200712
30.55053,203903
30.55867,213275
30.56678,204775
30.57490,217333
30.58303,205918
30.59115,212482
30.59927,211749
30.60740,204840
30.61552,213141
30.62365,210337
30.63177,211167
30.63988,210178
30.64802,210341
30.65613,211837
30.66427,213246
30.67238,208670
30.68050,217101
30.68863,210057
30.69675,215548
30.70488,207237
30.71300,215103
30.72112,211352
30.72925,215237
30.73737,213791
30.74548,207922
30.75362,215737
30.76173,210256
30.76987,209186
30.77798,209467
30.78610,218732
30.79423,211997
30.80235,216853
30.81048,212389
30.81860,212427
30.82672,212930
30.83485,219156
30.84297,216315
30.85110,223785
30.85922,215324
30.86733,218981
30.87547,219705
30.88358,220074
30.89170,217679
30.89983,218163
30.90795,219499
30.91608,219934
30.92420,228415
30.93232,225753
30.94045,219984
30.94857,220252
30.95670,221247
30.96482,226325
30.97293,224467
30.98107,220507
30.98918,230652
30.99730,225840
31.00543,218239
31.01355,220232
31.02168,231565
31.02980,227723
31.03792,230612
31.04605,226831
31.05417,219675
31.06230,226964
31.07042,224043
31.07853,228956
31.08667,230286
31.09478,227479
31.10292,229366
31.11103,232032
31.11915,233130
31.12728,226319
31.13540,230839
31.14352,234944
31.15165,234148
31.15977,230901
31.16790,232711
31.17602,234558
31.18413,234183
31.19227,232109
31.20038,226608
31.20852,231008
31.21663,231940
31.22475,237205
31.23288,232393
31.24100,224689
31.24912,232892
31.25725,239593
31.26537,236030
31.27350,235657
31.28162,229512
31.28973,234350
31.29787,240048
31.30598,235720
31.31412,235623
31.32223,236340
31.33035,240145
31.33848,243486
31.34660,239476
31.35473,245430
31.36285,244661
31.37097,235758
31.37910,239460
31.38722,234891
31.39533,240293
31.40347,238334
31.41158,243058
31.41972,238636
31.42783,239108
31.43595,249827
31.44408,238249
31.45220,235925
31.46033,242805
31.46845,238950
31.47657,240054
31.48470,249995
31.49282,244135
31.50095,240553
31.50907,247455
31.51718,248147
31.52532,240402
31.53343,246588
31.54155,251927
31.54968,253608
31.55780,253772
31.56593,248864
31.57405,247854
31.58217,256751
31.59030,253527
31.59842,246745
31.60655,258569
31.61467,256841
31.62278,259002
31.63092,250746
31.63903,248947
31.64715,259847
31.65528,250173
31.66340,249585
31.67153,252791
31.67965,255455
31.68777,253245
31.69590,256482
31.70402,252222
31.71215,255915
31.72027,257164
31.72838,255619
31.73652,263973
31.74463,255511
31.75277,256468
31.76088,252475
31.76900,255805
31.77713,264186
31.78525,259199
31.79337,265898
31.80150,260799
31.80962,260992
31.81775,266493
31.82587,262358
31.83398,266434
31.84212,261119
31.85023,264934
31.85837,268776
31.86648,267901
31.87460,265516
31.88273,263284
31.89085,264608
31.89898,273661
31.90710,264580
31.91522,270316
31.92335,269896
31.93147,270353
31.93958,264653
31.94772,268256
31.95583,265380
31.96397,268035
31.97208,268013
31.98020,269595
31.98833,266793
31.99645,264342
32.00458,267675
32.01270,271324
32.02082,273146
32.02895,275072
32.03707,273664
32.04518,271027
32.05332,275905
32.06143,272234
32.06957,271407
32.07768,268385
32.08580,266119
32.09393,274795
32.10205,278095
32.11018,270852
32.11830,282255
32.12642,282527
32.13455,269395
32.14267,275480
32.15080,284826
32.15892,278360
32.16703,282390
32.17517,285521
32.18328,281202
32.19140,275701
32.19953,280637
32.20765,286834
32.21578,274605
32.22390,287132
32.23202,284748
32.24015,280831
32.24827,289382
32.25640,287712
32.26452,284847
32.27263,287595
32.28077,291693
32.28888,286252
32.29702,287738
32.30513,293932
32.31325,296232
32.32138,295682
32.32950,294906
32.33762,292137
32.34575,299233
32.35387,284058
32.36200,286231
32.37012,296235
32.37823,291577
32.38637,291223
32.39448,290788
32.40262,290347
32.41073,299642
32.41885,291811
32.42698,286787
32.43510,294655
32.44322,287146
32.45135,294584
32.45947,303282
32.46760,301500
32.47572,300259
32.48383,306355
32.49197,305062
32.50008,302777
32.50822,298408
32.51633,296278
32.52445,302103
32.53258,299911
32.54070,300591
32.54883,302726
32.55695,310552
32.56507,297562
32.57320,307319
32.58132,308936
32.58943,300214
32.59757,301094
32.60568,297833
32.61382,307690
32.62193,306103
32.63005,300827
32.63818,316800
32.64630,304582
32.65443,310835
32.66255,313675
32.67067,316058
32.67880,313045
32.68692,317870
32.69503,317893
32.70317,315690
32.71128,320425
32.71942,315703
32.72753,327647
32.73565,319283
32.74378,327030
32.75190,328371
32.76003,317879
32.76815,324049
32.77627,315462
32.78440,317637
32.79252,322505
32.80065,315977
32.80877,318565
32.81688,317315
32.82502,315584
32.83313,319825
32.84125,321288
32.84938,313583
32.85750,320660
32.86563,323281
32.87375,331707
32.88187,321453
32.89000,325976
32.89812,328631
32.90625,327028
32.91437,322854
32.92248,320692
32.93062,320105
32.93873,316488
32.94687,321985
32.95498,329688
32.96310,331751
32.97123,326902
32.97935,324495
32.98747,326082
32.99560,333453
33.00372,332689
33.01185,328673
33.01997,336324
33.02808,334349
33.03622,340323
33.04433,337312
33.05247,334024
33.06058,344484
33.06870,340349
33.07683,339953
33.08495,349492
33.09307,340845
33.10120,347510
33.10932,337736
33.11745,333334
33.12557,337414
33.13368,345084
33.14182,335082
33.14993,342730
33.15807,339569
33.16618,347134
33.17430,344875
33.18243,346537
33.19055,349983
33.19868,350213
33.20680,349889
33.21492,347952
33.22305,351630
33.23117,342968
33.23928,360160
33.24742,354110
33.25553,353225
33.26367,350100
33.27178,356371
33.27990,348826
33.28803,352111
33.29615,351241
33.30428,350197
33.31240,354592
33.32052,362947
33.32865,361458
33.33677,360216
33.34490,368370
33.35302,359502
33.36113,362439
33.36927,357472
33.37738,369902
33.38550,363079
33.39363,372139
33.40175,362588
33.40988,370835
33.41800,363166
33.42612,368724
33.43425,370464
33.44237,369427
33.45050,371522
33.45862,361469
33.46673,366291
33.47487,369699
33.48298,371010
33.49110,373811
33.49923,362307
33.50735,364920
33.51548,370088
33.52360,366157
33.53172,369110
33.53985,373476
33.54797,363182
33.55610,373796
33.56422,369004
33.57233,369433
33.58047,366933
33.58858,373760
33.59672,369545
33.60483,369622
33.61295,371222
33.62108,371388
33.62920,373892
33.63732,376909
33.64545,377328
33.65357,380199
33.66170,380654
33.66982,380762
33.67793,393156
33.68607,397510
33.69418,395687
33.70232,387807
33.71043,401478
33.71855,401552
33.72668,399677
33.73480,400886
33.74292,410404
33.75105,399779
33.75917,400404
33.76730,400959
33.77542,402784
33.78353,407164
33.79167,407023
33.79978,407046
33.80792,399616
33.81603,413134
33.82415,409823
33.83228,404415
33.84040,406499
33.84853,409619
33.85665,405360
33.86477,406713
33.87290,403322
33.88102,396031
33.88913,397266
33.89727,394646
33.90538,400980
33.91352,402720
33.92163,398670
33.92975,410230
33.93788,416547
33.94600,406880
33.95413,420706
33.96225,406623
33.97037,411823
33.97850,418512
33.98662,423797
33.99475,413872
34.00287,425588
34.01098,428705
34.01912,436987
34.02723,429801
34.03535,433717
34.04348,421375
34.05160,426312
34.05973,430531
34.06785,433228
34.07597,425293
34.08410,434728
34.09222,428102
34.10035,439724
34.10847,429894
34.11658,434178
34.12472,435796
34.13283,436722
34.14095,437585
34.14908,442819
34.15720,441411
34.16533,449497
34.17345,453116
34.18157,446010
34.18970,438547
34.19782,435490
34.20595,444283
34.21407,433672
34.22218,434626
34.23032,428260
34.23843,423917
34.24657,422724
34.25468,433607
34.26280,427934
34.27093,433971
34.27905,428925
34.28717,433666
34.29530,430941
34.30342,447760
34.31155,437106
34.31967,447306
34.32778,443724
34.33592,446599
34.34403,449384
34.35217,453815
34.36028,452611
34.36840,451425
34.37653,451878
34.38465,449342
34.39278,459178
34.40090,468419
34.40902,462638
34.41715,454873
34.42527,457602
34.43338,463412
34.44152,460174
34.44963,464946
34.45777,475578
34.46588,462488
34.47400,463550
34.48213,467203
34.49025,464404
34.49838,468724
34.50650,462321
34.51462,464907
34.52275,468797
34.53087,462830
34.53898,459838
34.54712,459183
34.55523,462199
34.56337,457881
34.57148,474346
34.57960,466922
34.58773,456792
34.59585,458136
34.60398,463084
34.61210,462033
34.62022,485470
34.62835,468178
34.63647,470053
34.64460,466689
34.65272,471687
34.66083,485805
34.66897,481679
34.67708,491253
34.68520,475619
34.69333,484169
34.70145,492443
34.70958,489271
34.71770,499267
34.72582,506246
34.73395,495451
34.74207,506026
34.75020,490923
34.75832,494257
34.76643,499351
34.77457,508599
34.78268,497032
34.79080,491813
34.79893,491295
34.80705,491277
34.81518,491441
34.82330,489853
34.83142,504708
34.83955,490778
34.84767,491298
34.85580,496060
34.86392,492798
34.87203,509535
34.88017,496796
34.88828,489752
34.89642,507704
34.90453,499033
34.91265,506701
34.92078,503079
34.92890,514966
34.93702,525779
34.94515,506845
34.95327,515347
34.96140,517862
34.96952,517133
34.97763,526865
34.98577,515753
34.99388,521664
35.00202,520481
35.01013,524451
35.01825,512094
35.02638,521012
35.03450,521703
35.04263,534166
35.05075,522893
35.05887,528529
35.06700,530993
35.07512,534923
35.08323,537346
35.09137,534246
35.09948,536131
35.10762,526046
35.11573,525513
35.12385,527479
35.13198,530520
35.14010,527766
35.14823,526529
35.15635,526389
35.16447,527990
35.17260,527401
35.18072,520106
35.18885,525390
35.19697,527355
35.20508,541161
35.21322,538405
35.22133,543803
35.22945,544973
35.23758,562747
35.24570,552680
35.25383,552352
35.26195,556932
35.27007,553630
35.27820,552736
35.28632,550497
35.29445,561957
35.30257,558591
35.31068,563691
35.31882,563779
35.32693,578835
35.33505,564526
35.34318,574920
35.35130,567467
35.35943,569074
35.36755,573893
35.37567,574906
35.38380,564477
35.39192,560453
35.40005,569341
35.40817,568277
35.41628,560237
35.42442,566565
35.43253,554880
35.44067,565902
35.44878,568578
35.45690,568661
35.46503,564608
35.47315,568718
35.48127,577987
35.48940,573201
35.49752,571938
35.50565,579119
35.51377,587286
35.52188,586996
35.53002,585461
35.53813,591613
35.54627,588667
35.55438,596258
35.56250,597663
35.57063,606278
35.57875,601513
35.58687,606474
35.59500,596109
35.60312,593457
35.61125,597521
35.61937,610183
35.62748,607532
35.63562,606642
35.64373,600654
35.65187,610958
35.65998,587994
35.66810,606413
35.67623,609899
35.68435,603409
35.69248,598631
35.70060,594050
35.70872,588045
35.71685,601883
35.72497,602528
35.73308,598724
35.74122,598042
35.74933,597720
35.75747,595953
35.76558,617106
35.77370,603867
35.78183,602339
35.78995,615526
35.79808,620824
35.80620,625297
35.81432,625061
35.82245,617355
35.83057,634609
35.83870,628034
35.84682,628980
35.85493,628114
35.86307,631563
35.87118,637433
35.87930,624659
35.88743,631327
35.89555,642757
35.90368,635174
35.91180,638475
35.91992,631546
35.92805,643162
35.93617,635790
35.94430,641068
35.95242,636114
35.96053,633533
35.96867,637420
35.97678,622856
35.98490,619181
35.99303,634714
36.00115,636105
36.00928,625599
36.01740,643762
36.02552,625173
36.03365,642771
36.04177,641785
36.04990,660407
36.05802,643322
36.06613,646882
36.07427,651653
36.08238,663301
36.09052,653828
36.09863,655643
36.10675,660456
36.11488,649989
36.12300,660470
36.13112,674709
36.13925,666931
36.14737,663796
36.15550,665026
36.16362,671500
36.17173,673287
36.17987,687781
36.18798,670793
36.19612,666201
36.20423,661904
36.21235,662556
36.22048,659307
36.22860,663822
36.23673,661409
36.24485,660093
36.25297,662299
36.26110,662986
36.26922,650571
36.27733,661851
36.28547,662091
36.29358,658238
36.30172,670344
36.30983,667973
36.31795,680511
36.32608,684770
36.33420,686515
36.34233,685468
36.35045,689910
36.35857,681208
36.36670,675109
36.37482,678448
36.38293,665932
36.39107,692575
36.39918,699597
36.40732,715321
36.41543,706763
36.42355,696977
36.43168,713057
36.43980,710262
36.44793,718121
36.45605,720005
36.46417,724822
36.47230,690676
36.48042,693908
36.48855,688235
36.49667,700040
36.50478,685860
36.51292,689598
36.52103,695836
36.52915,698397
36.53728,695643
36.54540,704276
36.55353,708264
36.56165,698231
36.56977,708757
36.57790,707670
36.58602,703547
36.59415,715170
36.60227,725207
36.61038,722316
36.61852,713057
36.62663,714972
36.63475,717489
36.64288,724895
36.65100,721032
36.65913,738684
36.66725,736300
36.67537,734427
36.68350,749764
36.69162,748690
36.69975,744561
36.70787,757786
36.71598,763026
36.72412,748515
36.73223,744854
36.74037,737871
36.74848,731224
36.75660,740293
36.76473,737677
36.77285,716089
36.78097,746534
36.78910,736301
36.79722,723673
36.80535,739768
36.81347,723220
36.82158,741106
36.82972,746670
36.83783,732214
36.84597,737463
36.85408,747789
36.86220,727688
36.87033,745187
36.87845,750112
36.88658,752220
36.89470,755003
36.90282,758787
36.91095,757990
36.91907,752001
36.92718,773349
36.93532,762072
36.94343,785166
36.95157,780430
36.95968,778294
36.96780,772596
36.97593,770312
36.98405,759718
36.99218,762012
37.00030,770504
37.00842,763931
37.01655,765818
37.02467,769309
37.03278,775076
37.04092,785668
37.04903,774854
37.05717,757237
37.06528,770611
37.07340,774442
37.08153,776872
37.08965,791478
37.09778,797697
37.10590,780999
37.11402,781368
37.12215,782238
37.13027,778554
37.13840,781502
37.14652,790038
37.15463,807725
37.16277,795737
37.17088,801832
37.17900,805551
37.18713,808575
37.19525,817212
37.20338,806892
37.21150,814950
37.21962,792575
37.22775,808599
37.23587,809199
37.24400,800578
37.25212,802385
37.26023,792281
37.26837,800900
37.27648,797512
37.28462,804993
37.29273,815142
37.30085,820823
37.30898,821988
37.31710,826625
37.32522,822089
37.33335,827686
37.34147,816401
37.34960,829463
37.35772,825079
37.36583,805795
37.37397,809278
37.38208,812712
37.39022,823559
37.39833,822383
37.40645,831580
37.41458,830727
37.42270,834373
37.43082,825303
37.43895,834432
37.44707,846836
37.45520,840023
37.46332,843098
37.47143,845850
37.47957,839164
37.48768,840764
