C:\MassHunter\GCMS\1\data\JTB-E18\JTB-E18-023-08.D Tue Sep 10 14:20:58 2019
Start of data points
2.09535,248867
2.10347,250886
2.11160,250061
2.11972,249521
2.12785,245857
2.13597,242766
2.14408,245571
2.15222,237833
2.16033,227783
2.16847,211658
2.17658,209412
2.18470,196350
2.19283,186110
2.20095,186529
2.20908,174047
2.21720,169219
2.22532,165109
2.23345,158225
2.24157,156787
2.24968,153266
2.25782,153919
2.26593,235691
2.27407,1255974
2.28218,2444672
2.29030,1440747
2.29843,717360
2.30655,503299
2.31468,421812
2.32280,381681
2.33092,341362
2.33905,328077
2.34717,295305
2.35528,272937
2.36342,263303
2.37153,260102
2.37967,284976
2.38778,343650
2.39590,275451
2.40403,253081
2.41215,235236
2.42028,249749
2.42840,242343
2.43652,228202
2.44465,226113
2.45277,226781
2.46090,217612
2.46902,208097
2.47713,205741
2.48527,213140
2.49338,271387
2.50150,271140
2.50963,222109
2.51775,214561
2.52588,204454
2.53400,210430
2.54212,202954
2.55025,206988
2.55837,205875
2.56650,197741
2.57462,185526
2.58273,188896
2.59087,193441
2.59898,193991
2.60712,191530
2.61523,215891
2.62335,218208
2.63148,209277
2.63960,188097
2.64772,193687
2.65585,195740
2.66397,188939
2.67210,202448
2.68022,227819
2.68833,208039
2.69647,185297
2.70458,179553
2.71272,175460
2.72083,181057
2.72895,180476
2.73708,179205
2.74520,177422
2.75332,180803
2.76145,170758
2.76957,173290
2.77770,175734
2.78582,174890
2.79393,166096
2.80207,171020
2.81018,177320
2.81832,194782
2.82643,385361
2.83455,653926
2.84268,547626
2.85080,321704
2.85893,264914
2.86705,271813
2.87517,233974
2.88330,199771
2.89142,190984
2.89953,188959
2.90767,179125
2.91578,175729
2.92392,172496
2.93203,167847
2.94015,165659
2.94828,158371
2.95640,164379
2.96453,166271
2.97265,170574
2.98077,167979
2.98890,160006
2.99702,175908
3.00515,176048
3.01327,185943
3.02138,220579
3.02952,361274
3.03763,552328
3.04575,849335
3.05388,2555245
3.06200,5318710
3.07013,5121866
3.07825,2776439
3.08637,1389889
3.09450,906264
3.10262,668929
3.11075,550921
3.11887,471277
3.12698,418186
3.13512,372513
3.14323,339777
3.15135,308917
3.15948,291181
3.16760,281942
3.17573,275492
3.18385,261683
3.19197,250222
3.20010,237264
3.20822,225310
3.21635,224488
3.22447,227881
3.23258,231128
3.24072,223985
3.24883,217351
3.25697,204346
3.26508,200300
3.27320,206255
3.28133,358464
3.28945,1322159
3.29757,4096021
3.30570,7347376
3.31382,7920064
3.32195,6004514
3.33007,3952198
3.33818,2701713
3.34632,2046015
3.35443,1648924
3.36257,1409623
3.37068,1292503
3.37880,1378400
3.38693,1305651
3.39505,1162391
3.40318,1413602
3.41130,2597338
3.41942,3559290
3.42755,2912361
3.43567,1779376
3.44378,1130982
3.45192,880817
3.46003,761857
3.46817,708094
3.47628,658686
3.48440,595236
3.49253,561767
3.50065,540285
3.50878,517025
3.51690,499901
3.52502,483611
3.53315,467558
3.54127,462467
3.54938,449106
3.55752,442075
3.56563,426040
3.57377,406503
3.58188,416542
3.59000,393372
3.59813,400509
3.60625,398376
3.61438,467809
3.62250,784064
3.63062,1405380
3.63875,1796662
3.64687,1494899
3.65500,978435
3.66312,655217
3.67123,533015
3.67937,473290
3.68748,447701
3.69560,433030
3.70373,403712
3.71185,385138
3.71998,380497
3.72810,377945
3.73622,368975
3.74435,371322
3.75247,379648
3.76060,373183
3.76872,348066
3.77683,346939
3.78497,327015
3.79308,326051
3.80122,329972
3.80933,322861
3.81745,332260
3.82558,327896
3.83370,331047
3.84182,324510
3.84995,316151
3.85807,317272
3.86620,303786
3.87432,300076
3.88243,296579
3.89057,308977
3.89868,299530
3.90682,302224
3.91493,297311
3.92305,290809
3.93118,292647
3.93930,289026
3.94742,285752
3.95555,276900
3.96367,280137
3.97180,276458
3.97992,272498
3.98803,271329
3.99617,271389
4.00428,275963
4.01242,267101
4.02053,273621
4.02865,268788
4.03678,267066
4.04490,263395
4.05303,277068
4.06115,271121
4.06927,271968
4.07740,274267
4.08552,272085
4.09363,268431
4.10177,258748
4.10988,261136
4.11802,251650
4.12613,261526
4.13425,279671
4.14238,327868
4.15050,373964
4.15863,381608
4.16675,349492
4.17487,300351
4.18300,284097
4.19112,273438
4.19923,266155
4.20737,252860
4.21548,290217
4.22362,381523
4.23173,550786
4.23985,641259
4.24798,553001
4.25610,436146
4.26423,357008
4.27235,330054
4.28047,300621
4.28860,280165
4.29672,272386
4.30485,260171
4.31297,257928
4.32108,262041
4.32922,259520
4.33733,253042
4.34545,251511
4.35358,249888
4.36170,248871
4.36983,244175
4.37795,251167
4.38607,245325
4.39420,244152
4.40232,243817
4.41045,239439
4.41857,245893
4.42668,237752
4.43482,237764
4.44293,249785
4.45107,257389
4.45918,269224
4.46730,264876
4.47543,263206
4.48355,240678
4.49167,240830
4.49980,234076
4.50792,236808
4.51605,237299
4.52417,230682
4.53228,225612
4.54042,234473
4.54853,231878
4.55667,230273
4.56478,232578
4.57290,230477
4.58103,234359
4.58915,227843
4.59727,222628
4.60540,231357
4.61352,218085
4.62165,218767
4.62977,217806
4.63788,222014
4.64602,221385
4.65413,219493
4.66227,220993
4.67038,215307
4.67850,226049
4.68663,218813
4.69475,218923
4.70288,219035
4.71100,220362
4.71912,218694
4.72725,227200
4.73537,214646
4.74348,224022
4.75162,212692
4.75973,218000
4.76787,215884
4.77598,223710
4.78410,212198
4.79223,220547
4.80035,217526
4.80848,222870
4.81660,219796
4.82472,226837
4.83285,214830
4.84097,223658
4.84910,211783
4.85722,217898
4.86533,224203
4.87347,224579
4.88158,222751
4.88970,218769
4.89783,214907
4.90595,225718
4.91408,259467
4.92220,415664
4.93032,984136
4.93845,2284284
4.94657,4008048
4.95470,5083808
4.96282,4917361
4.97093,3882314
4.97907,2748672
4.98718,1951309
4.99530,1449335
5.00343,1166165
5.01155,982685
5.01968,840411
5.02780,754211
5.03592,687251
5.04405,640064
5.05217,602290
5.06030,566085
5.06842,523965
5.07653,507017
5.08467,488046
5.09278,500618
5.10092,511525
5.10903,555246
5.11715,611391
5.12528,610605
5.13340,542788
5.14152,497972
5.14965,450575
5.15777,437221
5.16590,451202
5.17402,488359
5.18213,542543
5.19027,591081
5.19838,548048
5.20652,503644
5.21463,438042
5.22275,417351
5.23088,396669
5.23900,405161
5.24712,417835
5.25525,403231
5.26337,388089
5.27150,360294
5.27962,350042
5.28773,358217
5.29587,349363
5.30398,358986
5.31212,335563
5.32023,316309
5.32835,328860
5.33648,326242
5.34460,333752
5.35273,341074
5.36085,327562
5.36897,313202
5.37710,302189
5.38522,311275
5.39333,298598
5.40147,300369
5.40958,292231
5.41772,287787
5.42583,300104
5.43395,289991
5.44208,297670
5.45020,283271
5.45833,281239
5.46645,289835
5.47457,280549
5.48270,286701
5.49082,278931
5.49895,280506
5.50707,285672
5.51518,280616
5.52332,289242
5.53143,281902
5.53955,278380
5.54768,285201
5.55580,277606
5.56393,273551
5.57205,273669
5.58017,268243
5.58830,286234
5.59642,283066
5.60455,275451
5.61267,287688
5.62078,277113
5.62892,295273
5.63703,301056
5.64515,303399
5.65328,305599
5.66140,296007
5.66953,284499
5.67765,286610
5.68577,289095
5.69390,295357
5.70202,300193
5.71015,316627
5.71827,321794
5.72638,343354
5.73452,354244
5.74263,355631
5.75077,348206
5.75888,348367
5.76700,366875
5.77513,370883
5.78325,357452
5.79137,345475
5.79950,373180
5.80762,494324
5.81575,800207
5.82387,1240831
5.83198,1617091
5.84012,1676885
5.84823,1434196
5.85637,1037706
5.86448,718004
5.87260,533451
5.88073,436444
5.88885,380502
5.89698,379347
5.90510,410335
5.91322,484453
5.92135,638905
5.92947,820979
5.93758,894107
5.94572,774951
5.95383,619518
5.96197,453485
5.97008,356411
5.97820,311936
5.98633,291631
5.99445,278912
6.00258,266634
6.01070,251942
6.01882,231590
6.02695,233390
6.03507,224419
6.04318,220206
6.05132,216949
6.05943,215774
6.06757,211914
6.07568,209352
6.08380,202310
6.09193,201881
6.10005,198902
6.10818,191090
6.11630,194170
6.12442,195278
6.13255,186674
6.14067,191336
6.14880,196376
6.15692,199167
6.16503,204075
6.17317,214536
6.18128,224023
6.18940,235207
6.19753,250545
6.20565,273495
6.21378,276947
6.22190,253948
6.23002,227320
6.23815,228844
6.24627,221150
6.25440,220270
6.26252,215457
6.27063,228797
6.27877,225123
6.28688,245101
6.29502,230194
6.30313,236104
6.31125,232361
6.31938,241967
6.32750,246367
6.33562,246592
6.34375,260110
6.35187,263197
6.36000,273488
6.36812,277393
6.37623,269574
6.38437,275356
6.39248,268154
6.40062,276792
6.40873,271750
6.41685,276496
6.42498,280103
6.43310,285916
6.44122,288452
6.44935,290331
6.45747,293674
6.46560,305956
6.47372,291755
6.48183,310311
6.48997,301380
6.49808,296951
6.50622,309713
6.51433,315428
6.52245,309759
6.53058,319797
6.53870,315872
6.54683,327125
6.55495,280603
6.56307,245680
6.57120,234275
6.57932,218348
6.58743,215824
6.59557,213746
6.60368,209781
6.61182,214489
6.61993,205803
6.62805,200318
6.63618,197420
6.64430,193408
6.65243,192554
6.66055,179191
6.66867,184671
6.67680,186080
6.68492,189376
6.69303,187414
6.70117,194708
6.70928,210016
6.71742,257416
6.72553,307054
6.73365,344527
6.74178,360530
6.74990,338309
6.75803,280429
6.76615,238744
6.77427,207226
6.78240,190070
6.79052,177917
6.79865,178093
6.80677,172132
6.81488,167704
6.82302,178742
6.83113,190112
6.83925,238107
6.84738,347096
6.85550,539280
6.86363,824968
6.87175,1126685
6.87987,1303304
6.88800,1238540
6.89612,997399
6.90425,682426
6.91237,432203
6.92048,282627
6.92862,205602
6.93673,164387
6.94487,144516
6.95298,137557
6.96110,129778
6.96923,130674
6.97735,120555
6.98547,131979
6.99360,130934
7.00172,172259
7.00985,250812
7.01797,367830
7.02608,526752
7.03422,626055
7.04233,610578
7.05047,528354
7.05858,407600
7.06670,299903
7.07483,223266
7.08295,195688
7.09107,182715
7.09920,170879
7.10732,171731
7.11545,168960
7.12357,166957
7.13168,169358
7.13982,162419
7.14793,150240
7.15607,141033
7.16418,137355
7.17230,128884
7.18043,130404
7.18855,129243
7.19668,133904
7.20480,133657
7.21292,135450
7.22105,147703
7.22917,155018
7.23728,157529
7.24542,170257
7.25353,193574
7.26167,219224
7.26978,249383
7.27790,266540
7.28603,272184
7.29415,248915
7.30228,223896
7.31040,199043
7.31852,197684
7.32665,202417
7.33477,221048
7.34290,207804
7.35102,204578
7.35913,186418
7.36727,182017
7.37538,201100
7.38350,267156
7.39163,337409
7.39975,404129
7.40788,426874
7.41600,388840
7.42412,314196
7.43225,250251
7.44037,191110
7.44850,166692
7.45662,154803
7.46473,142767
7.47287,145689
7.48098,169166
7.48910,207817
7.49723,251843
7.50535,303529
7.51348,306911
7.52160,291204
7.52972,257218
7.53785,200641
7.54597,169059
7.55410,155043
7.56222,141611
7.57033,135924
7.57847,130840
7.58658,120210
7.59472,122628
7.60283,119009
7.61095,121461
7.61908,118369
7.62720,121012
7.63532,117719
7.64345,115557
7.65157,120257
7.65970,127854
7.66782,120754
7.67593,118480
7.68407,112587
7.69218,114634
7.70032,112186
7.70843,108779
7.71655,110562
7.72468,111077
7.73280,110808
7.74092,108581
7.74905,104204
7.75717,106053
7.76530,100132
7.77342,103338
7.78153,111453
7.78967,105844
7.79778,103440
7.80592,105588
7.81403,106812
7.82215,105627
7.83028,103243
7.83840,102813
7.84653,101729
7.85465,101607
7.86277,102232
7.87090,100887
7.87902,102118
7.88713,101842
7.89527,101942
7.90338,98929
7.91152,98606
7.91963,101564
7.92775,95418
7.93588,96074
7.94400,95336
7.95213,95574
7.96025,94908
7.96837,97338
7.97650,99971
7.98462,100906
7.99275,98699
8.00087,100047
8.00898,91299
8.01712,97962
8.02523,97135
8.03335,95368
8.04148,96190
8.04960,89208
8.05773,89087
8.06585,87606
8.07397,100771
8.08210,88826
8.09022,90720
8.09835,86695
8.10647,88218
8.11458,91882
8.12272,90772
8.13083,87705
8.13895,93912
8.14708,96920
8.15520,95257
8.16333,92308
8.17145,93142
8.17957,94688
8.18770,93455
8.19582,92289
8.20395,91743
8.21207,87673
8.22018,88596
8.22832,89295
8.23643,91435
8.24457,83715
8.25268,87445
8.26080,88643
8.26893,87417
8.27705,89625
8.28517,88427
8.29330,88402
8.30142,90324
8.30955,85218
8.31767,85044
8.32578,85898
8.33392,91691
8.34203,98329
8.35017,92790
8.35828,99227
8.36640,95545
8.37453,89928
8.38265,87613
8.39078,87617
8.39890,83797
8.40702,82357
8.41515,80976
8.42327,85434
8.43138,80341
8.43952,82341
8.44763,81665
8.45577,81082
8.46388,80790
8.47200,78465
8.48013,84984
8.48825,81467
8.49638,84199
8.50450,84723
8.51262,87981
8.52075,88605
8.52887,96677
8.53698,99796
8.54512,88866
8.55323,88961
8.56137,90272
8.56948,81805
8.57760,83776
8.58573,84741
8.59385,90155
8.60198,85493
8.61010,80029
8.61822,86440
8.62635,81949
8.63447,84247
8.64260,76808
8.65072,80903
8.65883,80716
8.66697,78409
8.67508,80439
8.68320,80788
8.69133,82392
8.69945,80702
8.70758,85488
8.71570,85392
8.72382,92881
8.73195,126268
8.74007,268865
8.74820,599968
8.75632,1251946
8.76443,2088492
8.77257,2683664
8.78068,2631312
8.78880,2057040
8.79693,1422751
8.80505,939650
8.81318,702330
8.82130,551877
8.82942,476105
8.83755,400021
8.84567,349673
8.85380,321031
8.86192,287696
8.87003,278752
8.87817,263016
8.88628,241791
8.89442,230127
8.90253,214045
8.91065,211092
8.91878,210350
8.92690,200242
8.93502,194492
8.94315,190690
8.95127,181061
8.95940,187872
8.96752,177697
8.97563,173874
8.98377,167746
8.99188,166886
9.00002,162383
9.00813,165679
9.01625,153647
9.02438,159746
9.03250,162610
9.04063,152515
9.04875,159247
9.05687,149282
9.06500,152588
9.07312,151171
9.08123,148628
9.08937,148247
9.09748,148715
9.10562,146937
9.11373,141231
9.12185,151344
9.12998,144002
9.13810,136536
9.14623,138772
9.15435,141353
9.16247,138786
9.17060,137405
9.17872,137385
9.18685,135225
9.19497,128831
9.20308,129115
9.21122,132796
9.21933,129021
9.22745,127468
9.23558,125568
9.24370,126641
9.25183,124851
9.25995,129911
9.26807,128342
9.27620,123412
9.28432,124374
9.29245,121476
9.30057,119454
9.30868,121127
9.31682,120641
9.32493,122110
9.33305,118331
9.34118,116815
9.34930,119889
9.35743,126835
9.36555,117985
9.37367,121732
9.38180,114396
9.38992,118187
9.39805,114225
9.40617,111880
9.41428,107221
9.42242,112342
9.43053,107846
9.43867,112724
9.44678,110925
9.45490,108649
9.46303,104803
9.47115,104863
9.47927,107767
9.48740,106327
9.49552,108499
9.50365,105975
9.51177,101276
9.51988,105347
9.52802,101226
9.53613,96046
9.54427,89517
9.55238,79582
9.56050,72505
9.56863,75196
9.57675,71650
9.58487,67559
9.59300,73467
9.60112,67445
9.60925,69002
9.61737,69386
9.62548,67524
9.63362,69405
9.64173,67214
9.64987,67820
9.65798,69528
9.66610,60980
9.67423,65787
9.68235,62154
9.69048,64580
9.69860,62365
9.70672,62673
9.71485,62259
9.72297,63732
9.73108,60845
9.73922,64856
9.74733,61371
9.75547,64395
9.76358,58083
9.77170,62667
9.77983,60976
9.78795,61539
9.79608,62239
9.80420,59268
9.81232,64608
9.82045,62101
9.82857,60881
9.83670,64490
9.84482,66934
9.85293,67318
9.86107,67730
9.86918,69588
9.87730,61832
9.88543,63825
9.89355,58271
9.90168,61088
9.90980,59141
9.91792,64396
9.92605,60330
9.93417,61757
9.94230,64007
9.95042,62385
9.95853,63879
9.96667,65710
9.97478,69582
9.98290,75733
9.99103,80787
9.99915,80703
10.00728,79575
10.01540,79255
10.02352,73954
10.03165,74139
10.03977,74192
10.04790,71696
10.05602,68085
10.06413,67867
10.07227,66734
10.08038,64876
10.08852,64272
10.09663,63250
10.10475,65163
10.11288,66453
10.12100,62261
10.12912,64373
10.13725,65129
10.14537,64122
10.15350,63954
10.16162,60326
10.16973,61643
10.17787,63342
10.18598,59885
10.19412,61973
10.20223,64445
10.21035,65993
10.21848,62379
10.22660,60875
10.23473,70807
10.24285,65720
10.25097,67373
10.25910,69911
10.26722,70389
10.27533,73312
10.28347,78225
10.29158,71955
10.29972,75773
10.30783,77803
10.31595,71383
10.32408,77942
10.33220,70965
10.34033,70471
10.34845,66037
10.35657,65920
10.36470,70047
10.37282,67601
10.38093,66289
10.38907,73707
10.39718,75026
10.40532,73528
10.41343,75447
10.42155,68250
10.42968,68499
10.43780,66368
10.44593,65678
10.45405,63451
10.46217,62578
10.47030,62581
10.47842,58537
10.48655,61843
10.49467,65747
10.50278,65317
10.51092,67023
10.51903,72042
10.52715,73031
10.53528,80384
10.54340,89583
10.55153,89703
10.55965,83286
10.56777,73704
10.57590,75596
10.58402,73271
10.59215,64670
10.60027,70423
10.60838,68835
10.61652,66133
10.62463,64447
10.63275,67908
10.64088,68375
10.64900,68898
10.65713,69595
10.66525,67500
10.67337,71545
10.68150,70246
10.68962,69120
10.69775,70180
10.70587,75285
10.71398,78034
10.72212,82443
10.73023,89501
10.73837,83070
10.74648,80372
10.75460,75763
10.76273,71937
10.77085,74854
10.77897,77498
10.78710,71848
10.79522,73135
10.80335,64873
10.81147,67581
10.81958,63725
10.82772,63038
10.83583,61780
10.84397,58770
10.85208,59178
10.86020,59119
10.86833,65953
10.87645,63550
10.88458,61258
10.89270,59495
10.90082,62959
10.90895,61744
10.91707,60902
10.92518,68801
10.93332,62374
10.94143,61101
10.94957,59608
10.95768,59262
10.96580,64923
10.97393,64304
10.98205,62940
10.99018,64871
10.99830,64183
11.00642,58089
11.01455,60020
11.02267,62526
11.03078,57379
11.03892,59572
11.04703,58229
11.05517,55081
11.06328,56774
11.07140,56914
11.07953,56161
11.08765,58745
11.09578,57954
11.10390,60237
11.11202,60777
11.12015,64407
11.12827,68688
11.13640,73089
11.14452,76472
11.15263,78203
11.16077,75153
11.16888,78768
11.17700,79029
11.18513,72192
11.19325,74904
11.20138,78161
11.20950,77692
11.21762,80167
11.22575,78176
11.23387,75451
11.24200,74841
11.25012,72698
11.25823,72835
11.26637,72221
11.27448,87289
11.28262,106346
11.29073,147418
11.29885,210260
11.30698,274273
11.31510,315626
11.32322,336686
11.33135,309303
11.33947,282543
11.34760,249185
11.35572,233844
11.36383,214875
11.37197,193548
11.38008,167056
11.38822,151738
11.39633,126024
11.40445,111764
11.41258,103122
11.42070,93465
11.42882,83392
11.43695,77947
11.44507,80374
11.45320,76977
11.46132,77586
11.46943,71562
11.47757,68062
11.48568,70361
11.49382,70376
11.50193,66877
11.51005,70796
11.51818,73233
11.52630,78620
11.53443,85261
11.54255,100866
11.55067,110154
11.55880,115353
11.56692,123718
11.57503,120942
11.58317,115711
11.59128,113602
11.59942,103217
11.60753,100032
11.61565,88391
11.62378,89273
11.63190,77071
11.64003,79172
11.64815,72267
11.65627,72954
11.66440,73389
11.67252,71252
11.68065,72147
11.68877,72010
11.69688,76194
11.70502,80037
11.71313,89171
11.72125,91109
11.72938,102183
11.73750,115140
11.74563,128240
11.75375,134808
11.76187,133284
11.77000,130004
11.77812,122107
11.78625,125376
11.79437,114393
11.80248,109395
11.81062,104650
11.81873,92296
11.82685,80048
11.83498,78536
11.84310,81638
11.85123,77659
11.85935,73355
11.86747,74011
11.87560,69151
11.88372,71544
11.89185,70603
11.89997,68479
11.90808,64711
11.91622,66820
11.92433,71576
11.93247,79180
11.94058,98178
11.94870,119982
11.95683,133721
11.96495,139664
11.97307,135979
11.98120,129440
11.98932,127928
11.99745,112186
12.00557,110007
12.01368,99117
12.02182,88639
12.02993,85714
12.03807,77251
12.04618,75201
12.05430,75736
12.06243,67481
12.07055,70101
12.07867,65465
12.08680,68747
12.09492,64185
12.10305,68761
12.11117,63551
12.11928,66063
12.12742,60476
12.13553,60992
12.14367,61084
12.15178,64594
12.15990,61896
12.16803,61234
12.17615,63874
12.18428,62995
12.19240,63666
12.20052,64461
12.20865,59872
12.21677,56554
12.22488,61547
12.23302,61448
12.24113,58429
12.24927,59236
12.25738,54963
12.26550,57332
12.27363,57179
12.28175,53598
12.28988,59244
12.29800,60060
12.30612,59332
12.31425,55964
12.32237,58803
12.33050,62140
12.33862,56685
12.34673,60119
12.35487,61994
12.36298,60374
12.37110,57795
12.37923,58802
12.38735,57646
12.39548,57887
12.40360,59140
12.41172,59813
12.41985,61839
12.42797,65941
12.43610,66995
12.44422,59458
12.45233,61311
12.46047,63153
12.46858,58856
12.47670,56870
12.48483,55668
12.49295,56787
12.50108,56107
12.50920,53545
12.51732,61227
12.52545,58908
12.53357,58876
12.54170,59159
12.54982,58614
12.55793,55981
12.56607,55268
12.57418,55044
12.58232,54388
12.59043,54441
12.59855,51905
12.60668,55803
12.61480,52842
12.62292,57160
12.63105,51512
12.63917,50051
12.64730,51976
12.65542,52476
12.66353,49549
12.67167,51816
12.67978,51788
12.68792,52719
12.69603,52375
12.70415,52205
12.71228,51526
12.72040,51476
12.72853,54419
12.73665,55293
12.74477,62132
12.75290,53768
12.76102,60987
12.76913,54354
12.77727,56354
12.78538,62796
12.79352,65648
12.80163,72323
12.80975,80622
12.81788,92507
12.82600,90161
12.83413,87851
12.84225,88091
12.85037,86794
12.85850,87693
12.86662,71724
12.87473,70368
12.88287,69860
12.89098,58956
12.89912,64841
12.90723,58749
12.91535,58896
12.92348,58212
12.93160,61430
12.93973,61245
12.94785,80023
12.95597,98870
12.96410,132458
12.97222,188638
12.98035,246431
12.98847,293105
12.99658,313385
13.00472,319137
13.01283,298217
13.02095,275044
13.02908,247645
13.03720,207431
13.04533,168022
13.05345,144320
13.06157,121576
13.06970,107508
13.07782,95863
13.08595,89677
13.09407,79775
13.10218,79085
13.11032,74876
13.11843,78914
13.12655,71701
13.13468,69878
13.14280,73509
13.15093,74768
13.15905,72073
13.16717,67258
13.17530,68312
13.18342,68345
13.19155,65964
13.19967,68767
13.20778,70748
13.21592,70695
13.22403,67727
13.23217,68111
13.24028,70291
13.24840,74850
13.25653,78392
13.26465,93469
13.27277,105968
13.28090,116291
13.28902,135356
13.29715,135652
13.30527,136731
13.31338,136222
13.32152,133667
13.32963,136581
13.33777,141656
13.34588,133402
13.35400,133259
13.36213,129267
13.37025,123066
13.37838,106980
13.38650,105901
13.39462,94536
13.40275,93634
13.41087,82876
13.41898,75563
13.42712,73312
13.43523,74192
13.44337,76474
13.45148,70682
13.45960,65856
13.46773,66206
13.47585,64157
13.48398,71341
13.49210,65384
13.50022,62413
13.50835,61513
13.51647,63307
13.52460,62458
13.53272,64341
13.54083,68408
13.54897,73282
13.55708,81582
13.56520,89837
13.57333,105146
13.58145,114019
13.58958,117852
13.59770,124899
13.60582,128924
13.61395,135409
13.62207,136718
13.63020,145524
13.63832,149396
13.64643,158854
13.65457,163516
13.66268,163351
13.67080,154029
13.67893,140417
13.68705,130816
13.69518,117736
13.70330,99949
13.71142,95173
13.71955,88497
13.72767,89701
13.73580,87330
13.74392,90768
13.75203,87087
13.76017,89096
13.76828,86234
13.77642,83245
13.78453,90661
13.79265,86013
13.80078,80851
13.80890,79628
13.81702,75988
13.82515,78587
13.83327,72478
13.84140,74091
13.84952,72731
13.85763,69742
13.86577,68749
13.87388,72018
13.88202,75053
13.89013,82320
13.89825,86167
13.90638,102293
13.91450,104689
13.92262,120566
13.93075,125226
13.93887,126102
13.94700,125025
13.95512,119064
13.96323,113469
13.97137,106930
13.97948,102295
13.98762,104185
13.99573,95344
14.00385,93589
14.01198,91798
14.02010,102994
14.02823,98550
14.03635,98938
14.04447,100324
14.05260,92838
14.06072,90031
14.06883,86243
14.07697,87877
14.08508,77318
14.09322,77526
14.10133,72844
14.10945,74132
14.11758,69075
14.12570,70736
14.13383,83718
14.14195,124555
14.15007,241216
14.15820,460994
14.16632,762430
14.17445,1047307
14.18257,1141995
14.19068,1036573
14.19882,783976
14.20693,549790
14.21505,417999
14.22318,317215
14.23130,261527
14.23943,231817
14.24755,203807
14.25567,198538
14.26380,184321
14.27192,173052
14.28005,164160
14.28817,153625
14.29628,150069
14.30442,136516
14.31253,130310
14.32065,118554
14.32878,108542
14.33690,87929
14.34503,83044
14.35315,75352
14.36127,69753
14.36940,68742
14.37752,65397
14.38565,61009
14.39377,61528
14.40188,66960
14.41002,67972
14.41813,66206
14.42627,63526
14.43438,61496
14.44250,60207
14.45063,59648
14.45875,65878
14.46687,62014
14.47500,65739
14.48312,62858
14.49125,62165
14.49937,60022
14.50748,57507
14.51562,58569
14.52373,60271
14.53187,57625
14.53998,60930
14.54810,61557
14.55623,60681
14.56435,57263
14.57248,56795
14.58060,61330
14.58872,58062
14.59685,57901
14.60497,57421
14.61308,58094
14.62122,56772
14.62933,55382
14.63747,55949
14.64558,59963
14.65370,59585
14.66183,57004
14.66995,51282
14.67808,54071
14.68620,52367
14.69432,55891
14.70245,53794
14.71057,54862
14.71868,55800
14.72682,54481
14.73493,54589
14.74307,61224
14.75118,54446
14.75930,55124
14.76743,53393
14.77555,52640
14.78368,55650
14.79180,50517
14.79992,54376
14.80805,55688
14.81617,55466
14.82430,54625
14.83242,58704
14.84053,59740
14.84867,57940
14.85678,59474
14.86490,62849
14.87303,61908
14.88115,63123
14.88928,62191
14.89740,58934
14.90552,61096
14.91365,62858
14.92177,61648
14.92990,57705
14.93802,62412
14.94613,61620
14.95427,60926
14.96238,60390
14.97050,61047
14.97863,59094
14.98675,59119
14.99488,59499
15.00300,57005
15.01112,53424
15.01925,56392
15.02737,57578
15.03550,57737
15.04362,59098
15.05173,54505
15.05987,56672
15.06798,55750
15.07612,56642
15.08423,54687
15.09235,57386
15.10048,54516
15.10860,56197
15.11672,54864
15.12485,55979
15.13297,55124
15.14110,57034
15.14922,53443
15.15733,52488
15.16547,50439
15.17358,56417
15.18172,52407
15.18983,53467
15.19795,54027
15.20608,50279
15.21420,49060
15.22233,52558
15.23045,51659
15.23857,51034
15.24670,49838
15.25482,47666
15.26293,51935
15.27107,50322
15.27918,48686
15.28732,54820
15.29543,50498
15.30355,47164
15.31168,49863
15.31980,48780
15.32793,50849
15.33605,49822
15.34417,51746
15.35230,51102
15.36042,47805
15.36853,49583
15.37667,56853
15.38478,48633
15.39292,49066
15.40103,50718
15.40915,50766
15.41728,47065
15.42540,46210
15.43353,48949
15.44165,49877
15.44977,55322
15.45790,53516
15.46602,49620
15.47415,54178
15.48227,51116
15.49038,56166
15.49852,51162
15.50663,51089
15.51475,50679
15.52288,53873
15.53100,45781
15.53913,51286
15.54725,46529
15.55537,47201
15.56350,50431
15.57162,51145
15.57975,49762
15.58787,50800
15.59598,49236
15.60412,49837
15.61223,49249
15.62037,49089
15.62848,54308
15.63660,47259
15.64473,50571
15.65285,52342
15.66097,49628
15.66910,49065
15.67722,50209
15.68535,47392
15.69347,48612
15.70158,46786
15.70972,48791
15.71783,50509
15.72597,50561
15.73408,50664
15.74220,49394
15.75033,50632
15.75845,48699
15.76657,53535
15.77470,50255
15.78282,53121
15.79095,54040
15.79907,56800
15.80718,52850
15.81532,53230
15.82343,51146
15.83157,50910
15.83968,50529
15.84780,51653
15.85593,49843
15.86405,46427
15.87218,48667
15.88030,51870
15.88842,49370
15.89655,50146
15.90467,51045
15.91278,49599
15.92092,53744
15.92903,47396
15.93717,52179
15.94528,52455
15.95340,53049
15.96153,52313
15.96965,52624
15.97778,54956
15.98590,56555
15.99402,52386
16.00215,54285
16.01027,57018
16.01838,57858
16.02652,61930
16.03463,66235
16.04277,64767
16.05088,65997
16.05900,59773
16.06713,59794
16.07525,54228
16.08338,55019
16.09150,56671
16.09962,55835
16.10775,58666
16.11587,55699
16.12400,53184
16.13212,58155
16.14023,55847
16.14837,51928
16.15648,53814
16.16460,52687
16.17273,51870
16.18085,52290
16.18898,54254
16.19710,52163
16.20522,55134
16.21335,52630
16.22147,52397
16.22960,61180
16.23772,57151
16.24583,56934
16.25397,54796
16.26208,54408
16.27022,57194
16.27833,53794
16.28645,57113
16.29458,53298
16.30270,60492
16.31082,60107
16.31895,55371
16.32707,63501
16.33520,70611
16.34332,65694
16.35143,66053
16.35957,60812
16.36768,59309
16.37582,62616
16.38393,55689
16.39205,55891
16.40018,63734
16.40830,59326
16.41642,56683
16.42455,57735
16.43267,57284
16.44080,55344
16.44892,57714
16.45703,54947
16.46517,55121
16.47328,52728
16.48142,54920
16.48953,54166
16.49765,56110
16.50578,55461
16.51390,57254
16.52203,50113
16.53015,54727
16.53827,57501
16.54640,59876
16.55452,55613
16.56263,55326
16.57077,56429
16.57888,55136
16.58702,53829
16.59513,56307
16.60325,56462
16.61138,57749
16.61950,56520
16.62763,59553
16.63575,57074
16.64387,56493
16.65200,58642
16.66012,54835
16.66825,52029
16.67637,56908
16.68448,52734
16.69262,53262
16.70073,52963
16.70885,52845
16.71698,52505
16.72510,52353
16.73323,56896
16.74135,52278
16.74947,50408
16.75760,56981
16.76572,53583
16.77385,55106
16.78197,56472
16.79008,51766
16.79822,51933
16.80633,51204
16.81445,50587
16.82258,53319
16.83070,52602
16.83883,54358
16.84695,56930
16.85507,58081
16.86320,57994
16.87132,54861
16.87945,55941
16.88757,55810
16.89568,56441
16.90382,54932
16.91193,54087
16.92007,55044
16.92818,54627
16.93630,56075
16.94443,55792
16.95255,52826
16.96067,55721
16.96880,51112
16.97692,53973
16.98505,55299
16.99317,52308
17.00128,56556
17.00942,52894
17.01753,59314
17.02567,57918
17.03378,53863
17.04190,58903
17.05003,55242
17.05815,49399
17.06628,58292
17.07440,56838
17.08252,54517
17.09065,56710
17.09877,61106
17.10688,54033
17.11502,56895
17.12313,56662
17.13127,56166
17.13938,59990
17.14750,54624
17.15563,57551
17.16375,56024
17.17188,56386
17.18000,52256
17.18812,58227
17.19625,53455
17.20437,55943
17.21248,57444
17.22062,53243
17.22873,54022
17.23687,53308
17.24498,57794
17.25310,56139
17.26123,54390
17.26935,58036
17.27748,56770
17.28560,59037
17.29372,54708
17.30185,54857
17.30997,53175
17.31810,60441
17.32622,52660
17.33433,57746
17.34247,61811
17.35058,61542
17.35870,68056
17.36683,68560
17.37495,71882
17.38308,71428
17.39120,71070
17.39932,76355
17.40745,79179
17.41557,74350
17.42370,76905
17.43182,77476
17.43993,73079
17.44807,68992
17.45618,70194
17.46430,67657
17.47243,67811
17.48055,62063
17.48868,67895
17.49680,66593
17.50492,65252
17.51305,69080
17.52117,73736
17.52930,80498
17.53742,89088
17.54553,103873
17.55367,121108
17.56178,121775
17.56992,122493
17.57803,123270
17.58615,111342
17.59428,94174
17.60240,83760
17.61052,78223
17.61865,69034
17.62677,69276
17.63490,66735
17.64302,64885
17.65113,63398
17.65927,64192
17.66738,70005
17.67552,71869
17.68363,74114
17.69175,76534
17.69988,74184
17.70800,73627
17.71613,72016
17.72425,66177
17.73237,65380
17.74050,68151
17.74862,64039
17.75673,59350
17.76487,61791
17.77298,64839
17.78112,59545
17.78923,60918
17.79735,58768
17.80548,59073
17.81360,61213
17.82173,62565
17.82985,61005
17.83797,65533
17.84610,69356
17.85422,73548
17.86233,66458
17.87047,67567
17.87858,68692
17.88672,70158
17.89483,62858
17.90295,64173
17.91108,59091
17.91920,61022
17.92733,60952
17.93545,58839
17.94357,62167
17.95170,56586
17.95982,56074
17.96795,53300
17.97607,56886
17.98418,55245
17.99232,56471
18.00043,55769
18.00855,58384
18.01668,64852
18.02480,57931
18.03293,62672
18.04105,67267
18.04917,66290
18.05730,70816
18.06542,69845
18.07355,75879
18.08167,69479
18.08978,73365
18.09792,76643
18.10603,76532
18.11417,78065
18.12228,79105
18.13040,78566
18.13853,76615
18.14665,71173
18.15477,75801
18.16290,70233
18.17102,72512
18.17915,68426
18.18727,74077
18.19538,70005
18.20352,66122
18.21163,71341
18.21977,70335
18.22788,70340
18.23600,78509
18.24413,71743
18.25225,73170
18.26037,68009
18.26850,67767
18.27662,77241
18.28475,77181
18.29287,73575
18.30098,71965
18.30912,75097
18.31723,80959
18.32537,77578
18.33348,78285
18.34160,79847
18.34973,78857
18.35785,77350
18.36598,79679
18.37410,81059
18.38222,80832
18.39035,83040
18.39847,83754
18.40658,85033
18.41472,84311
18.42283,81316
18.43097,77866
18.43908,81219
18.44720,76019
18.45533,75642
18.46345,79015
18.47158,73977
18.47970,75455
18.48782,76851
18.49595,75751
18.50407,72216
18.51218,68958
18.52032,72647
18.52843,69955
18.53657,65548
18.54468,66618
18.55280,70108
18.56093,68433
18.56905,75731
18.57718,70821
18.58530,70265
18.59342,72204
18.60155,73341
18.60967,73767
18.61780,75238
18.62592,79230
18.63403,75542
18.64217,69948
18.65028,68695
18.65840,66447
18.66653,66904
18.67465,67403
18.68278,68091
18.69090,69504
18.69902,68637
18.70715,69172
18.71527,65051
18.72340,65928
18.73152,61128
18.73963,62081
18.74777,59344
18.75588,58391
18.76402,59536
18.77213,60292
18.78025,58664
18.78838,62739
18.79650,56779
18.80462,57976
18.81275,54449
18.82087,56039
18.82900,59211
18.83712,56236
18.84523,56459
18.85337,60828
18.86148,56978
18.86962,55464
18.87773,55939
18.88585,57368
18.89398,67919
18.90210,61995
18.91023,65971
18.91835,67084
18.92647,68488
18.93460,57915
18.94272,58386
18.95083,59510
18.95897,58552
18.96708,59110
18.97522,59766
18.98333,57072
18.99145,60585
18.99958,58608
19.00770,64085
19.01583,62516
19.02395,64419
19.03207,70871
19.04020,69302
19.04832,67487
19.05643,65303
19.06457,65051
19.07268,60789
19.08082,62299
19.08893,63362
19.09705,65008
19.10518,72819
19.11330,71774
19.12143,78064
19.12955,79034
19.13767,86704
19.14580,92723
19.15392,105119
19.16205,100657
19.17017,102091
19.17828,107273
19.18642,92964
19.19453,90374
19.20265,85372
19.21078,74207
19.21890,70304
19.22703,69480
19.23515,67561
19.24327,60665
19.25140,59761
19.25952,62086
19.26765,61795
19.27577,63125
19.28388,68961
19.29202,66665
19.30013,68079
19.30825,76654
19.31638,67882
19.32450,69369
19.33263,69154
19.34075,67616
19.34887,66513
19.35700,64048
19.36512,65794
19.37325,66018
19.38137,64086
19.38948,62763
19.39762,61956
19.40573,64064
19.41387,62355
19.42198,64809
19.43010,66136
19.43823,87956
19.44635,121301
19.45447,197375
19.46260,316923
19.47072,450641
19.47885,543404
19.48697,533421
19.49508,434915
19.50322,295812
19.51133,191198
19.51947,127858
19.52758,97241
19.53570,81227
19.54383,79086
19.55195,79419
19.56008,72862
19.56820,68074
19.57632,64519
19.58445,61943
19.59257,60343
19.60068,66126
19.60882,62202
19.61693,67634
19.62507,72289
19.63318,87647
19.64130,107654
19.64943,140768
19.65755,182067
19.66568,195886
19.67380,204023
19.68192,191871
19.69005,164966
19.69817,147556
19.70628,127775
19.71442,115072
19.72253,108196
19.73067,94857
19.73878,96646
19.74690,84961
19.75503,77518
19.76315,80807
19.77128,73173
19.77940,76211
19.78752,69093
19.79565,70562
19.80377,71670
19.81190,71147
19.82002,72323
19.82813,67443
19.83627,71476
19.84438,70538
19.85250,69756
19.86063,78559
19.86875,83779
19.87688,91566
19.88500,114208
19.89312,142471
19.90125,177793
19.90937,218898
19.91750,235385
19.92562,265516
19.93373,264796
19.94187,257589
19.94998,251688
19.95812,242493
19.96623,235951
19.97435,230342
19.98248,224658
19.99060,216275
19.99872,203330
20.00685,202292
20.01497,198037
20.02310,196079
20.03122,184469
20.03933,168104
20.04747,145411
20.05558,138917
20.06372,117323
20.07183,108650
20.07995,93595
20.08808,89640
20.09620,94543
20.10432,90552
20.11245,85192
20.12057,85413
20.12870,84558
20.13682,84235
20.14493,80060
20.15307,84063
20.16118,86439
20.16932,84380
20.17743,92985
20.18555,87740
20.19368,90408
20.20180,85286
20.20993,93232
20.21805,92013
20.22617,97126
20.23430,102132
20.24242,120617
20.25053,141302
20.25867,172814
20.26678,204219
20.27492,210248
20.28303,199516
20.29115,189955
20.29928,162097
20.30740,148964
20.31553,126806
20.32365,113850
20.33177,101974
20.33990,95908
20.34802,98087
20.35613,89569
20.36427,82120
20.37238,82029
20.38052,80644
20.38863,77843
20.39675,86632
20.40488,85377
20.41300,94869
20.42113,101805
20.42925,109495
20.43737,104021
20.44550,106665
20.45362,99208
20.46175,100108
20.46987,97594
20.47798,92243
20.48612,86627
20.49423,89808
20.50235,87616
20.51048,79886
20.51860,87317
20.52673,79840
20.53485,82617
20.54297,82676
20.55110,78282
20.55922,73378
20.56735,77008
20.57547,76257
20.58358,76789
20.59172,83211
20.59983,76289
20.60797,75487
20.61608,76292
20.62420,73620
20.63233,79993
20.64045,77832
20.64857,79170
20.65670,77212
20.66482,78148
20.67295,77057
20.68107,76093
20.68918,81368
20.69732,78577
20.70543,77080
20.71357,82857
20.72168,80713
20.72980,83670
20.73793,82846
20.74605,78434
20.75417,78770
20.76230,85054
20.77042,86179
20.77855,83902
20.78667,85116
20.79478,85524
20.80292,87904
20.81103,84270
20.81917,86131
20.82728,88649
20.83540,82969
20.84353,87618
20.85165,87970
20.85978,90183
20.86790,88381
20.87602,88933
20.88415,85741
20.89227,92211
20.90038,80943
20.90852,96870
20.91663,98750
20.92477,92864
20.93288,101619
20.94100,90026
20.94913,89229
20.95725,93275
20.96538,96955
20.97350,96075
20.98162,91221
20.98975,100987
20.99787,96739
21.00600,103415
21.01412,95752
21.02223,95496
21.03037,97634
21.03848,100551
21.04660,99689
21.05473,98816
21.06285,102363
21.07098,95531
21.07910,103186
21.08722,97916
21.09535,99620
21.10347,98517
21.11160,101258
21.11972,97748
21.12783,96453
21.13597,98925
21.14408,103439
21.15220,95074
21.16033,93280
21.16845,96175
21.17658,94386
21.18470,98440
21.19282,96543
21.20095,94442
21.20907,97860
21.21720,94459
21.22532,94192
21.23343,100990
21.24157,100124
21.24968,107013
21.25782,103449
21.26593,102853
21.27405,109749
21.28218,99607
21.29030,100577
21.29842,103450
21.30655,98856
21.31467,99644
21.32280,97433
21.33092,93624
21.33903,93245
21.34717,96106
21.35528,92784
21.36342,94540
21.37153,92780
21.37965,91374
21.38778,87980
21.39590,90211
21.40402,92511
21.41215,93112
21.42027,91598
21.42840,94418
21.43652,94289
21.44463,92758
21.45277,89289
21.46088,82766
21.46902,93226
21.47713,92141
21.48525,90487
21.49338,88411
21.50150,91573
21.50963,93205
21.51775,89834
21.52587,93117
21.53400,96113
21.54212,92587
21.55023,89237
21.55837,89216
21.56648,87588
21.57462,91386
21.58273,95117
21.59085,98067
21.59898,106796
21.60710,118280
21.61523,130399
21.62335,125671
21.63147,129312
21.63960,120975
21.64772,114633
21.65585,97808
21.66397,94991
21.67208,91132
21.68022,81933
21.68833,86467
21.69645,81261
21.70458,87581
21.71270,78323
21.72083,78695
21.72895,86025
21.73707,80031
21.74520,79940
21.75332,81071
21.76145,85940
21.76957,81772
21.77768,88772
21.78582,95346
21.79393,99352
21.80205,106438
21.81018,109250
21.81830,113239
21.82643,108670
21.83455,98202
21.84267,93234
21.85080,85612
21.85892,79008
21.86705,77526
21.87517,76248
21.88328,72477
21.89142,75838
21.89953,76073
21.90767,75789
21.91578,75620
21.92390,74452
21.93203,70765
21.94015,75049
21.94827,70937
21.95640,70495
21.96452,72688
21.97265,66123
21.98077,66684
21.98888,63350
21.99702,64319
22.00513,66980
22.01327,69059
22.02138,64728
22.02950,65748
22.03763,69245
22.04575,66826
22.05388,68356
22.06200,68476
22.07012,67876
22.07825,72044
22.08637,70077
22.09448,72858
22.10262,65841
22.11073,70787
22.11887,69222
22.12698,66892
22.13510,64203
22.14323,66203
22.15135,68467
22.15948,68880
22.16760,68380
22.17572,67394
22.18385,70769
22.19197,71149
22.20008,70317
22.20822,71633
22.21633,70683
22.22447,69210
22.23258,65932
22.24070,67595
22.24883,66750
22.25695,66376
22.26508,65133
22.27320,60462
22.28132,63350
22.28945,60302
22.29757,64748
22.30570,65127
22.31382,70350
22.32193,65653
22.33007,68600
22.33818,69903
22.34630,66485
22.35443,63751
22.36255,69114
22.37068,65563
22.37880,60059
22.38692,64242
22.39505,61051
22.40317,65240
22.41130,67151
22.41942,62815
22.42753,62252
22.43567,62520
22.44378,64433
22.45192,70472
22.46003,67770
22.46815,61036
22.47628,65644
22.48440,59626
22.49252,62977
22.50065,65849
22.50877,63838
22.51690,64103
22.52502,60559
22.53313,59128
22.54127,60888
22.54938,62746
22.55752,63253
22.56563,61484
22.57375,64265
22.58188,66534
22.59000,65234
22.59812,62616
22.60625,63214
22.61437,60586
22.62250,62252
22.63062,57530
22.63873,61327
22.64687,60994
22.65498,61961
22.66312,57432
22.67123,62732
22.67935,60178
22.68748,63896
22.69560,70155
22.70373,63991
22.71185,66948
22.71997,72278
22.72810,67708
22.73622,62997
22.74433,62515
22.75247,64681
22.76058,65416
22.76872,64305
22.77683,60964
22.78495,63601
22.79308,64008
22.80120,68875
22.80933,64684
22.81745,61064
22.82557,61784
22.83370,62534
22.84182,65599
22.84993,65936
22.85807,66095
22.86618,71037
22.87432,71199
22.88243,74064
22.89055,70629
22.89868,76678
22.90680,83853
22.91493,84900
22.92305,89868
22.93117,95779
22.93930,100250
22.94742,103226
22.95555,101853
22.96367,96203
22.97178,93368
22.97992,95451
22.98803,84245
22.99615,86128
23.00428,86738
23.01240,84888
23.02053,71180
23.02865,72567
23.03677,72889
23.04490,67201
23.05302,67376
23.06115,75494
23.06927,71858
23.07738,66869
23.08552,67028
23.09363,69350
23.10177,73283
23.10988,65469
23.11800,63066
23.12613,63096
23.13425,67384
23.14237,66934
23.15050,67330
23.15862,64571
23.16675,63680
23.17487,64195
23.18298,68050
23.19112,65142
23.19923,65743
23.20737,65750
23.21548,69091
23.22360,65477
23.23173,62145
23.23985,65594
23.24797,66409
23.25610,65816
23.26422,67509
23.27235,66355
23.28047,63230
23.28858,62312
23.29672,66406
23.30483,65812
23.31297,63834
23.32108,66130
23.32920,65258
23.33733,61908
23.34545,65809
23.35358,61641
23.36170,64938
23.36982,65436
23.37795,69413
23.38607,70670
23.39418,66013
23.40232,67945
23.41043,75648
23.41857,67810
23.42668,66515
23.43480,65784
23.44293,68320
23.45105,65155
23.45918,67583
23.46730,66791
23.47542,67842
23.48355,67014
23.49167,65160
23.49980,69143
23.50792,69429
23.51603,63144
23.52417,66396
23.53228,70518
23.54040,67208
23.54853,70234
23.55665,72375
23.56478,76800
23.57290,77640
23.58102,70330
23.58915,75548
23.59727,72914
23.60540,75760
23.61352,79977
23.62163,84218
23.62977,81602
23.63788,77821
23.64600,88218
23.65413,86903
23.66225,91033
23.67038,89387
23.67850,92848
23.68662,96022
23.69475,91732
23.70287,90712
23.71100,90748
23.71912,94040
23.72723,93994
23.73537,115306
23.74348,191854
23.75162,419049
23.75973,903742
23.76785,1702230
23.77598,2697660
23.78410,3444285
23.79222,3680635
23.80035,3396910
23.80847,2750847
23.81660,2028866
23.82472,1467289
23.83283,1097047
23.84097,831561
23.84908,648428
23.85722,530612
23.86533,433953
23.87345,388683
23.88158,345854
23.88970,311590
23.89782,279405
23.90595,254118
23.91407,240424
23.92220,226126
23.93032,211436
23.93843,205960
23.94657,188972
23.95468,179487
23.96282,175632
23.97093,167376
23.97905,158389
23.98718,156534
23.99530,158170
24.00343,153393
24.01155,147235
24.01967,142211
24.02780,138546
24.03592,136439
24.04403,134959
24.05217,134475
24.06028,127406
24.06842,124936
24.07653,126714
24.08465,128214
24.09278,126325
24.10090,132389
24.10903,127524
24.11715,126444
24.12527,123774
24.13340,118872
24.14152,113453
24.14965,113803
24.15777,113283
24.16588,117635
24.17402,126629
24.18213,133113
24.19025,140922
24.19838,148288
24.20650,146523
24.21463,136284
24.22275,124777
24.23087,112105
24.23900,107279
24.24712,104172
24.25525,98691
24.26337,99485
24.27148,94968
24.27962,94615
24.28773,91029
24.29587,92335
24.30398,95729
24.31210,98987
24.32023,98893
24.32835,109939
24.33647,140424
24.34460,192297
24.35272,272725
24.36085,351902
24.36897,386365
24.37708,348927
24.38522,273288
24.39333,192543
24.40147,140644
24.40958,106286
24.41770,99678
24.42583,95213
24.43395,94393
24.44207,98557
24.45020,93929
24.45832,104945
24.46645,108463
24.47457,108228
24.48268,110895
24.49082,111439
24.49893,101928
24.50707,98387
24.51518,93655
24.52330,90734
24.53143,89230
24.53955,85872
24.54768,83597
24.55580,84295
24.56392,86398
24.57205,86504
24.58017,86607
24.58828,87033
24.59642,84396
24.60453,86227
24.61267,85458
24.62078,91630
24.62890,81798
24.63703,84662
24.64515,83741
24.65328,84108
24.66140,88076
24.66952,90107
24.67765,82036
24.68577,83633
24.69388,82967
24.70202,82584
24.71013,80142
24.71827,78975
24.72638,75942
24.73450,75691
24.74263,81804
24.75075,72946
24.75888,76648
24.76700,82187
24.77512,76870
24.78325,79561
24.79137,76727
24.79950,78185
24.80762,76412
24.81573,75291
24.82387,77483
24.83198,76381
24.84010,76580
24.84823,72572
24.85635,78714
24.86448,81356
24.87260,78023
24.88072,77122
24.88885,80356
24.89697,79921
24.90510,76090
24.91322,79079
24.92133,76662
24.92947,73607
24.93758,69071
24.94572,72471
24.95383,76912
24.96195,72907
24.97008,74053
24.97820,74206
24.98632,71096
24.99445,74857
25.00257,72695
25.01070,75285
25.01882,72169
25.02693,68409
25.03507,67097
25.04318,69341
25.05132,67238
25.05943,72189
25.06755,73068
25.07568,69122
25.08380,74901
25.09192,72508
25.10005,73053
25.10817,72235
25.11630,76341
25.12442,82188
25.13253,87614
25.14067,97765
25.14878,95367
25.15692,99481
25.16503,101477
25.17315,97418
25.18128,89798
25.18940,83140
25.19753,81146
25.20565,78651
25.21377,75673
25.22190,77477
25.23002,72684
25.23813,71910
25.24627,72058
25.25438,72851
25.26252,73217
25.27063,73096
25.27875,77781
25.28688,82070
25.29500,89501
25.30313,93253
25.31125,97604
25.31937,99110
25.32750,105692
25.33562,98479
25.34375,93024
25.35187,87702
25.35998,86922
25.36812,76053
25.37623,76255
25.38435,69503
25.39248,70008
25.40060,66416
25.40873,70903
25.41685,73589
25.42497,69821
25.43310,69912
25.44122,69624
25.44935,70457
25.45747,70288
25.46558,66361
25.47372,68018
25.48183,70098
25.48995,71901
25.49808,70340
25.50620,69684
25.51433,65889
25.52245,66491
25.53057,68605
25.53870,67110
25.54682,64854
25.55495,65955
25.56307,61076
25.57118,62434
25.57932,62984
25.58743,67788
25.59557,64241
25.60368,60973
25.61180,64488
25.61993,62827
25.62805,64187
25.63617,63927
25.64430,61315
25.65242,65051
25.66055,60330
25.66867,58603
25.67678,69169
25.68492,63218
25.69303,64329
25.70117,63338
25.70928,63562
25.71740,61705
25.72553,65786
25.73365,64200
25.74177,69003
25.74990,65731
25.75802,66983
25.76615,65786
25.77427,60052
25.78238,63970
25.79052,60951
25.79863,61432
25.80677,63235
25.81488,61377
25.82300,59999
25.83113,62408
25.83925,61154
25.84738,62455
25.85550,60807
25.86362,60489
25.87175,58928
25.87987,62893
25.88798,62451
25.89612,67469
25.90423,62096
25.91237,62134
25.92048,63218
25.92860,63518
25.93673,64419
25.94485,66214
25.95298,60364
25.96110,61967
25.96922,65428
25.97735,63160
25.98547,60817
25.99360,61387
26.00172,59788
26.00983,58890
26.01797,60670
26.02608,61515
26.03420,62434
26.04233,60679
26.05045,64523
26.05858,66181
26.06670,61267
26.07482,62406
26.08295,64161
26.09107,70101
26.09920,70746
26.10732,68666
26.11543,73566
26.12357,78509
26.13168,86873
26.13980,88445
26.14793,94535
26.15605,94166
26.16418,84221
26.17230,89119
26.18042,79625
26.18855,75137
26.19667,75997
26.20480,71603
26.21292,72906
26.22103,69586
26.22917,66976
26.23728,69883
26.24542,61830
26.25353,63753
26.26165,62830
26.26978,65126
26.27790,64354
26.28602,62535
26.29415,63892
26.30227,65027
26.31040,64569
26.31852,60735
26.32663,59393
26.33477,63638
26.34288,61401
26.35102,62821
26.35913,64046
26.36725,66351
26.37538,65587
26.38350,60513
26.39163,63598
26.39975,64496
26.40787,65645
26.41600,69284
26.42412,68226
26.43223,68878
26.44037,71563
26.44848,68374
26.45662,62013
26.46473,63857
26.47285,63556
26.48098,66702
26.48910,60029
26.49723,65716
26.50535,65766
26.51347,63348
26.52160,60611
26.52972,65340
26.53783,64294
26.54597,62572
26.55408,66375
26.56222,63538
26.57033,69038
26.57845,65339
26.58658,63720
26.59470,68338
26.60283,64287
26.61095,65725
26.61907,64417
26.62720,67919
26.63532,66604
26.64345,64211
26.65157,67615
26.65968,65661
26.66782,67228
26.67593,66204
26.68405,72480
26.69218,69238
26.70030,67300
26.70843,67734
26.71655,67820
26.72467,70306
26.73280,75626
26.74092,72511
26.74905,71013
26.75717,64805
26.76528,69397
26.77342,70130
26.78153,64250
26.78967,70252
26.79778,71560
26.80590,73175
26.81403,73017
26.82215,78792
26.83027,76781
26.83840,74105
26.84652,65773
26.85465,68428
26.86277,69703
26.87088,67841
26.87902,68714
26.88713,71877
26.89527,74070
26.90338,70963
26.91150,72568
26.91963,75062
26.92775,74934
26.93587,78910
26.94400,91830
26.95212,127214
26.96025,203338
26.96837,350868
26.97648,612916
26.98462,1068785
26.99273,1652743
27.00087,2140114
27.00898,2338448
27.01710,2226464
27.02523,1905739
27.03335,1516690
27.04148,1144160
27.04960,829491
27.05772,640351
27.06585,493056
27.07397,395863
27.08208,325833
27.09022,286804
27.09833,245127
27.10647,222951
27.11458,200965
27.12270,194227
27.13083,174867
27.13895,170722
27.14708,157537
27.15520,149201
27.16332,149785
27.17145,147012
27.17957,138500
27.18768,143078
27.19582,128719
27.20393,131749
27.21207,119800
27.22018,117142
27.22830,116815
27.23643,114580
27.24455,116632
27.25268,109535
27.26080,107538
27.26892,105105
27.27705,105017
27.28517,100765
27.29330,100036
27.30142,100810
27.30953,96100
27.31767,99392
27.32578,95199
27.33390,91502
27.34203,91337
27.35015,96122
27.35828,90547
27.36640,96274
27.37452,90295
27.38265,97847
27.39077,90548
27.39890,95876
27.40702,93118
27.41513,91143
27.42327,90643
27.43138,87598
27.43952,94026
27.44763,85260
27.45575,88784
27.46388,88096
27.47200,89191
27.48012,90726
27.48825,88024
27.49637,86895
27.50450,84617
27.51262,92406
27.52073,84135
27.52887,84418
27.53698,82017
27.54512,82980
27.55323,80189
27.56135,83735
27.56948,88756
27.57760,79161
27.58572,81145
27.59385,84039
27.60197,84543
27.61010,77188
27.61822,79322
27.62633,81101
27.63447,76972
27.64258,82849
27.65072,77571
27.65883,76928
27.66695,77641
27.67508,78208
27.68320,79210
27.69133,79785
27.69945,77583
27.70757,76101
27.71570,79708
27.72382,86611
27.73193,89619
27.74007,97263
27.74818,101610
27.75632,98395
27.76443,101793
27.77255,91066
27.78068,88091
27.78880,81591
27.79693,80445
27.80505,81473
27.81317,76113
27.82130,81052
27.82942,78704
27.83755,83986
27.84567,83592
27.85378,78729
27.86192,78964
27.87003,81516
27.87815,86294
27.88628,81392
27.89440,82013
27.90253,74712
27.91065,78198
27.91877,79086
27.92690,77939
27.93502,79421
27.94315,76030
27.95127,79196
27.95938,80098
27.96752,81657
27.97563,81419
27.98375,87431
27.99188,90346
28.00000,89327
28.00813,89344
28.01625,86683
28.02437,81356
28.03250,85266
28.04062,80513
28.04875,79962
28.05687,80903
28.06498,87445
28.07312,88067
28.08123,110068
28.08937,129611
28.09748,167024
28.10560,198607
28.11373,217853
28.12185,219385
28.12997,195076
28.13810,169476
28.14622,140819
28.15435,112089
28.16247,104391
28.17058,99391
28.17872,87878
28.18683,88957
28.19497,84117
28.20308,79690
28.21120,75926
28.21933,78051
28.22745,77301
28.23557,78500
28.24370,78940
28.25182,91716
28.25995,101051
28.26807,131459
28.27618,172304
28.28432,245954
28.29243,328668
28.30057,414596
28.30868,531020
28.31680,591020
28.32493,638853
28.33305,664254
28.34118,657394
28.34930,611795
28.35742,570128
28.36555,513422
28.37367,446860
28.38178,399229
28.38992,341861
28.39803,304170
28.40617,261142
28.41428,233954
28.42240,211589
28.43053,194308
28.43865,179412
28.44678,174303
28.45490,161209
28.46302,146827
28.47115,147694
28.47927,137510
28.48740,136758
28.49552,130817
28.50363,130067
28.51177,124078
28.51988,129756
28.52800,125095
28.53613,121679
28.54425,121039
28.55238,115588
28.56050,112944
28.56862,113757
28.57675,111310
28.58487,107529
28.59300,102850
28.60112,108927
28.60923,104928
28.61737,103786
28.62548,104460
28.63360,112100
28.64173,111422
28.64985,122403
28.65798,125601
28.66610,129765
28.67422,124439
28.68235,124331
28.69047,120180
28.69860,122099
28.70672,138839
28.71483,167133
28.72297,205485
28.73108,247424
28.73922,250482
28.74733,228087
28.75545,181793
28.76358,148977
28.77170,115089
28.77982,103074
28.78795,101562
28.79607,92077
28.80420,95483
28.81232,95954
28.82043,89912
28.82857,89514
28.83668,89358
28.84482,93487
28.85293,95846
28.86105,95211
28.86918,92295
28.87730,91679
28.88543,88631
28.89355,90987
28.90167,89371
28.90980,92630
28.91792,87367
28.92603,90243
28.93417,85764
28.94228,96334
28.95042,88102
28.95853,93921
28.96665,92452
28.97478,96614
28.98290,95956
28.99103,90731
28.99915,87244
29.00727,88862
29.01540,90317
29.02352,87892
29.03163,87815
29.03977,88755
29.04788,84639
29.05602,84675
29.06413,83251
29.07225,87027
29.08038,86718
29.08850,86496
29.09663,86839
29.10475,84541
29.11287,84163
29.12100,86747
29.12912,83155
29.13725,83988
29.14537,88210
29.15348,83528
29.16162,88254
29.16973,88064
29.17785,89111
29.18598,91029
29.19410,91688
29.20223,88915
29.21035,92522
29.21847,88327
29.22660,94989
29.23472,92521
29.24285,97288
29.25097,94727
29.25908,104128
29.26722,103793
29.27533,107324
29.28345,102594
29.29158,99684
29.29970,94365
29.30783,92037
29.31595,90167
29.32407,87211
29.33220,84705
29.34032,88452
29.34845,86259
29.35657,90173
29.36468,86664
29.37282,86886
29.38093,83548
29.38907,82174
29.39718,82027
29.40530,82466
29.41343,86792
29.42155,89621
29.42967,91516
29.43780,86610
29.44592,90922
29.45405,89226
29.46217,92159
29.47028,85600
29.47842,87559
29.48653,96589
29.49467,98995
29.50278,100072
29.51090,97265
29.51903,93450
29.52715,101212
29.53528,93563
29.54340,90443
29.55152,92219
29.55965,96736
29.56777,104157
29.57588,112142
29.58402,140516
29.59213,148185
29.60027,150875
29.60838,153252
29.61650,143286
29.62463,123851
29.63275,112580
29.64088,100435
29.64900,92517
29.65712,93962
29.66525,91976
29.67337,88642
29.68150,93289
29.68962,88226
29.69773,84636
29.70587,90957
29.71398,92052
29.72210,93356
29.73023,90035
29.73835,89492
29.74648,91911
29.75460,92711
29.76272,86372
29.77085,88953
29.77897,96569
29.78710,94044
29.79522,85432
29.80333,85692
29.81147,85925
29.81958,87449
29.82770,86992
29.83583,86411
29.84395,79986
29.85208,88035
29.86020,89699
29.86832,87352
29.87645,97156
29.88457,101410
29.89270,123065
29.90082,140855
29.90893,159034
29.91707,181882
29.92518,216899
29.93332,244211
29.94143,274127
29.94955,305519
29.95768,326976
29.96580,342389
29.97392,355809
29.98205,338285
29.99017,327013
29.99830,317519
30.00642,292589
30.01453,269516
30.02267,258133
30.03078,225899
30.03892,213166
30.04703,201105
30.05515,179394
30.06328,171963
30.07140,170269
30.07952,158128
30.08765,153888
30.09577,151760
30.10390,147270
30.11202,136384
30.12013,137619
30.12827,129675
30.13638,127903
30.14452,123699
30.15263,120201
30.16075,125248
30.16888,114268
30.17700,119025
30.18513,119271
30.19325,109677
30.20137,107806
30.20950,106178
30.21762,105694
30.22573,107552
30.23387,110244
30.24198,104790
30.25012,103971
30.25823,101374
30.26635,102853
30.27448,104855
30.28260,107071
30.29073,104240
30.29885,111639
30.30697,100872
30.31510,99187
30.32322,103097
30.33135,99380
30.33947,102716
30.34758,100073
30.35572,103829
30.36383,96224
30.37195,98387
30.38008,103441
30.38820,96724
30.39633,97736
30.40445,102449
30.41257,101090
30.42070,99390
30.42882,95798
30.43695,101039
30.44507,98102
30.45318,98275
30.46132,97441
30.46943,99858
30.47755,98172
30.48568,97238
30.49380,98104
30.50193,96204
30.51005,96741
30.51817,99283
30.52630,96206
30.53442,96340
30.54255,97641
30.55067,92514
30.55878,100303
30.56692,94267
30.57503,92980
30.58317,95981
30.59128,92924
30.59940,93008
30.60753,93774
30.61565,87723
30.62377,94113
30.63190,93780
30.64002,93858
30.64815,94110
30.65627,93467
30.66438,92373
30.67252,96408
30.68063,92142
30.68877,91732
30.69688,90375
30.70500,92750
30.71313,94360
30.72125,95374
30.72938,90264
30.73750,88258
30.74562,93551
30.75375,92357
30.76187,88990
30.76998,96546
30.77812,96132
30.78623,94585
30.79437,100514
30.80248,102258
30.81060,101644
30.81873,97384
30.82685,93863
30.83498,99512
30.84310,98685
30.85122,97280
30.85935,95227
30.86747,93515
30.87558,97285
30.88372,90569
30.89183,91330
30.89997,93176
30.90808,89600
30.91620,96315
30.92433,95991
30.93245,90751
30.94058,91720
30.94870,88104
30.95682,90661
30.96495,90401
30.97307,88996
30.98120,87195
30.98932,88204
30.99743,91630
31.00557,93854
31.01368,93095
31.02180,93618
31.02993,95073
31.03805,91596
31.04618,92293
31.05430,91627
31.06242,93426
31.07055,99110
31.07867,99571
31.08680,112709
31.09492,117016
31.10303,123852
31.11117,115341
31.11928,110230
31.12740,106990
31.13553,110314
31.14365,104857
31.15178,109850
31.15990,124531
31.16802,156956
31.17615,218578
31.18427,329452
31.19240,470307
31.20052,625414
31.20863,782926
31.21677,829480
31.22488,770977
31.23302,619804
31.24113,439049
31.24925,306392
31.25738,210408
31.26550,152891
31.27362,129990
31.28175,114722
31.28987,107289
31.29800,106786
31.30612,106841
31.31423,101712
31.32237,96589
31.33048,101191
31.33862,101676
31.34673,105098
31.35485,97975
31.36298,98183
31.37110,107360
31.37923,102046
31.38735,104359
31.39547,100227
31.40360,105212
31.41172,94131
31.41983,94270
31.42797,97039
31.43608,102194
31.44422,98338
31.45233,95612
31.46045,93886
31.46858,93417
31.47670,92774
31.48483,98909
31.49295,97711
31.50107,95921
31.50920,99275
31.51732,101445
31.52543,95816
31.53357,98882
31.54168,101498
31.54982,100536
31.55793,96534
31.56605,97153
31.57418,103259
31.58230,98996
31.59043,97719
31.59855,95871
31.60667,92660
31.61480,99125
31.62292,99670
31.63105,98730
31.63917,95782
31.64728,98342
31.65542,100921
31.66353,102012
31.67165,116716
31.67978,121649
31.68790,121951
31.69603,125427
31.70415,126723
31.71227,124652
31.72040,117351
31.72852,111348
31.73665,103052
31.74477,102158
31.75288,103314
31.76102,101565
31.76913,102538
31.77727,97059
31.78538,98182
31.79350,108575
31.80163,108950
31.80975,111067
31.81787,104086
31.82600,104756
31.83412,111441
31.84225,108378
31.85037,132460
31.85848,142882
31.86662,157382
31.87473,181004
31.88287,203972
31.89098,214278
31.89910,227413
31.90723,236029
31.91535,240887
31.92347,229140
31.93160,222692
31.93972,217517
31.94785,209860
31.95597,196825
31.96408,187009
31.97222,177778
31.98033,169936
31.98847,163542
31.99658,161955
32.00470,155420
32.01283,149046
32.02095,146389
32.02908,149017
32.03720,146656
32.04532,141257
32.05345,135789
32.06157,135317
32.06968,128881
32.07782,130651
32.08593,128223
32.09407,117731
32.10218,120014
32.11030,120709
32.11843,111636
32.12655,116213
32.13468,113617
32.14280,112429
32.15092,112566
32.15905,109349
32.16717,112653
32.17530,110663
32.18342,116695
32.19153,115447
32.19967,113459
32.20778,109868
32.21590,114671
32.22403,106709
32.23215,110214
32.24028,106814
32.24840,112432
32.25652,112880
32.26465,110131
32.27277,106325
32.28090,108473
32.28902,106641
32.29713,109728
32.30527,107377
32.31338,109755
32.32150,108096
32.32963,110179
32.33775,110743
32.34588,113775
32.35400,109159
32.36212,116499
32.37025,111814
32.37837,117715
32.38650,109626
32.39462,109279
32.40273,104677
32.41087,106100
32.41898,105458
32.42712,102623
32.43523,103201
32.44335,102681
32.45148,103666
32.45960,108753
32.46772,108488
32.47585,106084
32.48397,104329
32.49210,104790
32.50022,106620
32.50833,107106
32.51647,105290
32.52458,107204
32.53272,111619
32.54083,108167
32.54895,110671
32.55708,107580
32.56520,106450
32.57332,109223
32.58145,109630
32.58957,119810
32.59770,132650
32.60582,159417
32.61393,188223
32.62207,209393
32.63018,220255
32.63832,207137
32.64643,179424
32.65455,150038
32.66268,136556
32.67080,120681
32.67893,117921
32.68705,122160
32.69517,114985
32.70330,115661
32.71142,123874
32.71953,117132
32.72767,121348
32.73578,119801
32.74392,116234
32.75203,112818
32.76015,107854
32.76828,109052
32.77640,109687
32.78453,107555
32.79265,105336
32.80077,110159
32.80890,107969
32.81702,105893
32.82515,105195
32.83327,115401
32.84138,107495
32.84952,107387
32.85763,111529
32.86575,112728
32.87388,113415
32.88200,107227
32.89013,115877
32.89825,114053
32.90637,115418
32.91450,105259
32.92262,109390
32.93075,112893
32.93887,114350
32.94698,114023
32.95512,115144
32.96323,110012
32.97135,114940
32.97948,110134
32.98760,112755
32.99573,112482
33.00385,113421
33.01197,114190
33.02010,116448
33.02822,109585
33.03635,114401
33.04447,113568
33.05258,108636
33.06072,109030
33.06883,110356
33.07697,113312
33.08508,114025
33.09320,127292
33.10133,125956
33.10945,131817
33.11757,140040
33.12570,139789
33.13382,132533
33.14195,130617
33.15007,125504
33.15818,125640
33.16632,118486
33.17443,117380
33.18257,111027
33.19068,115732
33.19880,118318
33.20693,114005
33.21505,114164
33.22318,110040
33.23130,118032
33.23942,110595
33.24755,114545
33.25567,121217
33.26378,110671
33.27192,123060
33.28003,114449
33.28817,117703
33.29628,116082
33.30440,114449
33.31253,114934
33.32065,116216
33.32878,120285
33.33690,112035
33.34502,116649
33.35315,117122
33.36127,119130
33.36938,116212
33.37752,115010
33.38563,115138
33.39377,111004
33.40188,118051
33.41000,116827
33.41813,119268
33.42625,119214
33.43438,120858
33.44250,114533
33.45062,120891
33.45875,120029
33.46687,120123
33.47500,122050
33.48312,128163
33.49123,124703
33.49937,122593
33.50748,123228
33.51560,122135
33.52373,125081
33.53185,123430
33.53998,120799
33.54810,121780
33.55622,121750
33.56435,117624
33.57247,126138
33.58060,124518
33.58872,118518
33.59683,123767
33.60497,114890
33.61308,121648
33.62120,118558
33.62933,122322
33.63745,131533
33.64558,126774
33.65370,123508
33.66182,128323
33.66995,122482
33.67807,123242
33.68620,122503
33.69432,127455
33.70243,128178
33.71057,126721
33.71868,130560
33.72682,129131
33.73493,130048
33.74305,128670
33.75118,136010
33.75930,139535
33.76742,126739
33.77555,132181
33.78367,130404
33.79180,136151
33.79992,142821
33.80803,142763
33.81617,140356
33.82428,146766
33.83242,140896
33.84053,143531
33.84865,139957
33.85678,140795
33.86490,144116
33.87303,156253
33.88115,159067
33.88927,162416
33.89740,169964
33.90552,169611
33.91363,172831
33.92177,183424
33.92988,181896
33.93802,185811
33.94613,198711
33.95425,197180
33.96238,201678
33.97050,194778
33.97863,195246
33.98675,192596
33.99487,200994
34.00300,196313
34.01112,197222
34.01923,185926
34.02737,190578
34.03548,186839
34.04362,191046
34.05173,171251
34.05985,173070
34.06798,176144
34.07610,176545
34.08423,173451
34.09235,167939
34.10047,162793
34.10860,160647
34.11672,157605
34.12485,165254
34.13297,158062
34.14108,158097
34.14922,156695
34.15733,154017
34.16545,145122
34.17358,148240
34.18170,146366
34.18983,150158
34.19795,152060
34.20607,147652
34.21420,139689
34.22232,150364
34.23045,150806
34.23857,147965
34.24668,144958
34.25482,146214
34.26293,151449
34.27107,150140
34.27918,149743
34.28730,149918
34.29543,143984
34.30355,148688
34.31167,146480
34.31980,157728
34.32792,150217
34.33605,160889
34.34417,150733
34.35228,149451
34.36042,151170
34.36853,151661
34.37667,145215
34.38478,146916
34.39290,148624
34.40103,146731
34.40915,145016
34.41727,149108
34.42540,146412
34.43352,153524
34.44165,159193
34.44977,162564
34.45788,170020
34.46602,188346
34.47413,210574
34.48227,243085
34.49038,259310
34.49850,287065
34.50663,292249
34.51475,298020
34.52288,289154
34.53100,275461
34.53912,260183
34.54725,241593
34.55537,227183
34.56348,210273
34.57162,204954
34.57973,203867
34.58787,196293
34.59598,191188
34.60410,190480
34.61223,184631
34.62035,186670
34.62848,177553
34.63660,182926
34.64472,184030
34.65285,184006
34.66097,187612
34.66910,187458
34.67722,182901
34.68533,181266
34.69347,187864
34.70158,183157
34.70970,182311
34.71783,177946
34.72595,182705
34.73408,178184
34.74220,175511
34.75032,178106
34.75845,176504
34.76657,174035
34.77470,174868
34.78282,177591
34.79093,180310
34.79907,174192
34.80718,168433
34.81530,168083
34.82343,164432
34.83155,171515
34.83968,169576
34.84780,160792
34.85592,170796
34.86405,167986
34.87217,171864
34.88030,164419
34.88842,165629
34.89653,164902
34.90467,167638
34.91278,163820
34.92092,165493
34.92903,162627
34.93715,170786
34.94528,166958
34.95340,167373
34.96152,159549
34.96965,167652
34.97777,160056
34.98590,163836
34.99402,168069
35.00213,156942
35.01027,164481
35.01838,165914
35.02652,167393
35.03463,157579
35.04275,156330
35.05088,167288
35.05900,162100
35.06713,156179
35.07525,161530
35.08337,159317
35.09150,163004
35.09962,164220
35.10773,165232
35.11587,165057
35.12398,169790
35.13212,173019
35.14023,167324
35.14835,165767
35.15648,169148
35.16460,176355
35.17273,171550
35.18085,168160
35.18897,168060
35.19710,171581
35.20522,164890
35.21333,167675
35.22147,164765
35.22958,165507
35.23772,164209
35.24583,162619
35.25395,172207
35.26208,169539
35.27020,170145
35.27833,163229
35.28645,164680
35.29457,167259
35.30270,161456
35.31082,169113
35.31895,159771
35.32707,159696
35.33518,167776
35.34332,160969
35.35143,166867
35.35955,158424
35.36768,173539
35.37580,166022
35.38393,167446
35.39205,157648
35.40017,169634
35.40830,166368
35.41642,164013
35.42455,173686
35.43267,164360
35.44078,178721
35.44892,179394
35.45703,184498
35.46515,178648
35.47328,189753
35.48140,172211
35.48953,178722
35.49765,174108
35.50577,167695
35.51390,169894
35.52202,167717
35.53015,168494
35.53827,174426
35.54638,172705
35.55452,172278
35.56263,174930
35.57077,170581
35.57888,174159
35.58700,178191
35.59513,172624
35.60325,173640
35.61137,175835
35.61950,182163
35.62762,183920
35.63575,177590
35.64387,179522
35.65198,170643
35.66012,174603
35.66823,169919
35.67637,168724
35.68448,170454
35.69260,167086
35.70073,164045
35.70885,166100
35.71698,170074
35.72510,167779
35.73322,168555
35.74135,167229
35.74947,174549
35.75758,169866
35.76572,177478
35.77383,173221
35.78197,177941
35.79008,175079
35.79820,175258
35.80633,176252
35.81445,173380
35.82258,171251
35.83070,172980
35.83882,174666
35.84695,170749
35.85507,181416
35.86318,173102
35.87132,174796
35.87943,171913
35.88757,174162
35.89568,179684
35.90380,170555
35.91193,174653
35.92005,167971
35.92818,173309
35.93630,171632
35.94442,173148
35.95255,175838
35.96067,180218
35.96880,175262
35.97692,175504
35.98503,174798
35.99317,183027
36.00128,191313
36.00940,195235
36.01753,195823
36.02565,201748
36.03378,196841
36.04190,198111
36.05002,197987
36.05815,196669
36.06627,198244
36.07440,198108
36.08252,192031
36.09063,188178
36.09877,186672
36.10688,193055
36.11502,192685
36.12313,185160
36.13125,187740
36.13938,184032
36.14750,179845
36.15562,187792
36.16375,187753
36.17187,190041
36.18000,185843
36.18812,180168
36.19623,184487
36.20437,186007
36.21248,181593
36.22062,185346
36.22873,191393
36.23685,205942
36.24498,223013
36.25310,266721
36.26122,306352
36.26935,336948
36.27747,340862
36.28560,324163
36.29372,291970
36.30183,246720
36.30997,219881
36.31808,204661
36.32622,194788
36.33433,197351
36.34245,201861
36.35058,191445
36.35870,195347
36.36683,200025
36.37495,188232
36.38307,192218
36.39120,192096
36.39932,192258
36.40743,194173
36.41557,196350
36.42368,191777
36.43182,188325
36.43993,179201
36.44805,181193
36.45618,187217
36.46430,184482
36.47243,189981
36.48055,185702
36.48867,192011
36.49680,185536
36.50492,183539
36.51303,190359
36.52117,187046
36.52928,190886
36.53742,187197
36.54553,192756
36.55365,196402
36.56178,177833
36.56990,188124
36.57803,184953
36.58615,192513
36.59427,191483
36.60240,194256
36.61052,193751
36.61865,200070
36.62677,198620
36.63488,196151
36.64302,198542
36.65113,185889
36.65925,193610
36.66738,188561
36.67550,187919
36.68363,191144
36.69175,192906
36.69987,190362
36.70800,193548
36.71612,194536
36.72425,188738
36.73237,191372
36.74048,187484
36.74862,198746
36.75673,193346
36.76487,199270
36.77298,194990
36.78110,196827
36.78923,188517
36.79735,199216
36.80547,192285
36.81360,196816
36.82172,195803
36.82985,192282
36.83797,187345
36.84608,203727
36.85422,200695
36.86233,208411
36.87047,195931
36.87858,205662
36.88670,193596
36.89483,195728
36.90295,197764
36.91107,196131
36.91920,197731
36.92732,202279
36.93545,200846
36.94357,202832
36.95168,197183
36.95982,195160
36.96793,205784
36.97607,201974
36.98418,196932
36.99230,218310
37.00043,222246
37.00855,240576
37.01668,252862
37.02480,266324
37.03292,272677
37.04105,259225
37.04917,255617
37.05728,228999
37.06542,220432
37.07353,220699
37.08167,212512
37.08978,212981
37.09790,211131
37.10603,203040
37.11415,208745
37.12228,211436
37.13040,213331
37.13852,213486
37.14665,218651
37.15477,213751
37.16290,215284
37.17102,218702
37.17913,214192
37.18727,217334
37.19538,218062
37.20350,213934
37.21163,206355
37.21975,217645
37.22788,206652
37.23600,213970
37.24412,219067
37.25225,223575
37.26037,233613
37.26850,246328
37.27662,270199
37.28473,285050
37.29287,319076
37.30098,336219
37.30910,355791
37.31723,342128
37.32535,332185
37.33348,321108
37.34160,300731
37.34972,291063
37.35785,275200
37.36597,274937
37.37410,270697
37.38222,253224
37.39033,249636
37.39847,253200
37.40658,244880
37.41472,255247
37.42283,249839
37.43095,256858
37.43908,235814
37.44720,246984
37.45532,237137
37.46345,243948
37.47157,238760
37.47970,245222
37.48782,234659
