C:\MassHunter\GCMS\1\data\JTB-E02\BACandBLUE\JTB-E18-021-13.D Wed Jul 10 15:23:39 2019
Start of data points
2.09525,72558
2.10338,68101
2.11150,73079
2.11962,73534
2.12775,71008
2.13587,69946
2.14400,73711
2.15212,71766
2.16023,69614
2.16837,68322
2.17648,66484
2.18462,67520
2.19273,66774
2.20085,67845
2.20898,66437
2.21710,67608
2.22522,64566
2.23335,63367
2.24147,64495
2.24960,61681
2.25772,61478
2.26583,66805
2.27397,215527
2.28208,1117657
2.29022,1204400
2.29833,469655
2.30645,278188
2.31458,227093
2.32270,195928
2.33083,173280
2.33895,175572
2.34707,171726
2.35520,156840
2.36332,138378
2.37143,137197
2.37957,130002
2.38768,132951
2.39582,128348
2.40393,114923
2.41205,116703
2.42018,113030
2.42830,123703
2.43643,118741
2.44455,111689
2.45267,116071
2.46080,115341
2.46892,106600
2.47703,99808
2.48517,106148
2.49328,127348
2.50142,167617
2.50953,135187
2.51765,114776
2.52578,115217
2.53390,108239
2.54203,106446
2.55015,108476
2.55827,122806
2.56640,162221
2.57452,149804
2.58265,126213
2.59077,117406
2.59888,108818
2.60702,154531
2.61513,481473
2.62325,653531
2.63138,418682
2.63950,264272
2.64763,200994
2.65575,162274
2.66387,148553
2.67200,137378
2.68012,126015
2.68825,122732
2.69637,115662
2.70448,107792
2.71262,110820
2.72073,113267
2.72887,105485
2.73698,102979
2.74510,101114
2.75323,99216
2.76135,102637
2.76947,102850
2.77760,102788
2.78572,154622
2.79385,259858
2.80197,217051
2.81008,147819
2.81822,146580
2.82633,164047
2.83447,176069
2.84258,184828
2.85070,151390
2.85883,129494
2.86695,118881
2.87507,106621
2.88320,105551
2.89132,102288
2.89945,106703
2.90757,100213
2.91568,100122
2.92382,100683
2.93193,92752
2.94007,93700
2.94818,91367
2.95630,99481
2.96443,103169
2.97255,108296
2.98068,99821
2.98880,92233
2.99692,100459
3.00505,99758
3.01317,102496
3.02128,101627
3.02942,94261
3.03753,95372
3.04567,92209
3.05378,93058
3.06190,96383
3.07003,106617
3.07815,119832
3.08628,219128
3.09440,760132
3.10252,1590344
3.11065,2998705
3.11877,3902872
3.12688,2710655
3.13502,1615233
3.14313,1168682
3.15127,931756
3.15938,759996
3.16750,643464
3.17563,608833
3.18375,624453
3.19188,977406
3.20000,1744736
3.20812,1688835
3.21625,1131856
3.22437,861266
3.23250,705192
3.24062,590757
3.24873,529530
3.25687,460361
3.26498,425887
3.27310,374486
3.28123,350703
3.28935,432833
3.29748,1077759
3.30560,2976835
3.31372,5422448
3.32185,5949330
3.32997,4526805
3.33810,3081928
3.34622,2225901
3.35433,1696982
3.36247,1386546
3.37058,1155399
3.37872,982550
3.38683,867754
3.39495,767261
3.40308,685215
3.41120,621758
3.41932,583938
3.42745,541268
3.43557,512000
3.44370,486977
3.45182,472664
3.45993,429717
3.46807,441624
3.47618,431289
3.48432,434450
3.49243,423377
3.50055,399878
3.50868,385160
3.51680,354474
3.52492,355411
3.53305,346742
3.54117,356650
3.54930,364405
3.55742,344421
3.56553,338946
3.57367,337523
3.58178,360850
3.58992,365244
3.59803,331948
3.60615,308226
3.61428,311191
3.62240,313003
3.63053,337956
3.63865,362734
3.64677,387288
3.65490,363628
3.66302,436858
3.67113,1325603
3.67927,4362541
3.68738,7119655
3.69552,5846578
3.70363,3402563
3.71175,2186029
3.71988,1697531
3.72800,1437931
3.73613,1237942
3.74425,1103216
3.75237,998300
3.76050,910158
3.76862,848339
3.77675,795897
3.78487,737364
3.79298,697489
3.80112,718342
3.80923,1017115
3.81735,1749352
3.82548,2160684
3.83360,1763623
3.84173,1249035
3.84985,982063
3.85797,851892
3.86610,752729
3.87422,692024
3.88235,652192
3.89047,611552
3.89858,587538
3.90672,552192
3.91483,558727
3.92295,633465
3.93108,808572
3.93920,878108
3.94733,815168
3.95545,968757
3.96357,1758084
3.97170,2652369
3.97982,2559157
3.98795,1708129
3.99607,1334440
4.00418,2774177
4.01232,7074556
4.02043,1.121056E+07
4.02857,1.052945E+07
4.03668,6285695
4.04480,3194834
4.05293,1889322
4.06105,1334636
4.06917,1059484
4.07730,879212
4.08542,765846
4.09355,689616
4.10167,628325
4.10978,583171
4.11792,536724
4.12603,516105
4.13417,512807
4.14228,602794
4.15040,815974
4.15853,943627
4.16665,857223
4.17478,684284
4.18290,596695
4.19102,540180
4.19915,484719
4.20727,592243
4.21538,1651418
4.22352,5702245
4.23163,1.264708E+07
4.23977,1.766578E+07
4.24788,1.766386E+07
4.25600,1.231571E+07
4.26413,7254755
4.27225,4774985
4.28038,3487168
4.28850,2658438
4.29662,2131135
4.30475,1768934
4.31287,1500752
4.32098,1316847
4.32912,1176676
4.33723,1057387
4.34537,998078
4.35348,945768
4.36160,940521
4.36973,903268
4.37785,847587
4.38598,791212
4.39410,714407
4.40222,686960
4.41035,655898
4.41847,618581
4.42660,595887
4.43472,578332
4.44283,552588
4.45097,526825
4.45908,516012
4.46720,498711
4.47533,482397
4.48345,460497
4.49158,455742
4.49970,450155
4.50782,440581
4.51595,422277
4.52407,419055
4.53220,410565
4.54032,400116
4.54843,394739
4.55657,391638
4.56468,387005
4.57280,377539
4.58093,363996
4.58905,349000
4.59718,343014
4.60530,346567
4.61342,340298
4.62155,358335
4.62967,446777
4.63780,649743
4.64592,888489
4.65403,906715
4.66217,748012
4.67028,563491
4.67842,443978
4.68653,399028
4.69465,374717
4.70278,350370
4.71090,328588
4.71902,324516
4.72715,309855
4.73527,303019
4.74340,300040
4.75152,292075
4.75963,283577
4.76777,277235
4.77588,288813
4.78402,270889
4.79213,293074
4.80025,345659
4.80838,423981
4.81650,455918
4.82463,406156
4.83275,376462
4.84087,376743
4.84900,403942
4.85712,391397
4.86523,367565
4.87337,332890
4.88148,309935
4.88962,296960
4.89773,286988
4.90585,290083
4.91398,269205
4.92210,273792
4.93023,319321
4.93835,503384
4.94647,1082553
4.95460,2062979
4.96272,3050020
4.97083,3347694
4.97897,2930649
4.98708,2185649
4.99522,1579878
5.00333,1197503
5.01145,952385
5.01958,824231
5.02770,824819
5.03583,1074379
5.04395,1407998
5.05207,1499416
5.06020,1272391
5.06832,1019285
5.07645,842122
5.08457,760863
5.09268,683074
5.10082,626515
5.10893,596625
5.11705,560627
5.12518,532119
5.13330,519203
5.14143,481762
5.14955,487310
5.15767,496116
5.16580,541667
5.17392,575983
5.18205,570311
5.19017,516717
5.19828,497517
5.20642,517598
5.21453,533583
5.22267,541481
5.23078,510309
5.23890,470643
5.24703,464371
5.25515,436447
5.26327,399434
5.27140,363469
5.27952,347528
5.28765,325506
5.29577,323324
5.30388,312531
5.31202,309987
5.32013,311195
5.32827,315089
5.33638,330769
5.34450,348599
5.35263,355224
5.36075,336596
5.36887,310172
5.37700,291488
5.38512,298701
5.39325,304057
5.40137,308192
5.40948,314068
5.41762,315375
5.42573,293343
5.43387,300466
5.44198,289912
5.45010,295967
5.45823,300913
5.46635,301560
5.47448,279534
5.48260,272616
5.49072,251244
5.49885,253451
5.50697,255272
5.51508,255489
5.52322,259601
5.53133,273952
5.53947,257229
5.54758,254452
5.55570,254708
5.56383,272227
5.57195,296741
5.58008,325091
5.58820,302894
5.59632,282169
5.60445,266149
5.61257,243428
5.62068,237005
5.62882,244744
5.63693,249318
5.64507,248166
5.65318,252924
5.66130,252725
5.66943,243779
5.67755,270447
5.68568,302300
5.69380,350887
5.70192,368478
5.71005,333891
5.71817,292377
5.72630,256109
5.73442,250659
5.74253,239989
5.75067,228267
5.75878,227957
5.76690,224673
5.77503,218339
5.78315,218824
5.79128,212133
5.79940,205426
5.80752,208570
5.81565,208314
5.82377,212612
5.83190,209357
5.84002,217271
5.84813,212965
5.85627,214063
5.86438,206696
5.87252,202140
5.88063,201283
5.88875,200743
5.89688,195275
5.90500,181766
5.91312,168444
5.92125,151939
5.92937,146355
5.93750,143606
5.94562,163159
5.95373,178267
5.96187,207378
5.96998,234684
5.97812,267258
5.98623,310883
5.99435,339019
6.00248,318620
6.01060,273821
6.01873,219788
6.02685,183203
6.03497,180009
6.04310,173105
6.05122,156044
6.05933,149193
6.06747,145861
6.07558,143215
6.08372,137080
6.09183,146500
6.09995,139705
6.10808,133282
6.11620,147765
6.12433,167947
6.13245,244135
6.14057,395557
6.14870,522732
6.15682,562768
6.16493,474870
6.17307,350481
6.18118,270738
6.18932,232717
6.19743,216855
6.20555,209159
6.21368,201409
6.22180,197526
6.22993,189392
6.23805,195580
6.24617,186527
6.25430,185515
6.26242,188246
6.27055,193098
6.27867,189172
6.28678,182301
6.29492,183824
6.30303,184436
6.31115,188063
6.31928,190636
6.32740,194017
6.33553,203947
6.34365,209477
6.35177,206373
6.35990,198803
6.36802,193455
6.37615,191201
6.38427,188008
6.39238,193779
6.40052,192655
6.40863,185608
6.41675,189196
6.42488,180404
6.43300,184762
6.44113,185011
6.44925,190932
6.45737,178504
6.46550,191398
6.47362,191802
6.48175,185627
6.48987,189474
6.49798,192031
6.50612,187669
6.51423,187785
6.52237,200149
6.53048,193642
6.53860,200330
6.54673,194685
6.55485,197112
6.56297,188907
6.57110,213397
6.57922,231323
6.58735,251468
6.59547,244669
6.60358,227191
6.61172,214394
6.61983,206476
6.62797,210412
6.63608,209126
6.64420,212409
6.65233,215355
6.66045,229417
6.66858,263143
6.67670,278762
6.68482,279408
6.69295,248375
6.70107,234181
6.70918,220783
6.71732,212219
6.72543,222752
6.73357,218796
6.74168,209931
6.74980,217530
6.75793,213873
6.76605,216271
6.77418,196509
6.78230,184999
6.79042,172707
6.79855,166288
6.80667,163677
6.81478,148477
6.82292,146359
6.83103,144129
6.83917,150395
6.84728,150020
6.85540,167746
6.86353,175067
6.87165,170391
6.87978,153572
6.88790,131055
6.89602,107635
6.90415,103128
6.91227,92941
6.92040,93366
6.92852,90023
6.93663,88998
6.94477,88956
6.95288,90533
6.96100,91605
6.96913,108599
6.97725,121485
6.98538,127755
6.99350,127343
7.00162,115852
7.00975,100626
7.01787,95344
7.02600,87287
7.03412,88471
7.04223,86962
7.05037,87023
7.05848,87382
7.06662,84378
7.07473,85388
7.08285,82558
7.09098,84775
7.09910,80224
7.10722,77624
7.11535,74384
7.12347,73242
7.13160,78096
7.13972,80247
7.14783,92657
7.15597,116020
7.16408,144742
7.17222,157139
7.18033,143485
7.18845,119114
7.19658,100434
7.20470,97773
7.21282,117593
7.22095,219800
7.22907,557909
7.23720,1129419
7.24532,1649025
7.25343,1759354
7.26157,1321523
7.26968,793293
7.27782,454373
7.28593,315944
7.29405,262118
7.30218,205568
7.31030,162074
7.31843,135420
7.32655,124067
7.33467,116439
7.34280,110917
7.35092,106425
7.35903,94812
7.36717,95662
7.37528,99319
7.38342,94625
7.39153,97087
7.39965,97202
7.40778,95004
7.41590,90469
7.42403,87747
7.43215,88478
7.44027,95025
7.44840,91569
7.45652,93319
7.46463,87222
7.47277,91690
7.48088,83045
7.48902,81765
7.49713,77004
7.50525,82032
7.51338,92390
7.52150,124355
7.52963,171357
7.53775,246444
7.54587,333146
7.55400,400286
7.56212,424463
7.57025,368633
7.57837,293732
7.58648,220446
7.59462,155578
7.60273,121497
7.61085,108834
7.61898,96358
7.62710,89201
7.63523,85771
7.64335,85213
7.65147,78129
7.65960,82347
7.66772,79205
7.67585,82176
7.68397,73290
7.69208,76164
7.70022,74738
7.70833,78307
7.71647,76425
7.72458,75012
7.73270,73227
7.74083,78098
7.74895,77257
7.75707,76674
7.76520,82590
7.77332,76011
7.78145,80644
7.78957,82867
7.79768,90004
7.80582,92881
7.81393,99818
7.82207,96125
7.83018,80972
7.83830,83917
7.84643,75677
7.85455,79527
7.86267,84707
7.87080,91201
7.87892,97413
7.88705,105627
7.89517,106551
7.90328,93365
7.91142,85044
7.91953,85569
7.92767,93878
7.93578,114851
7.94390,134458
7.95203,154807
7.96015,145092
7.96828,135170
7.97640,108854
7.98452,92596
7.99265,80816
8.00077,74864
8.00888,72349
8.01702,67057
8.02513,65612
8.03327,66978
8.04138,68561
8.04950,66048
8.05763,74675
8.06575,68682
8.07388,69482
8.08200,69291
8.09012,73156
8.09825,59528
8.10637,60751
8.11450,66959
8.12262,68781
8.13073,73557
8.13887,87037
8.14698,95790
8.15510,110618
8.16323,109519
8.17135,97151
8.17948,86242
8.18760,75989
8.19572,69310
8.20385,69239
8.21197,72057
8.22010,72623
8.22822,71471
8.23633,72747
8.24447,66971
8.25258,63561
8.26070,67019
8.26883,64214
8.27695,71016
8.28508,61258
8.29320,67622
8.30132,66061
8.30945,68129
8.31757,69279
8.32570,69129
8.33382,69879
8.34193,68883
8.35007,67843
8.35818,67938
8.36632,60893
8.37443,61646
8.38255,63141
8.39068,61986
8.39880,62938
8.40692,57287
8.41505,60264
8.42317,58835
8.43130,60926
8.43942,55749
8.44753,58208
8.45567,57135
8.46378,56411
8.47192,56784
8.48003,58306
8.48815,56097
8.49628,57972
8.50440,54992
8.51253,57164
8.52065,63494
8.52877,79145
8.53690,129508
8.54502,222965
8.55313,312561
8.56127,365743
8.56938,313251
8.57752,244285
8.58563,159520
8.59375,115263
8.60188,104426
8.61000,96698
8.61813,87177
8.62625,87303
8.63437,80055
8.64250,75817
8.65062,68462
8.65873,66490
8.66687,69336
8.67498,68167
8.68312,66865
8.69123,70079
8.69935,69871
8.70748,73908
8.71560,64718
8.72373,70094
8.73185,75556
8.73997,94257
8.74810,178121
8.75622,379044
8.76435,733808
8.77247,1165018
8.78058,1393244
8.78872,1315828
8.79683,988949
8.80495,645779
8.81308,408825
8.82120,264234
8.82933,203651
8.83745,174669
8.84557,179894
8.85370,175964
8.86182,178752
8.86995,165918
8.87807,158425
8.88618,146103
8.89432,142194
8.90243,139162
8.91055,127678
8.91868,131184
8.92680,132075
8.93493,135987
8.94305,140968
8.95117,151511
8.95930,160637
8.96742,154216
8.97555,144338
8.98367,134787
8.99178,127719
8.99992,123002
9.00803,116732
9.01617,113320
9.02428,107026
9.03240,102919
9.04053,99766
9.04865,102298
9.05677,95957
9.06490,98179
9.07302,90217
9.08115,101344
9.08927,98121
9.09738,103447
9.10552,116357
9.11363,126331
9.12177,137187
9.12988,140475
9.13800,126879
9.14613,108983
9.15425,107434
9.16238,102062
9.17050,95557
9.17862,93300
9.18675,91168
9.19487,85050
9.20298,82565
9.21112,82376
9.21923,86242
9.22737,82097
9.23548,80657
9.24360,87000
9.25173,82692
9.25985,77790
9.26798,80039
9.27610,81848
9.28422,79824
9.29235,76401
9.30047,77758
9.30858,75130
9.31672,77565
9.32483,72303
9.33297,75986
9.34108,77759
9.34920,74758
9.35733,70371
9.36545,68659
9.37358,74063
9.38170,73800
9.38982,78227
9.39795,77776
9.40607,80183
9.41420,89017
9.42232,106591
9.43043,121256
9.43857,134077
9.44668,133919
9.45480,114471
9.46293,109562
9.47105,97371
9.47918,87815
9.48730,76700
9.49542,80890
9.50355,86004
9.51167,88630
9.51980,94756
9.52792,98702
9.53603,101505
9.54417,88842
9.55228,80863
9.56042,68781
9.56853,75331
9.57665,86397
9.58478,107653
9.59290,120962
9.60102,121142
9.60915,105370
9.61727,87039
9.62540,70198
9.63352,60468
9.64163,53515
9.64977,48130
9.65788,47647
9.66602,50022
9.67413,48367
9.68225,50726
9.69038,53645
9.69850,52108
9.70662,46187
9.71475,46081
9.72287,48556
9.73100,46492
9.73912,45454
9.74723,47618
9.75537,43603
9.76348,43607
9.77162,45604
9.77973,46501
9.78785,46068
9.79598,43466
9.80410,43361
9.81223,43169
9.82035,44324
9.82847,46008
9.83660,42779
9.84472,43781
9.85283,44989
9.86097,44819
9.86908,43590
9.87722,48926
9.88533,46852
9.89345,45661
9.90158,44986
9.90970,43149
9.91783,44278
9.92595,54858
9.93407,65313
9.94220,81360
9.95032,97088
9.95843,110072
9.96657,112052
9.97468,98043
9.98282,83525
9.99093,76727
9.99905,66863
10.00718,62277
10.01530,61040
10.02343,57329
10.03155,54822
10.03967,50859
10.04780,46761
10.05592,48897
10.06405,49517
10.07217,49741
10.08028,50882
10.08842,50844
10.09653,49345
10.10465,51166
10.11278,53312
10.12090,51707
10.12903,51024
10.13715,48518
10.14527,48333
10.15340,51118
10.16152,49376
10.16965,45126
10.17777,46032
10.18588,48840
10.19402,45981
10.20213,48604
10.21027,45618
10.21838,46009
10.22650,48981
10.23463,54382
10.24275,59701
10.25087,61984
10.25900,84218
10.26712,152757
10.27525,365407
10.28337,818416
10.29148,1525481
10.29962,2391805
10.30773,3362862
10.31587,4785572
10.32398,7112757
10.33210,9836210
10.34023,1.146603E+07
10.34835,1.092372E+07
10.35648,8090651
10.36460,4864070
10.37272,2623714
10.38085,1531119
10.38897,1014835
10.39708,723172
10.40522,531627
10.41333,398795
10.42147,331420
10.42958,282459
10.43770,257860
10.44583,238156
10.45395,232186
10.46208,221177
10.47020,210156
10.47832,205459
10.48645,192494
10.49457,173372
10.50268,159218
10.51082,156463
10.51893,148906
10.52707,158347
10.53518,169223
10.54330,165351
10.55143,169661
10.55955,157031
10.56768,149219
10.57580,139929
10.58392,134250
10.59205,129236
10.60017,120752
10.60830,109813
10.61642,106456
10.62453,98885
10.63267,96898
10.64078,94279
10.64890,95449
10.65703,89156
10.66515,95833
10.67328,88668
10.68140,89198
10.68952,87890
10.69765,88664
10.70577,86422
10.71390,89693
10.72202,88812
10.73013,86678
10.73827,85091
10.74638,82798
10.75450,82788
10.76263,76270
10.77075,78226
10.77888,78041
10.78700,75326
10.79512,68407
10.80325,75499
10.81137,74611
10.81950,74420
10.82762,70272
10.83573,73775
10.84387,71678
10.85198,65224
10.86012,65195
10.86823,68645
10.87635,60395
10.88448,57863
10.89260,64136
10.90072,57616
10.90885,60118
10.91697,63766
10.92510,58254
10.93322,62051
10.94133,60403
10.94947,55757
10.95758,57435
10.96572,57534
10.97383,55791
10.98195,58103
10.99008,60342
10.99820,54578
11.00633,57208
11.01445,59809
11.02257,54768
11.03070,53630
11.03882,54390
11.04693,54407
11.05507,55877
11.06318,54590
11.07132,55121
11.07943,57561
11.08755,61939
11.09568,59446
11.10380,59959
11.11193,54169
11.12005,54387
11.12817,49464
11.13630,51347
11.14442,47614
11.15253,46455
11.16067,47923
11.16878,49837
11.17692,50693
11.18503,51241
11.19315,52666
11.20128,49608
11.20940,50699
11.21753,47601
11.22565,46686
11.23377,44245
11.24190,42297
11.25002,41652
11.25815,42107
11.26627,41108
11.27438,45496
11.28252,41826
11.29063,52686
11.29875,58288
11.30688,91247
11.31500,152101
11.32313,249206
11.33125,391755
11.33937,523698
11.34750,588898
11.35562,551265
11.36375,448635
11.37187,321917
11.37998,217096
11.38812,156826
11.39623,120912
11.40437,107641
11.41248,101977
11.42060,101412
11.42873,89733
11.43685,80796
11.44497,70095
11.45310,69475
11.46122,66942
11.46935,69188
11.47747,78427
11.48558,98868
11.49372,126887
11.50183,147930
11.50997,147618
11.51808,128390
11.52620,111879
11.53433,103553
11.54245,92091
11.55057,86603
11.55870,85103
11.56682,83301
11.57495,82830
11.58307,73126
11.59118,80894
11.59932,88349
11.60743,106043
11.61557,133686
11.62368,152902
11.63180,142874
11.63993,120179
11.64805,94445
11.65618,77786
11.66430,67061
11.67242,60820
11.68055,56339
11.68867,58334
11.69678,61565
11.70492,58399
11.71303,62233
11.72117,61598
11.72928,54266
11.73740,51090
11.74553,50421
11.75365,49652
11.76178,51056
11.76990,52538
11.77802,51265
11.78615,46862
11.79427,46609
11.80238,46925
11.81052,47879
11.81863,49230
11.82677,48622
11.83488,45866
11.84300,44725
11.85113,49128
11.85925,46934
11.86738,46125
11.87550,41465
11.88362,43154
11.89175,41594
11.89987,40618
11.90800,40836
11.91612,48989
11.92423,45710
11.93237,52655
11.94048,50129
11.94860,49768
11.95673,44428
11.96485,46002
11.97298,43727
11.98110,48238
11.98922,61551
11.99735,88952
12.00547,113344
12.01360,144169
12.02172,144049
12.02983,126102
12.03797,99022
12.04608,82944
12.05422,63531
12.06233,60740
12.07045,60768
12.07858,53448
12.08670,53466
12.09482,56149
12.10295,51978
12.11107,53960
12.11920,60212
12.12732,58683
12.13543,63846
12.14357,61126
12.15168,59925
12.15982,58742
12.16793,48323
12.17605,44138
12.18418,49241
12.19230,46457
12.20042,46854
12.20855,43614
12.21667,52942
12.22480,47477
12.23292,47932
12.24103,45135
12.24917,46854
12.25728,44947
12.26542,46248
12.27353,46243
12.28165,41760
12.28978,42326
12.29790,41647
12.30603,43815
12.31415,44128
12.32227,41568
12.33040,41519
12.33852,43178
12.34663,36092
12.35477,37480
12.36288,40183
12.37102,41378
12.37913,38454
12.38725,45269
12.39538,45381
12.40350,49740
12.41163,60714
12.41975,69267
12.42787,79887
12.43600,77783
12.44412,75640
12.45225,67106
12.46037,60980
12.46848,56075
12.47662,51186
12.48473,50439
12.49285,50925
12.50098,47723
12.50910,47842
12.51723,46126
12.52535,50724
12.53347,75237
12.54160,118327
12.54972,205190
12.55785,349286
12.56597,482642
12.57408,539012
12.58222,481184
12.59033,354641
12.59845,225777
12.60658,150108
12.61470,112941
12.62283,85438
12.63095,73955
12.63907,71207
12.64720,64790
12.65532,65503
12.66345,58359
12.67157,58532
12.67968,55186
12.68782,58421
12.69593,53556
12.70407,59231
12.71218,52462
12.72030,53344
12.72843,55493
12.73655,59144
12.74467,59711
12.75280,58252
12.76092,53919
12.76905,52834
12.77717,46623
12.78528,42265
12.79342,45852
12.80153,43417
12.80967,42830
12.81778,38061
12.82590,40978
12.83403,40217
12.84215,39116
12.85027,39038
12.85840,38953
12.86652,40145
12.87465,37916
12.88277,39283
12.89088,38772
12.89902,37635
12.90713,36319
12.91527,39980
12.92338,38528
12.93150,40231
12.93963,37894
12.94775,37578
12.95588,41759
12.96400,47857
12.97212,60847
12.98025,72999
12.98837,84540
12.99648,79839
13.00462,72955
13.01273,61822
13.02087,55302
13.02898,47773
13.03710,47626
13.04523,41938
13.05335,43376
13.06148,43460
13.06960,42268
13.07772,42372
13.08585,42442
13.09397,40313
13.10210,43371
13.11022,41666
13.11833,42705
13.12647,41532
13.13458,37426
13.14270,38700
13.15083,40946
13.15895,42577
13.16708,43441
13.17520,41303
13.18332,45774
13.19145,48191
13.19957,45463
13.20770,46101
13.21582,50452
13.22393,50561
13.23207,49382
13.24018,44758
13.24830,44098
13.25643,42092
13.26455,42134
13.27268,35970
13.28080,37468
13.28892,36327
13.29705,38383
13.30517,35288
13.31330,37967
13.32142,36331
13.32953,37258
13.33767,34783
13.34578,35878
13.35392,38266
13.36203,36898
13.37015,30721
13.37828,35149
13.38640,32122
13.39452,31744
13.40265,35776
13.41077,35866
13.41890,33781
13.42702,32888
13.43513,33307
13.44327,33682
13.45138,34862
13.45952,34605
13.46763,38499
13.47575,32324
13.48388,33677
13.49200,36532
13.50013,33641
13.50825,34730
13.51637,35240
13.52450,39430
13.53262,36427
13.54073,36546
13.54887,32958
13.55698,36125
13.56512,35164
13.57323,33760
13.58135,40634
13.58948,45171
13.59760,53878
13.60573,80975
13.61385,110688
13.62197,151658
13.63010,167680
13.63822,156752
13.64633,121392
13.65447,90242
13.66258,65389
13.67072,52008
13.67883,47343
13.68695,44087
13.69508,40748
13.70320,41198
13.71133,40615
13.71945,40843
13.72757,49173
13.73570,69614
13.74382,127683
13.75195,278090
13.76007,559756
13.76818,964987
13.77632,1344309
13.78443,1572250
13.79255,1462560
13.80068,1180204
13.80880,834801
13.81693,617839
13.82505,516857
13.83317,478970
13.84130,459411
13.84942,421158
13.85755,358919
13.86567,292409
13.87378,243916
13.88192,194938
13.89003,181519
13.89817,155532
13.90628,142739
13.91440,138638
13.92253,125399
13.93065,128431
13.93877,119812
13.94690,111991
13.95502,112058
13.96315,112248
13.97127,111357
13.97938,115731
13.98752,114510
13.99563,118296
14.00377,110816
14.01188,117423
14.02000,108597
14.02813,95699
14.03625,109157
14.04437,108093
14.05250,97414
14.06062,94196
14.06875,91679
14.07687,99629
14.08498,86917
14.09312,87548
14.10123,89106
14.10937,85527
14.11748,85641
14.12560,86613
14.13373,83834
14.14185,84510
14.14998,94258
14.15810,99843
14.16622,121330
14.17435,165975
14.18247,229658
14.19058,300231
14.19872,345711
14.20683,344004
14.21497,281003
14.22308,236305
14.23120,195368
14.23933,176338
14.24745,158657
14.25558,151086
14.26370,137676
14.27182,123368
14.27995,113876
14.28807,102535
14.29618,97752
14.30432,88746
14.31243,86467
14.32057,86273
14.32868,77405
14.33680,75110
14.34493,70424
14.35305,65217
14.36118,57764
14.36930,58775
14.37742,57022
14.38555,64884
14.39367,88675
14.40180,147359
14.40992,250004
14.41803,384827
14.42617,473983
14.43428,460768
14.44240,371585
14.45053,268242
14.45865,179923
14.46678,131274
14.47490,105046
14.48302,94460
14.49115,83502
14.49927,78988
14.50740,73918
14.51552,70519
14.52363,68601
14.53177,67630
14.53988,68874
14.54802,66358
14.55613,64934
14.56425,57186
14.57238,57456
14.58050,55005
14.58862,53087
14.59675,54667
14.60487,50031
14.61300,49436
14.62112,48528
14.62923,48324
14.63737,48299
14.64548,48571
14.65362,46244
14.66173,49300
14.66985,49826
14.67798,45558
14.68610,49016
14.69422,46564
14.70235,46794
14.71047,45849
14.71860,47837
14.72672,46058
14.73483,47112
14.74297,48155
14.75108,51576
14.75922,50517
14.76733,46709
14.77545,53606
14.78358,62347
14.79170,99844
14.79983,217291
14.80795,520190
14.81607,1115837
14.82420,1836155
14.83232,2428726
14.84043,2605819
14.84857,2237000
14.85668,1610664
14.86482,1035026
14.87293,649813
14.88105,432929
14.88918,325284
14.89730,253091
14.90543,213708
14.91355,182719
14.92167,177978
14.92980,153127
14.93792,136313
14.94605,129062
14.95417,121166
14.96228,126756
14.97042,115784
14.97853,111999
14.98665,106854
14.99478,108389
15.00290,99508
15.01103,97179
15.01915,91679
15.02727,90252
15.03540,81240
15.04352,81905
15.05165,77036
15.05977,77036
15.06788,74301
15.07602,71591
15.08413,70055
15.09225,71557
15.10038,63553
15.10850,66101
15.11663,69003
15.12475,69270
15.13287,74289
15.14100,80808
15.14912,78974
15.15725,79157
15.16537,76599
15.17348,69386
15.18162,62685
15.18973,59435
15.19787,60561
15.20598,51758
15.21410,51442
15.22223,49941
15.23035,47117
15.23847,43740
15.24660,46917
15.25472,47482
15.26285,46690
15.27097,44916
15.27908,45048
15.28722,43933
15.29533,40517
15.30347,42628
15.31158,43285
15.31970,36043
15.32783,46214
15.33595,39869
15.34407,43686
15.35220,39102
15.36032,41691
15.36845,40645
15.37657,41315
15.38468,43846
15.39282,43425
15.40093,50825
15.40907,56663
15.41718,54632
15.42530,60900
15.43343,52542
15.44155,47918
15.44968,44657
15.45780,43509
15.46592,50356
15.47405,61634
15.48217,76392
15.49028,98461
15.49842,118948
15.50653,131599
15.51467,127827
15.52278,118292
15.53090,105799
15.53903,94559
15.54715,84882
15.55528,79385
15.56340,71468
15.57152,61037
15.57965,55194
15.58777,51304
15.59590,44491
15.60402,44858
15.61213,43807
15.62027,40140
15.62838,42373
15.63650,45434
15.64463,42282
15.65275,40389
15.66088,44288
15.66900,39215
15.67712,36365
15.68525,36887
15.69337,36608
15.70150,36999
15.70962,36901
15.71773,38727
15.72587,39804
15.73398,43002
15.74210,45221
15.75023,54193
15.75835,68570
15.76648,102849
15.77460,159612
15.78272,231268
15.79085,279832
15.79897,280956
15.80710,240704
15.81522,182236
15.82333,133476
15.83147,99970
15.83958,80181
15.84772,76543
15.85583,65809
15.86395,65011
15.87208,58204
15.88020,60884
15.88832,53193
15.89645,53894
15.90457,53275
15.91270,50939
15.92082,49775
15.92893,51063
15.93707,52459
15.94518,52808
15.95332,64038
15.96143,74194
15.96955,83731
15.97768,94799
15.98580,98894
15.99393,97680
16.00205,94586
16.01017,86000
16.01830,78937
16.02642,73137
16.03453,72613
16.04267,69522
16.05078,61137
16.05892,60987
16.06703,59179
16.07515,55274
16.08328,48322
16.09140,46849
16.09953,49765
16.10765,49438
16.11577,49688
16.12390,46331
16.13202,50945
16.14013,52685
16.14827,56896
16.15638,54621
16.16452,52836
16.17263,50961
16.18075,48242
16.18888,46552
16.19700,48343
16.20513,42637
16.21325,46841
16.22137,44901
16.22950,45736
16.23762,44995
16.24575,45588
16.25387,46341
16.26198,37780
16.27012,40961
16.27823,48842
16.28635,45421
16.29448,51201
16.30260,50397
16.31073,50644
16.31885,48455
16.32697,47587
16.33510,45728
16.34322,48096
16.35135,49221
16.35947,59999
16.36758,70169
16.37572,78859
16.38383,80440
16.39195,76623
16.40008,73572
16.40820,65279
16.41633,58006
16.42445,51227
16.43257,48733
16.44070,55561
16.44882,58483
16.45695,75002
16.46507,96696
16.47318,126616
16.48132,158511
16.48943,161993
16.49757,137981
16.50568,117813
16.51380,93596
16.52193,73496
16.53005,60485
16.53817,59698
16.54630,56418
16.55442,54468
16.56255,53461
16.57067,54485
16.57878,53564
16.58692,59837
16.59503,68293
16.60317,72418
16.61128,76952
16.61940,80275
16.62753,77406
16.63565,80512
16.64378,68500
16.65190,58108
16.66002,55393
16.66815,54916
16.67627,50900
16.68438,45227
16.69252,48340
16.70063,46151
16.70877,47456
16.71688,46024
16.72500,40598
16.73313,43135
16.74125,42411
16.74938,45647
16.75750,43066
16.76562,43350
16.77375,49971
16.78187,44350
16.79000,41467
16.79812,42062
16.80623,39461
16.81437,41946
16.82248,42017
16.83060,39648
16.83873,37736
16.84685,39289
16.85498,39889
16.86310,40494
16.87122,37723
16.87935,37205
16.88747,37378
16.89560,39360
16.90372,35941
16.91183,37910
16.91997,38079
16.92808,38343
16.93620,39215
16.94433,42146
16.95245,39119
16.96058,38648
16.96870,36776
16.97682,39446
16.98495,39181
16.99307,40447
17.00120,43340
17.00932,40128
17.01743,44954
17.02557,43483
17.03368,52406
17.04182,54244
17.04993,51142
17.05805,58331
17.06618,62248
17.07430,64831
17.08242,70693
17.09055,85606
17.09867,106356
17.10680,128817
17.11492,146792
17.12303,155526
17.13117,152902
17.13928,137477
17.14742,127818
17.15553,115502
17.16365,101484
17.17178,82206
17.17990,73507
17.18802,58486
17.19615,51567
17.20427,47861
17.21240,46237
17.22052,41803
17.22863,46272
17.23677,45224
17.24488,43003
17.25302,43806
17.26113,43924
17.26925,41527
17.27738,35157
17.28550,38990
17.29363,38906
17.30175,36048
17.30987,40109
17.31800,43338
17.32612,46445
17.33423,52606
17.34237,63509
17.35048,64461
17.35862,64416
17.36673,61939
17.37485,60062
17.38298,59635
17.39110,54485
17.39923,54270
17.40735,54162
17.41547,49625
17.42360,51586
17.43172,54823
17.43985,50496
17.44797,49507
17.45608,54290
17.46422,44351
17.47233,44873
17.48045,42454
17.48858,43994
17.49670,40398
17.50483,39505
17.51295,39877
17.52107,40598
17.52920,41356
17.53732,40783
17.54545,44482
17.55357,51587
17.56168,72739
17.56982,115729
17.57793,205597
17.58605,351392
17.59418,571756
17.60230,830691
17.61043,1002598
17.61855,985951
17.62667,844826
17.63480,614491
17.64292,412439
17.65105,287865
17.65917,215535
17.66728,175815
17.67542,154095
17.68353,134744
17.69167,120586
17.69978,107224
17.70790,97809
17.71603,87418
17.72415,86375
17.73227,78904
17.74040,78952
17.74852,73536
17.75665,70906
17.76477,66554
17.77288,66236
17.78102,62964
17.78913,65148
17.79727,69004
17.80538,84901
17.81350,103101
17.82163,130038
17.82975,152090
17.83788,145594
17.84600,140538
17.85412,135676
17.86225,112454
17.87037,103774
17.87848,91283
17.88662,84123
17.89473,81099
17.90287,68965
17.91098,63436
17.91910,58338
17.92723,58167
17.93535,51799
17.94348,52711
17.95160,50019
17.95972,50069
17.96785,54336
17.97597,46291
17.98408,47724
17.99222,46013
18.00033,51043
18.00847,56789
18.01658,58515
18.02470,66986
18.03283,75656
18.04095,83772
18.04908,86882
18.05720,92966
18.06532,115165
18.07345,153788
18.08157,234444
18.08970,298308
18.09782,340598
18.10593,334244
18.11407,291262
18.12218,234038
18.13030,184544
18.13843,161638
18.14655,146383
18.15468,136111
18.16280,120264
18.17092,117856
18.17905,106015
18.18717,102344
18.19530,94489
18.20342,93284
18.21153,84247
18.21967,83909
18.22778,79038
18.23590,74669
18.24403,74444
18.25215,74198
18.26028,70912
18.26840,67059
18.27652,65266
18.28465,59766
18.29277,55965
18.30090,52786
18.30902,50334
18.31713,46994
18.32527,48227
18.33338,47446
18.34152,43491
18.34963,45958
18.35775,45673
18.36588,46462
18.37400,60406
18.38212,89647
18.39025,147842
18.39837,193705
18.40650,247555
18.41462,282244
18.42273,313098
18.43087,330467
18.43898,347413
18.44712,358424
18.45523,399003
18.46335,454876
18.47148,534394
18.47960,586884
18.48773,620726
18.49585,588020
18.50397,536519
18.51210,459389
18.52022,401777
18.52833,367919
18.53647,336041
18.54458,312882
18.55272,302282
18.56083,296374
18.56895,293952
18.57708,289222
18.58520,283467
18.59333,286092
18.60145,281265
18.60957,276701
18.61770,278973
18.62582,286242
18.63393,272409
18.64207,268470
18.65018,267115
18.65832,258116
18.66643,252766
18.67455,251851
18.68268,236819
18.69080,242412
18.69893,241699
18.70705,235817
18.71517,231425
18.72330,232867
18.73142,225193
18.73955,222100
18.74767,221463
18.75578,217876
18.76392,218116
18.77203,219372
18.78015,214599
18.78828,210628
18.79640,208096
18.80453,209492
18.81265,202260
18.82077,204367
18.82890,207246
18.83702,198017
18.84515,200854
18.85327,201828
18.86138,189105
18.86952,190812
18.87763,187973
18.88577,188644
18.89388,188456
18.90200,185599
18.91013,185714
18.91825,183841
18.92637,184355
18.93450,189236
18.94262,187595
18.95075,186308
18.95887,181970
18.96698,183564
18.97512,184699
18.98323,173730
18.99137,176903
18.99948,169984
19.00760,163969
19.01573,163861
19.02385,167675
19.03197,164769
19.04010,166085
19.04822,165702
19.05635,159506
19.06447,171877
19.07258,189506
19.08072,216722
19.08883,266803
19.09697,321585
19.10508,366737
19.11320,362569
19.12133,350057
19.12945,303493
19.13758,249065
19.14570,212430
19.15382,191251
19.16195,165430
19.17007,165991
19.17818,163048
19.18632,155447
19.19443,152068
19.20257,160068
19.21068,143163
19.21880,139304
19.22693,142098
19.23505,142828
19.24318,131482
19.25130,134591
19.25942,137110
19.26755,135258
19.27567,142429
19.28378,143364
19.29192,144051
19.30003,145102
19.30817,137998
19.31628,140136
19.32440,140167
19.33253,134836
19.34065,141603
19.34878,145674
19.35690,161420
19.36502,185756
19.37315,207805
19.38127,217408
19.38940,201999
19.39752,184143
19.40563,163291
19.41377,151247
19.42188,139477
19.43000,130418
19.43813,129516
19.44625,129812
19.45438,129164
19.46250,137613
19.47062,157990
19.47875,183564
19.48687,225320
19.49500,266073
19.50312,279234
19.51123,274564
19.51937,234400
19.52748,186095
19.53562,164414
19.54373,134258
19.55185,136464
19.55998,128812
19.56810,118582
19.57622,117550
19.58435,111732
19.59247,106211
19.60060,108875
19.60872,103941
19.61683,99791
19.62497,105285
19.63308,116471
19.64122,130006
19.64933,154996
19.65745,177042
19.66558,212159
19.67370,240145
19.68182,253106
19.68995,254714
19.69807,243453
19.70620,221140
19.71432,195377
19.72243,179701
19.73057,153175
19.73868,144887
19.74682,138013
19.75493,128984
19.76305,119442
19.77118,124083
19.77930,129617
19.78743,131584
19.79555,137923
19.80367,145344
19.81180,140608
19.81992,132817
19.82803,130780
19.83617,117240
19.84428,109277
19.85242,118623
19.86053,172605
19.86865,272297
19.87678,501625
19.88490,855455
19.89303,1255289
19.90115,1560448
19.90927,1652339
19.91740,1514039
19.92552,1246203
19.93365,941995
19.94177,739947
19.94988,606111
19.95802,520739
19.96613,470694
19.97425,420317
19.98238,412766
19.99050,378005
19.99863,369679
20.00675,358940
20.01487,341227
20.02300,328717
20.03112,318255
20.03925,285152
20.04737,253943
20.05548,235270
20.06362,202531
20.07173,184160
20.07985,168046
20.08798,159013
20.09610,150515
20.10423,145743
20.11235,138744
20.12047,132913
20.12860,118953
20.13672,115214
20.14485,115520
20.15297,118199
20.16108,115839
20.16922,135281
20.17733,147350
20.18547,157863
20.19358,170782
20.20170,173379
20.20983,162474
20.21795,155848
20.22607,146825
20.23420,134287
20.24232,140670
20.25045,152768
20.25857,171238
20.26668,198176
20.27482,223338
20.28293,247988
20.29107,232566
20.29918,219546
20.30730,193778
20.31543,169477
20.32355,153703
20.33168,126349
20.33980,113015
20.34792,103963
20.35605,96231
20.36417,90523
20.37228,81620
20.38042,81854
20.38853,81416
20.39667,80601
20.40478,79214
20.41290,89274
20.42103,82876
20.42915,84730
20.43728,94422
20.44540,89640
20.45352,87527
20.46165,91077
20.46977,87820
20.47788,85473
20.48602,78258
20.49413,78265
20.50227,73728
20.51038,72205
20.51850,79318
20.52663,76728
20.53475,73688
20.54288,74279
20.55100,72356
20.55912,77618
20.56725,75219
20.57537,75547
20.58350,69951
20.59162,66132
20.59973,71398
20.60787,66419
20.61598,63436
20.62410,68074
20.63223,68381
20.64035,70587
20.64848,72862
20.65660,70565
20.66472,73879
20.67285,74534
20.68097,72610
20.68910,70235
20.69722,71634
20.70533,68134
20.71347,66710
20.72158,61520
20.72970,65402
20.73783,63104
20.74595,64962
20.75408,65076
20.76220,67012
20.77032,75148
20.77845,85344
20.78657,113995
20.79470,145966
20.80282,200953
20.81093,280809
20.81907,339173
20.82718,355139
20.83532,306826
20.84343,242221
20.85155,175778
20.85968,128548
20.86780,95175
20.87592,86596
20.88405,84676
20.89217,77833
20.90030,78626
20.90842,77079
20.91653,76951
20.92467,84394
20.93278,83191
20.94092,80240
20.94903,79820
20.95715,75758
20.96528,74945
20.97340,76944
20.98153,73109
20.98965,65708
20.99777,69639
21.00590,69950
21.01402,66568
21.02213,72403
21.03027,73952
21.03838,68280
21.04652,68799
21.05463,67712
21.06275,64490
21.07088,63449
21.07900,67815
21.08713,64420
21.09525,61231
21.10337,64869
21.11150,66031
21.11962,66912
21.12773,67581
21.13587,70666
21.14398,78715
21.15212,87822
21.16023,97411
21.16835,100250
21.17648,98210
21.18460,93483
21.19273,82700
21.20085,79377
21.20897,71195
21.21710,76160
21.22522,69791
21.23335,67258
21.24147,65844
21.24958,67715
21.25772,67284
21.26583,64872
21.27395,60388
21.28208,61567
21.29020,63143
21.29833,60454
21.30645,57829
21.31457,60707
21.32270,61391
21.33082,56470
21.33895,55864
21.34707,52099
21.35518,58777
21.36332,53481
21.37143,54061
21.37957,55923
21.38768,55954
21.39580,55999
21.40393,57501
21.41205,58811
21.42017,60402
21.42830,61331
21.43642,57430
21.44455,58269
21.45267,53930
21.46078,54418
21.46892,56407
21.47703,55596
21.48517,51273
21.49328,51989
21.50140,52260
21.50953,50091
21.51765,52607
21.52577,51463
21.53390,50950
21.54202,51725
21.55015,51070
21.55827,49107
21.56638,55132
21.57452,55801
21.58263,64148
21.59077,67950
21.59888,75946
21.60700,77207
21.61513,80259
21.62325,81083
21.63138,80237
21.63950,86593
21.64762,89235
21.65575,84124
21.66387,87752
21.67198,89653
21.68012,90265
21.68823,84644
21.69637,90305
21.70448,78177
21.71260,71488
21.72073,70500
21.72885,62182
21.73698,60784
21.74510,56639
21.75322,59606
21.76135,58307
21.76947,59215
21.77758,59274
21.78572,62623
21.79383,58257
21.80197,60787
21.81008,62379
21.81820,65425
21.82633,68505
21.83445,71357
21.84258,70063
21.85070,67697
21.85882,65087
21.86695,67324
21.87507,61783
21.88320,58563
21.89132,58861
21.89943,57596
21.90757,56551
21.91568,54777
21.92380,53275
21.93193,48562
21.94005,51242
21.94818,46686
21.95630,45742
21.96442,46229
21.97255,47156
21.98067,44948
21.98880,45563
21.99692,42617
22.00503,41622
22.01317,47930
22.02128,46732
22.02942,49533
22.03753,43124
22.04565,47863
22.05378,46715
22.06190,46361
22.07002,46033
22.07815,48212
22.08627,42315
22.09440,41476
22.10252,45086
22.11063,53389
22.11877,53500
22.12688,62856
22.13502,64802
22.14313,73661
22.15125,71654
22.15938,74617
22.16750,77832
22.17563,77066
22.18375,71346
22.19187,77717
22.20000,77715
22.20812,78495
22.21623,81761
22.22437,85430
22.23248,82918
22.24062,82207
22.24873,77392
22.25685,83364
22.26498,79407
22.27310,86656
22.28123,94625
22.28935,88457
22.29747,95470
22.30560,93017
22.31372,93030
22.32183,94740
22.32997,90148
22.33808,81963
22.34622,77430
22.35433,67500
22.36245,66220
22.37058,63811
22.37870,64762
22.38683,73145
22.39495,86583
22.40307,103749
22.41120,124776
22.41932,147117
22.42745,154588
22.43557,147290
22.44368,128005
22.45182,99357
22.45993,84830
22.46805,82006
22.47618,76777
22.48430,86532
22.49243,102154
22.50055,102900
22.50867,104016
22.51680,104744
22.52492,94250
22.53305,85254
22.54117,78762
22.54928,69434
22.55742,67160
22.56553,63604
22.57365,62273
22.58178,56871
22.58990,50432
22.59803,46615
22.60615,50167
22.61427,47530
22.62240,51164
22.63052,63473
22.63865,74067
22.64677,88670
22.65488,103160
22.66302,112865
22.67113,111671
22.67927,116984
22.68738,121398
22.69550,130606
22.70363,146623
22.71175,160319
22.71987,152157
22.72800,160201
22.73612,155049
22.74425,147956
22.75237,146897
22.76048,144880
22.76862,142403
22.77673,152322
22.78487,161447
22.79298,172205
22.80110,187964
22.80923,198559
22.81735,212332
22.82547,200883
22.83360,196644
22.84172,172695
22.84985,164276
22.85797,165232
22.86608,160116
22.87422,161311
22.88233,157685
22.89047,173217
22.89858,191985
22.90670,213013
22.91483,259434
22.92295,280938
22.93108,294238
22.93920,267180
22.94732,256550
22.95545,214814
22.96357,191042
22.97168,164391
22.97982,154872
22.98793,145252
22.99607,143873
23.00418,136072
23.01230,133285
23.02043,124893
23.02855,127727
23.03668,120420
23.04480,124045
23.05292,118646
23.06105,120067
23.06917,124109
23.07730,118168
23.08542,112398
23.09353,112309
23.10167,109358
23.10978,111467
23.11790,110824
23.12603,104415
23.13415,107153
23.14228,106256
23.15040,108617
23.15852,108478
23.16665,101206
23.17477,101599
23.18290,102316
23.19102,97851
23.19913,97826
23.20727,99404
23.21538,101690
23.22352,96137
23.23163,97687
23.23975,100263
23.24788,103968
23.25600,105549
23.26412,109928
23.27225,111776
23.28037,107081
23.28850,107110
23.29662,100392
23.30473,102270
23.31287,93086
23.32098,99235
23.32912,107470
23.33723,115721
23.34535,131914
23.35348,153776
23.36160,195383
23.36972,247579
23.37785,279210
23.38597,320006
23.39410,356831
23.40222,378958
23.41033,409428
23.41847,412513
23.42658,409089
23.43472,410359
23.44283,388388
23.45095,378830
23.45908,356556
23.46720,333004
23.47533,318362
23.48345,286486
23.49157,275288
23.49970,251982
23.50782,237605
23.51593,225831
23.52407,213086
23.53218,202589
23.54032,194742
23.54843,191228
23.55655,196810
23.56468,192335
23.57280,197962
23.58093,224008
23.58905,249083
23.59717,275800
23.60530,293626
23.61342,297848
23.62153,276398
23.62967,241817
23.63778,220719
23.64592,197853
23.65403,195672
23.66215,191501
23.67028,186460
23.67840,181905
23.68653,165431
23.69465,145021
23.70277,134128
23.71090,133829
23.71902,120873
23.72715,118355
23.73527,123445
23.74338,137398
23.75152,199307
23.75963,332366
23.76775,608141
23.77588,1043324
23.78400,1550030
23.79213,1996338
23.80025,2076354
23.80837,2022928
23.81650,1754912
23.82462,1418179
23.83275,1114397
23.84087,870300
23.84898,692056
23.85712,567551
23.86523,467566
23.87337,410208
23.88148,367766
23.88960,331491
23.89773,295097
23.90585,276727
23.91397,264666
23.92210,252932
23.93022,242431
23.93835,215020
23.94647,209861
23.95458,191619
23.96272,177904
23.97083,167566
23.97897,159203
23.98708,157611
23.99520,155065
24.00333,167378
24.01145,202224
24.01957,254991
24.02770,315804
24.03582,354848
24.04395,356779
24.05207,316361
24.06018,253265
24.06832,192447
24.07643,151899
24.08457,132616
24.09268,119415
24.10080,106913
24.10893,108794
24.11705,110964
24.12518,113048
24.13330,108156
24.14142,108651
24.14955,112748
24.15767,106289
24.16578,105193
24.17392,111387
24.18203,110006
24.19017,103700
24.19828,108481
24.20640,106734
24.21453,101402
24.22265,100457
24.23078,91928
24.23890,89713
24.24702,87249
24.25515,83145
24.26327,82892
24.27140,82227
24.27952,81081
24.28763,78417
24.29577,82349
24.30388,76870
24.31200,75219
24.32013,78941
24.32825,78251
24.33638,76762
24.34450,76044
24.35262,78743
24.36075,82652
24.36887,97288
24.37700,109364
24.38512,137804
24.39323,139300
24.40137,135378
24.40948,135983
24.41760,150275
24.42573,163692
24.43385,175599
24.44198,196825
24.45010,213344
24.45822,230045
24.46635,237264
24.47447,253797
24.48260,269027
24.49072,292889
24.49883,292596
24.50697,304867
24.51508,312597
24.52322,312935
24.53133,322468
24.53945,336202
24.54758,349556
24.55570,361467
24.56382,366443
24.57195,357853
24.58007,341093
24.58820,314997
24.59632,309656
24.60443,297440
24.61257,285856
24.62068,278780
24.62882,278674
24.63693,277581
24.64505,271332
24.65318,269840
24.66130,267418
24.66942,268515
24.67755,251685
24.68567,254854
24.69380,261723
24.70192,244613
24.71003,236676
24.71817,242261
24.72628,238565
24.73442,236434
24.74253,236303
24.75065,236954
24.75878,222259
24.76690,222754
24.77503,231397
24.78315,236561
24.79127,229258
24.79940,226935
24.80752,225383
24.81563,214353
24.82377,219888
24.83188,235474
24.84002,251954
24.84813,281706
24.85625,342056
24.86438,411022
24.87250,479572
24.88063,580181
24.88875,649061
24.89687,687950
24.90500,631734
24.91312,533865
24.92125,410101
24.92937,286743
24.93748,202205
24.94562,146681
24.95373,126815
24.96185,108588
24.96998,101493
24.97810,95302
24.98623,89281
24.99435,87642
25.00247,86997
25.01060,81022
25.01872,82898
25.02685,82318
25.03497,79415
25.04308,74535
25.05122,77781
25.05933,73383
25.06745,74866
25.07558,75894
25.08370,83214
25.09183,100094
25.09995,151161
25.10807,297844
25.11620,584521
25.12432,1136272
25.13245,1945253
25.14057,2816625
25.14868,3296456
25.15682,3177876
25.16493,2596858
25.17307,1747662
25.18118,1082866
25.18930,602608
25.19743,335455
25.20555,221436
25.21367,158792
25.22180,132755
25.22992,127158
25.23805,136454
25.24617,156259
25.25428,206484
25.26242,245204
25.27053,270726
25.27867,287278
25.28678,274767
25.29490,253797
25.30303,235773
25.31115,252202
25.31928,283293
25.32740,319998
25.33552,347385
25.34365,358027
25.35177,363990
25.35988,378991
25.36802,375598
25.37613,393882
25.38427,382136
25.39238,384717
25.40050,387599
25.40863,390029
25.41675,373271
25.42488,388308
25.43300,381451
25.44112,380496
25.44925,381542
25.45737,384389
25.46548,379885
25.47362,370055
25.48173,375252
25.48987,369016
25.49798,363583
25.50610,355592
25.51423,353001
25.52235,350347
25.53048,340913
25.53860,360275
25.54672,340691
25.55485,328173
25.56297,335239
25.57110,326413
25.57922,330791
25.58733,332741
25.59547,320197
25.60358,309136
25.61170,317376
25.61983,310162
25.62795,312695
25.63608,305372
25.64420,321248
25.65232,305815
25.66045,304790
25.66857,288765
25.67670,282090
25.68482,283753
25.69293,278932
25.70107,284723
25.70918,275799
25.71732,263776
25.72543,263259
25.73355,265000
25.74168,265651
25.74980,251295
25.75792,258070
25.76605,248528
25.77417,256903
25.78230,256119
25.79042,246710
25.79853,255078
25.80667,245592
25.81478,241047
25.82292,237115
25.83103,237162
25.83915,239164
25.84728,239423
25.85540,236822
25.86352,234544
25.87165,222782
25.87977,220472
25.88790,218759
25.89602,208493
25.90413,213840
25.91227,204112
25.92038,204313
25.92852,199627
25.93663,199449
25.94475,203062
25.95288,195623
25.96100,205455
25.96913,193272
25.97725,183045
25.98537,182927
25.99350,176920
26.00162,177632
26.00973,182711
26.01787,178922
26.02598,172257
26.03412,181272
26.04223,167705
26.05035,163157
26.05848,170653
26.06660,166927
26.07473,162887
26.08285,174134
26.09097,159251
26.09910,166616
26.10722,164646
26.11533,167029
26.12347,154165
26.13158,157377
26.13972,154920
26.14783,166298
26.15595,162186
26.16408,160432
26.17220,152043
26.18033,150797
26.18845,148706
26.19657,143944
26.20470,147857
26.21282,141964
26.22095,137904
26.22907,135145
26.23718,136108
26.24532,131664
26.25343,127950
26.26155,130583
26.26968,125699
26.27780,126719
26.28593,121739
26.29405,123810
26.30217,124940
26.31030,124664
26.31842,116357
26.32655,116062
26.33467,112196
26.34278,116548
26.35092,114682
26.35903,124548
26.36717,129033
26.37528,135297
26.38340,140171
26.39153,158624
26.39965,162283
26.40777,168564
26.41590,164799
26.42402,151991
26.43215,139681
26.44027,126923
26.44838,117044
26.45652,113210
26.46463,107926
26.47277,108943
26.48088,106476
26.48900,103053
26.49713,105124
26.50525,98991
26.51337,102947
26.52150,98651
26.52962,88803
26.53775,93473
26.54587,89991
26.55398,98436
26.56212,92247
26.57023,95244
26.57837,87866
26.58648,90026
26.59460,84327
26.60273,84389
26.61085,86014
26.61898,83386
26.62710,80183
26.63522,84323
26.64335,83772
26.65147,85003
26.65958,87850
26.66772,87296
26.67583,85452
26.68397,82730
26.69208,79426
26.70020,83732
26.70833,82295
26.71645,78029
26.72458,79497
26.73270,75424
26.74082,74124
26.74895,73204
26.75707,76033
26.76520,73637
26.77332,77447
26.78143,79672
26.78957,81031
26.79768,81129
26.80580,83748
26.81393,81706
26.82205,85017
26.83018,81514
26.83830,76248
26.84642,75085
26.85455,71837
26.86267,70630
26.87080,68575
26.87892,69159
26.88703,70769
26.89517,67512
26.90328,71757
26.91140,68393
26.91953,67208
26.92765,66371
26.93578,65365
26.94390,66815
26.95202,67048
26.96015,69069
26.96827,79940
26.97640,90359
26.98452,117656
26.99263,161473
27.00077,220396
27.00888,290783
27.01702,353848
27.02513,399514
27.03325,428571
27.04138,423920
27.04950,394364
27.05762,343761
27.06575,305267
27.07387,257855
27.08200,223019
27.09012,193009
27.09823,175133
27.10637,153019
27.11448,149564
27.12262,143314
27.13073,133382
27.13885,129758
27.14698,119927
27.15510,114616
27.16322,114998
27.17135,112901
27.17947,116396
27.18760,110247
27.19572,106373
27.20383,108746
27.21197,100571
27.22008,98663
27.22822,91179
27.23633,94029
27.24445,87039
27.25258,82586
27.26070,83507
27.26883,78211
27.27695,74255
27.28507,68421
27.29320,73158
27.30132,75965
27.30943,78225
27.31757,73263
27.32568,74907
27.33382,71304
27.34193,76564
27.35005,69825
27.35818,72407
27.36630,70657
27.37443,73396
27.38255,72073
27.39067,70684
27.39880,64264
27.40692,68883
27.41505,66186
27.42317,63759
27.43128,63229
27.43942,62026
27.44753,65020
27.45565,58042
27.46378,63125
27.47190,59005
27.48003,58935
27.48815,59767
27.49627,63474
27.50440,67478
27.51252,62918
27.52065,66489
27.52877,67630
27.53688,69276
27.54502,65347
27.55313,64898
27.56125,65773
27.56938,67699
27.57750,72668
27.58563,77611
27.59375,90869
27.60187,89112
27.61000,87192
27.61812,80658
27.62625,77533
27.63437,64189
27.64248,63541
27.65062,56810
27.65873,58205
27.66687,62971
27.67498,66873
27.68310,68561
27.69123,67862
27.69935,64826
27.70747,60234
27.71560,60192
27.72372,59324
27.73185,50823
27.73997,51759
27.74808,50364
27.75622,51042
27.76433,53923
27.77247,53391
27.78058,51981
27.78870,58111
27.79683,53591
27.80495,54544
27.81308,54238
27.82120,57513
27.82932,53933
27.83745,49681
27.84557,56212
27.85368,59776
27.86182,48316
27.86993,50725
27.87807,51090
27.88618,50497
27.89430,48163
27.90243,47488
27.91055,48490
27.91868,52608
27.92680,49551
27.93492,54199
27.94305,48293
27.95117,47653
27.95928,50759
27.96742,46691
27.97553,47401
27.98367,54635
27.99178,55237
27.99990,49739
28.00803,51669
28.01615,52854
28.02428,65503
28.03240,70752
28.04052,72533
28.04865,80851
28.05677,80367
28.06490,80160
28.07302,75256
28.08113,67901
28.08927,58506
28.09738,56252
28.10550,55426
28.11363,52677
28.12175,49913
28.12988,50539
28.13800,50765
28.14612,46461
28.15425,48758
28.16237,51134
28.17050,49265
28.17862,54712
28.18673,57805
28.19487,67924
28.20298,72379
28.21110,78524
28.21923,82360
28.22735,86738
28.23548,81440
28.24360,77198
28.25172,67284
28.25985,59287
28.26797,55218
28.27610,52510
28.28422,51539
28.29233,56224
28.30047,55242
28.30858,62442
28.31672,70990
28.32483,86332
28.33295,95872
28.34108,106105
28.34920,124721
28.35732,133316
28.36545,144236
28.37357,154293
28.38170,167942
28.38982,177837
28.39793,181575
28.40607,171439
28.41418,174494
28.42232,165052
28.43043,164676
28.43855,153991
28.44668,148450
28.45480,128836
28.46293,120229
28.47105,120313
28.47917,112139
28.48730,103202
28.49542,105306
28.50353,94488
28.51167,99100
28.51978,87415
28.52792,89487
28.53603,81816
28.54415,82000
28.55228,76133
28.56040,71350
28.56853,76719
28.57665,68142
28.58477,66357
28.59290,71222
28.60102,65901
28.60915,66643
28.61727,69248
28.62538,64867
28.63352,65654
28.64163,72744
28.64975,68438
28.65788,68782
28.66600,68918
28.67413,69114
28.68225,67857
28.69037,65723
28.69850,63958
28.70662,63138
28.71475,59658
28.72287,60009
28.73098,64274
28.73912,70311
28.74723,80549
28.75535,79773
28.76348,83842
28.77160,82755
28.77973,74754
28.78785,68670
28.79597,73015
28.80410,71239
28.81222,70852
28.82035,69741
28.82847,59761
28.83658,65498
28.84472,59966
28.85283,59416
28.86097,61608
28.86908,63113
28.87720,65160
28.88533,70568
28.89345,78165
28.90157,80205
28.90970,79386
28.91782,71938
28.92595,67013
28.93407,64442
28.94218,64429
28.95032,64120
28.95843,57839
28.96657,61379
28.97468,59649
28.98280,55439
28.99093,52078
28.99905,55235
29.00717,53644
29.01530,56102
29.02342,53291
29.03155,53009
29.03967,50658
29.04778,50842
29.05592,50925
29.06403,52715
29.07217,55851
29.08028,57831
29.08840,52625
29.09653,55666
29.10465,54654
29.11278,51331
29.12090,55680
29.12902,49014
29.13715,48859
29.14527,49696
29.15338,49725
29.16152,51076
29.16963,55168
29.17777,61059
29.18588,62560
29.19400,79454
29.20213,93580
29.21025,104228
29.21838,111352
29.22650,107089
29.23462,104784
29.24275,92142
29.25087,87761
29.25900,82569
29.26712,80858
29.27523,77194
29.28337,77234
29.29148,67215
29.29960,63753
29.30773,58535
29.31585,55900
29.32398,53609
29.33210,52331
29.34022,45117
29.34835,49590
29.35647,44373
29.36460,47776
29.37272,45108
29.38083,51494
29.38897,48311
29.39708,46951
29.40520,50621
29.41333,48666
29.42145,49932
29.42958,49441
29.43770,48694
29.44582,49531
29.45395,47721
29.46207,45584
29.47020,43983
29.47832,50398
29.48643,47929
29.49457,46638
29.50268,51220
29.51082,48445
29.51893,54836
29.52705,46510
29.53518,47626
29.54330,47217
29.55142,46739
29.55955,44848
29.56767,43268
29.57580,45671
29.58392,43500
29.59203,45034
29.60017,40739
29.60828,44034
29.61642,44602
29.62453,46436
29.63265,45959
29.64078,43899
29.64890,45371
29.65703,45659
29.66515,43871
29.67327,48302
29.68140,49914
29.68952,56139
29.69763,55249
29.70577,56484
29.71388,54700
29.72202,53970
29.73013,51585
29.73825,49532
29.74638,45459
29.75450,44127
29.76263,44671
29.77075,47769
29.77887,41712
29.78700,43706
29.79512,41715
29.80323,41286
29.81137,41048
29.81948,42750
29.82762,42386
29.83573,41453
29.84385,42065
29.85198,44930
29.86010,56218
29.86823,60753
29.87635,79476
29.88447,109747
29.89260,143481
29.90072,160186
29.90885,157500
29.91697,141351
29.92508,116152
29.93322,89241
29.94133,74194
29.94945,63642
29.95758,64261
29.96570,70008
29.97383,73701
29.98195,83256
29.99007,83005
29.99820,90655
30.00632,98308
30.01445,102683
30.02257,106988
30.03068,104313
30.03882,107113
30.04693,103269
30.05505,103387
30.06318,106954
30.07130,104686
30.07943,104669
30.08755,106229
30.09567,104759
30.10380,97257
30.11192,97729
30.12005,100707
30.12817,91839
30.13628,95778
30.14442,86568
30.15253,82891
30.16067,83572
30.16878,83030
30.17690,76267
30.18503,76143
30.19315,77272
30.20127,70996
30.20940,73892
30.21752,69551
30.22565,66446
30.23377,63646
30.24188,61408
30.25002,57848
30.25813,54908
30.26627,58360
30.27438,54234
30.28250,54703
30.29063,56281
30.29875,57343
30.30688,55063
30.31500,58664
30.32312,51431
30.33125,55144
30.33937,55914
30.34748,56573
30.35562,52393
30.36373,53713
30.37187,48775
30.37998,49655
30.38810,49580
30.39623,48922
30.40435,55297
30.41248,49825
30.42060,45650
30.42872,53200
30.43685,48608
30.44497,46588
30.45308,44862
30.46122,47661
30.46933,41253
30.47747,45927
30.48558,50721
30.49370,45757
30.50183,47310
30.50995,46206
30.51808,47818
30.52620,47429
30.53432,47447
30.54245,48451
30.55057,51474
30.55870,47682
30.56682,45712
30.57493,45997
30.58307,50227
30.59118,48614
30.59930,46564
30.60743,47020
30.61555,43920
30.62368,43391
30.63180,42842
30.63992,42936
30.64805,42909
30.65617,43262
30.66430,43914
30.67242,43133
30.68053,41713
30.68867,44797
30.69678,41205
30.70492,48556
30.71303,42344
30.72115,41822
30.72928,43939
30.73740,46539
30.74552,43467
30.75365,40465
30.76177,46400
30.76990,54735
30.77802,58989
30.78613,69051
30.79427,86066
30.80238,103216
30.81052,107843
30.81863,106488
30.82675,97489
30.83488,77499
30.84300,67759
30.85112,55336
30.85925,54943
30.86737,50640
30.87550,51635
30.88362,52376
30.89173,43612
30.89987,43879
30.90798,46876
30.91612,43202
30.92423,44725
30.93235,44427
30.94048,41557
30.94860,42087
30.95673,48111
30.96485,43678
30.97297,43608
30.98110,43256
30.98922,40866
30.99733,45565
31.00547,44239
31.01358,43101
31.02172,43487
31.02983,45593
31.03795,47285
31.04608,50722
31.05420,53935
31.06233,57483
31.07045,59376
31.07857,61769
31.08670,66467
31.09482,72050
31.10295,77910
31.11107,75295
31.11918,75374
31.12732,71846
31.13543,75238
31.14355,66262
31.15168,69986
31.15980,67956
31.16793,70482
31.17605,70285
31.18417,83696
31.19230,83179
31.20042,93378
31.20855,111618
31.21667,124771
31.22478,132075
31.23292,131797
31.24103,121006
31.24915,112009
31.25728,91762
31.26540,77521
31.27353,68194
31.28165,65896
31.28977,67726
31.29790,58738
31.30602,62464
31.31415,61590
31.32227,64726
31.33038,67923
31.33852,65849
31.34663,64571
31.35477,63665
31.36288,59832
31.37100,62036
31.37913,64534
31.38725,65851
31.39537,64601
31.40350,64580
31.41162,58843
31.41975,63227
31.42787,59141
31.43598,57484
31.44412,58725
31.45223,57546
31.46037,55421
31.46848,57796
31.47660,60324
31.48473,56795
31.49285,59429
31.50097,62469
31.50910,60582
31.51722,59022
31.52535,60318
31.53347,59219
31.54158,55521
31.54972,60846
31.55783,63362
31.56597,57890
31.57408,57185
31.58220,54861
31.59033,54726
31.59845,56221
31.60658,53104
31.61470,56849
31.62282,55295
31.63095,49904
31.63907,53961
31.64718,54018
31.65532,56138
31.66343,58147
31.67157,62841
31.67968,56168
31.68780,55138
31.69593,56259
31.70405,51490
31.71218,53167
31.72030,51840
31.72842,53781
31.73655,51356
31.74467,50972
31.75280,47152
31.76092,50054
31.76903,45423
31.77717,48179
31.78528,50236
31.79340,49935
31.80153,49998
31.80965,49825
31.81778,53859
31.82590,51745
31.83402,50600
31.84215,51793
31.85027,54474
31.85840,53175
31.86652,52652
31.87463,54900
31.88277,58030
31.89088,63540
31.89900,65166
31.90713,68837
31.91525,73833
31.92338,78461
31.93150,83062
31.93962,87076
31.94775,95237
31.95587,95345
31.96400,95698
31.97212,98969
31.98023,100727
31.98837,98908
31.99648,96720
32.00462,95233
32.01273,94495
32.02085,98043
32.02898,91964
32.03710,88510
32.04522,91079
32.05335,88317
32.06147,81594
32.06960,78647
32.07772,75770
32.08583,74975
32.09397,70431
32.10208,67815
32.11022,66033
32.11833,62715
32.12645,62130
32.13458,63960
32.14270,63859
32.15083,60657
32.15895,57775
32.16707,57696
32.17520,56232
32.18332,55269
32.19143,53704
32.19957,54970
32.20768,56746
32.21582,52216
32.22393,51963
32.23205,54548
32.24018,56366
32.24830,52029
32.25643,52303
32.26455,55708
32.27267,54358
32.28080,54096
32.28892,53788
32.29703,55757
32.30517,51119
32.31328,53346
32.32142,47679
32.32953,48897
32.33765,48649
32.34578,49373
32.35390,49812
32.36203,48777
32.37015,50233
32.37827,50877
32.38640,47191
32.39452,50132
32.40265,47430
32.41077,47972
32.41888,45579
32.42702,45241
32.43513,41873
32.44325,46376
32.45138,45938
32.45950,48809
32.46763,45866
32.47575,44996
32.48387,45491
32.49200,46419
32.50012,45632
32.50825,45528
32.51637,46711
32.52448,43129
32.53262,47566
32.54073,45533
32.54885,48301
32.55698,46795
32.56510,48103
32.57323,43943
32.58135,43431
32.58947,42927
32.59760,43595
32.60572,44494
32.61385,45879
32.62197,49503
32.63008,53830
32.63822,53639
32.64633,57001
32.65447,55546
32.66258,62319
32.67070,57758
32.67883,51834
32.68695,49115
32.69507,47983
32.70320,49246
32.71132,49782
32.71945,49531
32.72757,49331
32.73568,43743
32.74382,50035
32.75193,45945
32.76007,43038
32.76818,44006
32.77630,42341
32.78443,42156
32.79255,41771
32.80068,42466
32.80880,44865
32.81692,45541
32.82505,42652
32.83317,45735
32.84128,41747
32.84942,43189
32.85753,38942
32.86567,46943
32.87378,40785
32.88190,44944
32.89003,48661
32.89815,47432
32.90628,48759
32.91440,45533
32.92252,49824
32.93065,48659
32.93877,49515
32.94688,47073
32.95502,45395
32.96313,45233
32.97127,48175
32.97938,55620
32.98750,59132
32.99563,66588
33.00375,69986
33.01188,69574
33.02000,63020
33.02812,60867
33.03625,58522
33.04437,55942
33.05250,51933
33.06062,50370
33.06873,54206
33.07687,59741
33.08498,65812
33.09310,65766
33.10123,68342
33.10935,65941
33.11748,67282
33.12560,67925
33.13372,67678
33.14185,61013
33.14997,56204
33.15810,52869
33.16622,53598
33.17433,53681
33.18247,48932
33.19058,49405
33.19872,44957
33.20683,44810
33.21495,46642
33.22308,45039
33.23120,48222
33.23932,46253
33.24745,45178
33.25557,46783
33.26370,43630
33.27182,44001
33.27993,43569
33.28807,44934
33.29618,46554
33.30432,42108
33.31243,44183
33.32055,45107
33.32868,44148
33.33680,43588
33.34492,45793
33.35305,46525
33.36117,51994
33.36930,49245
33.37742,48303
33.38553,47840
33.39367,50440
33.40178,46515
33.40992,38218
33.41803,42483
33.42615,43487
33.43428,42892
33.44240,41896
33.45053,41951
33.45865,43122
33.46677,42517
33.47490,47065
33.48302,41862
33.49113,46823
33.49927,42357
33.50738,43919
33.51552,44945
33.52363,47186
33.53175,42487
33.53988,46441
33.54800,51636
33.55613,52588
33.56425,50644
33.57237,54797
33.58050,48040
33.58862,44091
33.59673,43710
33.60487,44238
33.61298,47755
33.62112,44631
33.62923,44796
33.63735,45060
33.64548,48211
33.65360,48469
33.66173,49211
33.66985,48843
33.67797,47730
33.68610,48156
33.69422,40793
33.70235,42583
33.71047,45338
33.71858,47560
33.72672,46823
33.73483,39399
33.74295,41902
33.75108,41773
33.75920,44299
33.76733,42883
33.77545,42313
33.78357,40519
33.79170,45018
33.79982,42123
33.80795,41608
33.81607,41706
33.82418,42101
33.83232,43412
33.84043,41981
33.84857,41818
33.85668,47766
33.86480,40458
33.87293,45692
33.88105,46807
33.88917,45934
33.89730,49893
33.90542,50892
33.91355,45456
33.92167,44144
33.92978,48515
33.93792,45815
33.94603,44804
33.95417,43555
33.96228,41637
33.97040,41583
33.97853,42433
33.98665,45414
33.99478,41708
34.00290,43779
34.01102,41365
34.01915,41939
34.02727,41829
34.03538,44800
34.04352,43596
34.05163,45127
34.05977,41903
34.06788,42417
34.07600,46691
34.08413,45481
34.09225,40969
34.10038,42399
34.10850,43672
34.11662,47829
34.12475,45226
34.13287,46096
34.14098,42982
34.14912,43470
34.15723,48043
34.16537,47887
34.17348,45453
34.18160,47483
34.18973,44658
34.19785,43973
34.20598,41229
34.21410,46901
34.22222,44065
34.23035,45906
34.23847,43631
34.24660,42200
34.25472,45153
34.26283,42602
34.27097,42713
34.27908,43631
34.28720,44467
34.29533,43129
34.30345,43743
34.31158,44423
34.31970,43569
34.32782,42804
34.33595,42784
34.34407,42995
34.35220,44750
34.36032,42932
34.36843,43119
34.37657,42560
34.38468,42168
34.39280,43451
34.40093,41373
34.40905,39845
34.41718,43199
34.42530,42363
34.43342,42607
34.44155,42591
34.44967,41620
34.45780,41020
34.46592,41729
34.47403,41544
34.48217,41795
34.49028,43396
34.49842,53533
34.50653,55448
34.51465,65606
34.52278,69697
34.53090,81156
34.53902,84474
34.54715,86208
34.55527,88300
34.56340,91097
34.57152,81726
34.57963,79388
34.58777,74137
34.59588,74098
34.60402,71996
34.61213,61759
34.62025,64490
34.62838,61081
34.63650,61966
34.64463,58847
34.65275,57438
34.66087,58326
34.66900,56411
34.67712,55327
34.68523,51058
34.69337,53637
34.70148,53317
34.70962,54853
34.71773,52865
34.72585,49580
34.73398,53534
34.74210,51328
34.75023,48354
34.75835,48109
34.76647,53273
34.77460,53325
34.78272,52030
34.79083,51416
34.79897,51062
34.80708,50611
34.81522,48901
34.82333,49932
34.83145,49672
34.83958,52157
34.84770,46975
34.85583,47720
34.86395,52221
34.87207,51631
34.88020,50067
34.88832,47965
34.89645,46406
34.90457,47914
34.91268,49122
34.92082,52308
34.92893,54909
34.93705,50988
34.94518,53278
34.95330,56290
34.96143,57038
34.96955,56927
34.97767,54698
34.98580,57354
34.99392,57065
35.00205,51780
35.01017,51081
35.01828,48793
35.02642,47223
35.03453,50464
35.04267,45187
35.05078,47261
35.05890,47745
35.06703,49826
35.07515,47622
35.08327,48614
35.09140,46776
35.09952,45292
35.10765,48149
35.11577,47616
35.12388,50398
35.13202,48206
35.14013,46492
35.14827,47602
35.15638,51156
35.16450,46167
35.17263,45951
35.18075,51184
35.18887,48026
35.19700,50029
35.20512,47524
35.21325,46533
35.22137,46676
35.22948,46122
35.23762,46532
35.24573,45260
35.25387,42693
35.26198,47374
35.27010,46892
35.27823,49035
35.28635,44868
35.29448,45844
35.30260,44733
35.31072,48968
35.31885,48605
35.32697,47441
35.33508,46097
35.34322,46057
35.35133,43097
35.35947,44129
35.36758,46437
35.37570,46986
35.38383,49678
35.39195,51018
35.40008,51129
35.40820,53789
35.41632,58858
35.42445,59805
35.43257,62093
35.44068,60683
35.44882,61406
35.45693,54934
35.46507,52858
35.47318,54711
35.48130,53779
35.48943,51206
35.49755,52511
35.50568,50123
35.51380,47885
35.52192,50588
35.53005,47847
35.53817,48787
35.54630,46252
35.55442,45968
35.56253,41280
35.57067,51957
35.57878,49158
35.58690,46738
35.59503,47302
35.60315,47123
35.61128,49517
35.61940,46429
35.62752,49724
35.63565,45962
35.64377,46966
35.65190,46443
35.66002,51324
35.66813,48999
35.67627,49639
35.68438,48012
35.69252,49778
35.70063,53228
35.70875,49272
35.71688,49036
35.72500,48775
35.73312,49516
35.74125,51468
35.74937,53470
35.75750,55088
35.76562,52913
35.77373,59860
35.78187,55730
35.78998,53714
35.79812,51223
35.80623,48296
35.81435,48569
35.82248,49693
35.83060,49421
35.83872,46002
35.84685,45870
35.85497,45947
35.86310,48591
35.87122,50713
35.87933,48196
35.88747,48524
35.89558,47341
35.90372,45219
35.91183,50508
35.91995,45947
35.92808,47097
35.93620,50905
35.94433,50066
35.95245,48310
35.96057,49855
35.96870,48421
35.97682,48332
35.98493,47955
35.99307,50349
36.00118,51621
36.00932,50412
36.01743,48018
36.02555,50370
36.03368,47856
36.04180,47562
36.04993,47791
36.05805,48342
36.06617,51245
36.07430,51330
36.08242,54916
36.09055,50776
36.09867,46890
36.10678,45905
36.11492,52391
36.12303,51627
36.13115,48755
36.13928,49830
36.14740,47465
36.15553,50645
36.16365,50874
36.17177,52419
36.17990,51152
36.18802,47975
36.19615,47893
36.20427,47111
36.21238,49449
36.22052,47149
36.22863,50178
36.23675,48479
36.24488,47985
36.25300,47452
36.26113,49316
36.26925,51868
36.27737,53881
36.28550,53818
36.29362,62572
36.30175,64310
36.30987,57677
36.31798,55160
36.32612,55457
36.33423,52973
36.34237,50925
36.35048,48310
36.35860,48832
36.36673,52024
36.37485,51122
36.38297,51587
36.39110,51504
36.39922,52190
36.40735,50929
36.41547,47924
36.42358,46806
36.43172,49865
36.43983,51665
36.44797,48514
36.45608,49216
36.46420,50501
36.47233,46209
36.48045,47806
36.48858,46854
36.49670,47691
36.50482,49107
36.51295,48605
36.52107,50493
36.52918,52331
36.53732,46539
36.54543,49557
36.55357,47363
36.56168,47590
36.56980,47413
36.57793,45237
36.58605,50645
36.59418,50956
36.60230,52132
36.61042,49846
36.61855,50898
36.62667,52613
36.63478,51327
36.64292,48976
36.65103,52061
36.65917,54358
36.66728,53393
36.67540,55260
36.68353,53629
36.69165,53722
36.69978,53699
36.70790,52295
36.71602,57542
36.72415,52251
36.73227,55076
36.74040,52779
36.74852,52890
36.75663,57851
36.76477,53488
36.77288,57965
36.78100,56007
36.78913,56524
36.79725,54064
36.80538,55652
36.81350,52302
36.82162,53091
36.82975,54160
36.83787,54992
36.84600,52043
36.85412,56650
36.86223,52033
36.87037,56251
36.87848,52631
36.88660,53121
36.89473,53901
36.90285,56084
36.91098,52608
36.91910,53773
36.92722,58321
36.93535,58781
36.94347,63892
36.95160,64650
36.95972,70228
36.96783,75742
36.97597,70703
36.98408,73460
36.99222,64138
37.00033,57377
37.00845,59567
37.01658,58482
37.02470,55131
37.03282,56598
37.04095,54068
37.04907,53922
37.05720,57342
37.06532,54963
37.07343,54491
37.08157,61996
37.08968,53418
37.09782,56042
37.10593,61360
37.11405,52711
37.12218,54574
37.13030,52593
37.13843,52353
37.14655,57162
37.15467,52952
37.16280,60177
37.17092,55015
37.17903,54242
37.18717,59999
37.19528,60651
37.20342,56169
37.21153,54761
37.21965,55478
37.22778,52278
37.23590,52541
37.24403,54304
37.25215,54074
37.26027,53212
37.26840,53850
37.27652,52722
37.28463,58656
37.29277,56424
37.30088,62497
37.30902,66584
37.31713,74841
37.32525,84694
37.33338,79824
37.34150,89639
37.34963,88764
37.35775,91673
37.36587,82227
37.37400,81421
37.38212,76205
37.39025,73231
37.39837,71815
37.40648,70498
37.41462,67558
37.42273,70456
37.43085,66234
37.43898,65007
37.44710,64117
37.45523,68108
37.46335,64431
37.47147,66258
37.47960,56841
37.48772,62770
