C:\MassHunter\GCMS\1\data\JTB-E18\BACandBLUE_bioassay\JTB-E18-41-17.D Wed Dec 04 14:07:16 2019
Start of data points
2.09535	78916
2.10347	77565
2.11160	77186
2.11972	76995
2.12785	78034
2.13597	74397
2.14408	74135
2.15222	73185
2.16033	70409
2.16845	71097
2.17658	66267
2.18470	65030
2.19283	70967
2.20095	63037
2.20907	62718
2.21720	61011
2.22532	66788
2.23345	62163
2.24157	65045
2.24968	68742
2.25782	60294
2.26593	75493
2.27407	425655
2.28218	1293620
2.29030	893980
2.29843	334572
2.30655	193731
2.31467	154395
2.32280	150114
2.33092	134462
2.33905	127455
2.34717	117195
2.35528	104038
2.36342	102299
2.37153	95281
2.37967	96332
2.38778	95822
2.39590	92118
2.40403	83725
2.41215	93102
2.42027	84821
2.42840	91645
2.43652	86512
2.44465	83812
2.45277	89637
2.46088	83214
2.46902	77783
2.47713	76876
2.48527	78711
2.49338	79200
2.50150	79532
2.50963	81379
2.51775	77752
2.52588	79872
2.53400	72528
2.54212	83072
2.55025	93300
2.55837	132668
2.56648	159546
2.57462	111712
2.58273	86660
2.59087	81512
2.59898	81002
2.60710	151060
2.61523	376531
2.62335	382969
2.63148	225912
2.63960	152920
2.64772	126370
2.65585	108418
2.66397	98586
2.67208	91518
2.68022	88641
2.68833	87428
2.69647	80079
2.70458	79262
2.71270	77384
2.72083	76439
2.72895	75464
2.73708	68571
2.74520	74248
2.75332	73306
2.76145	74730
2.76957	71591
2.77770	72942
2.78582	88008
2.79393	98976
2.80207	89308
2.81018	81375
2.81830	83134
2.82643	98396
2.83455	163117
2.84268	160229
2.85080	113754
2.85892	95738
2.86705	89064
2.87517	81950
2.88330	79213
2.89142	72991
2.89953	73689
2.90767	74122
2.91578	69931
2.92392	67593
2.93203	66482
2.94015	70852
2.94828	69735
2.95640	65026
2.96452	66454
2.97265	63979
2.98077	64382
2.98890	64366
2.99702	64717
3.00513	81681
3.01327	92482
3.02138	88627
3.02952	95165
3.03763	127571
3.04575	166074
3.05388	323554
3.06200	786063
3.07013	1001095
3.07825	665305
3.08637	406158
3.09450	434519
3.10262	687096
3.11073	1236423
3.11887	1337045
3.12698	899883
3.13512	576243
3.14323	451084
3.15135	358253
3.15948	306579
3.16760	261547
3.17573	243093
3.18385	235491
3.19197	329845
3.20010	430383
3.20822	369418
3.21633	268561
3.22447	221011
3.23258	202577
3.24072	176392
3.24883	167952
3.25695	145175
3.26508	133560
3.27320	132931
3.28133	195360
3.28945	517230
3.29757	1327008
3.30570	2303040
3.31382	2712425
3.32195	2318580
3.33007	1759398
3.33818	1369914
3.34632	1108548
3.35443	925068
3.36255	783415
3.37068	685324
3.37880	654814
3.38693	617633
3.39505	563669
3.40317	542682
3.41130	663931
3.41942	854157
3.42755	827319
3.43567	608157
3.44378	460874
3.45192	384994
3.46003	351738
3.46815	338641
3.47628	324419
3.48440	310234
3.49253	301998
3.50065	286183
3.50877	276869
3.51690	263535
3.52502	254718
3.53315	261180
3.54127	253182
3.54938	250245
3.55752	242300
3.56563	234515
3.57377	231856
3.58188	225265
3.59000	230358
3.59813	223411
3.60625	215146
3.61437	224870
3.62250	266855
3.63062	374597
3.63875	498433
3.64687	489254
3.65498	382226
3.66312	417943
3.67123	1086750
3.67937	2402568
3.68748	2831538
3.69560	1934265
3.70373	1123513
3.71185	803598
3.71998	666023
3.72810	579961
3.73622	516322
3.74435	466570
3.75247	431628
3.76058	410083
3.76872	398494
3.77683	378035
3.78497	360678
3.79308	348928
3.80120	373609
3.80933	538108
3.81745	742977
3.82558	749221
3.83370	575309
3.84182	458060
3.84995	402060
3.85807	353125
3.86618	333492
3.87432	308760
3.88243	296740
3.89057	286352
3.89868	274186
3.90680	269989
3.91493	271181
3.92305	315815
3.93118	339623
3.93930	345564
3.94742	308199
3.95555	345497
3.96367	450784
3.97180	485097
3.97992	416258
3.98803	322889
3.99617	310979
4.00428	390522
4.01240	583037
4.02053	640412
4.02865	504824
4.03678	378576
4.04490	308169
4.05302	257805
4.06115	243036
4.06927	228322
4.07740	217670
4.08552	216337
4.09363	203412
4.10177	205541
4.10988	198767
4.11802	208875
4.12613	229131
4.13425	415615
4.14238	850558
4.15050	1229764
4.15862	1156917
4.16675	742669
4.17487	501333
4.18300	356908
4.19112	290176
4.19923	280840
4.20737	579121
4.21548	2227064
4.22362	6262025
4.23173	1.063724E+07
4.23985	1.143024E+07
4.24798	8343275
4.25610	4808283
4.26422	2950756
4.27235	2003740
4.28047	1461882
4.28860	1087405
4.29672	855726
4.30483	696632
4.31297	614912
4.32108	555129
4.32922	494726
4.33733	439643
4.34545	414552
4.35358	388232
4.36170	374630
4.36983	352779
4.37795	340881
4.38607	324287
4.39420	298151
4.40232	284960
4.41043	289228
4.41857	260768
4.42668	257240
4.43482	245155
4.44293	238618
4.45105	239159
4.45918	239393
4.46730	238816
4.47543	226396
4.48355	225533
4.49167	218958
4.49980	217089
4.50792	208930
4.51603	205429
4.52417	198654
4.53228	200876
4.54042	204507
4.54853	199059
4.55665	196656
4.56478	194586
4.57290	184543
4.58103	188523
4.58915	180736
4.59727	180458
4.60540	183017
4.61352	180058
4.62165	189875
4.62977	232918
4.63788	276564
4.64602	304764
4.65413	269134
4.66225	240879
4.67038	203376
4.67850	199017
4.68663	193170
4.69475	184040
4.70287	181375
4.71100	174522
4.71912	172273
4.72725	172906
4.73537	177087
4.74348	163865
4.75162	165190
4.75973	157482
4.76787	165965
4.77598	163903
4.78410	219118
4.79223	414066
4.80035	808582
4.80847	1128130
4.81660	1042254
4.82472	742765
4.83285	537521
4.84097	439015
4.84908	391447
4.85722	348077
4.86533	323928
4.87347	288577
4.88158	268527
4.88970	246271
4.89783	240543
4.90595	242265
4.91407	285938
4.92220	403326
4.93032	665660
4.93845	1007125
4.94657	1219512
4.95468	1193621
4.96282	1021934
4.97093	824806
4.97907	695084
4.98718	582913
4.99530	521201
5.00343	467092
5.01155	428268
5.01968	406118
5.02780	414173
5.03592	426700
5.04405	447179
5.05217	430027
5.06028	392889
5.06842	357871
5.07653	339674
5.08467	324404
5.09278	323715
5.10090	327164
5.10903	339996
5.11715	359547
5.12528	357467
5.13340	351177
5.14152	311151
5.14965	308171
5.15777	305928
5.16590	332767
5.17402	340640
5.18213	358204
5.19027	365192
5.19838	351754
5.20650	337021
5.21463	320330
5.22275	314146
5.23088	297540
5.23900	305315
5.24712	298987
5.25525	295546
5.26337	263905
5.27150	248132
5.27962	238489
5.28773	238467
5.29587	232549
5.30398	233346
5.31210	225953
5.32023	219679
5.32835	231917
5.33648	246932
5.34460	224369
5.35272	224316
5.36085	226757
5.36897	217146
5.37710	210724
5.38522	207435
5.39333	211345
5.40147	206362
5.40958	209148
5.41772	199297
5.42583	199188
5.43395	196589
5.44208	207904
5.45020	205766
5.45832	203801
5.46645	197271
5.47457	198268
5.48270	191107
5.49082	184083
5.49893	184777
5.50707	183647
5.51518	190243
5.52332	193431
5.53143	194272
5.53955	188892
5.54768	188351
5.55580	196084
5.56392	198914
5.57205	213291
5.58017	214436
5.58830	211167
5.59642	207469
5.60453	195112
5.61267	194329
5.62078	193016
5.62892	184656
5.63703	193489
5.64515	194974
5.65328	186856
5.66140	197859
5.66953	192971
5.67765	217213
5.68577	223787
5.69390	220030
5.70202	212229
5.71013	218887
5.71827	213902
5.72638	213484
5.73452	215908
5.74263	211089
5.75075	214684
5.75888	206587
5.76700	208920
5.77513	225437
5.78325	211913
5.79137	200509
5.79950	211118
5.80762	260435
5.81575	373299
5.82387	557025
5.83198	710475
5.84012	736108
5.84823	629665
5.85635	481291
5.86448	348890
5.87260	275278
5.88073	240673
5.88885	227049
5.89697	207651
5.90510	208973
5.91322	235949
5.92135	300486
5.92947	363916
5.93758	392370
5.94572	367871
5.95383	311564
5.96195	264275
5.97008	237973
5.97820	240063
5.98633	248076
5.99445	235706
6.00257	207608
6.01070	179799
6.01882	172248
6.02695	158686
6.03507	151339
6.04318	141186
6.05132	139414
6.05943	135421
6.06757	132083
6.07568	126416
6.08380	128731
6.09193	127758
6.10005	132221
6.10817	141679
6.11630	152326
6.12442	166698
6.13255	205214
6.14067	250726
6.14878	258520
6.15692	226651
6.16503	194102
6.17317	178329
6.18128	168438
6.18940	171299
6.19753	175740
6.20565	184224
6.21378	168994
6.22190	158493
6.23002	152060
6.23815	149468
6.24627	144084
6.25438	147477
6.26252	143534
6.27063	142516
6.27877	140908
6.28688	137852
6.29500	139394
6.30313	137702
6.31125	136339
6.31938	140861
6.32750	144520
6.33562	146153
6.34375	155090
6.35187	145534
6.35998	144576
6.36812	141713
6.37623	147982
6.38437	141928
6.39248	145833
6.40060	135991
6.40873	139784
6.41685	141778
6.42498	138216
6.43310	133448
6.44122	136280
6.44935	138363
6.45747	141646
6.46560	137210
6.47372	141117
6.48183	144120
6.48997	146053
6.49808	144574
6.50620	138068
6.51433	145388
6.52245	148791
6.53058	153487
6.53870	146026
6.54682	154851
6.55495	153321
6.56307	154847
6.57120	159076
6.57932	165399
6.58743	164875
6.59557	159868
6.60368	151982
6.61182	139295
6.61993	130353
6.62805	126970
6.63618	122168
6.64430	119220
6.65242	121723
6.66055	130322
6.66867	141463
6.67680	136208
6.68492	133578
6.69303	140756
6.70117	155555
6.70928	177251
6.71742	187873
6.72553	185371
6.73365	172448
6.74178	150853
6.74990	128661
6.75802	125056
6.76615	112904
6.77427	109407
6.78240	113262
6.79052	107951
6.79863	111337
6.80677	116680
6.81488	136485
6.82302	169044
6.83113	253215
6.83925	363788
6.84738	487234
6.85550	526085
6.86363	497983
6.87175	405103
6.87987	295022
6.88800	194913
6.89612	136949
6.90423	107648
6.91237	90395
6.92048	82135
6.92862	80540
6.93673	76600
6.94485	79429
6.95298	76616
6.96110	79502
6.96923	90402
6.97735	108179
6.98547	141945
6.99360	186194
7.00172	235205
7.00983	257744
7.01797	246990
7.02608	214453
7.03422	165347
7.04233	125771
7.05045	102850
7.05858	90559
7.06670	83624
7.07483	80532
7.08295	82815
7.09107	86646
7.09920	79525
7.10732	85043
7.11545	82599
7.12357	79478
7.13168	82342
7.13982	84049
7.14793	84793
7.15605	102124
7.16418	190520
7.17230	440357
7.18043	849785
7.18855	1247743
7.19667	1355182
7.20480	1069163
7.21292	655826
7.22105	343551
7.22917	193623
7.23728	138706
7.24542	136470
7.25353	137931
7.26167	133469
7.26978	124253
7.27790	113765
7.28603	105456
7.29415	101283
7.30227	110604
7.31040	109137
7.31852	115546
7.32665	103680
7.33477	97959
7.34288	98925
7.35102	109657
7.35913	131031
7.36727	164967
7.37538	187503
7.38350	190670
7.39163	180151
7.39975	149229
7.40787	123008
7.41600	100873
7.42412	87702
7.43225	87554
7.44037	85771
7.44848	83024
7.45662	96244
7.46473	104404
7.47287	123806
7.48098	133450
7.48910	142953
7.49723	136326
7.50535	118803
7.51348	101022
7.52160	87911
7.52972	79999
7.53785	82768
7.54597	86129
7.55408	100607
7.56222	124922
7.57033	144631
7.57847	163446
7.58658	168437
7.59470	151813
7.60283	132901
7.61095	112842
7.61908	91153
7.62720	84103
7.63532	78492
7.64345	74545
7.65157	72691
7.65970	78716
7.66782	71083
7.67593	68341
7.68407	70199
7.69218	69929
7.70030	65176
7.70843	69129
7.71655	70899
7.72468	72214
7.73280	73464
7.74092	67917
7.74905	70091
7.75717	69777
7.76530	68217
7.77342	63918
7.78153	65917
7.78967	66029
7.79778	64345
7.80590	69746
7.81403	70268
7.82215	67905
7.83028	66535
7.83840	65170
7.84652	63299
7.85465	60370
7.86277	65229
7.87090	68137
7.87902	71079
7.88713	81504
7.89527	86696
7.90338	86488
7.91152	86006
7.91963	76872
7.92775	80327
7.93588	85550
7.94400	86727
7.95212	95646
7.96025	97215
7.96837	95492
7.97650	83368
7.98462	74536
7.99273	68038
8.00087	62689
8.00898	63121
8.01712	60078
8.02523	58195
8.03335	59258
8.04148	53195
8.04960	53700
8.05772	61743
8.06585	56025
8.07397	60246
8.08210	60921
8.09022	55422
8.09833	60410
8.10647	55892
8.11458	54565
8.12272	58063
8.13083	66250
8.13895	66128
8.14708	74300
8.15520	74464
8.16333	72376
8.17145	68529
8.17957	65839
8.18770	58985
8.19582	59801
8.20393	58747
8.21207	57590
8.22018	58249
8.22832	56469
8.23643	57774
8.24455	55275
8.25268	58318
8.26080	52336
8.26893	57091
8.27705	57018
8.28517	58790
8.29330	54734
8.30142	55840
8.30955	62576
8.31767	63347
8.32578	68915
8.33392	70839
8.34203	72511
8.35015	73907
8.35828	66909
8.36640	66015
8.37453	67748
8.38265	60031
8.39077	60619
8.39890	54263
8.40702	56117
8.41515	48345
8.42327	53252
8.43138	55063
8.43952	55403
8.44763	52567
8.45575	51518
8.46388	54382
8.47200	57758
8.48013	62838
8.48825	66810
8.49637	107471
8.50450	203527
8.51262	350393
8.52075	465471
8.52887	483608
8.53698	374732
8.54512	243839
8.55323	144473
8.56137	99558
8.56948	84851
8.57760	73176
8.58573	74521
8.59385	68715
8.60197	70600
8.61010	65495
8.61822	67173
8.62635	61133
8.63447	61738
8.64258	56862
8.65072	59050
8.65883	59859
8.66697	60670
8.67508	62114
8.68320	57688
8.69133	58963
8.69945	68274
8.70758	86241
8.71570	128810
8.72382	205830
8.73195	322650
8.74007	430154
8.74818	459391
8.75632	379856
8.76443	308022
8.77257	219335
8.78068	183819
8.78880	165873
8.79693	160266
8.80505	159073
8.81318	154724
8.82130	154909
8.82942	142524
8.83755	136886
8.84567	132288
8.85378	136236
8.86192	123308
8.87003	124945
8.87817	119010
8.88628	118173
8.89440	115450
8.90253	116596
8.91065	120945
8.91878	124641
8.92690	127370
8.93502	125412
8.94315	118392
8.95127	116521
8.95940	107836
8.96752	101527
8.97563	107797
8.98377	110289
8.99188	111518
9.00000	106311
9.00813	103343
9.01625	95295
9.02438	93278
9.03250	96266
9.04062	95725
9.04875	96419
9.05687	89125
9.06500	93348
9.07312	92586
9.08123	94142
9.08937	92623
9.09748	99580
9.10560	100929
9.11373	106988
9.12185	108736
9.12998	106646
9.13810	102594
9.14622	102514
9.15435	90894
9.16247	93371
9.17060	89150
9.17872	87276
9.18683	88071
9.19497	83485
9.20308	89592
9.21122	82391
9.21933	85408
9.22745	85548
9.23558	83793
9.24370	80832
9.25182	90528
9.25995	101201
9.26807	118279
9.27620	142435
9.28432	163152
9.29243	159822
9.30057	151683
9.30868	122200
9.31682	102534
9.32493	93271
9.33305	85726
9.34118	86219
9.34930	88345
9.35743	85815
9.36555	84701
9.37367	82288
9.38180	77762
9.38992	78628
9.39803	79619
9.40617	74849
9.41428	78749
9.42242	76731
9.43053	82338
9.43865	88614
9.44678	91994
9.45490	92081
9.46303	86484
9.47115	79438
9.47927	75189
9.48740	81361
9.49552	79012
9.50365	89250
9.51177	96650
9.51988	97989
9.52802	95834
9.53613	90992
9.54425	79867
9.55238	69636
9.56050	63341
9.56863	55877
9.57675	49899
9.58487	49507
9.59300	55057
9.60112	51663
9.60925	51174
9.61737	48152
9.62548	49754
9.63362	49600
9.64173	55543
9.64985	53620
9.65798	58611
9.66610	48094
9.67423	49701
9.68235	45931
9.69047	44886
9.69860	44746
9.70672	44003
9.71485	42538
9.72297	43286
9.73108	42838
9.73922	41929
9.74733	40751
9.75547	40004
9.76358	43065
9.77170	40525
9.77983	44159
9.78795	43157
9.79607	40607
9.80420	40469
9.81232	36967
9.82045	41219
9.82857	41309
9.83668	44360
9.84482	48184
9.85293	47400
9.86107	43367
9.86918	42661
9.87730	37392
9.88543	38290
9.89355	39355
9.90167	40203
9.90980	37483
9.91792	40349
9.92605	38692
9.93417	43010
9.94228	51945
9.95042	68876
9.95853	92116
9.96667	104641
9.97478	118957
9.98290	110259
9.99103	94712
9.99915	73765
10.00728	56868
10.01540	44719
10.02352	49397
10.03165	47154
10.03977	46474
10.04788	45817
10.05602	44416
10.06413	46771
10.07227	44420
10.08038	46537
10.08850	48434
10.09663	45615
10.10475	40993
10.11288	40353
10.12100	40670
10.12912	39605
10.13725	42161
10.14537	37126
10.15350	42361
10.16162	39437
10.16973	35726
10.17787	37489
10.18598	35862
10.19410	35809
10.20223	35643
10.21035	39613
10.21848	40166
10.22660	41638
10.23472	52293
10.24285	87090
10.25097	194896
10.25910	450853
10.26722	890405
10.27533	1521878
10.28347	2372089
10.29158	3701711
10.29970	5877236
10.30783	8759682
10.31595	1.106172E+07
10.32408	1.111092E+07
10.33220	8788323
10.34032	5439759
10.34845	2729391
10.35657	1408524
10.36470	845094
10.37282	640047
10.38093	515991
10.38907	405495
10.39718	339485
10.40532	272771
10.41343	237392
10.42155	204084
10.42968	189730
10.43780	167942
10.44592	160937
10.45405	149109
10.46217	133162
10.47030	129281
10.47842	124314
10.48653	114748
10.49467	109492
10.50278	107641
10.51092	109397
10.51903	107789
10.52715	112946
10.53528	104203
10.54340	103152
10.55153	97402
10.55965	92695
10.56777	84641
10.57590	82382
10.58402	86763
10.59213	78830
10.60027	74282
10.60838	73456
10.61652	67282
10.62463	68011
10.63275	68615
10.64088	68085
10.64900	63359
10.65713	65706
10.66525	66280
10.67337	63912
10.68150	65666
10.68962	69738
10.69773	72663
10.70587	69598
10.71398	66740
10.72212	65189
10.73023	64326
10.73835	62098
10.74648	57719
10.75460	61505
10.76273	61373
10.77085	56565
10.77897	54123
10.78710	53799
10.79522	54819
10.80335	52645
10.81147	53879
10.81958	55677
10.82772	53768
10.83583	49313
10.84395	48067
10.85208	50375
10.86020	41595
10.86833	45183
10.87645	46099
10.88457	43815
10.89270	48136
10.90082	42277
10.90895	43035
10.91707	44872
10.92518	43728
10.93332	44887
10.94143	42919
10.94955	41080
10.95768	41951
10.96580	44200
10.97393	44735
10.98205	43980
10.99017	43771
10.99830	45184
11.00642	45283
11.01455	42096
11.02267	42634
11.03078	45021
11.03892	37117
11.04703	39502
11.05517	40873
11.06328	37640
11.07140	40280
11.07953	41102
11.08765	44731
11.09577	38558
11.10390	43217
11.11202	43999
11.12015	45261
11.12827	43906
11.13638	46584
11.14452	43134
11.15263	40071
11.16077	40564
11.16888	43240
11.17700	41723
11.18513	43091
11.19325	46719
11.20138	47246
11.20950	41116
11.21762	39970
11.22575	40809
11.23387	35520
11.24198	35043
11.25012	37408
11.25823	44697
11.26637	54739
11.27448	70422
11.28260	95683
11.29073	121675
11.29885	132547
11.30698	141103
11.31510	141012
11.32322	154356
11.33135	169947
11.33947	195229
11.34758	199976
11.35572	186518
11.36383	151815
11.37197	124142
11.38008	98024
11.38820	90721
11.39633	75078
11.40445	66954
11.41258	60901
11.42070	54275
11.42882	50908
11.43695	48876
11.44507	46412
11.45320	48429
11.46132	45946
11.46943	54068
11.47757	68819
11.48568	84274
11.49380	82093
11.50193	79098
11.51005	81239
11.51818	81439
11.52630	81667
11.53442	84243
11.54255	75710
11.55067	70093
11.55880	64317
11.56692	57653
11.57503	61969
11.58317	69202
11.59128	75143
11.59942	89579
11.60753	89511
11.61565	87467
11.62378	74094
11.63190	59182
11.64002	56421
11.64815	48832
11.65627	45305
11.66440	49958
11.67252	56009
11.68063	69182
11.68877	98002
11.69688	119384
11.70502	135077
11.71313	138287
11.72125	119111
11.72938	109276
11.73750	83491
11.74562	74938
11.75375	68929
11.76187	60680
11.77000	56647
11.77812	56959
11.78623	56364
11.79437	52485
11.80248	49811
11.81062	46087
11.81873	45384
11.82685	44707
11.83498	43244
11.84310	44776
11.85123	43898
11.85935	42661
11.86747	44791
11.87560	40963
11.88372	38835
11.89183	44051
11.89997	41236
11.90808	46042
11.91622	51457
11.92433	60294
11.93245	59963
11.94058	66813
11.94870	65072
11.95683	58459
11.96495	55446
11.97307	53865
11.98120	55650
11.98932	59231
11.99745	65448
12.00557	66449
12.01368	58179
12.02182	52063
12.02993	45552
12.03805	42558
12.04618	38266
12.05430	35488
12.06243	38630
12.07055	37740
12.07867	34991
12.08680	37675
12.09492	38096
12.10305	35255
12.11117	37624
12.11928	37296
12.12742	38355
12.13553	40279
12.14365	40569
12.15178	36169
12.15990	38464
12.16803	36778
12.17615	33285
12.18427	35450
12.19240	34997
12.20052	34977
12.20865	35105
12.21677	35118
12.22488	32925
12.23302	31766
12.24113	33680
12.24927	32011
12.25738	33839
12.26550	32988
12.27363	35503
12.28175	35190
12.28987	35410
12.29800	32053
12.30612	31127
12.31425	28686
12.32237	27524
12.33048	29251
12.33862	30992
12.34673	30025
12.35487	28824
12.36298	36451
12.37110	34325
12.37923	40468
12.38735	56580
12.39547	78748
12.40360	101639
12.41172	107739
12.41985	98620
12.42797	88365
12.43608	63820
12.44422	58671
12.45233	52255
12.46047	49642
12.46858	45927
12.47670	46610
12.48483	39016
12.49295	38776
12.50108	36806
12.50920	41863
12.51732	64401
12.52545	110165
12.53357	169608
12.54168	237502
12.54982	269324
12.55793	252280
12.56607	193185
12.57418	128181
12.58230	85584
12.59043	63260
12.59855	51374
12.60668	48592
12.61480	45252
12.62292	44186
12.63105	42193
12.63917	36337
12.64730	34306
12.65542	34078
12.66353	34314
12.67167	38079
12.67978	30088
12.68790	33410
12.69603	32546
12.70415	36210
12.71228	37349
12.72040	40879
12.72852	40248
12.73665	42202
12.74477	41853
12.75290	38337
12.76102	37644
12.76913	36458
12.77727	38338
12.78538	42515
12.79350	39110
12.80163	42008
12.80975	40932
12.81788	42891
12.82600	37270
12.83412	37963
12.84225	33684
12.85037	34695
12.85850	35435
12.86662	30837
12.87473	32947
12.88287	31389
12.89098	28524
12.89912	31558
12.90723	28884
12.91535	30452
12.92348	30281
12.93160	38283
12.93972	47877
12.94785	58063
12.95597	77634
12.96410	95234
12.97222	107810
12.98033	103247
12.98847	93929
12.99658	84690
13.00472	73381
13.01283	74011
13.02095	68895
13.02908	63486
13.03720	57519
13.04533	52130
13.05345	46147
13.06157	43084
13.06970	45186
13.07782	37832
13.08593	40950
13.09407	39454
13.10218	36708
13.11032	33827
13.11843	37553
13.12655	37990
13.13468	35828
13.14280	38796
13.15093	35692
13.15905	34034
13.16717	38119
13.17530	33836
13.18342	36353
13.19153	34468
13.19967	34615
13.20778	36216
13.21592	35404
13.22403	36703
13.23215	37585
13.24028	38850
13.24840	42370
13.25653	46299
13.26465	47427
13.27277	47250
13.28090	48290
13.28902	47839
13.29715	46085
13.30527	49041
13.31338	52760
13.32152	52735
13.32963	52806
13.33775	46963
13.34588	44378
13.35400	44260
13.36213	42366
13.37025	39994
13.37837	41403
13.38650	37926
13.39462	36018
13.40275	35099
13.41087	32322
13.41898	32644
13.42712	32576
13.43523	33952
13.44335	33873
13.45148	33790
13.45960	30647
13.46773	29199
13.47585	27968
13.48397	30008
13.49210	30664
13.50022	28945
13.50835	30320
13.51647	33436
13.52458	28202
13.53272	35418
13.54083	38956
13.54897	42570
13.55708	42243
13.56520	46478
13.57333	49402
13.58145	53237
13.58957	50663
13.59770	55820
13.60582	64850
13.61395	63860
13.62207	65045
13.63018	59196
13.63832	57842
13.64643	57044
13.65457	53532
13.66268	48639
13.67080	47780
13.67893	43679
13.68705	41745
13.69518	42426
13.70330	38884
13.71142	38171
13.71955	38139
13.72767	42016
13.73578	49497
13.74392	62310
13.75203	73465
13.76017	91465
13.76828	112321
13.77640	121601
13.78453	116989
13.79265	118587
13.80078	98615
13.80890	92878
13.81702	104431
13.82515	111895
13.83327	113678
13.84138	106966
13.84952	87381
13.85763	83883
13.86577	64451
13.87388	57280
13.88200	55196
13.89013	49657
13.89825	51132
13.90638	53291
13.91450	53657
13.92262	52964
13.93075	44396
13.93887	49793
13.94700	50392
13.95512	45180
13.96323	48945
13.97137	48923
13.97948	48138
13.98760	48332
13.99573	50664
14.00385	51292
14.01198	47130
14.02010	50744
14.02822	46263
14.03635	44089
14.04447	44832
14.05260	40156
14.06072	40254
14.06883	36891
14.07697	37909
14.08508	34793
14.09322	39530
14.10133	38124
14.10945	50461
14.11758	70233
14.12570	101954
14.13382	135848
14.14195	161518
14.15007	172260
14.15820	165887
14.16632	149549
14.17443	140365
14.18257	131191
14.19068	115665
14.19882	114986
14.20693	97759
14.21505	93253
14.22318	94066
14.23130	91217
14.23942	86018
14.24755	87681
14.25567	83061
14.26380	74976
14.27192	71158
14.28003	66824
14.28817	57051
14.29628	53104
14.30442	44111
14.31253	42185
14.32065	37328
14.32878	38740
14.33690	37498
14.34503	38534
14.35315	35803
14.36127	38419
14.36940	33711
14.37752	34527
14.38563	35845
14.39377	39438
14.40188	40966
14.41002	42886
14.41813	42352
14.42625	43123
14.43438	40302
14.44250	37997
14.45063	36100
14.45875	34433
14.46687	33808
14.47500	30970
14.48312	31567
14.49123	32215
14.49937	32549
14.50748	31368
14.51562	31722
14.52373	30191
14.53185	31551
14.53998	31907
14.54810	32833
14.55623	32119
14.56435	32935
14.57247	29631
14.58060	26749
14.58872	29604
14.59685	29809
14.60497	26875
14.61308	25821
14.62122	26237
14.62933	32113
14.63745	26467
14.64558	24003
14.65370	27328
14.66183	24772
14.66995	24277
14.67807	25774
14.68620	29771
14.69432	27279
14.70245	29294
14.71057	27525
14.71868	29984
14.72682	31971
14.73493	31383
14.74307	29750
14.75118	30793
14.75930	32390
14.76743	36546
14.77555	54089
14.78367	113085
14.79180	245643
14.79992	504491
14.80805	880730
14.81617	1229792
14.82428	1295153
14.83242	1150195
14.84053	825585
14.84867	522943
14.85678	331766
14.86490	225300
14.87303	163721
14.88115	126839
14.88928	108331
14.89740	95502
14.90552	86138
14.91365	85597
14.92177	75936
14.92988	72781
14.93802	67160
14.94613	67781
14.95427	63922
14.96238	56076
14.97050	58314
14.97863	55946
14.98675	51640
14.99488	49553
15.00300	47875
15.01112	44998
15.01925	44841
15.02737	48478
15.03548	46358
15.04362	43683
15.05173	43657
15.05987	41433
15.06798	44166
15.07610	40206
15.08423	39677
15.09235	40303
15.10048	37964
15.10860	41738
15.11672	42387
15.12485	44689
15.13297	48145
15.14110	51337
15.14922	43804
15.15733	40370
15.16547	37926
15.17358	36374
15.18170	31682
15.18983	31413
15.19795	33179
15.20608	30906
15.21420	29067
15.22232	30449
15.23045	33000
15.23857	29609
15.24670	31863
15.25482	30059
15.26293	31569
15.27107	26086
15.27918	25116
15.28730	25817
15.29543	24856
15.30355	27187
15.31168	26036
15.31980	24811
15.32792	27555
15.33605	23853
15.34417	25334
15.35230	32264
15.36042	26902
15.36853	26502
15.37667	27646
15.38478	26910
15.39292	27070
15.40103	26620
15.40915	25419
15.41728	28841
15.42540	27230
15.43352	23391
15.44165	26097
15.44977	26219
15.45790	29601
15.46602	33095
15.47413	36065
15.48227	46441
15.49038	50386
15.49852	51388
15.50663	54636
15.51475	48817
15.52288	45126
15.53100	39774
15.53913	34983
15.54725	33113
15.55537	29362
15.56350	30430
15.57162	28554
15.57973	30344
15.58787	25857
15.59598	27187
15.60412	30009
15.61223	28339
15.62035	29018
15.62848	28182
15.63660	26154
15.64473	24219
15.65285	23473
15.66097	26006
15.66910	24701
15.67722	24845
15.68533	23028
15.69347	24643
15.70158	23729
15.70972	24982
15.71783	26602
15.72595	30443
15.73408	33946
15.74220	47099
15.75033	75238
15.75845	90414
15.76657	108544
15.77470	127534
15.78282	128457
15.79095	103121
15.79907	83538
15.80718	66131
15.81532	49358
15.82343	42954
15.83155	39871
15.83968	34037
15.84780	37889
15.85593	33755
15.86405	32862
15.87217	35309
15.88030	34406
15.88842	34457
15.89655	33545
15.90467	35269
15.91278	32707
15.92092	31747
15.92903	35937
15.93717	31604
15.94528	34545
15.95340	33307
15.96153	38625
15.96965	40113
15.97777	36023
15.98590	40651
15.99402	43240
16.00215	48842
16.01027	55916
16.01838	57348
16.02652	51814
16.03463	46463
16.04277	41279
16.05088	38788
16.05900	38353
16.06713	31950
16.07525	32092
16.08337	29651
16.09150	30333
16.09962	31409
16.10775	28144
16.11587	28917
16.12398	29693
16.13212	31149
16.14023	28575
16.14837	28660
16.15648	33314
16.16460	31448
16.17273	33222
16.18085	26122
16.18898	27533
16.19710	29128
16.20522	28009
16.21335	27770
16.22147	25952
16.22958	29075
16.23772	27775
16.24583	27175
16.25397	28316
16.26208	26616
16.27020	29236
16.27833	31021
16.28645	29888
16.29458	31591
16.30270	33692
16.31082	30730
16.31895	31077
16.32707	30489
16.33518	32749
16.34332	35855
16.35143	33813
16.35957	39058
16.36768	35036
16.37580	33731
16.38393	34721
16.39205	31820
16.40018	33678
16.40830	29710
16.41642	29155
16.42455	38313
16.43267	41042
16.44080	64201
16.44892	106382
16.45703	166377
16.46517	218979
16.47328	246681
16.48140	230670
16.48953	177138
16.49765	124420
16.50578	85779
16.51390	60671
16.52202	50100
16.53015	45650
16.53827	41730
16.54640	40350
16.55452	41503
16.56263	39507
16.57077	37981
16.57888	35446
16.58702	34578
16.59513	36915
16.60325	43085
16.61138	33301
16.61950	40305
16.62762	35371
16.63575	33078
16.64387	32276
16.65200	31202
16.66012	36154
16.66823	32106
16.67637	29138
16.68448	29972
16.69262	30516
16.70073	29413
16.70885	29196
16.71698	30243
16.72510	31755
16.73322	32941
16.74135	36981
16.74947	38324
16.75760	34916
16.76572	34067
16.77383	31116
16.78197	31228
16.79008	33134
16.79822	31403
16.80633	28901
16.81445	27349
16.82258	25787
16.83070	28792
16.83883	31147
16.84695	29404
16.85507	30928
16.86320	28730
16.87132	28034
16.87943	27017
16.88757	26980
16.89568	30603
16.90382	28498
16.91193	27421
16.92005	28046
16.92818	27981
16.93630	28316
16.94443	28339
16.95255	26354
16.96067	29177
16.96880	26615
16.97692	28973
16.98505	27048
16.99317	26853
17.00128	26928
17.00942	27677
17.01753	25477
17.02565	27235
17.03378	28580
17.04190	29691
17.05003	30225
17.05815	33180
17.06627	30912
17.07440	29046
17.08252	29318
17.09065	28754
17.09877	29032
17.10688	33156
17.11502	33058
17.12313	31634
17.13125	30513
17.13938	30018
17.14750	27181
17.15563	28553
17.16375	28568
17.17187	29741
17.18000	31709
17.18812	26774
17.19625	27115
17.20437	26982
17.21248	27562
17.22062	28735
17.22873	29938
17.23687	25937
17.24498	28807
17.25310	26054
17.26123	27005
17.26935	27210
17.27747	28164
17.28560	31412
17.29372	27427
17.30185	28873
17.30997	31569
17.31808	37804
17.32622	32565
17.33433	38183
17.34247	43597
17.35058	41136
17.35870	40548
17.36683	48033
17.37495	44651
17.38308	42097
17.39120	46151
17.39932	47629
17.40745	47034
17.41557	44961
17.42368	42712
17.43182	36052
17.43993	40467
17.44807	39150
17.45618	37231
17.46430	37914
17.47243	37357
17.48055	36089
17.48868	36422
17.49680	35713
17.50492	38769
17.51305	45384
17.52117	50031
17.52928	51504
17.53742	57501
17.54553	65441
17.55367	70555
17.56178	86470
17.56990	115792
17.57803	138429
17.58615	159877
17.59428	169964
17.60240	155991
17.61052	134343
17.61865	105655
17.62677	81387
17.63490	63343
17.64302	57738
17.65113	57950
17.65927	49422
17.66738	49059
17.67550	56478
17.68363	52356
17.69175	52540
17.69988	53965
17.70800	47464
17.71612	48625
17.72425	44845
17.73237	42441
17.74050	37959
17.74862	42299
17.75673	39819
17.76487	39729
17.77298	38312
17.78110	35037
17.78923	35843
17.79735	37450
17.80548	37150
17.81360	38933
17.82172	41558
17.82985	38821
17.83797	45421
17.84610	48384
17.85422	49762
17.86233	51583
17.87047	43152
17.87858	43876
17.88672	35182
17.89483	35942
17.90295	34077
17.91108	31876
17.91920	33133
17.92732	32021
17.93545	30629
17.94357	31521
17.95170	30179
17.95982	31795
17.96793	29648
17.97607	32201
17.98418	33360
17.99232	34044
18.00043	39356
18.00855	44939
18.01668	51191
18.02480	57324
18.03293	54771
18.04105	55921
18.04917	47346
18.05730	44799
18.06542	44087
18.07353	42848
18.08167	38104
18.08978	39189
18.09792	42247
18.10603	41833
18.11415	42922
18.12228	42647
18.13040	43162
18.13853	43275
18.14665	41800
18.15477	39054
18.16290	38361
18.17102	37902
18.17913	36482
18.18727	33845
18.19538	35858
18.20352	36784
18.21163	33490
18.21975	36141
18.22788	31861
18.23600	32522
18.24413	41026
18.25225	52919
18.26037	79678
18.26850	118469
18.27662	158967
18.28475	168241
18.29287	175757
18.30098	180304
18.30912	184491
18.31723	173652
18.32535	179100
18.33348	182209
18.34160	179432
18.34973	181607
18.35785	189401
18.36597	189984
18.37410	178591
18.38222	171614
18.39035	172658
18.39847	173775
18.40658	172924
18.41472	174588
18.42283	172123
18.43097	183260
18.43908	187782
18.44720	189207
18.45533	194013
18.46345	202646
18.47157	203782
18.47970	202605
18.48782	183679
18.49595	162805
18.50407	154168
18.51218	154508
18.52032	144747
18.52843	140891
18.53657	134084
18.54468	133992
18.55280	131189
18.56093	127730
18.56905	129575
18.57717	129577
18.58530	127452
18.59342	129286
18.60155	128004
18.60967	129821
18.61778	124671
18.62592	124739
18.63403	119809
18.64217	119606
18.65028	116811
18.65840	113311
18.66653	109912
18.67465	109000
18.68278	105332
18.69090	103252
18.69902	98629
18.70715	99684
18.71527	99230
18.72338	94607
18.73152	93473
18.73963	94460
18.74777	92987
18.75588	94406
18.76400	90522
18.77213	90378
18.78025	87982
18.78838	90606
18.79650	88417
18.80462	82279
18.81275	81192
18.82087	83640
18.82898	84468
18.83712	81373
18.84523	83683
18.85337	76614
18.86148	78419
18.86960	78808
18.87773	80168
18.88585	80912
18.89398	88138
18.90210	81616
18.91022	83971
18.91835	86995
18.92647	91036
18.93460	90794
18.94272	91607
18.95083	96346
18.95897	89202
18.96708	82331
18.97520	77894
18.98333	77239
18.99145	75459
18.99958	73141
19.00770	69200
19.01582	70120
19.02395	67572
19.03207	69363
19.04020	66692
19.04832	64867
19.05643	71860
19.06457	86111
19.07268	101493
19.08082	110719
19.08893	129827
19.09705	134963
19.10518	125672
19.11330	114924
19.12142	98756
19.12955	91597
19.13767	85599
19.14580	88075
19.15392	86414
19.16203	82114
19.17017	78161
19.17828	76377
19.18642	73883
19.19453	67378
19.20265	63729
19.21078	59886
19.21890	63749
19.22702	58717
19.23515	54995
19.24327	56103
19.25140	58385
19.25952	60123
19.26763	55634
19.27577	63916
19.28388	61996
19.29202	63089
19.30013	62217
19.30825	61101
19.31638	60391
19.32450	57355
19.33263	54183
19.34075	59288
19.34887	62951
19.35700	72382
19.36512	74156
19.37323	75227
19.38137	67378
19.38948	67459
19.39762	66580
19.40573	78637
19.41385	97689
19.42198	125408
19.43010	151497
19.43823	168001
19.44635	160741
19.45447	138475
19.46260	107584
19.47072	86304
19.47885	74016
19.48697	61901
19.49508	63163
19.50322	58327
19.51133	57275
19.51945	57578
19.52758	56255
19.53570	57884
19.54383	57040
19.55195	53101
19.56007	49039
19.56820	48363
19.57632	48529
19.58445	45543
19.59257	44683
19.60068	52582
19.60882	51832
19.61693	68997
19.62505	93911
19.63318	125483
19.64130	168453
19.64943	194245
19.65755	205713
19.66567	196539
19.67380	174521
19.68192	151269
19.69005	132055
19.69817	104118
19.70628	95627
19.71442	82389
19.72253	74954
19.73067	68857
19.73878	61909
19.74690	59719
19.75503	58980
19.76315	56639
19.77127	59644
19.77940	64242
19.78752	64861
19.79565	60224
19.80377	59775
19.81188	57900
19.82002	49421
19.82813	45589
19.83627	47494
19.84438	48910
19.85250	49859
19.86063	52573
19.86875	50908
19.87687	56394
19.88500	63248
19.89312	63030
19.90125	66982
19.90937	67394
19.91748	67868
19.92562	64791
19.93373	64665
19.94187	62011
19.94998	63013
19.95810	60587
19.96623	55400
19.97435	53467
19.98248	59011
19.99060	57020
19.99872	56565
20.00685	57835
20.01497	56773
20.02308	51064
20.03122	50063
20.03933	49180
20.04747	54292
20.05558	52422
20.06370	55608
20.07183	58772
20.07995	62598
20.08808	56449
20.09620	54356
20.10432	48503
20.11245	51351
20.12057	45905
20.12870	46123
20.13682	49031
20.14493	47794
20.15307	53797
20.16118	59559
20.16930	62470
20.17743	70638
20.18555	75794
20.19368	77215
20.20180	81157
20.20992	77619
20.21805	86685
20.22617	110890
20.23430	142581
20.24242	172917
20.25053	193221
20.25867	191760
20.26678	190800
20.27492	167506
20.28303	136962
20.29115	117270
20.29928	96391
20.30740	78261
20.31552	71354
20.32365	58729
20.33177	58433
20.33990	51546
20.34802	50002
20.35613	47663
20.36427	42690
20.37238	47050
20.38052	52064
20.38863	57674
20.39675	62890
20.40488	73818
20.41300	71314
20.42112	71433
20.42925	72931
20.43737	66235
20.44550	58873
20.45362	50257
20.46173	47634
20.46987	45885
20.47798	44743
20.48612	45514
20.49423	41728
20.50235	43691
20.51048	39046
20.51860	40408
20.52673	36410
20.53485	38460
20.54297	39583
20.55110	36893
20.55922	33283
20.56733	34057
20.57547	34664
20.58358	30844
20.59172	33952
20.59983	36407
20.60795	32579
20.61608	33904
20.62420	33892
20.63233	32289
20.64045	35679
20.64857	32549
20.65670	35984
20.66482	34037
20.67293	32427
20.68107	28242
20.68918	32534
20.69732	31196
20.70543	30746
20.71355	33239
20.72168	36676
20.72980	35217
20.73793	34808
20.74605	34474
20.75417	36606
20.76230	37390
20.77042	42083
20.77855	50497
20.78667	60782
20.79478	72698
20.80292	85208
20.81103	84274
20.81915	77316
20.82728	66280
20.83540	54888
20.84353	47596
20.85165	39308
20.85977	37614
20.86790	38119
20.87602	29660
20.88415	40351
20.89227	33986
20.90038	37587
20.90852	33788
20.91663	36389
20.92477	36038
20.93288	33265
20.94100	32611
20.94913	31596
20.95725	31875
20.96537	32305
20.97350	34041
20.98162	30559
20.98975	30303
20.99787	31088
21.00598	33372
21.01412	33699
21.02223	32286
21.03037	35875
21.03848	36275
21.04660	40690
21.05473	30610
21.06285	33531
21.07097	34494
21.07910	34257
21.08722	33515
21.09535	35304
21.10347	32472
21.11158	36102
21.11972	35676
21.12783	41448
21.13597	47497
21.14408	57294
21.15220	54025
21.16033	52866
21.16845	52169
21.17658	41356
21.18470	42913
21.19282	36038
21.20095	35683
21.20907	33388
21.21718	33181
21.22532	32961
21.23343	36406
21.24157	34841
21.24968	37615
21.25780	37868
21.26593	36771
21.27405	39756
21.28218	38786
21.29030	34205
21.29842	31049
21.30655	34650
21.31467	35190
21.32280	33899
21.33092	34881
21.33903	32264
21.34717	33498
21.35528	30583
21.36340	31051
21.37153	33369
21.37965	33050
21.38778	33645
21.39590	33497
21.40402	35878
21.41215	35972
21.42027	33063
21.42840	32257
21.43652	31012
21.44463	35856
21.45277	34540
21.46088	33363
21.46900	36313
21.47713	36156
21.48525	36197
21.49338	37304
21.50150	39190
21.50962	41545
21.51775	41547
21.52587	43369
21.53400	40806
21.54212	44273
21.55023	48511
21.55837	54665
21.56648	69358
21.57462	91858
21.58273	95258
21.59085	109221
21.59898	101711
21.60710	98829
21.61522	83433
21.62335	77096
21.63147	64560
21.63960	60297
21.64772	55650
21.65583	59488
21.66397	57912
21.67208	55177
21.68022	53927
21.68833	55795
21.69645	53398
21.70458	51588
21.71270	49577
21.72082	53094
21.72895	53118
21.73707	51762
21.74520	59739
21.75332	65541
21.76143	81185
21.76957	84223
21.77768	94624
21.78582	99418
21.79393	93692
21.80205	89516
21.81018	70250
21.81830	62405
21.82643	53748
21.83455	52305
21.84267	47173
21.85080	42317
21.85892	41848
21.86703	45355
21.87517	39038
21.88328	39716
21.89142	40623
21.89953	39346
21.90765	35300
21.91578	35447
21.92390	34283
21.93203	34104
21.94015	32864
21.94827	32696
21.95640	29852
21.96452	32751
21.97265	31124
21.98077	35533
21.98888	30318
21.99702	35632
22.00513	32250
22.01325	31882
22.02138	33385
22.02950	33732
22.03763	37063
22.04575	34894
22.05387	36955
22.06200	37642
22.07012	35817
22.07825	36572
22.08637	33061
22.09448	34309
22.10262	34967
22.11073	36187
22.11885	33197
22.12698	35998
22.13510	33115
22.14323	34773
22.15135	46874
22.15947	62653
22.16760	77819
22.17572	89149
22.18385	97862
22.19197	95478
22.20008	104783
22.20822	100016
22.21633	96631
22.22447	96337
22.23258	98504
22.24070	93231
22.24883	92764
22.25695	98769
22.26507	92599
22.27320	97697
22.28132	92694
22.28945	93639
22.29757	98982
22.30568	97372
22.31382	93545
22.32193	94862
22.33007	96892
22.33818	93153
22.34630	86135
22.35443	87403
22.36255	86069
22.37068	78222
22.37880	81131
22.38692	89238
22.39505	94751
22.40317	93586
22.41128	100859
22.41942	94789
22.42753	85588
22.43567	79386
22.44378	78925
22.45190	72424
22.46003	70373
22.46815	67398
22.47628	73577
22.48440	74304
22.49252	75833
22.50065	71268
22.50877	77017
22.51688	67562
22.52502	70816
22.53313	63356
22.54127	59242
22.54938	57095
22.55750	59819
22.56563	51741
22.57375	50181
22.58188	49911
22.59000	47028
22.59812	48379
22.60625	44818
22.61437	45961
22.62250	46526
22.63062	44773
22.63873	47266
22.64687	47109
22.65498	43717
22.66310	44291
22.67123	45692
22.67935	43108
22.68748	42187
22.69560	44497
22.70372	46554
22.71185	43261
22.71997	44798
22.72810	43482
22.73622	41640
22.74433	41785
22.75247	39171
22.76058	43932
22.76872	38942
22.77683	43818
22.78495	42665
22.79308	41077
22.80120	43933
22.80932	43217
22.81745	42313
22.82557	43415
22.83370	43364
22.84182	41070
22.84993	41193
22.85807	44055
22.86618	49509
22.87432	49244
22.88243	55433
22.89055	61721
22.89868	72253
22.90680	76450
22.91492	91120
22.92305	102254
22.93117	88853
22.93930	83463
22.94742	81782
22.95553	71574
22.96367	73162
22.97178	60944
22.97992	58982
22.98803	57382
22.99615	55447
23.00428	47739
23.01240	45388
23.02053	45421
23.02865	40624
23.03677	41623
23.04490	42018
23.05302	38050
23.06113	39898
23.06927	39250
23.07738	43509
23.08552	37306
23.09363	38956
23.10175	38372
23.10988	38508
23.11800	39791
23.12613	36690
23.13425	36351
23.14237	36957
23.15050	35849
23.15862	33888
23.16673	33412
23.17487	31889
23.18298	35865
23.19112	33185
23.19923	34396
23.20735	33606
23.21548	38153
23.22360	36833
23.23173	34997
23.23985	36565
23.24797	35435
23.25610	35129
23.26422	40313
23.27235	35540
23.28047	35559
23.28858	35336
23.29672	31195
23.30483	31608
23.31295	34572
23.32108	33381
23.32920	42486
23.33733	49866
23.34545	50022
23.35357	56264
23.36170	57898
23.36982	53255
23.37795	50664
23.38607	49116
23.39418	42122
23.40232	38320
23.41043	39286
23.41857	36105
23.42668	38007
23.43480	35225
23.44293	34984
23.45105	33703
23.45917	32212
23.46730	30882
23.47542	32634
23.48355	29771
23.49167	33108
23.49978	32309
23.50792	31290
23.51603	32232
23.52417	33674
23.53228	32983
23.54040	32653
23.54853	37094
23.55665	43857
23.56477	50447
23.57290	58550
23.58102	71394
23.58915	83475
23.59727	88601
23.60538	89113
23.61352	73691
23.62163	66237
23.62977	60047
23.63788	55877
23.64600	60423
23.65413	66104
23.66225	66698
23.67038	57237
23.67850	50843
23.68662	49631
23.69475	45495
23.70287	42380
23.71098	41137
23.71912	49967
23.72723	77478
23.73537	162171
23.74348	365831
23.75160	758676
23.75973	1372029
23.76785	1862768
23.77598	2134315
23.78410	2142005
23.79222	1889319
23.80035	1501294
23.80847	1135413
23.81660	891802
23.82472	666021
23.83283	513718
23.84097	426886
23.84908	357684
23.85720	303442
23.86533	259614
23.87345	231741
23.88158	212692
23.88970	193152
23.89782	181006
23.90595	177018
23.91407	164513
23.92220	175675
23.93032	185060
23.93843	196720
23.94657	196042
23.95468	207242
23.96280	193510
23.97093	190990
23.97905	185953
23.98718	192741
23.99530	193620
24.00342	197017
24.01155	212916
24.01967	223863
24.02780	219241
24.03592	231904
24.04403	208109
24.05217	194734
24.06028	187468
24.06842	175865
24.07653	172439
24.08465	157050
24.09278	151322
24.10090	144690
24.10902	151418
24.11715	143630
24.12527	145863
24.13340	150800
24.14152	158432
24.14963	152311
24.15777	146480
24.16588	141260
24.17402	134859
24.18213	132892
24.19025	130869
24.19838	120516
24.20650	119774
24.21462	110441
24.22275	104879
24.23087	96196
24.23900	100429
24.24712	99810
24.25523	95519
24.26337	98958
24.27148	93400
24.27962	97421
24.28773	107378
24.29585	121760
24.30398	138230
24.31210	162034
24.32023	164292
24.32835	152596
24.33647	137913
24.34460	114015
24.35272	94990
24.36083	91071
24.36897	80962
24.37708	84651
24.38522	83915
24.39333	78388
24.40145	80735
24.40958	87544
24.41770	94488
24.42583	100586
24.43395	104857
24.44207	106719
24.45020	99690
24.45832	87498
24.46645	81232
24.47457	77760
24.48268	74809
24.49082	74197
24.49893	66132
24.50705	69054
24.51518	72299
24.52330	71769
24.53143	72799
24.53955	71484
24.54767	71119
24.55580	68855
24.56392	66517
24.57205	68129
24.58017	64927
24.58828	59140
24.59642	56915
24.60453	59284
24.61267	57510
24.62078	57575
24.62890	53990
24.63703	54993
24.64515	55616
24.65327	53677
24.66140	54555
24.66952	50968
24.67765	52902
24.68577	52607
24.69388	47453
24.70202	48386
24.71013	47632
24.71827	45070
24.72638	49212
24.73450	43531
24.74263	44653
24.75075	40825
24.75887	48803
24.76700	49409
24.77512	51070
24.78325	48285
24.79137	52107
24.79948	49468
24.80762	49370
24.81573	52417
24.82387	53541
24.83198	58986
24.84010	65452
24.84823	77683
24.85635	97369
24.86448	117844
24.87260	133311
24.88072	143699
24.88885	138646
24.89697	115093
24.90508	94379
24.91322	71050
24.92133	60662
24.92947	52832
24.93758	48206
24.94570	43803
24.95383	40023
24.96195	40985
24.97008	42181
24.97820	38838
24.98632	39395
24.99445	42328
25.00257	37584
25.01068	38393
25.01882	43172
25.02693	37220
25.03507	38227
25.04318	37758
25.05130	38783
25.05943	38371
25.06755	41915
25.07568	42873
25.08380	55156
25.09192	74164
25.10005	124374
25.10817	214306
25.11630	351470
25.12442	510529
25.13253	606247
25.14067	613526
25.14878	534103
25.15690	409104
25.16503	297249
25.17315	239085
25.18128	187402
25.18940	172388
25.19752	158524
25.20565	145200
25.21377	144821
25.22190	152909
25.23002	149519
25.23813	154524
25.24627	160265
25.25438	164843
25.26252	154578
25.27063	158052
25.27875	145848
25.28688	136514
25.29500	135284
25.30312	134141
25.31125	131958
25.31937	122201
25.32750	113973
25.33562	119110
25.34373	109328
25.35187	110873
25.35998	107585
25.36812	102195
25.37623	101641
25.38435	100907
25.39248	95624
25.40060	103175
25.40872	93952
25.41685	91784
25.42497	84385
25.43310	83543
25.44122	80470
25.44933	78949
25.45747	77554
25.46558	82845
25.47372	77632
25.48183	78139
25.48995	74437
25.49808	73896
25.50620	74896
25.51433	72686
25.52245	68851
25.53057	67337
25.53870	65125
25.54682	63750
25.55493	67261
25.56307	59189
25.57118	58682
25.57932	61581
25.58743	56852
25.59555	56390
25.60368	57249
25.61180	55818
25.61993	54775
25.62805	57669
25.63617	50911
25.64430	52930
25.65242	54365
25.66055	50606
25.66867	47931
25.67678	49395
25.68492	48226
25.69303	49016
25.70115	44850
25.70928	45058
25.71740	45993
25.72553	49462
25.73365	44684
25.74177	45351
25.74990	43988
25.75802	42986
25.76615	43380
25.77427	46117
25.78238	43236
25.79052	46515
25.79863	42916
25.80675	46890
25.81488	43906
25.82300	41664
25.83113	42163
25.83925	43572
25.84737	42629
25.85550	40226
25.86362	44858
25.87175	37569
25.87987	39506
25.88798	38364
25.89612	37919
25.90423	37298
25.91237	35778
25.92048	34005
25.92860	38233
25.93673	37083
25.94485	38744
25.95297	35076
25.96110	36370
25.96922	39858
25.97735	35356
25.98547	41073
25.99358	34558
26.00172	36051
26.00983	34188
26.01797	38464
26.02608	34589
26.03420	36501
26.04233	41018
26.05045	40307
26.05857	37552
26.06670	35685
26.07482	40093
26.08295	34211
26.09107	41325
26.09918	39103
26.10732	39516
26.11543	41482
26.12357	39864
26.13168	44878
26.13980	49010
26.14793	46610
26.15605	48066
26.16418	48650
26.17230	50496
26.18042	50816
26.18855	50365
26.19667	47244
26.20478	41890
26.21292	40848
26.22103	40421
26.22917	39883
26.23728	43161
26.24540	38792
26.25353	36408
26.26165	38742
26.26978	38359
26.27790	35579
26.28602	39900
26.29415	38718
26.30227	37311
26.31040	38123
26.31852	38538
26.32663	39599
26.33477	39479
26.34288	38721
26.35100	44679
26.35913	46550
26.36725	45314
26.37538	52038
26.38350	51168
26.39162	54677
26.39975	50234
26.40787	49204
26.41600	45922
26.42412	40296
26.43223	41928
26.44037	43218
26.44848	39944
26.45660	39209
26.46473	39404
26.47285	35373
26.48098	38255
26.48910	35391
26.49722	36621
26.50535	38055
26.51347	36726
26.52160	33332
26.52972	36182
26.53783	34204
26.54597	34697
26.55408	34379
26.56222	31980
26.57033	32103
26.57845	31940
26.58658	34565
26.59470	32861
26.60282	35838
26.61095	34159
26.61907	31130
26.62720	29637
26.63532	36288
26.64343	35982
26.65157	37405
26.65968	34930
26.66782	32987
26.67593	37281
26.68405	34952
26.69218	36418
26.70030	35939
26.70843	34797
26.71655	32187
26.72467	37633
26.73280	35528
26.74092	34943
26.74903	35724
26.75717	37630
26.76528	39171
26.77342	34164
26.78153	37019
26.78965	38105
26.79778	40918
26.80590	36120
26.81403	34867
26.82215	35734
26.83027	31567
26.83840	33140
26.84652	33109
26.85463	30382
26.86277	30759
26.87088	32354
26.87902	29510
26.88713	31205
26.89525	33786
26.90338	34486
26.91150	31114
26.91963	34003
26.92775	35618
26.93587	46052
26.94400	71096
26.95212	119818
26.96025	218902
26.96837	355710
26.97648	509025
26.98462	700414
26.99273	846657
27.00085	967204
27.00898	920023
27.01710	812292
27.02523	678826
27.03335	544436
27.04147	426307
27.04960	337543
27.05772	283258
27.06585	237938
27.07397	204710
27.08208	170456
27.09022	154438
27.09833	134992
27.10647	128702
27.11458	115548
27.12270	109230
27.13083	106373
27.13895	96694
27.14707	100803
27.15520	94029
27.16332	96363
27.17145	93660
27.17957	92011
27.18768	86617
27.19582	78933
27.20393	74874
27.21207	76835
27.22018	70575
27.22830	67072
27.23643	61710
27.24455	60982
27.25267	57711
27.26080	59009
27.26892	52950
27.27705	52956
27.28517	54869
27.29328	53301
27.30142	50607
27.30953	49758
27.31767	47311
27.32578	51908
27.33390	50497
27.34203	48035
27.35015	48019
27.35828	47103
27.36640	46145
27.37452	46299
27.38265	46896
27.39077	49674
27.39888	48298
27.40702	47873
27.41513	49948
27.42327	44577
27.43138	51545
27.43950	50605
27.44763	51916
27.45575	46934
27.46388	47059
27.47200	44879
27.48012	41992
27.48825	42640
27.49637	42465
27.50448	45740
27.51262	47149
27.52073	46610
27.52887	48288
27.53698	52012
27.54510	44675
27.55323	40714
27.56135	44423
27.56948	47482
27.57760	45424
27.58572	48895
27.59385	47917
27.60197	50483
27.61010	47137
27.61822	39378
27.62633	38730
27.63447	40572
27.64258	36739
27.65070	40654
27.65883	38724
27.66695	42309
27.67508	39598
27.68320	38428
27.69132	41660
27.69945	40425
27.70757	40382
27.71570	46413
27.72382	50046
27.73193	49075
27.74007	58117
27.74818	59283
27.75632	49378
27.76443	47759
27.77255	46048
27.78068	42576
27.78880	38885
27.79692	37916
27.80505	38216
27.81317	38551
27.82130	42054
27.82942	32871
27.83753	36319
27.84567	37072
27.85378	39415
27.86192	36116
27.87003	36533
27.87815	36688
27.88628	31434
27.89440	34726
27.90252	33295
27.91065	33127
27.91877	33973
27.92690	35132
27.93502	36437
27.94313	36169
27.95127	38170
27.95938	38405
27.96752	40361
27.97563	39709
27.98375	45128
27.99188	47931
28.00000	45648
28.00813	42545
28.01625	44440
28.02437	42375
28.03250	44358
28.04062	44431
28.04873	43806
28.05687	42218
28.06498	42011
28.07312	41406
28.08123	41507
28.08935	37821
28.09748	44908
28.10560	50796
28.11373	53247
28.12185	49255
28.12997	43375
28.13810	43625
28.14622	42624
28.15435	35334
28.16247	37002
28.17058	35195
28.17872	36946
28.18683	40805
28.19495	40510
28.20308	41742
28.21120	46208
28.21933	40727
28.22745	37736
28.23557	39609
28.24370	41411
28.25182	46770
28.25995	50347
28.26807	61802
28.27618	77197
28.28432	95928
28.29243	113028
28.30055	128506
28.30868	129742
28.31680	144899
28.32493	150990
28.33305	145859
28.34117	135622
28.34930	133115
28.35742	134045
28.36555	120871
28.37367	108091
28.38178	108788
28.38992	96489
28.39803	95480
28.40617	84066
28.41428	81634
28.42240	74310
28.43053	68407
28.43865	65475
28.44677	58325
28.45490	57340
28.46302	58533
28.47115	56779
28.47927	55787
28.48738	53253
28.49552	57339
28.50363	53989
28.51177	53410
28.51988	49108
28.52800	49587
28.53613	46164
28.54425	47928
28.55237	53402
28.56050	41764
28.56862	45420
28.57675	46187
28.58487	44216
28.59298	44527
28.60112	44873
28.60923	47868
28.61737	53009
28.62548	54931
28.63360	55795
28.64173	63321
28.64985	69886
28.65798	76022
28.66610	76990
28.67422	83442
28.68235	83047
28.69047	77521
28.69858	71754
28.70672	60408
28.71483	52267
28.72297	44730
28.73108	42432
28.73920	41881
28.74733	36890
28.75545	42213
28.76358	40921
28.77170	43603
28.77982	39660
28.78795	39441
28.79607	43062
28.80420	44853
28.81232	42268
28.82043	42638
28.82857	40537
28.83668	41296
28.84480	41582
28.85293	38431
28.86105	40001
28.86918	44255
28.87730	43433
28.88542	43560
28.89355	43184
28.90167	39585
28.90980	38180
28.91792	39731
28.92603	40180
28.93417	39490
28.94228	41873
28.95040	40918
28.95853	42956
28.96665	39248
28.97478	39079
28.98290	38807
28.99102	38170
28.99915	36691
29.00727	36568
29.01540	37413
29.02352	37215
29.03163	40161
29.03977	41523
29.04788	38634
29.05602	38540
29.06413	41095
29.07225	38683
29.08038	37187
29.08850	35715
29.09662	35866
29.10475	36375
29.11287	33260
29.12100	34470
29.12912	35802
29.13723	31976
29.14537	36922
29.15348	38774
29.16162	37441
29.16973	42233
29.17785	45833
29.18598	45179
29.19410	48186
29.20223	44858
29.21035	47999
29.21847	52166
29.22660	44722
29.23472	46451
29.24283	41271
29.25097	43183
29.25908	46048
29.26722	39471
29.27533	39449
29.28345	35231
29.29158	36406
29.29970	37307
29.30783	35680
29.31595	34300
29.32407	37844
29.33220	33240
29.34032	32673
29.34843	32926
29.35657	30681
29.36468	37490
29.37282	36877
29.38093	36881
29.38905	35433
29.39718	38164
29.40530	41560
29.41343	39831
29.42155	38759
29.42967	40798
29.43780	39825
29.44592	37731
29.45405	34518
29.46217	37317
29.47028	37528
29.47842	42201
29.48653	44285
29.49465	46378
29.50278	45143
29.51090	42407
29.51903	43848
29.52715	40970
29.53527	38988
29.54340	37352
29.55152	36250
29.55965	35168
29.56777	37084
29.57588	42650
29.58402	42256
29.59213	41092
29.60025	42454
29.60838	40810
29.61650	40054
29.62463	37531
29.63275	36426
29.64087	34678
29.64900	38665
29.65712	33634
29.66525	36133
29.67337	33807
29.68148	33127
29.68962	34943
29.69773	33619
29.70587	32447
29.71398	32325
29.72210	31515
29.73023	34026
29.73835	33017
29.74647	31889
29.75460	30589
29.76272	33822
29.77085	33847
29.77897	30458
29.78708	32081
29.79522	31949
29.80333	28061
29.81147	27946
29.81958	29771
29.82770	31075
29.83583	28096
29.84395	29285
29.85208	37901
29.86020	39296
29.86832	52812
29.87645	63814
29.88457	68147
29.89268	73393
29.90082	78969
29.90893	84101
29.91707	80119
29.92518	87463
29.93330	83991
29.94143	87628
29.94955	85521
29.95768	88638
29.96580	91042
29.97392	85079
29.98205	84339
29.99017	83556
29.99830	79893
30.00642	76562
30.01453	71051
30.02267	65786
30.03078	67899
30.03890	67400
30.04703	65225
30.05515	58785
30.06328	57925
30.07140	59897
30.07952	61392
30.08765	55855
30.09577	53404
30.10390	52809
30.11202	52161
30.12013	47325
30.12827	46124
30.13638	51439
30.14450	45440
30.15263	47923
30.16075	42828
30.16888	46752
30.17700	42706
30.18512	48070
30.19325	42090
30.20137	44256
30.20950	41843
30.21762	45392
30.22573	42918
30.23387	43561
30.24198	42583
30.25012	43594
30.25823	50627
30.26635	52178
30.27448	48381
30.28260	51932
30.29072	53053
30.29885	52274
30.30697	50177
30.31510	48321
30.32322	53554
30.33133	52343
30.33947	52699
30.34758	51231
30.35572	52452
30.36383	47288
30.37195	46111
30.38008	47608
30.38820	44831
30.39632	45704
30.40445	47366
30.41257	46099
30.42070	44466
30.42882	41304
30.43693	41634
30.44507	44282
30.45318	41542
30.46132	46459
30.46943	41018
30.47755	43273
30.48568	44030
30.49380	37153
30.50193	41317
30.51005	39895
30.51817	37130
30.52630	41592
30.53442	42177
30.54253	40416
30.55067	38172
30.55878	40354
30.56692	41578
30.57503	40915
30.58315	37727
30.59128	39300
30.59940	35194
30.60753	38813
30.61565	38855
30.62377	38739
30.63190	37735
30.64002	39829
30.64815	36603
30.65627	41616
30.66438	36455
30.67252	35443
30.68063	37680
30.68875	36420
30.69688	37188
30.70500	33565
30.71313	36979
30.72125	39156
30.72937	36931
30.73750	41825
30.74562	39399
30.75375	43507
30.76187	46473
30.76998	53761
30.77812	63657
30.78623	77338
30.79435	89574
30.80248	87757
30.81060	70160
30.81873	63702
30.82685	55438
30.83497	45540
30.84310	39287
30.85122	37120
30.85935	35491
30.86747	38214
30.87558	34721
30.88372	35809
30.89183	39388
30.89997	34300
30.90808	37536
30.91620	34693
30.92433	34090
30.93245	36462
30.94057	33362
30.94870	35769
30.95682	32264
30.96495	34499
30.97307	34007
30.98118	33334
30.98932	35762
30.99743	34622
31.00557	35234
31.01368	34699
31.02180	34232
31.02993	34860
31.03805	35997
31.04618	35439
31.05430	36802
31.06242	40797
31.07055	44948
31.07867	52012
31.08678	55923
31.09492	52930
31.10303	53736
31.11117	48909
31.11928	46290
31.12740	44731
31.13553	41207
31.14365	37777
31.15178	41311
31.15990	41134
31.16802	36780
31.17615	39295
31.18427	42765
31.19238	38910
31.20052	42748
31.20863	42127
31.21677	37112
31.22488	37604
31.23300	37517
31.24113	37045
31.24925	35173
31.25738	39808
31.26550	34124
31.27362	38111
31.28175	35822
31.28987	35469
31.29800	36679
31.30612	36300
31.31423	39547
31.32237	36740
31.33048	37712
31.33860	37691
31.34673	35997
31.35485	36705
31.36298	37992
31.37110	36528
31.37922	34223
31.38735	35657
31.39547	36097
31.40360	33227
31.41172	34806
31.41983	33952
31.42797	29709
31.43608	32262
31.44420	32255
31.45233	32748
31.46045	33354
31.46858	35007
31.47670	33161
31.48482	31651
31.49295	35040
31.50107	34947
31.50920	34535
31.51732	33406
31.52543	33769
31.53357	33022
31.54168	35029
31.54982	33439
31.55793	32272
31.56605	37069
31.57418	33715
31.58230	32806
31.59042	33529
31.59855	35424
31.60667	33634
31.61480	33373
31.62292	34935
31.63103	33655
31.63917	35121
31.64728	33540
31.65542	37370
31.66353	40512
31.67165	41722
31.67978	42244
31.68790	43583
31.69603	42623
31.70415	40305
31.71227	38033
31.72040	37930
31.72852	35637
31.73663	32834
31.74477	34661
31.75288	32244
31.76102	36626
31.76913	38437
31.77725	40934
31.78538	43665
31.79350	43523
31.80163	44415
31.80975	39975
31.81787	43930
31.82600	51363
31.83412	56176
31.84223	59533
31.85037	66712
31.85848	69588
31.86662	72097
31.87473	81017
31.88285	80808
31.89098	83834
31.89910	74404
31.90723	79232
31.91535	75076
31.92347	72858
31.93160	62738
31.93972	64870
31.94785	63679
31.95597	60374
31.96408	67564
31.97222	67668
31.98033	68639
31.98845	63645
31.99658	58890
32.00470	56286
32.01283	56939
32.02095	50382
32.02907	51896
32.03720	51050
32.04532	52529
32.05345	47435
32.06157	49717
32.06968	49525
32.07782	44818
32.08593	42325
32.09407	47667
32.10218	41139
32.11030	41221
32.11843	36439
32.12655	39339
32.13467	36016
32.14280	38394
32.15092	40667
32.15905	38212
32.16717	37454
32.17528	38534
32.18342	40324
32.19153	36024
32.19967	35323
32.20778	37490
32.21590	36706
32.22403	37124
32.23215	39676
32.24027	39275
32.24840	34654
32.25652	39931
32.26465	37683
32.27277	37252
32.28088	36430
32.28902	37930
32.29713	34965
32.30527	36623
32.31338	38013
32.32150	38708
32.32963	37931
32.33775	41351
32.34588	40429
32.35400	39084
32.36212	40664
32.37025	39069
32.37837	37281
32.38648	34974
32.39462	35450
32.40273	37786
32.41087	36453
32.41898	35336
32.42710	33749
32.43523	34811
32.44335	33876
32.45148	40089
32.45960	32889
32.46772	31743
32.47585	34917
32.48397	34316
32.49210	33346
32.50022	34559
32.50833	35764
32.51647	36399
32.52458	35791
32.53270	38879
32.54083	42168
32.54895	44537
32.55708	54090
32.56520	54399
32.57332	65268
32.58145	57045
32.58957	51354
32.59770	47047
32.60582	38048
32.61393	38759
32.62207	34462
32.63018	35441
32.63830	34306
32.64643	36336
32.65455	40381
32.66268	36700
32.67080	36088
32.67892	41290
32.68705	39134
32.69517	42263
32.70330	45191
32.71142	43360
32.71953	43997
32.72767	41733
32.73578	38295
32.74392	40445
32.75203	34787
32.76015	34782
32.76828	33288
32.77640	34303
32.78452	38537
32.79265	35042
32.80077	33569
32.80890	33019
32.81702	40300
32.82513	34559
32.83327	32881
32.84138	34854
32.84952	36331
32.85763	34425
32.86575	34293
32.87388	37047
32.88200	35540
32.89012	38015
32.89825	37170
32.90637	35990
32.91450	35494
32.92262	36558
32.93073	39075
32.93887	35318
32.94698	34984
32.95512	37921
32.96323	37690
32.97135	39987
32.97948	48309
32.98760	44748
32.99573	42518
33.00385	43484
33.01197	42647
33.02010	39023
33.02822	42356
33.03633	37943
33.04447	39499
33.05258	44040
33.06072	41870
33.06883	45553
33.07695	47141
33.08508	53461
33.09320	55831
33.10133	63663
33.10945	63589
33.11757	65173
33.12570	55802
33.13382	51665
33.14195	47984
33.15007	44076
33.15818	44444
33.16632	38009
33.17443	37849
33.18255	39654
33.19068	36400
33.19880	40407
33.20693	35282
33.21505	35577
33.22317	37309
33.23130	35222
33.23942	36973
33.24755	34675
33.25567	36259
33.26378	35652
33.27192	39255
33.28003	39125
33.28815	36174
33.29628	35073
33.30440	36924
33.31253	35692
33.32065	37897
33.32877	35214
33.33690	36824
33.34502	38784
33.35315	38545
33.36127	36619
33.36938	37842
33.37752	36184
33.38563	36794
33.39377	33317
33.40188	33834
33.41000	36659
33.41813	35318
33.42625	34569
33.43437	33603
33.44250	34581
33.45062	37246
33.45875	38482
33.46687	32782
33.47498	36261
33.48312	35823
33.49123	37194
33.49937	35384
33.50748	36204
33.51560	34051
33.52373	37784
33.53185	37135
33.53998	33830
33.54810	34857
33.55622	38466
33.56435	39993
33.57247	37444
33.58058	35103
33.58872	38339
33.59683	34580
33.60497	40565
33.61308	37990
33.62120	38578
33.62933	40476
33.63745	38338
33.64558	42706
33.65370	44213
33.66182	39333
33.66995	39440
33.67807	39648
33.68618	36183
33.69432	38088
33.70243	40122
33.71057	39815
33.71868	41723
33.72680	43270
33.73493	39119
33.74305	40837
33.75118	37995
33.75930	46004
33.76742	38517
33.77555	38386
33.78367	41489
33.79180	38510
33.79992	39847
33.80803	43688
33.81617	42402
33.82428	40998
33.83240	37029
33.84053	38484
33.84865	40500
33.85678	40734
33.86490	42348
33.87302	39528
33.88115	41967
33.88927	36925
33.89740	39230
33.90552	36288
33.91363	37195
33.92177	39979
33.92988	40180
33.93800	38049
33.94613	39061
33.95425	38887
33.96238	38288
33.97050	37554
33.97862	38146
33.98675	37721
33.99487	37507
34.00300	39296
34.01112	38619
34.01923	37155
34.02737	40004
34.03548	39144
34.04362	34311
34.05173	37941
34.05985	39590
34.06798	38935
34.07610	36073
34.08422	37872
34.09235	33711
34.10047	36819
34.10860	38905
34.11672	36735
34.12483	37177
34.13297	41431
34.14108	35994
34.14922	36103
34.15733	36353
34.16545	38598
34.17358	37486
34.18170	36971
34.18983	33887
34.19795	36090
34.20607	38100
34.21420	40902
34.22232	39794
34.23043	38200
34.23857	34652
34.24668	40877
34.25482	36638
34.26293	40228
34.27105	36381
34.27918	36500
34.28730	38094
34.29543	38237
34.30355	37227
34.31167	37215
34.31980	40433
34.32792	43184
34.33603	34691
34.34417	39649
34.35228	38088
34.36042	42828
34.36853	38446
34.37665	40931
34.38478	37814
34.39290	41424
34.40103	41394
34.40915	42617
34.41727	46360
34.42540	50922
34.43352	55559
34.44165	63564
34.44977	69294
34.45788	79487
34.46602	85594
34.47413	85321
34.48225	84194
34.49038	78843
34.49850	79570
34.50663	74074
34.51475	73428
34.52287	64187
34.53100	63553
34.53912	58529
34.54725	55414
34.55537	55617
34.56348	57071
34.57162	51439
34.57973	55444
34.58787	51138
34.59598	50337
34.60410	51679
34.61223	48951
34.62035	49437
34.62847	47892
34.63660	47094
34.64472	49284
34.65285	46429
34.66097	42444
34.66908	40677
34.67722	43935
34.68533	46610
34.69347	47684
34.70158	43313
34.70970	41233
34.71783	40750
34.72595	39937
34.73407	40622
34.74220	40435
34.75032	46977
34.75845	43685
34.76657	42305
34.77468	41998
34.78282	44853
34.79093	43673
34.79907	41333
34.80718	50614
34.81530	41840
34.82343	43487
34.83155	42626
34.83968	44920
34.84780	43608
34.85592	39292
34.86405	43886
34.87217	40394
34.88028	42436
34.88842	41945
34.89653	47913
34.90467	45933
34.91278	46802
34.92090	50801
34.92903	47897
34.93715	46135
34.94528	46074
34.95340	46093
34.96152	45755
34.96965	43462
34.97777	41458
34.98588	44091
34.99402	45484
35.00213	39237
35.01027	42285
35.01838	39491
35.02650	43776
35.03463	41448
35.04275	44170
35.05088	42865
35.05900	49466
35.06712	41232
35.07525	43621
35.08337	43516
35.09150	42807
35.09962	42361
35.10773	41745
35.11587	44244
35.12398	43812
35.13210	40956
35.14023	43503
35.14835	46136
35.15648	42390
35.16460	45604
35.17272	43067
35.18085	41134
35.18897	42632
35.19710	40751
35.20522	43986
35.21333	45064
35.22147	39062
35.22958	39407
35.23772	42021
35.24583	41737
35.25395	43238
35.26208	42933
35.27020	41900
35.27832	41247
35.28645	42369
35.29457	38377
35.30270	41814
35.31082	41765
35.31893	39991
35.32707	40822
35.33518	41071
35.34332	41191
35.35143	41888
35.35955	41307
35.36768	38409
35.37580	44450
35.38393	40203
35.39205	39266
35.40017	40096
35.40830	45220
35.41642	44578
35.42453	45137
35.43267	45286
35.44078	45543
35.44892	44886
35.45703	45569
35.46515	48625
35.47328	43016
35.48140	44519
35.48953	43227
35.49765	42411
35.50577	43089
35.51390	45276
35.52202	47197
35.53013	39784
35.53827	44229
35.54638	48484
35.55452	48439
35.56263	49323
35.57075	51141
35.57888	53218
35.58700	48440
35.59513	45408
35.60325	43523
35.61137	46464
35.61950	46570
35.62762	43067
35.63575	43211
35.64387	42478
35.65198	43818
35.66012	42963
35.66823	44771
35.67635	48944
35.68448	43221
35.69260	49649
35.70073	48980
35.70885	48833
35.71697	48684
35.72510	48148
35.73322	55365
35.74135	56200
35.74947	59243
35.75758	54636
35.76572	55135
35.77383	54283
35.78195	54238
35.79008	51099
35.79820	49811
35.80633	50596
35.81445	52899
35.82257	50939
35.83070	48993
35.83882	49850
35.84695	48629
35.85507	46144
35.86318	49413
35.87132	47679
35.87943	50388
35.88757	48391
35.89568	50227
35.90380	51721
35.91193	46677
35.92005	48645
35.92817	48614
35.93630	44980
35.94442	49243
35.95255	50260
35.96067	48708
35.96878	45135
35.97692	51664
35.98503	48471
35.99317	51404
36.00128	51117
36.00940	52977
36.01753	53507
36.02565	50002
36.03378	48890
36.04190	48945
36.05002	49153
36.05815	49750
36.06627	47682
36.07438	46010
36.08252	44465
36.09063	47082
36.09877	50316
36.10688	48112
36.11500	51521
36.12313	52730
36.13125	53188
36.13938	51200
36.14750	54522
36.15562	52851
36.16375	50066
36.17187	49817
36.17998	52012
36.18812	54419
36.19623	64408
36.20437	65599
36.21248	68672
36.22060	72393
36.22873	65399
36.23685	61380
36.24498	59230
36.25310	58269
36.26122	50478
36.26935	48686
36.27747	51631
36.28560	47757
36.29372	48867
36.30183	49998
36.30997	47151
36.31808	47966
36.32620	49695
36.33433	47742
36.34245	49243
36.35058	50233
36.35870	47365
36.36682	52498
36.37495	53073
36.38307	54043
36.39120	52512
36.39932	47195
36.40743	50861
36.41557	49635
36.42368	48622
36.43182	47152
36.43993	47461
36.44805	49780
36.45618	47728
36.46430	45304
36.47242	49272
36.48055	49053
36.48867	48153
36.49680	48321
36.50492	46119
36.51303	51852
36.52117	52029
36.52928	48506
36.53742	49560
36.54553	51654
36.55365	52422
36.56178	50338
36.56990	50250
36.57802	48502
36.58615	51766
36.59427	48660
36.60240	52015
36.61052	52251
36.61863	52403
36.62677	48495
36.63488	47642
36.64302	52962
36.65113	51959
36.65925	50196
36.66738	49402
36.67550	51263
36.68363	51423
36.69175	52240
36.69987	56112
36.70800	52082
36.71612	49452
36.72423	51729
36.73237	51256
36.74048	55626
36.74862	48972
36.75673	48196
36.76485	50721
36.77298	49235
36.78110	54534
36.78923	56010
36.79735	50853
36.80547	52657
36.81360	55339
36.82172	49480
36.82983	51089
36.83797	48925
36.84608	51324
36.85422	53860
36.86233	52406
36.87045	51949
36.87858	52662
36.88670	51842
36.89483	53075
36.90295	52996
36.91107	56587
36.91920	53549
36.92732	58281
36.93545	58798
36.94357	59607
36.95168	62942
36.95982	62279
36.96793	62797
36.97605	61187
36.98418	69203
36.99230	71152
37.00043	84489
37.00855	94542
37.01667	99380
37.02480	95387
37.03292	91494
37.04105	82530
37.04917	75553
37.05728	66141
37.06542	67017
37.07353	62758
37.08167	60219
37.08978	62014
37.09790	62490
37.10603	56023
37.11415	57917
37.12227	60362
37.13040	59176
37.13852	60063
37.14665	61539
37.15477	59517
37.16288	61104
37.17102	64521
37.17913	62031
37.18727	56666
37.19538	62196
37.20350	62546
37.21163	61968
37.21975	67677
37.22787	67854
37.23600	78021
37.24412	80677
37.25225	91059
37.26037	90529
37.26848	93708
37.27662	90491
37.28473	87509
37.29287	83469
37.30098	80757
37.30910	78376
37.31723	78490
37.32535	78402
37.33348	75070
37.34160	72531
37.34972	69710
37.35785	70575
37.36597	71826
37.37408	70230
37.38222	63833
37.39033	63958
37.39847	63222
37.40658	65106
37.41470	63973
37.42283	65729
37.43095	67687
37.43908	58221
37.44720	63567
37.45532	66535
37.46345	64951
37.47157	68189
37.47970	70670
37.48782	64889
