C:\MassHunter\GCMS\1\data\JTB-E18\JTB-E18-034-09.D Tue Oct 15 17:34:28 2019
Start of data points
2.09515	199717
2.10328	192426
2.11140	185424
2.11953	174048
2.12765	172253
2.13577	168452
2.14390	156527
2.15202	160496
2.16013	155868
2.16827	148957
2.17638	150961
2.18452	141146
2.19263	144167
2.20075	143391
2.20888	136817
2.21700	134444
2.22513	130892
2.23325	124539
2.24137	128858
2.24950	128565
2.25762	168085
2.26573	998336
2.27387	3227619
2.28198	2653336
2.29012	1056418
2.29823	545233
2.30635	398065
2.31448	328743
2.32260	280910
2.33073	269901
2.33885	255607
2.34697	222716
2.35510	211128
2.36322	195977
2.37135	197997
2.37947	224744
2.38758	232694
2.39572	193808
2.40383	180611
2.41195	177242
2.42008	184930
2.42820	176455
2.43633	161748
2.44445	175323
2.45257	168942
2.46070	148147
2.46882	138230
2.47695	139163
2.48507	153754
2.49318	155817
2.50132	160921
2.50943	146780
2.51755	136636
2.52568	136927
2.53380	133006
2.54193	135783
2.55005	167342
2.55817	227955
2.56630	208600
2.57442	171159
2.58255	150850
2.59067	148271
2.59878	152074
2.60692	223859
2.61503	286877
2.62317	261506
2.63128	208270
2.63940	180396
2.64753	163937
2.65565	151270
2.66377	148304
2.67190	174982
2.68002	172008
2.68815	156153
2.69627	140835
2.70438	130928
2.71252	129945
2.72063	129272
2.72877	123862
2.73688	125382
2.74500	128961
2.75313	120977
2.76125	120957
2.76938	125679
2.77750	177685
2.78562	260234
2.79375	253053
2.80187	194682
2.80998	194645
2.81812	315817
2.82623	590422
2.83437	772965
2.84248	548073
2.85060	338150
2.85873	275929
2.86685	251313
2.87498	214949
2.88310	183023
2.89122	165484
2.89935	155636
2.90747	150584
2.91558	141263
2.92372	133883
2.93183	126481
2.93997	130334
2.94808	126802
2.95620	120506
2.96433	125292
2.97245	125314
2.98058	124003
2.98870	132018
2.99682	143062
3.00495	149270
3.01307	153336
3.02120	245284
3.02932	484216
3.03743	748298
3.04557	1592847
3.05368	4746620
3.06180	7284784
3.06993	5595197
3.07805	2963323
3.08618	1805061
3.09430	1600513
3.10242	2124369
3.11055	2801324
3.11867	2313852
3.12680	1554591
3.13492	1172023
3.14303	932486
3.15117	770446
3.15928	701657
3.16742	717533
3.17553	788818
3.18365	1067767
3.19178	1703138
3.19990	1792811
3.20802	1277271
3.21615	945907
3.22427	800916
3.23240	682430
3.24052	593114
3.24863	519627
3.25677	458057
3.26488	415888
3.27302	402841
3.28113	519321
3.28925	1040929
3.29738	2152098
3.30550	3242202
3.31362	3268540
3.32175	2659999
3.32987	2094356
3.33800	1695895
3.34612	1405197
3.35423	1215712
3.36237	1102176
3.37048	1164528
3.37862	1268219
3.38673	1216392
3.39485	1112582
3.40298	1602179
3.41110	2732076
3.41923	3145993
3.42735	2307588
3.43547	1445949
3.44360	1006583
3.45172	799984
3.45983	713704
3.46797	646807
3.47608	603033
3.48422	547863
3.49233	504090
3.50045	463823
3.50858	433770
3.51670	415889
3.52483	436537
3.53295	436225
3.54107	428284
3.54920	398388
3.55732	369681
3.56545	363622
3.57357	344041
3.58168	337448
3.58982	317845
3.59793	312660
3.60605	321769
3.61418	469255
3.62230	952122
3.63043	1793194
3.63855	2103286
3.64667	1583472
3.65480	1155011
3.66292	1712073
3.67105	4393585
3.67917	7006673
3.68728	6305954
3.69542	3878616
3.70353	2383098
3.71165	1760077
3.71978	1440917
3.72790	1248068
3.73603	1125632
3.74415	1008639
3.75227	937531
3.76040	876855
3.76852	858246
3.77665	835487
3.78477	786425
3.79288	758843
3.80102	861099
3.80913	1254531
3.81727	1534886
3.82538	1374688
3.83350	1009745
3.84163	818025
3.84975	698399
3.85787	644741
3.86600	591980
3.87412	545174
3.88225	521173
3.89037	502278
3.89848	479532
3.90662	473427
3.91473	536419
3.92287	687824
3.93098	778360
3.93910	716484
3.94723	682549
3.95535	840625
3.96347	1076501
3.97160	1055160
3.97972	831911
3.98785	658511
3.99597	875567
4.00408	1573555
4.01222	2320526
4.02033	2292344
4.02847	1565519
4.03658	1008396
4.04470	708835
4.05283	579140
4.06095	491903
4.06908	444297
4.07720	411500
4.08532	381225
4.09345	362273
4.10157	337534
4.10968	316023
4.11782	308782
4.12593	347229
4.13407	646896
4.14218	1466298
4.15030	2334657
4.15843	2356125
4.16655	1714621
4.17468	1190085
4.18280	874050
4.19092	704179
4.19905	596106
4.20717	840567
4.21530	2575724
4.22342	6875995
4.23153	1.216434E+07
4.23967	1.46739E+07
4.24778	1.261597E+07
4.25590	8286325
4.26403	5193482
4.27215	3441916
4.28028	2425008
4.28840	1808392
4.29652	1409690
4.30465	1147987
4.31277	964903
4.32090	852884
4.32902	756568
4.33713	724288
4.34527	684924
4.35338	684673
4.36150	642572
4.36963	592755
4.37775	534982
4.38588	482880
4.39400	437553
4.40212	417151
4.41025	391848
4.41837	381030
4.42650	363253
4.43462	355173
4.44273	353473
4.45087	351200
4.45898	356520
4.46712	341743
4.47523	330845
4.48335	317309
4.49148	306768
4.49960	294197
4.50772	286795
4.51585	284976
4.52397	274990
4.53210	266608
4.54022	267876
4.54833	269626
4.55647	263822
4.56458	248227
4.57272	252925
4.58083	240507
4.58895	237381
4.59708	228966
4.60520	233165
4.61333	253709
4.62145	318575
4.62957	486578
4.63770	691047
4.64582	733467
4.65393	600389
4.66207	453768
4.67018	363744
4.67832	321555
4.68643	296957
4.69455	282757
4.70268	251670
4.71080	237666
4.71893	234047
4.72705	227906
4.73517	218125
4.74330	214929
4.75142	210686
4.75953	199809
4.76767	202339
4.77578	199259
4.78392	211999
4.79203	242689
4.80015	307522
4.80828	337575
4.81640	318153
4.82453	286567
4.83265	266894
4.84077	258495
4.84890	266970
4.85702	259099
4.86515	224456
4.87327	218270
4.88138	217888
4.88952	211737
4.89763	202503
4.90575	207345
4.91388	236054
4.92200	339819
4.93013	555415
4.93825	824300
4.94637	1000981
4.95450	1016643
4.96262	890934
4.97075	733750
4.97887	621466
4.98698	544543
4.99512	482643
5.00323	428601
5.01135	414774
5.01948	482413
5.02760	715083
5.03573	1051029
5.04385	1245603
5.05197	1143528
5.06010	907499
5.06822	725511
5.07635	605902
5.08447	551364
5.09258	510579
5.10072	506926
5.10883	517081
5.11697	522761
5.12508	486778
5.13320	444853
5.14133	414401
5.14945	409836
5.15757	434210
5.16570	458871
5.17382	508294
5.18195	513007
5.19007	507752
5.19818	489078
5.20632	474843
5.21443	444887
5.22257	415637
5.23068	397835
5.23880	386669
5.24693	371164
5.25505	340675
5.26318	309323
5.27130	285794
5.27942	268872
5.28755	266731
5.29567	263635
5.30378	243002
5.31192	230962
5.32003	239602
5.32817	237060
5.33628	242699
5.34440	247676
5.35253	236083
5.36065	228362
5.36878	224143
5.37690	228519
5.38502	227524
5.39315	235142
5.40127	234289
5.40940	225103
5.41752	221839
5.42563	200442
5.43377	211525
5.44188	199562
5.45000	206842
5.45813	201778
5.46625	201497
5.47438	188630
5.48250	187183
5.49062	178539
5.49875	177756
5.50687	184076
5.51500	179934
5.52312	183063
5.53123	175935
5.53937	175205
5.54748	185433
5.55560	199875
5.56373	220536
5.57185	239134
5.57998	238949
5.58810	231463
5.59622	209612
5.60435	194125
5.61247	185085
5.62060	181416
5.62872	184331
5.63683	180628
5.64497	185356
5.65308	169524
5.66122	174426
5.66933	175590
5.67745	189476
5.68558	213032
5.69370	235969
5.70182	236681
5.70995	240525
5.71807	235642
5.72620	234490
5.73432	228886
5.74243	212619
5.75057	208251
5.75868	211079
5.76682	215597
5.77493	213218
5.78305	203517
5.79118	208138
5.79930	234043
5.80742	334153
5.81555	525650
5.82367	767641
5.83180	944448
5.83992	931306
5.84803	744597
5.85617	531236
5.86428	394972
5.87242	308336
5.88053	258894
5.88865	235525
5.89678	238668
5.90490	252744
5.91303	309343
5.92115	390627
5.92927	443955
5.93740	467212
5.94552	406879
5.95363	362407
5.96177	383165
5.96988	505578
5.97802	637628
5.98613	695030
5.99425	623947
6.00238	480769
6.01050	361507
6.01863	280984
6.02675	252161
6.03487	210630
6.04300	199522
6.05112	186228
6.05925	179579
6.06737	162208
6.07548	164515
6.08362	159997
6.09173	147217
6.09985	150674
6.10798	151927
6.11610	157426
6.12423	212637
6.13235	317376
6.14047	453266
6.14860	510945
6.15672	463264
6.16485	356448
6.17297	283228
6.18108	237546
6.18922	229625
6.19733	234401
6.20545	235652
6.21358	221781
6.22170	210662
6.22983	194075
6.23795	187021
6.24607	191150
6.25420	195543
6.26232	198380
6.27045	192550
6.27857	193654
6.28668	195167
6.29482	188471
6.30293	187667
6.31107	190620
6.31918	199250
6.32730	207047
6.33543	212321
6.34355	217804
6.35167	210562
6.35980	216123
6.36792	215246
6.37605	211494
6.38417	208799
6.39228	207992
6.40042	203161
6.40853	205890
6.41667	208827
6.42478	206230
6.43290	216568
6.44103	206986
6.44915	208062
6.45728	215363
6.46540	220299
6.47352	223956
6.48165	224315
6.48977	224225
6.49788	224561
6.50602	231194
6.51413	230597
6.52227	233179
6.53038	232064
6.53850	233131
6.54663	236354
6.55475	244472
6.56288	254946
6.57100	274345
6.57912	285151
6.58725	295040
6.59537	276162
6.60348	276917
6.61162	265033
6.61973	253791
6.62787	250484
6.63598	194534
6.64410	195895
6.65223	285450
6.66035	468730
6.66848	648844
6.67660	726899
6.68472	586372
6.69285	410233
6.70097	293784
6.70910	257088
6.71722	225175
6.72533	202412
6.73347	168813
6.74158	154227
6.74970	134316
6.75783	130411
6.76595	123949
6.77408	118527
6.78220	115066
6.79032	115675
6.79845	122174
6.80657	132477
6.81470	172651
6.82282	260545
6.83093	382072
6.83907	507296
6.84718	571880
6.85530	524432
6.86343	416576
6.87155	295919
6.87968	213593
6.88780	159685
6.89592	130488
6.90405	115529
6.91217	109944
6.92030	104938
6.92842	96021
6.93653	101866
6.94467	88622
6.95278	95499
6.96092	107169
6.96903	146839
6.97715	179803
6.98528	220930
6.99340	252484
7.00152	262301
7.00965	243040
7.01777	213427
7.02590	162917
7.03402	138280
7.04213	111196
7.05027	104867
7.05838	98452
7.06652	92698
7.07463	92122
7.08275	89459
7.09088	96419
7.09900	94114
7.10713	94687
7.11525	90095
7.12337	85694
7.13150	90132
7.13962	97161
7.14773	107104
7.15587	124391
7.16398	145256
7.17212	180726
7.18023	298772
7.18835	632849
7.19648	1090841
7.20460	1417494
7.21273	1338958
7.22085	928713
7.22897	572410
7.23710	349859
7.24522	232316
7.25333	178752
7.26147	151797
7.26958	133160
7.27772	126060
7.28583	129205
7.29395	132472
7.30208	123274
7.31020	120145
7.31833	107746
7.32645	115620
7.33457	109098
7.34270	130841
7.35082	157633
7.35895	184278
7.36707	208124
7.37518	204155
7.38332	187596
7.39143	161270
7.39955	138828
7.40768	114026
7.41580	104401
7.42393	100653
7.43205	98118
7.44017	95682
7.44830	106809
7.45642	112622
7.46455	133998
7.47267	152117
7.48078	151504
7.48892	140375
7.49703	126945
7.50517	112632
7.51328	95830
7.52140	92691
7.52953	98714
7.53765	105769
7.54577	123262
7.55390	158610
7.56202	205098
7.57015	242686
7.57827	273636
7.58638	262214
7.59452	235428
7.60263	194159
7.61077	144656
7.61888	122917
7.62700	108975
7.63513	100033
7.64325	89657
7.65137	89448
7.65950	89984
7.66762	85444
7.67575	79117
7.68387	81593
7.69198	86130
7.70012	75552
7.70823	77628
7.71637	74722
7.72448	77525
7.73260	78924
7.74073	80750
7.74885	74849
7.75698	78660
7.76510	77927
7.77322	73170
7.78135	74623
7.78947	77421
7.79758	72316
7.80572	80797
7.81383	75102
7.82197	78332
7.83008	74425
7.83820	76276
7.84633	69969
7.85445	68894
7.86258	69184
7.87070	67651
7.87882	75311
7.88695	80817
7.89507	81919
7.90320	80415
7.91132	81729
7.91943	77866
7.92757	90412
7.93568	99899
7.94380	109784
7.95193	116629
7.96005	105822
7.96818	95463
7.97630	87003
7.98442	74966
7.99255	71256
8.00067	65605
8.00880	68677
8.01692	68530
8.02503	63162
8.03317	63121
8.04128	58146
8.04940	59736
8.05753	63319
8.06565	63581
8.07378	64892
8.08190	64161
8.09002	64664
8.09815	59369
8.10627	60205
8.11440	54307
8.12252	62512
8.13063	65287
8.13877	67830
8.14688	72191
8.15502	80668
8.16313	75564
8.17125	70658
8.17938	66791
8.18750	59251
8.19562	59990
8.20375	57731
8.21187	57506
8.22000	59000
8.22812	64448
8.23623	57148
8.24437	56445
8.25248	58492
8.26062	58044
8.26873	57750
8.27685	56192
8.28498	54311
8.29310	55847
8.30122	60030
8.30935	64904
8.31747	59027
8.32560	58239
8.33372	58231
8.34183	58703
8.34997	56506
8.35808	58854
8.36622	52745
8.37433	53281
8.38245	58246
8.39058	53398
8.39870	57018
8.40683	52134
8.41495	52878
8.42307	51883
8.43120	51412
8.43932	54735
8.44743	50444
8.45557	50527
8.46368	51770
8.47182	52380
8.47993	53350
8.48805	50521
8.49618	53048
8.50430	61882
8.51243	97170
8.52055	144520
8.52867	196554
8.53680	219317
8.54492	202591
8.55305	152132
8.56117	104885
8.56928	87284
8.57742	66889
8.58553	68267
8.59365	63198
8.60178	59018
8.60990	64608
8.61803	63693
8.62615	62745
8.63427	60189
8.64240	61592
8.65052	56384
8.65865	56401
8.66677	55966
8.67488	51486
8.68302	57988
8.69113	55310
8.69925	55799
8.70738	60175
8.71550	64240
8.72363	76180
8.73175	122470
8.73987	166820
8.74800	212769
8.75612	219055
8.76425	195830
8.77237	158305
8.78048	130887
8.78862	111558
8.79673	102656
8.80487	103084
8.81298	99037
8.82110	96400
8.82923	94601
8.83735	87812
8.84547	88438
8.85360	77577
8.86172	79819
8.86985	78077
8.87797	73804
8.88608	73777
8.89422	73941
8.90233	74139
8.91047	70894
8.91858	73989
8.92670	78192
8.93483	82649
8.94295	78650
8.95108	72528
8.95920	76242
8.96732	68697
8.97545	66890
8.98357	70743
8.99168	69083
8.99982	66270
9.00793	66442
9.01607	63428
9.02418	64593
9.03230	59143
9.04043	61982
9.04855	57603
9.05668	60613
9.06480	57508
9.07292	58761
9.08105	56613
9.08917	57569
9.09728	60861
9.10542	66688
9.11353	77043
9.12167	80976
9.12978	73175
9.13790	72849
9.14603	66202
9.15415	60894
9.16228	63522
9.17040	56983
9.17852	56116
9.18665	52632
9.19477	53729
9.20290	56047
9.21102	51484
9.21913	53283
9.22727	55237
9.23538	50527
9.24350	49468
9.25163	52616
9.25975	53189
9.26788	50407
9.27600	50626
9.28412	49031
9.29225	56442
9.30037	50177
9.30850	50463
9.31662	51686
9.32473	52610
9.33287	53714
9.34098	53460
9.34910	55491
9.35723	54122
9.36535	51451
9.37348	50178
9.38160	51934
9.38972	43534
9.39785	47328
9.40597	49687
9.41410	53727
9.42222	59363
9.43033	73998
9.43847	79755
9.44658	82255
9.45472	81923
9.46283	68980
9.47095	63253
9.47908	54893
9.48720	54374
9.49532	55283
9.50345	51657
9.51157	54019
9.51970	60634
9.52782	55273
9.53593	52931
9.54407	52669
9.55218	51840
9.56032	46061
9.56843	45991
9.57655	42004
9.58468	42979
9.59280	40628
9.60093	39421
9.60905	40831
9.61717	38519
9.62530	37756
9.63342	38631
9.64153	35012
9.64967	36463
9.65778	38700
9.66592	34434
9.67403	33648
9.68215	36195
9.69028	37533
9.69840	38158
9.70653	34739
9.71465	37448
9.72277	34136
9.73090	35267
9.73902	34920
9.74715	34788
9.75527	35854
9.76338	35073
9.77152	32347
9.77963	32958
9.78775	36396
9.79588	32352
9.80400	32529
9.81213	36076
9.82025	32841
9.82837	33743
9.83650	36728
9.84462	31473
9.85275	37668
9.86087	38636
9.86898	36672
9.87712	36177
9.88523	36175
9.89335	31986
9.90148	34066
9.90960	33616
9.91773	38677
9.92585	36310
9.93397	39545
9.94210	44840
9.95022	49647
9.95835	54366
9.96647	56350
9.97458	54883
9.98272	52860
9.99083	47749
9.99897	47076
10.00708	44644
10.01520	43578
10.02333	39630
10.03145	42713
10.03957	39064
10.04770	37068
10.05582	37900
10.06395	40489
10.07207	37169
10.08018	38630
10.08832	35276
10.09643	34007
10.10457	36520
10.11268	35665
10.12080	35693
10.12893	33833
10.13705	33728
10.14517	33442
10.15330	34808
10.16142	32580
10.16955	37348
10.17767	34602
10.18578	35389
10.19392	37613
10.20203	31525
10.21017	35372
10.21828	38397
10.22640	37183
10.23453	39775
10.24265	44744
10.25078	61957
10.25890	114591
10.26702	235320
10.27515	511306
10.28327	927476
10.29138	1511869
10.29952	2322097
10.30763	3545670
10.31577	5068957
10.32388	6137393
10.33200	6020056
10.34013	4581554
10.34825	2957378
10.35638	1786698
10.36450	1252795
10.37262	1044759
10.38075	893575
10.38887	709990
10.39700	515662
10.40512	364423
10.41323	285631
10.42137	233148
10.42948	207734
10.43760	195825
10.44573	174446
10.45385	164680
10.46198	145227
10.47010	133283
10.47822	121054
10.48635	119607
10.49447	109179
10.50260	107699
10.51072	102646
10.51883	102308
10.52697	96735
10.53508	94811
10.54320	88595
10.55133	84112
10.55945	81912
10.56758	83895
10.57570	82597
10.58382	77117
10.59195	78050
10.60007	78478
10.60820	67716
10.61632	68163
10.62443	66248
10.63257	62495
10.64068	63575
10.64882	64990
10.65693	61199
10.66505	61523
10.67318	57001
10.68130	61179
10.68942	55467
10.69755	61754
10.70567	61852
10.71380	63265
10.72192	70630
10.73003	59710
10.73817	60618
10.74628	58191
10.75442	56743
10.76253	52964
10.77065	52802
10.77878	52619
10.78690	56327
10.79503	52010
10.80315	53396
10.81127	52276
10.81940	51608
10.82752	55364
10.83563	48142
10.84377	50207
10.85188	49307
10.86002	50593
10.86813	46136
10.87625	46905
10.88438	44553
10.89250	44269
10.90063	42486
10.90875	42717
10.91687	42373
10.92500	43616
10.93312	40894
10.94123	43393
10.94937	43049
10.95748	40547
10.96562	41162
10.97373	44289
10.98185	42635
10.98998	45211
10.99810	38430
11.00623	39040
11.01435	40576
11.02247	42150
11.03060	39485
11.03872	45211
11.04685	39682
11.05497	43175
11.06308	39899
11.07122	41063
11.07933	38310
11.08745	44856
11.09558	43327
11.10370	45704
11.11183	47104
11.11995	44353
11.12807	44591
11.13620	41822
11.14432	42265
11.15245	42495
11.16057	41803
11.16868	39005
11.17682	41553
11.18493	42945
11.19305	42304
11.20118	45918
11.20930	43848
11.21743	41336
11.22555	40232
11.23367	35134
11.24180	37441
11.24992	34678
11.25805	39812
11.26617	44977
11.27428	55832
11.28242	71070
11.29053	86040
11.29867	98478
11.30678	120092
11.31490	155343
11.32303	226576
11.33115	314191
11.33927	446577
11.34740	556409
11.35552	582295
11.36365	489214
11.37177	394586
11.37988	292610
11.38802	224865
11.39613	185552
11.40427	156443
11.41238	131950
11.42050	124410
11.42863	104248
11.43675	96624
11.44488	86493
11.45300	80616
11.46112	77373
11.46925	81159
11.47737	84020
11.48548	85965
11.49362	90750
11.50173	95513
11.50987	91808
11.51798	86978
11.52610	89480
11.53423	83072
11.54235	80834
11.55048	80781
11.55860	75808
11.56672	71483
11.57485	70874
11.58297	75240
11.59108	76224
11.59922	84564
11.60733	90076
11.61547	93703
11.62358	89029
11.63170	74412
11.63983	69973
11.64795	65052
11.65608	57432
11.66420	62818
11.67232	53640
11.68045	58329
11.68857	57155
11.69670	62521
11.70482	64404
11.71293	67470
11.72107	69073
11.72918	70427
11.73730	67594
11.74543	62531
11.75355	61440
11.76168	59521
11.76980	53605
11.77792	51934
11.78605	48229
11.79417	49317
11.80230	52903
11.81042	47268
11.81853	50737
11.82667	43037
11.83478	49152
11.84292	45881
11.85103	45096
11.85915	44176
11.86728	42740
11.87540	45667
11.88352	43519
11.89165	40506
11.89977	42445
11.90790	43296
11.91602	49609
11.92413	50693
11.93227	51856
11.94038	60035
11.94852	54017
11.95663	52854
11.96475	47297
11.97288	44714
11.98100	51585
11.98912	54001
11.99725	52594
12.00537	58126
12.01350	57435
12.02162	56993
12.02973	55194
12.03787	49166
12.04598	46316
12.05412	40283
12.06223	46551
12.07035	43667
12.07848	45052
12.08660	47136
12.09473	44717
12.10285	46275
12.11097	45799
12.11910	41477
12.12722	45541
12.13533	45186
12.14347	43033
12.15158	49286
12.15972	42493
12.16783	37274
12.17595	38394
12.18408	36466
12.19220	36865
12.20033	34962
12.20845	35600
12.21657	35184
12.22470	34237
12.23282	38627
12.24095	41243
12.24907	35424
12.25718	35869
12.26532	36463
12.27343	37544
12.28155	41974
12.28968	32455
12.29780	38900
12.30593	34845
12.31405	30261
12.32217	33007
12.33030	34980
12.33842	29686
12.34655	33282
12.35467	35633
12.36278	35151
12.37092	31975
12.37903	35695
12.38715	41719
12.39528	48050
12.40340	67073
12.41153	87382
12.41965	88595
12.42777	87172
12.43590	77003
12.44402	65257
12.45215	52236
12.46027	46908
12.46838	46064
12.47652	44900
12.48463	37137
12.49277	39815
12.50088	41188
12.50900	37208
12.51713	36494
12.52525	43460
12.53337	43058
12.54150	54397
12.54962	66271
12.55775	77613
12.56587	79784
12.57398	72229
12.58212	60640
12.59023	54167
12.59837	45539
12.60648	45336
12.61460	44683
12.62273	41545
12.63085	44992
12.63897	39460
12.64710	37111
12.65522	38420
12.66335	33704
12.67147	34091
12.67958	37603
12.68772	33233
12.69583	33520
12.70397	34863
12.71208	37075
12.72020	37086
12.72833	32982
12.73645	35211
12.74458	34839
12.75270	32664
12.76082	32490
12.76895	33759
12.77707	31223
12.78518	39437
12.79332	34306
12.80143	35165
12.80957	39399
12.81768	37750
12.82580	34097
12.83393	34027
12.84205	36623
12.85018	35578
12.85830	32602
12.86642	31898
12.87455	33917
12.88267	35602
12.89080	29069
12.89892	30265
12.90703	29787
12.91517	31248
12.92328	29916
12.93140	35800
12.93953	40874
12.94765	43896
12.95578	57902
12.96390	77491
12.97202	89699
12.98015	95028
12.98827	87930
12.99640	79865
13.00452	73957
13.01263	66757
13.02077	60480
13.02888	58102
13.03700	55295
13.04513	52616
13.05325	45818
13.06138	42294
13.06950	40114
13.07762	43582
13.08575	42715
13.09387	37294
13.10200	37597
13.11012	33808
13.11823	37955
13.12637	39529
13.13448	36622
13.14262	36678
13.15073	39424
13.15885	36261
13.16698	37406
13.17510	34183
13.18322	33965
13.19135	33531
13.19947	37708
13.20760	34697
13.21572	36122
13.22383	35740
13.23197	35060
13.24008	37780
13.24822	40741
13.25633	37326
13.26445	41067
13.27258	42979
13.28070	42456
13.28883	41627
13.29695	42744
13.30507	40471
13.31320	39909
13.32132	41722
13.32943	44382
13.33757	45951
13.34568	44714
13.35382	41232
13.36193	38421
13.37005	37102
13.37818	38824
13.38630	33278
13.39443	35295
13.40255	35874
13.41067	32743
13.41880	32704
13.42692	33683
13.43503	33228
13.44317	32772
13.45128	33796
13.45942	35212
13.46753	34049
13.47565	33496
13.48378	33370
13.49190	29353
13.50003	31944
13.50815	34153
13.51627	35904
13.52440	32305
13.53252	32978
13.54065	31437
13.54877	42547
13.55688	39940
13.56502	40728
13.57313	41912
13.58125	45324
13.58938	48413
13.59750	58855
13.60563	72932
13.61375	88912
13.62187	98587
13.63000	96550
13.63812	88336
13.64625	74177
13.65437	65960
13.66248	58574
13.67062	52210
13.67873	48253
13.68685	47091
13.69498	45722
13.70310	44101
13.71123	43660
13.71935	43007
13.72747	43824
13.73560	45403
13.74372	56015
13.75185	77505
13.75997	112895
13.76808	147165
13.77622	176853
13.78433	187364
13.79247	181658
13.80058	159370
13.80870	156710
13.81683	161269
13.82495	175174
13.83307	181323
13.84120	181284
13.84932	168296
13.85745	139674
13.86557	114989
13.87368	98295
13.88182	89775
13.88993	77929
13.89807	76490
13.90618	74394
13.91430	69299
13.92243	65601
13.93055	61296
13.93868	60719
13.94680	56112
13.95492	58069
13.96305	52530
13.97117	55129
13.97928	56446
13.98742	53442
13.99553	53127
14.00367	55974
14.01178	47376
14.01990	53654
14.02803	51461
14.03615	51745
14.04428	47525
14.05240	42816
14.06052	44737
14.06865	45795
14.07677	43109
14.08488	41067
14.09302	41380
14.10113	40677
14.10927	39901
14.11738	43733
14.12550	47364
14.13363	59994
14.14175	76471
14.14988	86458
14.15800	100383
14.16612	97950
14.17425	91612
14.18237	84699
14.19050	70965
14.19862	71281
14.20673	62733
14.21487	66836
14.22298	60286
14.23110	58030
14.23923	54180
14.24735	55603
14.25548	57691
14.26360	49186
14.27172	52535
14.27985	49508
14.28797	46600
14.29610	45811
14.30422	40479
14.31233	36798
14.32047	37745
14.32858	35513
14.33672	33121
14.34483	33796
14.35295	34646
14.36108	33164
14.36920	32710
14.37732	38149
14.38545	43695
14.39357	54701
14.40170	78276
14.40982	107245
14.41793	125012
14.42607	126099
14.43418	111240
14.44232	92695
14.45043	73004
14.45855	63135
14.46668	50737
14.47480	47736
14.48292	42979
14.49105	44338
14.49917	43040
14.50730	42582
14.51542	38779
14.52353	38899
14.53167	38731
14.53978	40067
14.54792	36713
14.55603	38165
14.56415	38155
14.57228	34616
14.58040	33918
14.58853	32606
14.59665	30881
14.60477	31808
14.61290	32519
14.62102	37243
14.62913	30795
14.63727	31322
14.64538	32019
14.65352	32987
14.66163	32506
14.66975	30854
14.67788	30066
14.68600	32505
14.69413	31532
14.70225	28812
14.71037	32886
14.71850	29570
14.72662	27040
14.73473	31864
14.74287	30763
14.75098	34010
14.75912	34553
14.76723	34563
14.77535	34805
14.78348	46784
14.79160	80536
14.79973	152676
14.80785	323135
14.81597	618766
14.82410	948159
14.83222	1134767
14.84035	1005323
14.84847	753151
14.85658	482344
14.86472	324723
14.87283	209504
14.88095	162186
14.88908	130261
14.89720	114739
14.90533	113003
14.91345	93564
14.92157	86383
14.92970	81944
14.93782	76519
14.94595	76309
14.95407	69623
14.96218	66715
14.97032	62163
14.97843	61543
14.98657	58337
14.99468	57487
15.00280	52332
15.01093	53247
15.01905	52649
15.02717	57100
15.03530	55466
15.04342	51808
15.05155	47400
15.05967	45187
15.06778	46251
15.07592	47633
15.08403	45042
15.09217	42350
15.10028	45038
15.10840	42147
15.11653	39585
15.12465	47847
15.13278	45484
15.14090	40760
15.14902	46480
15.15715	43332
15.16527	40675
15.17338	43676
15.18152	39933
15.18963	38295
15.19777	38733
15.20588	35984
15.21400	37552
15.22213	39825
15.23025	35763
15.23838	37649
15.24650	32388
15.25462	33410
15.26275	35104
15.27087	32586
15.27898	31613
15.28712	32516
15.29523	36228
15.30337	31039
15.31148	32713
15.31960	31369
15.32773	32580
15.33585	29540
15.34398	33648
15.35210	30782
15.36022	31585
15.36835	32391
15.37647	31962
15.38460	33397
15.39272	30223
15.40083	33964
15.40897	29948
15.41708	32158
15.42520	31016
15.43333	29019
15.44145	30614
15.44958	31327
15.45770	35116
15.46582	46006
15.47395	57298
15.48207	80116
15.49020	97050
15.49832	108417
15.50643	116728
15.51457	120001
15.52268	103672
15.53080	90721
15.53893	84141
15.54705	68081
15.55518	62574
15.56330	56385
15.57142	47665
15.57955	46515
15.58767	46226
15.59580	42960
15.60392	41808
15.61203	39146
15.62017	39341
15.62828	35290
15.63642	33547
15.64453	36012
15.65265	36274
15.66078	35857
15.66890	37591
15.67702	32726
15.68515	31406
15.69327	33370
15.70140	32820
15.70952	32696
15.71763	32585
15.72577	30927
15.73388	32945
15.74202	32435
15.75013	35106
15.75825	45301
15.76638	59300
15.77450	77597
15.78263	88826
15.79075	89721
15.79887	92355
15.80700	74819
15.81512	62114
15.82323	52384
15.83137	45913
15.83948	42232
15.84762	38974
15.85573	37347
15.86385	36201
15.87198	37438
15.88010	40165
15.88823	37695
15.89635	40977
15.90447	36364
15.91260	38586
15.92072	34018
15.92883	34624
15.93697	37890
15.94508	33961
15.95322	31082
15.96133	35932
15.96945	35940
15.97758	42499
15.98570	40117
15.99383	41519
16.00195	42501
16.01007	37586
16.01820	37609
16.02632	39896
16.03445	39389
16.04257	38021
16.05068	33957
16.05882	32828
16.06693	31195
16.07505	30821
16.08318	28392
16.09130	31082
16.09943	30829
16.10755	31627
16.11567	32708
16.12380	32069
16.13192	33779
16.14005	33604
16.14817	35064
16.15628	34779
16.16442	32287
16.17253	34218
16.18067	31648
16.18878	31174
16.19690	29453
16.20503	32522
16.21315	31593
16.22127	34370
16.22940	29618
16.23752	30903
16.24565	31285
16.25377	27132
16.26188	28650
16.27002	31367
16.27813	33949
16.28627	33100
16.29438	33336
16.30250	37391
16.31063	34636
16.31875	33228
16.32687	31619
16.33500	31617
16.34312	33787
16.35125	34381
16.35937	35415
16.36748	34409
16.37562	36437
16.38373	31311
16.39187	30843
16.39998	32235
16.40810	32604
16.41623	32451
16.42435	28713
16.43248	29623
16.44060	36858
16.44872	42493
16.45685	58565
16.46497	81648
16.47308	98323
16.48122	120075
16.48933	108399
16.49747	93049
16.50558	71663
16.51370	61578
16.52183	48450
16.52995	44730
16.53808	41769
16.54620	43922
16.55432	40733
16.56245	38453
16.57057	35753
16.57868	36119
16.58682	38618
16.59493	37718
16.60307	36982
16.61118	37007
16.61930	38345
16.62743	38855
16.63555	35165
16.64368	33299
16.65180	34691
16.65992	30086
16.66805	33215
16.67617	33809
16.68430	33112
16.69242	28381
16.70053	30048
16.70867	27591
16.71678	32161
16.72490	27709
16.73303	30571
16.74115	29408
16.74928	33899
16.75740	33243
16.76552	30751
16.77365	31076
16.78177	32710
16.78990	30668
16.79802	32824
16.80613	29955
16.81427	31240
16.82238	29089
16.83052	30904
16.83863	29100
16.84675	30513
16.85488	31064
16.86300	32598
16.87112	27510
16.87925	26125
16.88737	29568
16.89550	26855
16.90362	28062
16.91173	26960
16.91987	24305
16.92798	29263
16.93612	31055
16.94423	29908
16.95235	31207
16.96048	29081
16.96860	32416
16.97672	27550
16.98485	30095
16.99297	29173
17.00110	28740
17.00922	29029
17.01733	34220
17.02547	30066
17.03358	30435
17.04172	29744
17.04983	30956
17.05795	29935
17.06608	31796
17.07420	30931
17.08233	34709
17.09045	41225
17.09857	41069
17.10670	46337
17.11482	50912
17.12293	51103
17.13107	43099
17.13918	46080
17.14732	44023
17.15543	41045
17.16355	33890
17.17168	36198
17.17980	31897
17.18793	36546
17.19605	30373
17.20417	31382
17.21230	31162
17.22042	31244
17.22855	34372
17.23667	30437
17.24478	28709
17.25292	28467
17.26103	33231
17.26915	28284
17.27728	28936
17.28540	31551
17.29353	29411
17.30165	33096
17.30977	31145
17.31790	30570
17.32602	30993
17.33415	37631
17.34227	34213
17.35038	35351
17.35852	36153
17.36663	38210
17.37475	35122
17.38288	43182
17.39100	40962
17.39913	37684
17.40725	39562
17.41537	42209
17.42350	41633
17.43162	41006
17.43975	39158
17.44787	36539
17.45598	36802
17.46412	36179
17.47223	34872
17.48037	31156
17.48848	33534
17.49660	32427
17.50473	34381
17.51285	41244
17.52097	35764
17.52910	37743
17.53722	48168
17.54535	45285
17.55347	47501
17.56158	52103
17.56972	63658
17.57783	86068
17.58597	102897
17.59408	114621
17.60220	126038
17.61033	127597
17.61845	115510
17.62658	90863
17.63470	80694
17.64282	64306
17.65095	61542
17.65907	60431
17.66718	49039
17.67532	50455
17.68343	52230
17.69157	48594
17.69968	51874
17.70780	53206
17.71593	42240
17.72405	47705
17.73218	48417
17.74030	44727
17.74842	45396
17.75655	43935
17.76467	41415
17.77278	39887
17.78092	38641
17.78903	36176
17.79717	35756
17.80528	35648
17.81340	37361
17.82153	39695
17.82965	37501
17.83778	39615
17.84590	42121
17.85402	46260
17.86215	44712
17.87027	42193
17.87840	45282
17.88652	40711
17.89463	35669
17.90277	39346
17.91088	38937
17.91900	31683
17.92713	35423
17.93525	36566
17.94338	33581
17.95150	35569
17.95962	32082
17.96775	35547
17.97587	30120
17.98400	31681
17.99212	31833
18.00023	33468
18.00837	38219
18.01648	41636
18.02460	42861
18.03273	51016
18.04085	49511
18.04898	54139
18.05710	64653
18.06522	97491
18.07335	149713
18.08147	231171
18.08960	326306
18.09772	409840
18.10583	400172
18.11397	321350
18.12208	235722
18.13022	169347
18.13833	136429
18.14645	111233
18.15458	101358
18.16270	89265
18.17082	79658
18.17895	74733
18.18707	69927
18.19520	74101
18.20332	88056
18.21143	112459
18.21957	135247
18.22768	146957
18.23582	160481
18.24393	171495
18.25205	172136
18.26018	176061
18.26830	178941
18.27643	170335
18.28455	176003
18.29267	171881
18.30080	177398
18.30892	173827
18.31703	164754
18.32517	163703
18.33328	170577
18.34142	172067
18.34953	166854
18.35765	167191
18.36578	159088
18.37390	160914
18.38203	156105
18.39015	151166
18.39827	150389
18.40640	153498
18.41452	155515
18.42263	160889
18.43077	161818
18.43888	161083
18.44702	165291
18.45513	167605
18.46325	171683
18.47138	183144
18.47950	176016
18.48763	177648
18.49575	165813
18.50387	148552
18.51200	141432
18.52012	132124
18.52825	132110
18.53637	127933
18.54448	121435
18.55262	115478
18.56073	114320
18.56885	119368
18.57698	111709
18.58510	111990
18.59323	120431
18.60135	111835
18.60947	121677
18.61760	112119
18.62572	117682
18.63385	112256
18.64197	104911
18.65008	102608
18.65822	107398
18.66633	95628
18.67447	95070
18.68258	94150
18.69070	95700
18.69883	88882
18.70695	87636
18.71507	87419
18.72320	84525
18.73132	85573
18.73945	81141
18.74757	80721
18.75568	79886
18.76382	77867
18.77193	75761
18.78007	77631
18.78818	75744
18.79630	72212
18.80443	72249
18.81255	73982
18.82067	72510
18.82880	68198
18.83692	70155
18.84505	77291
18.85317	67855
18.86128	67878
18.86942	66071
18.87753	68441
18.88567	66008
18.89378	68520
18.90190	69168
18.91003	66553
18.91815	65645
18.92628	66075
18.93440	67133
18.94252	69857
18.95065	64604
18.95877	65151
18.96688	65917
18.97502	60531
18.98313	58066
18.99127	62435
18.99938	58811
19.00750	60295
19.01563	57143
19.02375	55573
19.03188	58359
19.04000	52814
19.04812	52715
19.05625	54050
19.06437	54738
19.07248	56781
19.08062	60708
19.08873	66589
19.09687	66153
19.10498	69101
19.11310	68761
19.12123	68609
19.12935	65873
19.13748	67778
19.14560	64557
19.15372	64084
19.16185	63350
19.16997	64175
19.17810	58180
19.18622	56166
19.19433	55265
19.20247	55975
19.21058	54804
19.21870	50552
19.22683	47663
19.23495	45592
19.24308	47100
19.25120	46210
19.25932	44948
19.26745	48637
19.27557	47969
19.28370	48511
19.29182	47465
19.29993	47938
19.30807	49354
19.31618	48015
19.32432	42870
19.33243	44552
19.34055	46979
19.34868	46908
19.35680	53230
19.36492	55812
19.37305	54706
19.38117	54685
19.38930	54496
19.39742	48519
19.40553	47013
19.41367	52864
19.42178	54355
19.42992	62070
19.43803	70812
19.44615	84182
19.45428	85217
19.46240	78691
19.47052	68089
19.47865	58707
19.48677	52713
19.49490	50510
19.50302	48687
19.51113	47731
19.51927	45762
19.52738	49392
19.53552	48002
19.54363	46765
19.55175	50017
19.55988	45685
19.56800	43483
19.57613	44460
19.58425	43156
19.59237	42208
19.60050	44952
19.60862	44384
19.61673	48588
19.62487	62099
19.63298	89372
19.64112	120053
19.64923	155469
19.65735	191303
19.66548	196512
19.67360	183335
19.68173	159310
19.68985	136889
19.69797	108093
19.70610	95832
19.71422	82273
19.72235	77369
19.73047	65489
19.73858	63709
19.74672	61662
19.75483	55035
19.76295	53524
19.77108	54506
19.77920	59158
19.78733	62211
19.79545	60985
19.80357	64572
19.81170	59251
19.81982	58480
19.82795	51956
19.83607	50806
19.84418	57230
19.85232	66778
19.86043	109817
19.86855	193414
19.87668	359602
19.88480	587133
19.89293	879690
19.90105	1108276
19.90917	1115175
19.91730	952508
19.92542	681801
19.93355	449164
19.94167	312021
19.94978	233740
19.95792	186068
19.96603	162775
19.97417	152734
19.98228	137700
19.99040	134930
19.99853	124290
20.00665	116172
20.01477	108412
20.02290	103741
20.03102	99620
20.03915	94456
20.04727	86892
20.05538	85009
20.06352	88508
20.07163	89357
20.07977	92371
20.08788	91359
20.09600	83283
20.10413	78095
20.11225	66394
20.12037	66869
20.12850	64296
20.13662	66466
20.14475	76403
20.15287	92115
20.16098	109818
20.16912	140228
20.17723	160913
20.18537	190099
20.19348	193770
20.20160	187237
20.20973	183351
20.21785	160970
20.22598	164837
20.23410	177619
20.24222	214853
20.25035	246695
20.25847	260500
20.26658	274318
20.27472	257759
20.28283	228740
20.29097	183778
20.29908	150183
20.30720	126834
20.31533	108381
20.32345	87149
20.33158	78514
20.33970	71055
20.34782	63554
20.35595	61528
20.36407	57954
20.37220	58671
20.38032	57567
20.38843	59528
20.39657	63248
20.40468	67665
20.41280	71831
20.42093	73941
20.42905	72930
20.43718	69709
20.44530	68379
20.45342	58900
20.46155	54347
20.46967	52152
20.47780	53840
20.48592	51692
20.49403	46410
20.50217	50516
20.51028	44166
20.51842	44574
20.52653	44386
20.53465	46945
20.54278	42921
20.55090	43179
20.55902	48511
20.56715	44348
20.57527	42522
20.58340	43931
20.59152	39166
20.59963	40747
20.60777	42435
20.61588	38326
20.62402	41891
20.63213	40862
20.64025	40642
20.64838	39101
20.65650	46931
20.66462	43040
20.67275	42176
20.68087	39408
20.68900	38307
20.69712	40062
20.70523	40113
20.71337	39794
20.72148	38720
20.72962	39862
20.73773	41753
20.74585	39900
20.75398	38046
20.76210	42745
20.77023	42569
20.77835	53152
20.78647	59722
20.79460	77439
20.80272	93210
20.81083	110329
20.81897	119123
20.82708	106731
20.83522	92565
20.84333	73898
20.85145	63364
20.85958	56699
20.86770	50743
20.87583	45925
20.88395	49642
20.89207	43850
20.90020	47960
20.90832	45067
20.91643	46046
20.92457	45907
20.93268	46173
20.94082	45521
20.94893	49596
20.95705	42990
20.96518	41276
20.97330	42266
20.98143	41443
20.98955	42366
20.99767	42872
21.00580	38697
21.01392	41690
21.02205	37506
21.03017	36543
21.03828	37450
21.04642	39684
21.05453	39061
21.06265	38356
21.07078	37260
21.07890	35561
21.08703	37246
21.09515	39859
21.10327	41141
21.11140	38106
21.11952	38192
21.12765	45040
21.13577	49756
21.14388	57404
21.15202	61751
21.16013	64376
21.16827	65566
21.17638	60468
21.18450	51767
21.19263	47669
21.20075	42323
21.20887	39591
21.21700	43573
21.22512	40858
21.23325	41077
21.24137	43332
21.24948	41965
21.25762	44720
21.26573	47015
21.27387	46071
21.28198	45146
21.29010	46629
21.29823	48361
21.30635	47099
21.31447	44737
21.32260	47782
21.33072	50391
21.33885	47079
21.34697	47128
21.35508	47051
21.36322	44727
21.37133	48120
21.37947	48587
21.38758	49574
21.39570	54611
21.40383	58013
21.41195	56722
21.42008	58652
21.42820	53735
21.43632	53213
21.44445	50360
21.45257	49450
21.46068	51704
21.46882	46157
21.47693	47281
21.48507	48899
21.49318	48629
21.50130	45404
21.50943	45674
21.51755	47680
21.52568	46240
21.53380	44596
21.54192	48317
21.55005	48191
21.55817	51964
21.56630	57888
21.57442	64902
21.58253	78075
21.59067	90860
21.59878	95764
21.60690	94590
21.61503	84671
21.62315	74369
21.63128	63457
21.63940	60381
21.64752	55432
21.65565	55217
21.66377	50143
21.67190	49411
21.68002	51398
21.68813	49345
21.69627	46868
21.70438	50949
21.71250	42257
21.72063	43076
21.72875	41731
21.73688	39831
21.74500	45185
21.75312	43944
21.76125	49413
21.76937	55616
21.77750	65417
21.78562	69500
21.79373	75460
21.80187	74223
21.80998	66978
21.81812	61075
21.82623	52590
21.83435	49154
21.84248	41856
21.85060	44434
21.85872	43534
21.86685	38877
21.87497	42563
21.88310	42053
21.89122	40456
21.89933	36991
21.90747	37051
21.91558	42391
21.92372	38753
21.93183	35328
21.93995	40673
21.94808	38216
21.95620	45538
21.96432	62351
21.97245	76187
21.98057	83822
21.98870	84798
21.99682	91781
22.00493	92491
22.01307	91285
22.02118	95633
22.02932	94752
22.03743	100040
22.04555	98818
22.05368	96791
22.06180	99359
22.06993	104448
22.07805	96794
22.08617	100852
22.09430	96093
22.10242	95346
22.11053	95151
22.11867	95634
22.12678	91700
22.13492	88968
22.14303	83821
22.15115	85836
22.15928	90875
22.16740	89630
22.17553	88116
22.18365	85933
22.19177	81271
22.19990	83167
22.20802	80091
22.21615	80273
22.22427	80840
22.23238	71478
22.24052	68130
22.24863	66463
22.25675	67495
22.26488	65440
22.27300	69278
22.28113	66078
22.28925	67949
22.29737	68768
22.30550	67530
22.31362	69583
22.32175	67528
22.32987	66069
22.33798	62794
22.34612	63392
22.35423	59927
22.36235	56314
22.37048	57590
22.37860	56849
22.38673	59864
22.39485	63705
22.40297	63931
22.41110	69996
22.41922	69935
22.42735	71653
22.43547	65779
22.44358	59309
22.45172	52736
22.45983	54708
22.46797	52422
22.47608	56037
22.48420	57963
22.49233	53624
22.50045	60445
22.50857	60965
22.51670	61241
22.52482	58288
22.53295	50274
22.54107	51633
22.54918	45222
22.55732	46352
22.56543	47812
22.57357	45373
22.58168	46855
22.58980	41912
22.59793	40468
22.60605	41187
22.61418	36176
22.62230	41464
22.63042	40542
22.63855	42812
22.64667	40322
22.65478	41150
22.66292	42531
22.67103	44367
22.67917	49830
22.68728	53595
22.69540	57793
22.70353	63058
22.71165	66414
22.71978	67837
22.72790	62532
22.73602	60526
22.74415	52144
22.75227	50890
22.76038	50456
22.76852	47378
22.77663	51014
22.78477	60845
22.79288	63673
22.80100	61357
22.80913	63628
22.81725	61696
22.82538	57857
22.83350	53287
22.84162	49952
22.84975	49404
22.85787	46591
22.86600	53212
22.87412	56253
22.88223	61438
22.89037	68436
22.89848	79136
22.90660	94018
22.91473	109472
22.92285	130131
22.93098	144443
22.93910	141014
22.94722	134840
22.95535	117208
22.96347	102399
22.97160	98135
22.97972	93376
22.98783	85520
22.99597	77307
23.00408	72048
23.01222	67554
23.02033	59350
23.02845	59857
23.03658	52784
23.04470	49816
23.05282	48707
23.06095	49923
23.06907	50011
23.07720	50490
23.08532	50755
23.09343	46086
23.10157	46378
23.10968	46409
23.11782	43494
23.12593	43844
23.13405	42930
23.14218	42187
23.15030	38669
23.15842	40564
23.16655	42749
23.17467	38650
23.18280	41488
23.19092	39869
23.19903	40144
23.20717	38712
23.21528	39558
23.22342	35983
23.23153	39307
23.23965	41544
23.24778	39692
23.25590	35683
23.26403	43457
23.27215	42162
23.28027	43187
23.28840	37854
23.29652	38310
23.30463	39075
23.31277	34650
23.32088	37002
23.32902	41807
23.33713	43693
23.34525	44198
23.35338	49095
23.36150	48375
23.36963	49175
23.37775	46272
23.38587	47167
23.39400	41863
23.40212	40400
23.41023	38093
23.41837	37345
23.42648	34052
23.43462	36470
23.44273	34872
23.45085	33439
23.45898	35828
23.46710	36057
23.47523	35495
23.48335	34493
23.49147	34320
23.49960	33411
23.50772	34997
23.51585	36880
23.52397	32370
23.53208	32101
23.54022	32970
23.54833	34535
23.55645	39243
23.56458	44187
23.57270	49958
23.58083	63124
23.58895	72310
23.59707	80815
23.60520	74620
23.61332	72777
23.62145	64633
23.62957	60830
23.63768	50897
23.64582	54369
23.65393	51573
23.66207	50783
23.67018	51517
23.67830	52014
23.68643	46678
23.69455	47239
23.70267	43178
23.71080	43938
23.71892	42004
23.72705	49710
23.73517	82495
23.74328	163231
23.75142	352971
23.75953	781065
23.76767	1446228
23.77578	2250304
23.78390	2777205
23.79203	2906345
23.80015	2573758
23.80827	2060224
23.81640	1551426
23.82452	1170165
23.83265	891084
23.84077	714170
23.84888	581712
23.85702	486604
23.86513	425677
23.87327	383073
23.88138	344439
23.88950	319158
23.89763	286906
23.90575	266629
23.91388	244091
23.92200	238176
23.93012	234979
23.93825	217807
23.94637	195747
23.95448	191739
23.96262	179638
23.97073	171721
23.97887	166206
23.98698	160606
23.99510	154955
24.00323	156252
24.01135	147958
24.01948	150975
24.02760	145962
24.03572	146577
24.04385	139920
24.05197	140714
24.06010	140319
24.06822	140453
24.07633	137085
24.08447	139708
24.09258	122883
24.10070	123477
24.10883	116315
24.11695	114987
24.12508	112754
24.13320	120403
24.14132	125167
24.14945	128176
24.15757	126164
24.16570	122006
24.17382	117548
24.18193	113293
24.19007	104593
24.19818	100671
24.20630	94021
24.21443	92052
24.22255	86593
24.23068	86398
24.23880	78154
24.24692	82522
24.25505	77374
24.26317	72717
24.27130	75696
24.27942	70612
24.28753	73240
24.29567	71766
24.30378	70256
24.31192	80942
24.32003	90929
24.32815	90892
24.33628	93899
24.34440	90621
24.35252	77973
24.36065	77184
24.36877	70350
24.37690	63598
24.38502	65351
24.39313	63256
24.40127	62039
24.40938	66634
24.41752	70363
24.42563	77875
24.43375	85725
24.44188	93592
24.45000	98873
24.45812	94717
24.46625	88918
24.47437	79320
24.48250	77767
24.49062	74303
24.49873	68148
24.50687	64353
24.51498	65094
24.52312	68010
24.53123	72907
24.53935	71213
24.54748	76763
24.55560	77761
24.56373	81261
24.57185	69415
24.57997	66455
24.58810	61419
24.59622	60508
24.60433	59135
24.61247	55038
24.62058	52307
24.62872	53694
24.63683	55272
24.64495	49301
24.65308	49671
24.66120	50256
24.66933	50300
24.67745	47846
24.68557	50901
24.69370	49929
24.70182	42618
24.70995	47764
24.71807	51913
24.72618	46052
24.73432	44401
24.74243	51241
24.75055	44838
24.75868	47135
24.76680	46525
24.77493	42809
24.78305	48990
24.79117	47318
24.79930	50629
24.80742	50418
24.81555	47947
24.82367	48583
24.83178	50595
24.83992	57614
24.84803	62888
24.85617	76645
24.86428	90197
24.87240	101088
24.88053	108301
24.88865	112649
24.89677	110056
24.90490	97668
24.91302	84741
24.92115	73714
24.92927	58989
24.93738	53096
24.94552	51966
24.95363	56149
24.96177	60309
24.96988	70342
24.97800	80772
24.98613	94183
24.99425	102335
25.00237	107559
25.01050	110676
25.01862	112594
25.02675	115919
25.03487	110840
25.04298	110925
25.05112	111399
25.05923	108750
25.06737	111684
25.07548	108797
25.08360	116412
25.09173	120890
25.09985	138378
25.10798	187617
25.11610	262308
25.12422	367196
25.13235	504453
25.14047	626952
25.14858	645392
25.15672	599527
25.16483	478202
25.17297	355033
25.18108	256655
25.18920	198838
25.19733	164660
25.20545	145922
25.21358	125675
25.22170	119165
25.22982	116257
25.23795	126806
25.24607	144990
25.25418	161623
25.26232	186604
25.27043	195241
25.27857	184170
25.28668	173446
25.29480	139460
25.30293	114456
25.31105	107689
25.31918	98374
25.32730	87586
25.33542	84784
25.34355	81401
25.35167	74968
25.35980	76116
25.36792	67947
25.37603	67969
25.38417	68111
25.39228	70804
25.40040	71201
25.40853	67521
25.41665	68775
25.42478	63748
25.43290	63323
25.44102	60019
25.44915	59476
25.45727	58964
25.46540	64141
25.47352	60367
25.48163	58944
25.48977	56613
25.49788	58846
25.50602	56601
25.51413	55391
25.52225	52704
25.53038	53701
25.53850	51093
25.54662	51811
25.55475	51794
25.56287	48028
25.57100	51454
25.57912	50545
25.58723	48567
25.59537	49873
25.60348	45486
25.61162	46963
25.61973	49017
25.62785	49993
25.63598	47867
25.64410	49246
25.65222	49226
25.66035	47449
25.66847	46962
25.67660	49646
25.68472	45341
25.69283	49465
25.70097	47593
25.70908	45742
25.71722	46795
25.72533	45585
25.73345	42503
25.74158	42061
25.74970	44309
25.75783	44439
25.76595	40123
25.77407	39268
25.78220	47884
25.79032	40380
25.79843	41632
25.80657	39714
25.81468	47206
25.82282	41678
25.83093	41190
25.83905	43010
25.84718	43166
25.85530	46334
25.86343	47424
25.87155	40416
25.87967	40148
25.88780	39773
25.89592	37566
25.90405	39809
25.91217	40235
25.92028	42296
25.92842	39829
25.93653	37364
25.94465	43401
25.95278	36697
25.96090	35970
25.96903	39548
25.97715	36133
25.98527	36756
25.99340	35662
26.00152	36929
26.00965	37053
26.01777	36256
26.02588	35761
26.03402	35109
26.04213	36620
26.05025	39288
26.05838	41832
26.06650	40881
26.07463	36897
26.08275	36889
26.09087	39957
26.09900	39135
26.10712	36712
26.11525	36095
26.12337	43244
26.13148	40412
26.13962	40327
26.14773	41842
26.15587	43462
26.16398	43485
26.17210	44484
26.18023	43620
26.18835	44915
26.19647	41381
26.20460	37258
26.21272	44349
26.22085	35855
26.22897	37743
26.23708	36717
26.24522	32512
26.25333	36356
26.26147	33349
26.26958	36943
26.27770	36438
26.28583	36904
26.29395	34572
26.30207	33431
26.31020	32860
26.31832	36788
26.32645	37570
26.33457	36277
26.34268	41835
26.35082	39611
26.35893	40913
26.36707	45107
26.37518	56098
26.38330	60310
26.39143	60608
26.39955	67219
26.40768	58758
26.41580	53118
26.42392	57023
26.43205	45469
26.44017	41461
26.44828	40980
26.45642	38525
26.46453	37957
26.47267	38110
26.48078	39489
26.48890	40007
26.49703	38308
26.50515	35014
26.51328	37821
26.52140	32482
26.52952	31619
26.53765	32890
26.54577	29696
26.55390	37901
26.56202	34127
26.57013	36748
26.57827	33047
26.58638	32881
26.59450	33066
26.60263	35006
26.61075	36906
26.61888	38600
26.62700	35982
26.63512	35469
26.64325	37892
26.65137	36925
26.65950	35139
26.66762	35866
26.67573	36634
26.68387	35215
26.69198	38773
26.70010	37602
26.70823	36369
26.71635	37998
26.72448	34539
26.73260	35389
26.74072	34548
26.74885	37760
26.75697	37325
26.76510	38869
26.77322	37994
26.78133	39934
26.78947	36854
26.79758	36686
26.80572	37308
26.81383	39016
26.82195	37713
26.83008	39502
26.83820	34263
26.84632	35936
26.85445	40661
26.86257	34868
26.87070	31510
26.87882	35454
26.88693	33093
26.89507	32568
26.90318	32521
26.91132	35567
26.91943	35994
26.92755	36280
26.93568	40205
26.94380	51838
26.95193	77649
26.96005	125733
26.96817	215304
26.97630	342346
26.98442	491765
26.99253	621174
27.00067	699744
27.00878	738713
27.01692	662965
27.02503	590775
27.03315	472847
27.04128	367890
27.04940	278224
27.05753	228024
27.06565	177537
27.07377	153463
27.08190	129809
27.09002	121059
27.09813	106604
27.10627	99687
27.11438	92132
27.12252	84302
27.13063	84877
27.13875	81261
27.14688	79702
27.15500	81401
27.16313	81636
27.17125	82073
27.17937	79001
27.18750	77054
27.19562	76143
27.20375	68104
27.21187	59393
27.21998	60214
27.22812	56542
27.23623	58720
27.24435	54310
27.25248	51169
27.26060	53515
27.26873	48786
27.27685	54221
27.28497	48727
27.29310	48586
27.30122	47383
27.30935	44821
27.31747	43300
27.32558	48650
27.33372	47042
27.34183	47094
27.34995	49233
27.35808	45029
27.36620	44736
27.37433	46757
27.38245	46414
27.39057	43984
27.39870	42132
27.40682	48311
27.41495	46367
27.42307	46799
27.43118	43172
27.43932	48201
27.44743	42324
27.45557	48692
27.46368	47911
27.47180	45920
27.47993	41307
27.48805	43329
27.49617	42655
27.50430	42639
27.51242	41468
27.52055	40008
27.52867	44646
27.53678	45964
27.54492	40238
27.55303	41572
27.56117	40117
27.56928	43199
27.57740	41587
27.58553	42406
27.59365	45454
27.60178	43704
27.60990	44268
27.61802	40827
27.62615	36753
27.63427	39313
27.64238	39246
27.65052	40290
27.65863	38520
27.66677	41865
27.67488	40402
27.68300	41153
27.69113	42133
27.69925	45486
27.70738	42662
27.71550	42028
27.72362	40911
27.73175	42077
27.73987	40231
27.74798	38237
27.75612	39064
27.76423	40822
27.77237	42013
27.78048	41409
27.78860	40172
27.79673	40421
27.80485	41012
27.81298	39988
27.82110	38131
27.82922	35549
27.83735	34584
27.84547	34138
27.85360	35485
27.86172	39771
27.86983	39608
27.87797	36886
27.88608	33213
27.89420	32979
27.90233	33897
27.91045	31950
27.91858	33917
27.92670	32445
27.93482	31586
27.94295	35158
27.95107	37235
27.95920	33723
27.96732	37112
27.97543	38193
27.98357	36628
27.99168	38812
27.99982	41323
28.00793	41339
28.01605	45962
28.02418	48574
28.03230	63134
28.04042	57035
28.04855	59399
28.05667	56453
28.06480	53786
28.07292	44619
28.08103	46210
28.08917	41361
28.09728	43670
28.10542	45201
28.11353	53357
28.12165	54236
28.12978	57786
28.13790	51084
28.14602	46543
28.15415	38754
28.16227	41035
28.17040	38282
28.17852	36441
28.18663	38964
28.19477	35513
28.20288	38684
28.21102	36634
28.21913	37420
28.22725	41339
28.23538	40256
28.24350	36880
28.25163	44110
28.25975	51039
28.26787	61906
28.27600	75772
28.28412	91362
28.29223	114393
28.30037	135120
28.30848	138201
28.31662	160721
28.32473	152986
28.33285	147467
28.34098	139730
28.34910	142237
28.35723	117574
28.36535	114030
28.37347	97150
28.38160	95199
28.38972	82275
28.39785	77626
28.40597	73541
28.41408	66529
28.42222	65480
28.43033	59015
28.43845	55090
28.44658	58439
28.45470	51534
28.46283	50787
28.47095	47350
28.47907	49434
28.48720	50088
28.49532	46303
28.50345	46052
28.51157	46929
28.51968	46906
28.52782	44915
28.53593	42640
28.54405	41882
28.55218	40206
28.56030	41660
28.56843	37820
28.57655	38268
28.58467	39179
28.59280	40764
28.60092	39657
28.60905	39957
28.61717	37472
28.62528	38235
28.63342	41200
28.64153	43323
28.64967	44404
28.65778	47974
28.66590	51366
28.67403	45229
28.68215	48521
28.69027	48663
28.69840	51507
28.70652	50475
28.71465	42881
28.72277	44266
28.73088	42877
28.73902	35439
28.74713	34433
28.75527	33402
28.76338	32234
28.77150	35083
28.77963	35384
28.78775	33273
28.79587	37134
28.80400	37001
28.81212	33527
28.82025	39713
28.82837	31841
28.83648	34077
28.84462	34087
28.85273	32885
28.86087	34170
28.86898	37258
28.87710	37152
28.88523	37769
28.89335	37981
28.90148	36747
28.90960	40562
28.91772	37940
28.92585	36260
28.93397	39762
28.94208	40593
28.95022	40483
28.95833	37863
28.96647	33445
28.97458	35933
28.98270	36675
28.99083	37959
28.99895	33090
29.00708	32885
29.01520	36934
29.02332	31909
29.03145	32652
29.03957	30155
29.04770	37413
29.05582	38271
29.06393	38603
29.07207	36170
29.08018	34232
29.08830	33439
29.09643	38543
29.10455	36283
29.11268	34204
29.12080	32111
29.12892	32436
29.13705	33219
29.14517	31152
29.15330	29838
29.16142	31346
29.16953	31891
29.17767	32193
29.18578	37147
29.19390	40936
29.20203	42688
29.21015	35919
29.21828	37675
29.22640	41784
29.23452	44931
29.24265	43509
29.25077	43856
29.25890	48741
29.26702	45586
29.27513	39172
29.28327	38912
29.29138	36063
29.29952	34209
29.30763	33255
29.31575	35666
29.32388	32041
29.33200	35114
29.34012	35634
29.34825	33424
29.35637	33032
29.36450	30155
29.37262	31597
29.38073	31904
29.38887	33346
29.39698	34792
29.40512	32038
29.41323	32721
29.42135	31575
29.42948	31819
29.43760	34347
29.44573	33156
29.45385	31077
29.46197	31055
29.47010	30252
29.47822	35234
29.48633	32227
29.49447	38810
29.50258	34178
29.51072	34507
29.51883	35632
29.52695	34944
29.53508	35115
29.54320	32390
29.55133	32271
29.55945	32167
29.56757	30534
29.57570	32625
29.58382	33244
29.59193	30064
29.60007	29482
29.60818	32383
29.61632	33325
29.62443	35437
29.63255	30590
29.64068	30343
29.64880	28739
29.65693	30980
29.66505	30852
29.67317	33010
29.68130	31222
29.68942	33582
29.69755	33771
29.70567	31673
29.71378	30700
29.72192	30329
29.73003	32287
29.73815	31405
29.74628	34948
29.75440	30884
29.76253	29801
29.77065	30831
29.77877	30975
29.78690	27946
29.79502	29693
29.80315	32136
29.81127	28816
29.81938	29545
29.82752	31390
29.83563	27634
29.84375	29317
29.85188	30982
29.86000	29694
29.86813	34127
29.87625	41701
29.88437	49022
29.89250	56509
29.90062	64761
29.90875	63428
29.91687	69379
29.92498	74697
29.93312	71178
29.94123	78305
29.94937	74906
29.95748	77870
29.96560	71468
29.97373	75166
29.98185	76531
29.98997	74702
29.99810	68504
30.00622	67622
30.01435	60002
30.02247	56640
30.03058	57772
30.03872	57789
30.04683	61634
30.05497	62658
30.06308	61872
30.07120	58616
30.07933	58468
30.08745	56553
30.09558	55269
30.10370	55605
30.11182	54112
30.11995	54047
30.12807	51440
30.13618	49980
30.14432	49002
30.15243	47203
30.16057	52394
30.16868	46124
30.17680	46223
30.18493	46238
30.19305	44466
30.20118	45557
30.20930	44884
30.21742	42425
30.22555	40420
30.23367	42234
30.24180	43928
30.24992	43586
30.25803	38820
30.26617	39773
30.27428	38019
30.28240	39367
30.29053	39038
30.29865	37748
30.30678	37727
30.31490	36693
30.32302	39043
30.33115	38281
30.33927	39079
30.34740	36157
30.35552	38054
30.36363	33695
30.37177	34774
30.37988	36214
30.38800	33551
30.39613	35184
30.40425	38331
30.41238	32157
30.42050	36289
30.42862	34469
30.43675	34660
30.44487	33976
30.45300	33254
30.46112	33359
30.46923	31618
30.47737	32055
30.48548	34194
30.49362	36527
30.50173	33907
30.50985	31994
30.51798	35525
30.52610	30302
30.53422	31208
30.54235	35418
30.55047	31589
30.55860	33464
30.56672	31772
30.57483	33970
30.58297	28690
30.59108	32781
30.59922	31710
30.60733	32620
30.61545	34131
30.62358	30321
30.63170	30527
30.63982	32008
30.64795	29859
30.65607	30004
30.66420	29703
30.67232	32258
30.68043	31282
30.68857	30824
30.69668	30291
30.70482	31632
30.71293	30039
30.72105	31993
30.72918	33012
30.73730	32589
30.74543	31473
30.75355	32267
30.76167	32902
30.76980	33249
30.77792	36633
30.78603	38474
30.79417	39890
30.80228	41798
30.81042	43808
30.81853	40371
30.82665	40202
30.83478	36339
30.84290	33499
30.85103	33195
30.85915	33355
30.86727	35413
30.87540	34984
30.88352	34772
30.89165	33026
30.89977	31042
30.90788	33891
30.91602	30573
30.92413	30764
30.93225	32615
30.94038	29337
30.94850	28409
30.95663	27969
30.96475	29819
30.97287	28054
30.98100	31256
30.98912	33570
30.99725	31867
31.00537	34544
31.01348	30153
31.02162	31459
31.02973	30654
31.03785	31831
31.04598	30765
31.05410	32280
31.06223	32566
31.07035	38292
31.07847	42263
31.08660	47769
31.09472	51567
31.10285	54074
31.11097	55169
31.11908	51953
31.12722	42489
31.13533	42974
31.14347	38673
31.15158	39662
31.15970	36273
31.16783	36421
31.17595	37197
31.18407	34582
31.19220	33783
31.20032	34488
31.20845	35346
31.21657	34338
31.22468	34886
31.23282	31062
31.24093	33945
31.24907	33687
31.25718	33381
31.26530	31611
31.27343	32128
31.28155	33842
31.28968	34551
31.29780	32088
31.30592	29838
31.31405	35071
31.32217	35166
31.33028	37618
31.33842	38574
31.34653	32780
31.35467	30876
31.36278	33681
31.37090	33337
31.37903	31500
31.38715	31190
31.39528	30458
31.40340	31543
31.41152	33382
31.41965	32006
31.42777	32302
31.43588	31414
31.44402	35256
31.45213	31214
31.46027	32090
31.46838	32983
31.47650	36144
31.48463	34067
31.49275	34999
31.50088	35248
31.50900	33957
31.51712	33704
31.52525	32304
31.53337	34511
31.54150	32193
31.54962	35955
31.55773	39347
31.56587	35407
31.57398	36164
31.58210	33910
31.59023	31142
31.59835	37473
31.60648	30886
31.61460	31690
31.62272	33161
31.63085	29821
31.63897	29117
31.64710	31679
31.65522	33709
31.66333	34715
31.67147	34250
31.67958	35614
31.68770	33799
31.69583	35420
31.70395	32607
31.71208	31843
31.72020	36550
31.72832	29524
31.73645	32047
31.74457	28176
31.75270	30542
31.76082	30552
31.76893	31624
31.77707	33930
31.78518	33404
31.79332	31225
31.80143	33478
31.80955	33217
31.81768	39797
31.82580	39711
31.83392	38085
31.84205	43661
31.85017	48969
31.85830	54093
31.86642	56685
31.87453	59853
31.88267	64943
31.89078	59914
31.89892	60927
31.90703	56230
31.91515	59500
31.92328	58811
31.93140	53622
31.93953	49611
31.94765	51582
31.95577	50473
31.96390	48233
31.97202	48577
31.98013	50482
31.98827	51293
31.99638	53025
32.00452	51850
32.01263	43670
32.02075	41725
32.02888	41095
32.03700	45514
32.04513	37280
32.05325	40970
32.06137	41672
32.06950	36790
32.07762	37435
32.08573	35984
32.09387	33342
32.10198	37594
32.11012	37736
32.11823	37637
32.12635	36189
32.13448	33240
32.14260	35495
32.15073	33008
32.15885	34814
32.16697	29314
32.17510	33742
32.18322	31821
32.19135	35177
32.19947	34157
32.20758	31864
32.21572	33085
32.22383	30146
32.23195	31308
32.24008	32783
32.24820	33665
32.25633	34848
32.26445	33144
32.27257	32461
32.28070	35234
32.28882	33888
32.29695	33125
32.30507	32804
32.31318	31188
32.32132	32973
32.32943	33951
32.33757	35171
32.34568	32727
32.35380	34665
32.36193	31197
32.37005	37181
32.37817	32677
32.38630	32980
32.39442	33114
32.40255	29575
32.41067	30306
32.41878	30616
32.42692	30747
32.43503	29044
32.44317	32341
32.45128	32907
32.45940	29669
32.46753	29882
32.47565	30062
32.48377	29881
32.49190	29963
32.50002	33291
32.50815	33613
32.51627	29881
32.52438	30079
32.53252	30471
32.54063	30008
32.54877	32643
32.55688	34576
32.56500	34348
32.57313	36302
32.58125	37542
32.58938	38715
32.59750	38181
32.60562	34898
32.61375	32706
32.62187	35551
32.62998	34328
32.63812	33173
32.64623	31680
32.65437	31001
32.66248	33618
32.67060	35967
32.67873	33758
32.68685	32612
32.69498	35697
32.70310	35936
32.71122	34335
32.71935	32808
32.72747	36896
32.73560	32755
32.74372	33284
32.75183	33819
32.75997	31828
32.76808	30007
32.77620	28664
32.78433	29283
32.79245	33173
32.80058	30111
32.80870	31309
32.81682	29060
32.82495	31351
32.83307	29619
32.84120	32638
32.84932	32491
32.85743	31908
32.86557	35220
32.87368	35879
32.88180	36265
32.88993	37619
32.89805	37090
32.90618	35104
32.91430	36492
32.92242	38941
32.93055	33341
32.93867	37611
32.94680	33524
32.95492	34940
32.96303	34999
32.97117	35958
32.97928	42526
32.98742	42888
32.99553	46575
33.00365	45178
33.01178	44757
33.01990	42612
33.02802	38300
33.03615	35127
33.04427	34354
33.05240	36672
33.06052	37692
33.06863	35531
33.07677	38621
33.08488	39218
33.09302	40336
33.10113	42138
33.10925	46705
33.11738	46156
33.12550	45112
33.13362	45515
33.14175	41860
33.14987	35326
33.15800	32862
33.16612	35414
33.17423	30589
33.18237	36188
33.19048	30448
33.19862	33973
33.20673	32717
33.21485	33578
33.22298	33484
33.23110	30369
33.23923	30367
33.24735	32432
33.25547	32978
33.26360	34543
33.27172	33327
33.27983	35785
33.28797	33281
33.29608	33189
33.30422	34039
33.31233	35279
33.32045	39475
33.32858	31034
33.33670	32570
33.34483	32329
33.35295	33137
33.36107	33807
33.36920	35389
33.37732	32108
33.38545	33515
33.39357	32956
33.40168	33461
33.40982	33692
33.41793	31171
33.42605	30231
33.43418	34474
33.44230	33599
33.45043	29212
33.45855	32383
33.46667	30537
33.47480	33054
33.48292	31658
33.49105	33183
33.49917	31183
33.50728	32465
33.51542	34030
33.52353	31836
33.53165	33262
33.53978	31124
33.54790	32095
33.55603	33381
33.56415	32439
33.57227	32432
33.58040	35917
33.58852	33531
33.59665	34530
33.60477	35890
33.61288	33603
33.62102	34500
33.62913	32242
33.63727	34009
33.64538	34270
33.65350	31036
33.66163	35118
33.66975	33525
33.67787	34071
33.68600	32840
33.69412	32699
33.70225	34319
33.71037	35297
33.71848	33476
33.72662	36219
33.73473	33269
33.74287	33850
33.75098	32663
33.75910	30745
33.76723	35075
33.77535	38963
33.78348	36428
33.79160	33860
33.79972	33397
33.80785	35015
33.81597	34039
33.82408	33130
33.83222	38288
33.84033	37557
33.84847	36346
33.85658	37084
33.86470	38620
33.87283	36704
33.88095	37390
33.88908	37281
33.89720	35497
33.90532	36508
33.91345	34315
33.92157	34962
33.92968	30061
33.93782	34921
33.94593	33611
33.95407	34080
33.96218	31646
33.97030	32405
33.97843	32752
33.98655	35600
33.99468	33232
34.00280	31981
34.01092	30436
34.01905	32446
34.02717	36404
34.03530	32772
34.04342	31595
34.05153	33327
34.05967	36422
34.06778	35559
34.07590	32826
34.08403	38128
34.09215	34512
34.10028	37626
34.10840	32139
34.11652	35009
34.12465	30993
34.13277	37826
34.14090	32029
34.14902	33100
34.15713	31694
34.16527	37185
34.17338	33208
34.18150	31874
34.18963	35870
34.19775	29422
34.20588	31706
34.21400	32806
34.22212	31067
34.23025	32759
34.23837	33630
34.24650	32396
34.25462	33130
34.26273	32357
34.27087	33385
34.27898	36608
34.28712	33198
34.29523	32081
34.30335	32077
34.31148	35079
34.31960	34657
34.32772	32904
34.33585	30999
34.34397	35575
34.35210	33515
34.36022	33905
34.36833	33210
34.37647	33500
34.38458	32949
34.39272	38629
34.40083	34794
34.40895	34869
34.41708	31849
34.42520	34538
34.43333	36654
34.44145	39283
34.44957	45817
34.45770	47123
34.46582	55779
34.47393	54187
34.48207	57678
34.49018	58942
34.49832	55834
34.50643	53611
34.51455	48193
34.52268	50031
34.53080	43497
34.53893	47927
34.54705	43516
34.55517	42112
34.56330	34657
34.57142	40421
34.57953	40084
34.58767	39716
34.59578	37239
34.60392	35575
34.61203	36498
34.62015	35243
34.62828	35037
34.63640	42706
34.64453	40875
34.65265	37072
34.66077	36615
34.66890	40315
34.67702	35233
34.68515	36779
34.69327	37976
34.70138	36008
34.70952	37181
34.71763	37814
34.72575	37480
34.73388	34113
34.74200	37175
34.75013	36438
34.75825	32923
34.76637	36776
34.77450	35168
34.78262	35758
34.79075	36402
34.79887	34360
34.80698	36959
34.81512	35313
34.82323	34914
34.83137	35233
34.83948	39235
34.84760	36510
34.85573	39578
34.86385	38684
34.87197	35822
34.88010	36730
34.88822	38004
34.89635	38150
34.90447	38464
34.91258	36587
34.92072	35230
34.92883	36270
34.93697	36091
34.94508	35043
34.95320	37133
34.96133	39839
34.96945	37343
34.97757	42028
34.98570	35907
34.99382	35663
35.00195	35846
35.01007	37896
35.01818	35703
35.02632	37342
35.03443	36909
35.04257	36975
35.05068	38531
35.05880	36335
35.06693	37878
35.07505	38987
35.08318	37688
35.09130	37453
35.09942	33679
35.10755	37031
35.11567	37551
35.12378	38987
35.13192	41741
35.14003	36877
35.14817	35744
35.15628	36449
35.16440	34742
35.17253	38155
35.18065	34433
35.18878	38740
35.19690	36001
35.20502	36309
35.21315	35111
35.22127	34410
35.22938	39175
35.23752	35924
35.24563	35277
35.25377	33242
35.26188	36692
35.27000	34608
35.27813	37609
35.28625	36468
35.29438	36204
35.30250	37523
35.31062	37516
35.31875	34390
35.32687	38582
35.33500	36595
35.34312	37259
35.35123	38157
35.35937	34632
35.36748	37294
35.37560	37128
35.38373	37192
35.39185	38481
35.39998	42517
35.40810	44313
35.41622	48533
35.42435	42605
35.43247	41591
35.44060	42588
35.44872	43228
35.45683	38503
35.46497	38956
35.47308	39765
35.48122	37499
35.48933	40587
35.49745	38300
35.50558	42774
35.51370	41827
35.52182	43670
35.52995	42973
35.53807	41387
35.54620	43193
35.55432	47445
35.56243	44310
35.57057	46058
35.57868	48482
35.58682	46312
35.59493	49409
35.60305	47006
35.61118	45401
35.61930	42490
35.62743	43909
35.63555	41388
35.64367	39925
35.65180	40693
35.65992	37082
35.66803	42287
35.67617	40763
35.68428	38627
35.69242	44479
35.70053	39405
35.70865	40405
35.71678	40470
35.72490	38525
35.73303	40192
35.74115	39883
35.74927	39791
35.75740	43405
35.76552	45444
35.77363	43319
35.78177	45520
35.78988	46515
35.79802	39382
35.80613	40454
35.81425	41578
35.82238	40561
35.83050	39903
35.83863	41115
35.84675	40574
35.85487	40143
35.86300	40441
35.87112	45921
35.87925	43239
35.88737	39200
35.89548	36275
35.90362	40505
35.91173	42427
35.91985	33630
35.92798	39198
35.93610	39664
35.94423	37576
35.95235	39394
35.96047	38116
35.96860	39921
35.97672	38480
35.98485	39906
35.99297	40324
36.00108	40538
36.00922	40491
36.01733	40450
36.02545	41885
36.03358	42713
36.04170	44054
36.04983	40270
36.05795	39881
36.06607	44393
36.07420	40574
36.08232	41817
36.09045	40302
36.09857	38096
36.10668	39178
36.11482	43552
36.12293	37641
36.13107	40588
36.13918	39822
36.14730	39807
36.15543	40806
36.16355	40995
36.17167	41205
36.17980	39820
36.18792	40508
36.19605	39927
36.20417	41023
36.21228	42352
36.22042	47852
36.22853	50939
36.23667	45280
36.24478	44081
36.25290	46201
36.26103	44140
36.26915	41799
36.27728	43370
36.28540	41636
36.29352	42614
36.30165	40308
36.30977	41388
36.31788	40614
36.32602	41706
36.33413	39067
36.34227	38666
36.35038	40906
36.35850	39847
36.36663	38415
36.37475	46035
36.38288	42323
36.39100	43092
36.39912	43022
36.40725	42739
36.41537	42358
36.42348	40422
36.43162	41471
36.43973	42225
36.44787	39074
36.45598	42971
36.46410	41403
36.47223	38123
36.48035	42549
36.48848	43214
36.49660	40500
36.50472	40848
36.51285	41155
36.52097	39646
36.52910	43209
36.53722	42838
36.54533	40387
36.55347	44720
36.56158	39842
36.56970	42872
36.57783	42126
36.58595	50024
36.59408	43029
36.60220	46522
36.61032	43061
36.61845	37727
36.62657	40696
36.63470	45003
36.64282	40550
36.65093	42847
36.65907	41308
36.66718	41452
36.67532	41827
36.68343	40762
36.69155	39958
36.69968	42693
36.70780	43124
36.71592	46423
36.72405	44591
36.73217	44803
36.74030	46161
36.74842	40899
36.75653	41253
36.76467	44806
36.77278	40518
36.78092	44811
36.78903	46729
36.79715	44816
36.80528	43851
36.81340	42711
36.82152	41712
36.82965	42681
36.83777	45382
36.84590	41268
36.85402	45809
36.86213	42981
36.87027	43283
36.87838	43223
36.88652	42906
36.89463	47796
36.90275	47274
36.91088	44078
36.91900	45470
36.92713	45983
36.93525	46371
36.94337	47506
36.95150	50861
36.95962	50003
36.96773	48273
36.97587	44013
36.98398	47358
36.99212	48326
37.00023	51266
37.00835	50585
37.01648	51287
37.02460	56323
37.03273	54358
37.04085	50384
37.04897	49987
37.05710	52098
37.06522	47512
37.07333	48250
37.08147	46191
37.08958	44498
37.09772	46389
37.10583	45619
37.11395	45922
37.12208	47385
37.13020	46137
37.13833	44422
37.14645	46307
37.15457	45240
37.16270	44156
37.17082	49332
37.17895	45374
37.18707	47245
37.19518	51893
37.20332	50952
37.21143	51097
37.21955	49601
37.22768	53063
37.23580	56081
37.24393	57796
37.25205	58885
37.26017	59818
37.26830	66302
37.27642	68667
37.28455	66593
37.29267	64624
37.30078	59927
37.30892	57132
37.31703	57438
37.32517	55319
37.33328	50346
37.34140	53256
37.34953	52834
37.35765	52255
37.36577	54347
37.37390	50854
37.38202	50541
37.39015	52607
37.39827	49753
37.40638	51339
37.41452	51151
37.42263	47211
37.43077	51844
37.43888	50102
37.44700	49616
37.45513	48011
37.46325	55251
37.47137	50185
37.47950	51035
37.48762	50069
