D:\MassHunter\GCMS\1\data\JTB-E02\BACandSTRAW\JTB-E02-207-06.D Wed Mar 13 11:45:44 2019
Start of data points
2.09520	425703
2.10332	450060
2.11143	475166
2.11957	516794
2.12768	545528
2.13582	580789
2.14393	614121
2.15205	618209
2.16018	636488
2.16830	639243
2.17643	637235
2.18455	620251
2.19267	618792
2.20080	594552
2.20892	588035
2.21703	562695
2.22517	550670
2.23328	533150
2.24142	519691
2.24953	504775
2.25765	490125
2.26578	493238
2.27390	461743
2.28203	450895
2.29015	443033
2.29827	425402
2.30640	426229
2.31452	404335
2.32265	408829
2.33077	394959
2.33888	392138
2.34702	369321
2.35513	368690
2.36325	375137
2.37138	363802
2.37950	368452
2.38763	428549
2.39575	598431
2.40387	909928
2.41200	1082353
2.42012	829641
2.42825	631141
2.43637	564997
2.44448	538378
2.45262	516594
2.46073	489343
2.46887	485813
2.47698	463293
2.48510	462914
2.49323	452065
2.50135	438631
2.50947	436825
2.51760	424864
2.52572	411109
2.53385	425523
2.54197	411625
2.55008	414804
2.55822	421663
2.56633	416911
2.57447	410839
2.58258	402468
2.59070	398046
2.59883	399874
2.60695	387537
2.61507	386700
2.62320	394786
2.63132	379842
2.63945	387077
2.64757	381784
2.65568	380844
2.66382	375245
2.67193	372200
2.68007	376989
2.68818	370386
2.69630	368787
2.70443	364975
2.71255	345652
2.72068	360429
2.72880	360985
2.73692	349821
2.74505	359494
2.75317	348148
2.76128	357351
2.76942	366003
2.77753	353609
2.78567	343273
2.79378	348733
2.80190	348036
2.81003	341137
2.81815	338652
2.82628	339797
2.83440	339285
2.84252	343070
2.85065	347930
2.85877	325426
2.86690	328614
2.87502	330291
2.88313	336340
2.89127	326700
2.89938	318932
2.90750	322143
2.91563	328074
2.92375	323526
2.93188	320112
2.94000	313837
2.94812	321701
2.95625	310531
2.96437	316586
2.97250	313087
2.98062	316193
2.98873	315141
2.99687	311279
3.00498	310292
3.01310	303006
3.02123	309006
3.02935	306547
3.03748	306055
3.04560	311437
3.05372	313392
3.06185	294864
3.06997	298084
3.07810	299836
3.08622	294453
3.09433	296816
3.10247	292215
3.11058	298240
3.11872	297055
3.12683	290497
3.13495	297019
3.14308	297186
3.15120	288283
3.15932	295076
3.16745	290621
3.17557	289597
3.18370	289725
3.19182	286838
3.19993	285293
3.20807	285187
3.21618	291127
3.22432	285251
3.23243	285210
3.24055	290428
3.24868	286786
3.25680	290960
3.26493	285598
3.27305	289919
3.28117	297426
3.28930	295846
3.29742	304611
3.30553	294566
3.31367	293444
3.32178	288435
3.32992	290499
3.33803	287688
3.34615	276791
3.35428	281351
3.36240	275752
3.37053	288757
3.37865	287399
3.38677	277758
3.39490	279184
3.40302	280084
3.41115	278894
3.41927	275762
3.42738	272913
3.43552	271561
3.44363	271663
3.45175	295434
3.45988	339728
3.46800	403128
3.47613	428128
3.48425	397044
3.49237	346106
3.50050	318106
3.50862	305196
3.51675	305646
3.52487	292824
3.53298	299785
3.54112	292787
3.54923	284009
3.55735	287223
3.56548	283877
3.57360	280943
3.58173	276983
3.58985	274341
3.59797	277681
3.60610	272407
3.61422	278941
3.62235	265418
3.63047	272833
3.63858	262767
3.64672	262926
3.65483	264444
3.66297	273190
3.67108	273567
3.67920	270438
3.68733	270670
3.69545	275356
3.70357	260136
3.71170	267747
3.71982	266727
3.72795	266120
3.73607	262762
3.74418	259805
3.75232	257273
3.76043	260927
3.76857	255930
3.77668	262341
3.78480	265498
3.79293	258123
3.80105	248763
3.80918	255823
3.81730	259634
3.82542	253541
3.83355	251224
3.84167	249673
3.84978	249032
3.85792	257129
3.86603	247340
3.87417	252484
3.88228	255964
3.89040	251718
3.89853	243509
3.90665	244891
3.91478	241089
3.92290	249336
3.93102	246651
3.93915	242027
3.94727	244899
3.95538	254894
3.96352	243057
3.97163	249893
3.97977	247312
3.98788	236159
3.99600	247092
4.00413	249393
4.01225	247636
4.02038	250570
4.02850	253426
4.03662	247766
4.04475	250570
4.05287	249726
4.06100	251507
4.06912	255698
4.07723	246035
4.08537	239768
4.09348	239044
4.10160	239529
4.10973	243572
4.11785	239879
4.12598	249032
4.13410	239621
4.14222	237498
4.15035	244041
4.15847	239618
4.16660	235136
4.17472	243040
4.18283	233707
4.19097	230681
4.19908	241383
4.20722	232272
4.21533	239389
4.22345	228915
4.23158	227255
4.23970	237456
4.24782	232443
4.25595	234071
4.26407	227939
4.27220	235444
4.28032	228853
4.28843	223378
4.29657	230262
4.30468	232694
4.31282	225814
4.32093	228399
4.32905	224239
4.33718	230423
4.34530	230705
4.35342	227746
4.36155	231029
4.36967	227754
4.37780	239423
4.38592	227155
4.39403	234475
4.40217	229451
4.41028	231199
4.41842	234120
4.42653	231257
4.43465	238484
4.44278	232777
4.45090	227758
4.45903	224004
4.46715	235023
4.47527	230657
4.48340	230690
4.49152	231739
4.49963	224093
4.50777	220087
4.51588	219488
4.52402	220953
4.53213	226070
4.54025	215823
4.54838	224213
4.55650	222513
4.56463	226074
4.57275	224353
4.58087	225705
4.58900	218344
4.59712	219849
4.60525	219669
4.61337	220026
4.62148	217026
4.62962	221539
4.63773	228295
4.64585	219345
4.65398	219730
4.66210	218782
4.67023	220783
4.67835	206221
4.68647	216876
4.69460	222901
4.70272	221490
4.71085	213927
4.71897	222261
4.72708	215661
4.73522	220847
4.74333	216141
4.75147	223645
4.75958	217835
4.76770	221492
4.77583	228514
4.78395	224886
4.79207	225177
4.80020	224340
4.80832	220517
4.81645	220989
4.82457	222441
4.83268	221751
4.84082	230640
4.84893	229200
4.85707	225059
4.86518	221338
4.87330	224688
4.88143	224262
4.88955	216240
4.89767	220054
4.90580	223334
4.91392	222505
4.92205	219354
4.93017	218575
4.93828	218657
4.94642	223426
4.95453	220086
4.96267	220442
4.97078	217824
4.97890	219338
4.98703	222280
4.99515	218023
5.00328	214930
5.01140	219342
5.01952	223998
5.02765	217568
5.03577	216540
5.04388	210664
5.05202	220997
5.06013	215364
5.06827	215719
5.07638	272346
5.08450	213567
5.09263	219272
5.10075	217317
5.10888	214067
5.11700	223579
5.12512	217047
5.13325	223699
5.14137	259113
5.14950	312339
5.15762	369498
5.16573	370533
5.17387	338107
5.18198	290548
5.19010	271457
5.19823	257083
5.20635	254241
5.21448	241761
5.22260	230629
5.23072	234674
5.23885	233881
5.24697	225727
5.25510	220167
5.26322	220992
5.27133	224917
5.27947	220302
5.28758	219444
5.29570	209758
5.30383	215669
5.31195	214403
5.32008	215888
5.32820	213005
5.33632	215504
5.34445	218627
5.35257	211684
5.36070	214133
5.36882	206063
5.37693	214525
5.38507	210755
5.39318	210283
5.40132	205537
5.40943	198798
5.41755	193577
5.42568	207575
5.43380	197020
5.44192	194062
5.45005	197118
5.45817	187862
5.46630	193141
5.47442	193400
5.48253	200950
5.49067	202085
5.49878	191033
5.50692	188282
5.51503	192109
5.52315	191529
5.53128	193432
5.53940	185001
5.54753	182072
5.55565	191298
5.56377	185232
5.57190	186094
5.58002	182269
5.58813	197102
5.59627	189727
5.60438	189043
5.61252	186643
5.62063	195989
5.62875	186428
5.63688	187543
5.64500	184956
5.65313	185666
5.66125	187343
5.66937	182351
5.67750	177972
5.68562	180460
5.69373	181823
5.70187	195884
5.70998	189573
5.71812	180853
5.72623	192264
5.73435	184324
5.74248	178053
5.75060	186576
5.75873	191855
5.76685	180798
5.77497	177743
5.78310	179403
5.79122	182746
5.79935	181460
5.80747	177971
5.81558	175296
5.82372	181230
5.83183	180044
5.83995	184176
5.84808	182116
5.85620	180414
5.86433	178130
5.87245	179617
5.88057	167854
5.88870	178808
5.89682	181502
5.90495	189095
5.91307	179939
5.92118	184624
5.92932	179262
5.93743	191617
5.94557	181390
5.95368	184919
5.96180	212566
5.96993	256157
5.97805	301748
5.98617	350014
5.99430	367787
6.00242	371332
6.01055	362080
6.01867	360712
6.02678	353095
6.03492	351841
6.04303	350548
6.05117	361405
6.05928	351692
6.06740	354693
6.07553	342404
6.08365	337678
6.09178	328688
6.09990	323584
6.10802	331364
6.11615	327439
6.12427	331774
6.13238	329398
6.14052	326964
6.14863	326189
6.15677	327034
6.16488	316473
6.17300	316515
6.18113	311681
6.18925	319118
6.19738	304963
6.20550	318651
6.21362	309228
6.22175	320138
6.22987	314424
6.23798	321114
6.24612	311563
6.25423	306476
6.26237	314987
6.27048	323989
6.27860	318253
6.28673	318194
6.29485	325814
6.30298	329824
6.31110	335527
6.31922	348195
6.32735	339555
6.33547	325551
6.34360	307725
6.35172	307602
6.35983	312737
6.36797	317452
6.37608	308220
6.38420	307663
6.39233	311929
6.40045	311808
6.40858	296065
6.41670	308705
6.42482	312045
6.43295	307701
6.44107	301498
6.44920	309907
6.45732	329370
6.46543	309023
6.47357	308285
6.48168	324463
6.48982	323868
6.49793	330292
6.50605	332369
6.51418	343750
6.52230	346711
6.53042	353494
6.53855	362832
6.54667	360890
6.55480	383521
6.56292	378796
6.57103	357589
6.57917	343330
6.58728	335515
6.59542	336626
6.60353	326520
6.61165	314858
6.61978	323275
6.62790	306796
6.63602	316591
6.64415	314357
6.65227	310585
6.66040	307261
6.66852	313661
6.67663	294455
6.68477	304825
6.69288	304034
6.70102	306258
6.70913	298471
6.71725	291584
6.72538	297655
6.73350	293130
6.74163	296757
6.74975	300323
6.75787	291785
6.76600	292987
6.77412	294035
6.78223	287622
6.79037	292814
6.79848	297392
6.80662	290611
6.81473	296232
6.82285	284196
6.83098	293354
6.83910	280719
6.84723	281477
6.85535	280629
6.86347	276232
6.87160	286186
6.87972	290375
6.88785	276023
6.89597	281431
6.90408	282236
6.91222	287126
6.92033	278530
6.92845	277858
6.93658	285997
6.94470	266107
6.95283	275169
6.96095	273464
6.96907	274337
6.97720	284813
6.98532	288534
6.99345	274577
7.00157	268854
7.00968	266599
7.01782	277336
7.02593	283279
7.03405	265528
7.04218	268675
7.05030	275347
7.05843	277358
7.06655	274458
7.07467	266989
7.08280	269568
7.09092	269099
7.09905	270622
7.10717	271762
7.11528	264014
7.12342	270321
7.13153	262221
7.13967	270600
7.14778	267773
7.15590	268925
7.16403	257494
7.17215	258786
7.18027	264728
7.18840	257938
7.19652	267484
7.20465	262523
7.21277	272020
7.22088	264903
7.22902	279526
7.23713	277767
7.24527	277737
7.25338	284944
7.26150	273619
7.26963	269842
7.27775	276817
7.28588	278799
7.29400	273621
7.30212	266634
7.31025	277958
7.31837	267406
7.32648	267513
7.33462	270499
7.34273	274098
7.35087	269849
7.35898	268589
7.36710	262272
7.37523	265020
7.38335	279064
7.39148	264921
7.39960	270844
7.40772	266688
7.41585	269106
7.42397	259043
7.43210	269114
7.44022	268744
7.44833	269337
7.45647	260710
7.46458	261070
7.47270	262705
7.48083	264370
7.48895	260642
7.49708	267756
7.50520	260260
7.51332	262339
7.52145	256859
7.52957	255695
7.53770	257290
7.54582	253825
7.55393	249923
7.56207	247747
7.57018	251035
7.57830	254106
7.58643	258548
7.59455	264684
7.60268	260511
7.61080	259169
7.61892	264284
7.62705	258001
7.63517	253834
7.64330	249067
7.65142	260412
7.65953	258690
7.66767	253436
7.67578	248080
7.68392	257466
7.69203	248310
7.70015	242526
7.70828	245136
7.71640	243544
7.72452	239377
7.73265	252227
7.74077	235372
7.74890	228369
7.75702	199623
7.76513	171694
7.77327	160909
7.78138	164641
7.78952	151493
7.79763	154575
7.80575	158824
7.81388	151912
7.82200	159559
7.83013	156564
7.83825	154466
7.84637	157963
7.85450	155870
7.86262	156307
7.87073	163396
7.87887	159523
7.88698	149534
7.89512	157117
7.90323	150689
7.91135	143977
7.91948	147098
7.92760	161442
7.93573	151607
7.94385	154948
7.95197	166210
7.96010	150873
7.96822	147142
7.97633	151223
7.98447	146724
7.99258	143516
8.00072	147022
8.00883	152590
8.01695	148031
8.02508	143300
8.03320	148364
8.04133	149329
8.04945	148834
8.05757	144586
8.06570	142124
8.07382	144432
8.08195	143129
8.09007	157416
8.09818	148584
8.10632	148438
8.11443	141645
8.12255	140224
8.13068	147283
8.13880	138126
8.14693	141916
8.15505	140898
8.16317	146867
8.17130	137822
8.17942	134959
8.18755	134325
8.19567	143628
8.20378	144864
8.21192	141087
8.22003	137041
8.22817	150428
8.23628	139962
8.24440	144362
8.25253	134507
8.26065	135322
8.26877	141467
8.27690	138845
8.28502	145049
8.29315	134073
8.30127	136907
8.30938	144016
8.31752	143387
8.32563	140913
8.33377	145449
8.34188	147050
8.35000	152499
8.35813	147157
8.36625	142414
8.37437	145847
8.38250	151090
8.39062	147618
8.39875	143257
8.40687	144404
8.41498	138632
8.42312	147034
8.43123	154280
8.43937	141795
8.44748	144618
8.45560	138679
8.46373	141768
8.47185	136400
8.47998	128485
8.48810	143545
8.49622	140838
8.50435	142311
8.51247	149612
8.52058	139708
8.52872	139627
8.53683	140462
8.54497	135780
8.55308	143158
8.56120	142157
8.56933	137268
8.57745	138880
8.58558	132932
8.59370	132124
8.60182	130923
8.60995	134738
8.61807	139316
8.62620	134077
8.63432	140121
8.64243	137708
8.65057	141480
8.65868	134927
8.66680	132570
8.67493	141961
8.68305	138211
8.69118	136208
8.69930	135961
8.70742	146256
8.71555	134234
8.72367	133099
8.73180	140449
8.73992	135788
8.74803	134057
8.75617	134397
8.76428	137862
8.77242	138392
8.78053	139236
8.78865	134293
8.79678	138636
8.80490	132829
8.81302	136306
8.82115	130815
8.82927	144171
8.83740	136845
8.84552	138876
8.85363	137700
8.86177	139315
8.86988	136699
8.87802	138188
8.88613	146992
8.89425	137289
8.90238	140055
8.91050	141270
8.91862	152592
8.92675	137595
8.93487	141006
8.94300	138953
8.95112	137817
8.95923	136568
8.96737	143881
8.97548	133561
8.98362	133929
8.99173	140718
8.99985	134196
9.00798	142516
9.01610	151043
9.02423	171806
9.03235	243801
9.04047	329399
9.04860	402830
9.05672	436121
9.06483	419207
9.07297	347747
9.08108	274185
9.08922	225597
9.09733	199475
9.10545	170694
9.11358	162668
9.12170	160318
9.12983	158184
9.13795	141487
9.14607	146360
9.15420	147916
9.16232	147698
9.17045	140480
9.17857	145142
9.18668	141219
9.19482	139923
9.20293	129929
9.21105	135596
9.21918	132338
9.22730	134575
9.23543	158451
9.24355	185727
9.25167	182401
9.25980	249687
9.26792	403674
9.27605	311832
9.28417	245465
9.29228	212753
9.30042	194641
9.30853	196939
9.31665	197719
9.32478	181357
9.33290	178565
9.34103	183483
9.34915	180810
9.35727	163753
9.36540	163657
9.37352	165462
9.38165	163323
9.38977	165390
9.39788	159206
9.40602	161351
9.41413	164104
9.42227	160767
9.43038	158547
9.43850	165268
9.44663	160707
9.45475	154490
9.46287	158736
9.47100	154379
9.47912	153783
9.48725	147388
9.49537	150877
9.50348	153796
9.51162	151035
9.51973	154183
9.52787	160603
9.53598	155464
9.54410	153558
9.55223	147834
9.56035	145901
9.56848	153786
9.57660	148803
9.58472	147463
9.59285	150379
9.60097	163420
9.60908	158940
9.61722	148919
9.62533	157961
9.63347	170746
9.64158	258621
9.64970	2257173
9.65783	6605960
9.66595	3910801
9.67408	1671555
9.68220	872342
9.69032	546410
9.69845	390595
9.70657	315135
9.71468	270225
9.72282	257085
9.73093	235468
9.73907	234541
9.74718	224824
9.75530	226799
9.76343	225897
9.77155	219335
9.77968	211099
9.78780	203742
9.79592	201455
9.80405	213746
9.81217	205569
9.82030	184398
9.82842	184102
9.83653	184524
9.84467	187813
9.85278	201845
9.86090	201285
9.86903	202805
9.87715	197634
9.88528	207553
9.89340	213152
9.90152	226896
9.90965	236787
9.91777	270019
9.92590	254279
9.93402	240706
9.94213	228762
9.95027	232174
9.95838	227074
9.96652	229064
9.97463	222910
9.98275	217257
9.99088	215570
9.99900	208053
10.00712	209988
10.01525	215197
10.02337	220273
10.03150	233778
10.03962	233071
10.04773	222299
10.05587	213756
10.06398	213098
10.07212	204875
10.08023	208063
10.08835	211844
10.09648	270263
10.10460	1140267
10.11273	5180420
10.12085	7201671
10.12897	4182783
10.13710	2020696
10.14522	1146183
10.15333	713264
10.16147	498469
10.16958	380612
10.17772	324553
10.18583	293676
10.19395	282321
10.20208	270285
10.21020	290060
10.21833	319731
10.22645	305226
10.23457	264467
10.24270	239919
10.25082	226630
10.25893	220919
10.26707	226460
10.27518	230994
10.28332	225393
10.29143	222012
10.29955	220162
10.30768	221938
10.31580	222142
10.32393	215779
10.33205	215979
10.34017	209552
10.34830	204919
10.35642	222717
10.36455	234136
10.37267	204611
10.38078	220399
10.38892	213338
10.39703	214093
10.40515	220981
10.41328	216905
10.42140	206981
10.42953	195821
10.43765	193631
10.44577	194258
10.45390	203085
10.46202	190282
10.47015	191217
10.47827	198316
10.48638	214813
10.49452	238582
10.50263	222647
10.51077	201976
10.51888	215428
10.52700	191794
10.53513	193570
10.54325	191760
10.55137	209240
10.55950	217520
10.56762	218428
10.57575	225849
10.58387	224224
10.59198	244883
10.60012	266780
10.60823	234867
10.61637	235167
10.62448	254906
10.63260	250472
10.64073	235000
10.64885	221239
10.65697	213438
10.66510	209672
10.67322	204589
10.68135	216122
10.68947	212417
10.69758	209639
10.70572	212972
10.71383	216810
10.72197	231699
10.73008	215929
10.73820	220049
10.74633	219195
10.75445	209364
10.76258	206403
10.77070	204994
10.77882	195152
10.78695	185639
10.79507	197359
10.80318	257324
10.81132	247618
10.81943	222764
10.82757	205800
10.83568	213020
10.84380	222364
10.85193	234710
10.86005	239432
10.86818	226778
10.87630	217912
10.88442	203853
10.89255	207588
10.90067	199806
10.90880	187618
10.91692	199855
10.92503	191947
10.93317	198848
10.94128	196296
10.94940	205229
10.95753	220709
10.96565	218939
10.97378	201040
10.98190	195090
10.99002	190792
10.99815	178923
11.00627	181853
11.01440	173846
11.02252	169492
11.03063	172123
11.03877	180755
11.04688	179796
11.05500	181607
11.06313	183126
11.07125	169576
11.07938	160956
11.08750	159115
11.09562	169646
11.10375	171530
11.11187	171751
11.12000	166385
11.12812	159874
11.13623	165876
11.14437	170681
11.15248	185392
11.16062	174888
11.16873	176310
11.17685	167233
11.18498	162521
11.19310	161691
11.20122	162444
11.20935	175128
11.21747	162982
11.22560	164173
11.23372	168477
11.24183	165661
11.24997	162583
11.25808	160347
11.26622	156296
11.27433	152388
11.28245	149841
11.29058	152892
11.29870	153350
11.30683	159545
11.31495	151409
11.32307	160703
11.33120	174803
11.33932	164787
11.34743	187875
11.35557	231733
11.36368	205410
11.37182	167946
11.37993	150742
11.38805	154905
11.39618	159958
11.40430	162272
11.41243	155786
11.42055	152492
11.42867	160105
11.43680	163848
11.44492	157678
11.45305	165991
11.46117	187594
11.46928	217367
11.47742	178644
11.48553	168177
11.49365	160276
11.50178	158255
11.50990	162897
11.51803	154762
11.52615	159413
11.53427	166979
11.54240	158052
11.55052	148127
11.55865	157536
11.56677	162709
11.57488	198147
11.58302	404383
11.59113	1257470
11.59925	2631050
11.60738	3216744
11.61550	2480137
11.62363	1392011
11.63175	765963
11.63987	479145
11.64800	349584
11.65612	285000
11.66425	253826
11.67237	228178
11.68048	207525
11.68862	204776
11.69673	201124
11.70487	199867
11.71298	206565
11.72110	226361
11.72923	218671
11.73735	200332
11.74547	193623
11.75360	193363
11.76172	184041
11.76985	194166
11.77797	212379
11.78608	233939
11.79422	241731
11.80233	220347
11.81047	190721
11.81858	188484
11.82670	164416
11.83483	161951
11.84295	163409
11.85108	161243
11.85920	163677
11.86732	159239
11.87545	160155
11.88357	163325
11.89168	164364
11.89982	172349
11.90793	190963
11.91607	218711
11.92418	211685
11.93230	185051
11.94043	160823
11.94855	152510
11.95668	152123
11.96480	154756
11.97292	150121
11.98105	164205
11.98917	173384
11.99728	181603
12.00542	170711
12.01353	150460
12.02167	138330
12.02978	144395
12.03790	138593
12.04603	139262
12.05415	142068
12.06228	139498
12.07040	161885
12.07852	152672
12.08665	149551
12.09477	158308
12.10290	165926
12.11102	164809
12.11913	155486
12.12727	149488
12.13538	139809
12.14350	133867
12.15163	130790
12.15975	137530
12.16788	129951
12.17600	142870
12.18412	142954
12.19225	168823
12.20037	196607
12.20850	207039
12.21662	169195
12.22473	138895
12.23287	139034
12.24098	142078
12.24912	143194
12.25723	138761
12.26535	140059
12.27348	137134
12.28160	140737
12.28972	131168
12.29785	128578
12.30597	126801
12.31410	125409
12.32222	128748
12.33033	129470
12.33847	131629
12.34658	126080
12.35472	129447
12.36283	132066
12.37095	135233
12.37908	133924
12.38720	128924
12.39532	131547
12.40345	132309
12.41157	130011
12.41970	130603
12.42782	132823
12.43593	132226
12.44407	137616
12.45218	139333
12.46032	129873
12.46843	145551
12.47655	181713
12.48468	253338
12.49280	303467
12.50093	301093
12.50905	235963
12.51717	192650
12.52530	165415
12.53342	146028
12.54153	139021
12.54967	145810
12.55778	137987
12.56592	139481
12.57403	137735
12.58215	132555
12.59028	128245
12.59840	127193
12.60653	127066
12.61465	133093
12.62277	135218
12.63090	126187
12.63902	131547
12.64715	126783
12.65527	121600
12.66338	127130
12.67152	129639
12.67963	117025
12.68775	120808
12.69588	121891
12.70400	127472
12.71213	127686
12.72025	124896
12.72837	121361
12.73650	122394
12.74462	120996
12.75275	122781
12.76087	128303
12.76898	142909
12.77712	227065
12.78523	335797
12.79337	374502
12.80148	289777
12.80960	194326
12.81773	159400
12.82585	184640
12.83397	206536
12.84210	177650
12.85022	146024
12.85835	142620
12.86647	127473
12.87458	128238
12.88272	137287
12.89083	143507
12.89897	156215
12.90708	163925
12.91520	164298
12.92333	144114
12.93145	122329
12.93957	120531
12.94770	127246
12.95582	142167
12.96395	145430
12.97207	153049
12.98018	139396
12.98832	131257
12.99643	130951
13.00457	133109
13.01268	127751
13.02080	117772
13.02893	118303
13.03705	126018
13.04518	116182
13.05330	124066
13.06142	115342
13.06955	123774
13.07767	121050
13.08578	123595
13.09392	119260
13.10203	126011
13.11017	121142
13.11828	122124
13.12640	137085
13.13453	151838
13.14265	171852
13.15078	180804
13.15890	164744
13.16702	149538
13.17515	148705
13.18327	131053
13.19140	114840
13.19952	114686
13.20763	125061
13.21577	120027
13.22388	125518
13.23200	132077
13.24013	132054
13.24825	122612
13.25638	128889
13.26450	134405
13.27262	136306
13.28075	134916
13.28887	123342
13.29700	118346
13.30512	117141
13.31323	116211
13.32137	123329
13.32948	131448
13.33760	136273
13.34573	139282
13.35385	141071
13.36198	139267
13.37010	139339
13.37822	126502
13.38635	122330
13.39447	120327
13.40260	135467
13.41072	140716
13.41883	142026
13.42697	136486
13.43508	134835
13.44322	143595
13.45133	147998
13.45945	160594
13.46758	155674
13.47570	146170
13.48382	132795
13.49195	125404
13.50007	119305
13.50820	117108
13.51632	113570
13.52443	118314
13.53257	114569
13.54068	122262
13.54882	108985
13.55693	112821
13.56505	117263
13.57318	119672
13.58130	118705
13.58943	127178
13.59755	139322
13.60567	132250
13.61380	126921
13.62192	127407
13.63003	147939
13.63817	160572
13.64628	165213
13.65442	165619
13.66253	154566
13.67065	142421
13.67878	130367
13.68690	129289
13.69503	128163
13.70315	119493
13.71127	112711
13.71940	109756
13.72752	117293
13.73563	122082
13.74377	115817
13.75188	110843
13.76002	119093
13.76813	111197
13.77625	117593
13.78438	117453
13.79250	128305
13.80063	173546
13.80875	269753
13.81687	406722
13.82500	483378
13.83312	432529
13.84125	292904
13.84937	174728
13.85748	129593
13.86562	126297
13.87373	119868
13.88185	116601
13.88998	117506
13.89810	112065
13.90623	116458
13.91435	109496
13.92247	106834
13.93060	113680
13.93872	111690
13.94685	114423
13.95497	112746
13.96308	115586
13.97122	118931
13.97933	121549
13.98747	133727
13.99558	130001
14.00370	142073
14.01183	140961
14.01995	133219
14.02807	128400
14.03620	120634
14.04432	127706
14.05245	118307
14.06057	122585
14.06868	115406
14.07682	116206
14.08493	114861
14.09307	112316
14.10118	113784
14.10930	111926
14.11743	113327
14.12555	112787
14.13368	116510
14.14180	121024
14.14992	116079
14.15805	122026
14.16617	112325
14.17428	123881
14.18242	113662
14.19053	119870
14.19867	115423
14.20678	113723
14.21490	118358
14.22303	121169
14.23115	132057
14.23928	145516
14.24740	167561
14.25552	164670
14.26365	151112
14.27177	129651
14.27988	120991
14.28802	123892
14.29613	120033
14.30427	123522
14.31238	120543
14.32050	127182
14.32863	119365
14.33675	122765
14.34488	121532
14.35300	115494
14.36112	118519
14.36925	130631
14.37737	121725
14.38550	118494
14.39362	123121
14.40173	114262
14.40987	121872
14.41798	118579
14.42610	128139
14.43423	143746
14.44235	159049
14.45048	181759
14.45860	217820
14.46672	277469
14.47485	392318
14.48297	482245
14.49110	519344
14.49922	439549
14.50733	312946
14.51547	219787
14.52358	143655
14.53172	136303
14.53983	137959
14.54795	155053
14.55608	170622
14.56420	182687
14.57232	179213
14.58045	186835
14.58857	174699
14.59670	165206
14.60482	161079
14.61293	142850
14.62107	133948
14.62918	133825
14.63732	142672
14.64543	136065
14.65355	143696
14.66168	143854
14.66980	155827
14.67792	150586
14.68605	145256
14.69417	137070
14.70230	137593
14.71042	138597
14.71853	139530
14.72667	127385
14.73478	141252
14.74292	125822
14.75103	128590
14.75915	130465
14.76728	119462
14.77540	129860
14.78353	135934
14.79165	131043
14.79977	168819
14.80790	178329
14.81602	185709
14.82413	178306
14.83227	145561
14.84038	146820
14.84852	133241
14.85663	147779
14.86475	135961
14.87288	149049
14.88100	183050
14.88913	226876
14.89725	247927
14.90537	238274
14.91350	197637
14.92162	158312
14.92975	143932
14.93787	128878
14.94598	128998
14.95412	129987
14.96223	132762
14.97035	128835
14.97848	124768
14.98660	127552
14.99473	134967
15.00285	142707
15.01097	147997
15.01910	151438
15.02722	144066
15.03535	139037
15.04347	150334
15.05158	151162
15.05972	152154
15.06783	149171
15.07595	157077
15.08408	168136
15.09220	167802
15.10033	158682
15.10845	142895
15.11657	130699
15.12470	129147
15.13282	135527
15.14095	128532
15.14907	154774
15.15718	242148
15.16532	456216
15.17343	762825
15.18157	1012967
15.18968	973651
15.19780	726991
15.20593	443178
15.21405	269456
15.22217	184042
15.23030	158971
15.23842	152479
15.24655	136305
15.25467	127929
15.26278	133172
15.27092	123651
15.27903	134025
15.28717	122742
15.29528	126644
15.30340	126544
15.31153	112872
15.31965	111071
15.32778	125777
15.33590	117896
15.34402	123891
15.35215	131759
15.36027	112856
15.36838	113244
15.37652	109403
15.38463	109081
15.39277	112230
15.40088	111197
15.40900	115115
15.41713	108918
15.42525	120949
15.43338	119877
15.44150	135025
15.44962	134750
15.45775	137992
15.46587	142473
15.47400	154583
15.48212	173352
15.49023	177251
15.49837	163952
15.50648	145330
15.51460	137792
15.52273	130905
15.53085	127820
15.53898	118922
15.54710	129117
15.55522	125253
15.56335	119355
15.57147	116973
15.57960	132269
15.58772	120952
15.59583	125203
15.60397	126218
15.61208	124596
15.62020	198173
15.62833	932306
15.63645	1893204
15.64458	1353709
15.65270	642952
15.66082	409842
15.66895	326622
15.67707	298281
15.68520	323600
15.69332	284834
15.70143	237030
15.70957	224628
15.71768	206697
15.72582	201941
15.73393	206617
15.74205	203016
15.75018	190145
15.75830	181488
15.76642	185833
15.77455	180523
15.78267	175754
15.79080	183698
15.79892	170394
15.80703	335481
15.81517	1928993
15.82328	2924069
15.83142	1760115
15.83953	1251892
15.84765	1025721
15.85578	835961
15.86390	717624
15.87203	619875
15.88015	545462
15.88827	497874
15.89640	456779
15.90452	423532
15.91263	400468
15.92077	387765
15.92888	363302
15.93702	348398
15.94513	346694
15.95325	578229
15.96138	1168495
15.96950	983776
15.97763	712232
15.98575	608974
15.99387	566695
16.00200	529498
16.01012	532736
16.01823	516475
16.02637	475517
16.03448	442445
16.04262	383056
16.05073	349138
16.05885	321546
16.06698	322614
16.07510	302871
16.08323	298284
16.09135	300297
16.09947	306570
16.10760	283294
16.11572	272298
16.12385	264056
16.13197	255331
16.14008	254126
16.14822	247543
16.15633	248553
16.16445	247611
16.17258	253486
16.18070	247124
16.18883	246090
16.19695	235086
16.20507	224765
16.21320	220509
16.22132	239940
16.22945	265487
16.23757	240832
16.24568	233807
16.25382	221730
16.26193	215820
16.27007	230068
16.27818	224679
16.28630	212677
16.29443	202636
16.30255	220071
16.31067	264248
16.31880	309676
16.32692	337095
16.33505	309471
16.34317	267806
16.35128	261102
16.35942	245694
16.36753	253479
16.37567	252546
16.38378	237493
16.39190	228533
16.40003	245909
16.40815	302898
16.41627	378044
16.42440	388920
16.43252	398032
16.44065	430859
16.44877	464995
16.45688	460529
16.46502	421406
16.47313	362420
16.48127	311695
16.48938	263361
16.49750	246722
16.50563	223621
16.51375	214721
16.52188	199081
16.53000	202421
16.53812	209674
16.54625	200198
16.55437	209037
16.56248	201885
16.57062	196111
16.57873	202584
16.58687	211706
16.59498	225714
16.60310	260758
16.61123	301242
16.61935	325224
16.62748	322671
16.63560	297130
16.64372	260088
16.65185	231437
16.65997	207333
16.66810	193875
16.67622	194589
16.68433	186088
16.69247	190298
16.70058	184981
16.70870	180284
16.71683	175478
16.72495	177591
16.73308	167423
16.74120	167641
16.74932	163875
16.75745	167869
16.76557	159278
16.77370	164879
16.78182	163240
16.78993	165693
16.79807	165016
16.80618	166794
16.81432	164290
16.82243	164745
16.83055	167079
16.83868	167621
16.84680	175753
16.85492	178517
16.86305	174432
16.87117	174475
16.87930	173600
16.88742	174830
16.89553	169294
16.90367	170540
16.91178	159332
16.91992	155289
16.92803	160594
16.93615	158149
16.94428	168057
16.95240	162578
16.96052	166384
16.96865	162025
16.97677	166439
16.98490	157726
16.99302	166576
17.00113	160469
17.00927	157463
17.01738	168527
17.02552	162183
17.03363	161763
17.04175	152110
17.04988	153995
17.05800	154232
17.06613	157309
17.07425	148114
17.08237	162859
17.09050	144733
17.09862	149467
17.10673	145650
17.11487	138143
17.12298	143529
17.13112	146584
17.13923	155178
17.14735	162096
17.15548	169122
17.16360	169604
17.17173	164581
17.17985	155675
17.18797	147189
17.19610	145371
17.20422	145632
17.21235	150428
17.22047	155777
17.22858	148508
17.23672	150588
17.24483	148721
17.25295	146245
17.26108	150231
17.26920	145250
17.27733	144576
17.28545	142215
17.29357	168329
17.30170	144137
17.30982	149954
17.31795	154038
17.32607	147357
17.33418	155557
17.34232	154806
17.35043	145082
17.35855	143612
17.36668	143076
17.37480	143821
17.38293	144380
17.39105	142421
17.39917	175107
17.40730	255394
17.41542	412529
17.42355	624261
17.43167	790783
17.43978	781375
17.44792	623727
17.45603	427465
17.46417	298978
17.47228	233298
17.48040	204920
17.48853	183815
17.49665	172635
17.50477	162440
17.51290	162621
17.52102	170250
17.52915	167281
17.53727	172679
17.54538	167868
17.55352	162601
17.56163	163242
17.56977	160919
17.57788	144684
17.58600	148736
17.59413	137455
17.60225	167589
17.61038	138488
17.61850	145690
17.62662	147942
17.63475	146915
17.64287	160481
17.65098	141249
17.65912	151128
17.66723	145030
17.67537	143260
17.68348	146978
17.69160	148627
17.69973	152634
17.70785	165343
17.71598	154502
17.72410	149947
17.73222	148415
17.74035	136908
17.74847	139315
17.75658	133389
17.76472	132721
17.77283	131957
17.78097	138794
17.78908	142239
17.79720	148546
17.80533	155416
17.81345	157338
17.82158	170440
17.82970	173742
17.83782	175103
17.84595	175980
17.85407	180359
17.86220	176387
17.87032	174410
17.87843	163500
17.88657	157364
17.89468	149983
17.90280	157313
17.91093	168150
17.91905	177019
17.92718	173846
17.93530	177540
17.94342	165664
17.95155	160245
17.95967	159593
17.96780	152763
17.97592	155061
17.98403	158883
17.99217	155602
18.00028	160287
18.00842	150827
18.01653	152797
18.02465	180843
18.03278	188846
18.04090	176210
18.04902	169054
18.05715	171868
18.06527	157985
18.07340	148387
18.08152	143828
18.08963	141280
18.09777	146665
18.10588	139636
18.11402	155890
18.12213	164496
18.13025	178662
18.13838	179642
18.14650	197492
18.15463	174093
18.16275	166329
18.17087	168409
18.17900	168807
18.18712	167036
18.19523	174492
18.20337	175112
18.21148	178400
18.21962	190440
18.22773	199485
18.23585	188039
18.24398	177112
18.25210	166599
18.26023	164375
18.26835	164215
18.27647	159504
18.28460	160884
18.29272	149276
18.30083	151755
18.30897	149777
18.31708	146229
18.32522	142893
18.33333	134895
18.34145	138233
18.34958	143772
18.35770	161734
18.36583	188195
18.37395	234726
18.38207	275053
18.39020	298273
18.39832	287933
18.40645	266742
18.41457	224041
18.42268	192963
18.43082	173628
18.43893	167134
18.44705	156258
18.45518	151453
18.46330	154333
18.47143	147021
18.47955	151103
18.48767	141970
18.49580	165205
18.50392	139217
18.51205	141464
18.52017	140273
18.52828	142973
18.53642	155398
18.54453	161273
18.55267	177441
18.56078	177443
18.56890	179765
18.57703	174993
18.58515	175451
18.59327	171062
18.60140	167609
18.60952	201525
18.61765	240770
18.62577	263031
18.63388	274562
18.64202	292820
18.65013	287191
18.65827	289399
18.66638	281627
18.67450	298565
18.68263	309163
18.69075	306348
18.69888	281549
18.70700	268053
18.71512	245065
18.72325	241487
18.73137	234499
18.73948	228799
18.74762	226735
18.75573	218629
18.76387	209612
18.77198	210679
18.78010	204172
18.78823	189542
18.79635	193417
18.80448	184011
18.81260	175319
18.82072	178840
18.82885	178296
18.83697	180746
18.84508	180977
18.85322	177182
18.86133	170623
18.86947	171234
18.87758	170160
18.88570	172504
18.89383	171739
18.90195	168811
18.91008	169185
18.91820	165216
18.92632	159956
18.93445	164744
18.94257	181163
18.95070	205352
18.95882	188436
18.96693	200567
18.97507	209563
18.98318	178555
18.99130	168138
18.99943	157555
19.00755	159788
19.01568	150914
19.02380	138672
19.03192	139545
19.04005	138756
19.04817	135177
19.05630	151828
19.06442	155235
19.07253	172863
19.08067	200466
19.08878	219252
19.09692	241953
19.10503	238284
19.11315	233689
19.12128	213379
19.12940	196905
19.13752	191764
19.14565	171126
19.15377	161636
19.16190	169898
19.17002	156859
19.17813	153378
19.18627	152770
19.19438	158562
19.20252	159619
19.21063	161240
19.21875	172588
19.22688	154146
19.23500	156802
19.24312	147639
19.25125	156637
19.25937	170517
19.26750	184953
19.27562	201869
19.28373	203541
19.29187	215048
19.29998	210473
19.30812	206855
19.31623	200678
19.32435	191242
19.33248	181159
19.34060	184342
19.34873	173628
19.35685	187100
19.36497	166718
19.37310	162953
19.38122	157005
19.38933	167920
19.39747	156130
19.40558	174856
19.41372	164444
19.42183	163540
19.42995	169339
19.43808	187926
19.44620	210354
19.45433	237891
19.46245	261165
19.47057	244662
19.47870	226733
19.48682	215591
19.49495	193031
19.50307	182032
19.51118	177789
19.51932	203620
19.52743	261538
19.53555	332313
19.54368	426820
19.55180	458072
19.55993	419169
19.56805	360873
19.57617	283963
19.58430	230473
19.59242	212915
19.60055	191180
19.60867	177551
19.61678	170180
19.62492	156664
19.63303	156909
19.64115	153065
19.64928	146609
19.65740	144780
19.66553	146878
19.67365	152486
19.68177	168672
19.68990	190118
19.69802	252753
19.70615	386262
19.71427	551375
19.72238	722679
19.73052	818646
19.73863	788666
19.74677	647438
19.75488	483712
19.76300	352322
19.77113	304366
19.77925	358776
19.78737	510096
19.79550	733027
19.80362	917688
19.81175	854322
19.81987	680075
19.82798	454365
19.83612	289330
19.84423	210312
19.85237	173559
19.86048	160304
19.86860	161148
19.87673	177242
19.88485	203082
19.89298	213201
19.90110	189154
19.90922	196225
19.91735	215209
19.92547	291185
19.93358	378028
19.94172	464878
19.94983	453472
19.95797	378125
19.96608	274059
19.97420	225887
19.98233	251749
19.99045	385887
19.99858	617099
20.00670	918502
20.01482	1078866
20.02295	997614
20.03107	788193
20.03920	507889
20.04732	339233
20.05543	254596
20.06357	222311
20.07168	214473
20.07980	199058
20.08793	187385
20.09605	177868
20.10418	171797
20.11230	166869
20.12042	166490
20.12855	165749
20.13667	165189
20.14480	161443
20.15292	172433
20.16103	175731
20.16917	190780
20.17728	196223
20.18540	191089
20.19353	195063
20.20165	188026
20.20978	200605
20.21790	252077
20.22602	397860
20.23415	588303
20.24227	816087
20.25040	917384
20.25852	865190
20.26663	665080
20.27477	464128
20.28288	309067
20.29102	240577
20.29913	209431
20.30725	193514
20.31538	188466
20.32350	183233
20.33162	191432
20.33975	225770
20.34787	294917
20.35600	425775
20.36412	540226
20.37223	580490
20.38037	557273
20.38848	454671
20.39662	343578
20.40473	273726
20.41285	215482
20.42098	201703
20.42910	194619
20.43723	180830
20.44535	180277
20.45347	172395
20.46160	179189
20.46972	165590
20.47783	168084
20.48597	162264
20.49408	159394
20.50222	156974
20.51033	159167
20.51845	171694
20.52658	165731
20.53470	170779
20.54283	178391
20.55095	179257
20.55907	181517
20.56720	185488
20.57532	197767
20.58343	207612
20.59157	197232
20.59968	211625
20.60782	224363
20.61593	243001
20.62405	235432
20.63218	238935
20.64030	214692
20.64843	196795
20.65655	186124
20.66467	176789
20.67280	164703
20.68092	163283
20.68905	158023
20.69717	150316
20.70528	150395
20.71342	146164
20.72153	153023
20.72965	148749
20.73778	145538
20.74590	149932
20.75403	143356
20.76215	147557
20.77027	155452
20.77840	157173
20.78652	173022
20.79465	212889
20.80277	327651
20.81088	561279
20.81902	914517
20.82713	1331244
20.83527	1552089
20.84338	1444541
20.85150	1081462
20.85963	729381
20.86775	495728
20.87587	371578
20.88400	315554
20.89212	300434
20.90025	309296
20.90837	319673
20.91648	340309
20.92462	322009
20.93273	299570
20.94087	259128
20.94898	241998
20.95710	232153
20.96523	251568
20.97335	270462
20.98147	321726
20.98960	379954
20.99772	393391
21.00585	362628
21.01397	301019
21.02208	263116
21.03022	221293
21.03833	195393
21.04647	191514
21.05458	201689
21.06270	188672
21.07083	194547
21.07895	194781
21.08708	210177
21.09520	194080
21.10332	206586
21.11145	197558
21.11957	207537
21.12768	207640
21.13582	201483
21.14393	198982
21.15207	191987
21.16018	191694
21.16830	181748
21.17643	176812
21.18455	180621
21.19268	176501
21.20080	176419
21.20892	168271
21.21705	167835
21.22517	170199
21.23330	167391
21.24142	171110
21.24953	177654
21.25767	166508
21.26578	188813
21.27390	188881
21.28203	189879
21.29015	187153
21.29828	186907
21.30640	178905
21.31452	170476
21.32265	165297
21.33077	161265
21.33890	154498
21.34702	154818
21.35513	155580
21.36327	160308
21.37138	160222
21.37952	174416
21.38763	180464
21.39575	180959
21.40388	189985
21.41200	182940
21.42012	191096
21.42825	174994
21.43637	169092
21.44450	160218
21.45262	164072
21.46073	154178
21.46887	158448
21.47698	154904
21.48512	150794
21.49323	157939
21.50135	144905
21.50948	140010
21.51760	141094
21.52572	146653
21.53385	145950
21.54197	148986
21.55010	153979
21.55822	154400
21.56633	164772
21.57447	148488
21.58258	164953
21.59072	162268
21.59883	170966
21.60695	212502
21.61508	309064
21.62320	422731
21.63133	529128
21.63945	527454
21.64757	473816
21.65570	366975
21.66382	295611
21.67193	254474
21.68007	229352
21.68818	208177
21.69632	204012
21.70443	202783
21.71255	193743
21.72068	204627
21.72880	214572
21.73693	215944
21.74505	228025
21.75317	236016
21.76130	231684
21.76942	216420
21.77755	193781
21.78567	187802
21.79378	177576
21.80192	180911
21.81003	175276
21.81815	203825
21.82628	218627
21.83440	275384
21.84253	360046
21.85065	411906
21.85877	430709
21.86690	409979
21.87502	361993
21.88315	307235
21.89127	278416
21.89938	260951
21.90752	254743
21.91563	254425
21.92375	247798
21.93188	244571
21.94000	260571
21.94813	268720
21.95625	264109
21.96437	251951
21.97250	249929
21.98062	249945
21.98875	236085
21.99687	243704
22.00498	236384
22.01312	224009
22.02123	220785
22.02937	244381
22.03748	279608
22.04560	364313
22.05373	496383
22.06185	609311
22.06997	670201
22.07810	615914
22.08622	522423
22.09435	408935
22.10247	336802
22.11058	269687
22.11872	250341
22.12683	225150
22.13497	220715
22.14308	222400
22.15120	230573
22.15933	234514
22.16745	227810
22.17558	241572
22.18370	226965
22.19182	247720
22.19995	234140
22.20807	235284
22.21618	236745
22.22432	249061
22.23243	254906
22.24057	282502
22.24868	338177
22.25680	401238
22.26493	477933
22.27305	498520
22.28118	467162
22.28930	389832
22.29742	331038
22.30555	269804
22.31367	250191
22.32180	247340
22.32992	236877
22.33803	237305
22.34617	222295
22.35428	219181
22.36240	221453
22.37053	205365
22.37865	214112
22.38678	208679
22.39490	209251
22.40302	208358
22.41115	194136
22.41927	207482
22.42740	208691
22.43552	227862
22.44363	260760
22.45177	284855
22.45988	299948
22.46800	295073
22.47613	280054
22.48425	258822
22.49238	232693
22.50050	220678
22.50862	225398
22.51675	204990
22.52487	205678
22.53300	209166
22.54112	208032
22.54923	213394
22.55737	201881
22.56548	203211
22.57362	211920
22.58173	211267
22.58985	221785
22.59798	221155
22.60610	219387
22.61422	216844
22.62235	219845
22.63047	218881
22.63860	230566
22.64672	236975
22.65483	250964
22.66297	261562
22.67108	260681
22.67922	244394
22.68733	251333
22.69545	273063
22.70358	303424
22.71170	403862
22.71983	549571
22.72795	724064
22.73607	803119
22.74420	841023
22.75232	723646
22.76043	565986
22.76857	436659
22.77668	332796
22.78482	266886
22.79293	238455
22.80105	229573
22.80918	221573
22.81730	220055
22.82543	222997
22.83355	215192
22.84167	224030
22.84980	217908
22.85792	224051
22.86603	250974
22.87417	265616
22.88228	297866
22.89042	347467
22.89853	348561
22.90665	344994
22.91478	323143
22.92290	315196
22.93103	322917
22.93915	335386
22.94727	335957
22.95540	338250
22.96352	336656
22.97165	326817
22.97977	293271
22.98788	266167
22.99602	250925
23.00413	252249
23.01225	242149
23.02038	256266
23.02850	261926
23.03663	270603
23.04475	259736
23.05287	247584
23.06100	219855
23.06912	205994
23.07725	194601
23.08537	182456
23.09348	187381
23.10162	195753
23.10973	193117
23.11787	189465
23.12598	191516
23.13410	213450
23.14223	217574
23.15035	264678
23.15847	300958
23.16660	339179
23.17472	333616
23.18285	310530
23.19097	263409
23.19908	246177
23.20722	212028
23.21533	188889
23.22347	191840
23.23158	182275
23.23970	176967
23.24783	178142
23.25595	186935
23.26407	172918
23.27220	189353
23.28032	186263
23.28845	198781
23.29657	205024
23.30468	211650
23.31282	234903
23.32093	231190
23.32907	244232
23.33718	256706
23.34530	274675
23.35343	278454
23.36155	277765
23.36968	273930
23.37780	262771
23.38592	242057
23.39405	235748
23.40217	217992
23.41028	219393
23.41842	215096
23.42653	222711
23.43467	262458
23.44278	315932
23.45090	394296
23.45903	462849
23.46715	512280
23.47528	508783
23.48340	462368
23.49152	381128
23.49965	326848
23.50777	297916
23.51590	260114
23.52402	245211
23.53213	236595
23.54027	238411
23.54838	222838
23.55650	212188
23.56463	197089
23.57275	194249
23.58088	190149
23.58900	191209
23.59712	197360
23.60525	194130
23.61337	222610
23.62150	221502
23.62962	240693
23.63773	278557
23.64587	348514
23.65398	457409
23.66212	563212
23.67023	638723
23.67835	618919
23.68648	530052
23.69460	392900
23.70272	317970
23.71085	265669
23.71897	249827
23.72710	237435
23.73522	235682
23.74333	239351
23.75147	256957
23.75958	305039
23.76772	384845
23.77583	439452
23.78395	519604
23.79208	505866
23.80020	436726
23.80832	349670
23.81645	290528
23.82457	258663
23.83270	227005
23.84082	227940
23.84893	218064
23.85707	220369
23.86518	219387
23.87332	227973
23.88143	232578
23.88955	240105
23.89768	232020
23.90580	234371
23.91393	227394
23.92205	211909
23.93017	208173
23.93830	210878
23.94642	201901
23.95453	205494
23.96267	207293
23.97078	203130
23.97892	220375
23.98703	209638
23.99515	217314
24.00328	203516
24.01140	208522
24.01953	223968
24.02765	215470
24.03577	211507
24.04390	216109
24.05202	214630
24.06015	207059
24.06827	222552
24.07638	225187
24.08452	239303
24.09263	248845
24.10075	242874
24.10888	243256
24.11700	233735
24.12513	234101
24.13325	210074
24.14137	199557
24.14950	199483
24.15762	200115
24.16575	198624
24.17387	198270
24.18198	197997
24.19012	195055
24.19823	193025
24.20635	197081
24.21448	196997
24.22260	200218
24.23073	207766
24.23885	237123
24.24697	245613
24.25510	295424
24.26322	340629
24.27135	352697
24.27947	376109
24.28758	357619
24.29572	351545
24.30383	316512
24.31197	305410
24.32008	293970
24.32820	281606
24.33633	274934
24.34445	265255
24.35257	254261
24.36070	277550
24.36882	320445
24.37695	448920
24.38507	638345
24.39318	774653
24.40132	844516
24.40943	779449
24.41757	676102
24.42568	574699
24.43380	503328
24.44193	435323
24.45005	379714
24.45818	362092
24.46630	347049
24.47442	346863
24.48255	357605
24.49067	337733
24.49878	341860
24.50692	296021
24.51503	282133
24.52317	270305
24.53128	273721
24.53940	272497
24.54753	266090
24.55565	268648
24.56378	282815
24.57190	295879
24.58002	296577
24.58815	304824
24.59627	300833
24.60438	274854
24.61252	263095
24.62063	248160
24.62877	245921
24.63688	243072
24.64500	238283
24.65313	250932
24.66125	254869
24.66938	277023
24.67750	296401
24.68562	317020
24.69375	367866
24.70187	414287
24.71000	469059
24.71812	491693
24.72623	496071
24.73437	474069
24.74248	432150
24.75060	391880
24.75873	337504
24.76685	303890
24.77498	284544
24.78310	279762
24.79122	269041
24.79935	269757
24.80747	286423
24.81560	308599
24.82372	339503
24.83183	346772
24.83997	377357
24.84808	390397
24.85622	395418
24.86433	372410
24.87245	359508
24.88058	337775
24.88870	322730
24.89682	325953
24.90495	325947
24.91307	306653
24.92120	302821
24.92932	283512
24.93743	276984
24.94557	270599
24.95368	318413
24.96182	539794
24.96993	1239995
24.97805	2680159
24.98618	4434744
24.99430	5456038
25.00243	5140346
25.01055	3922620
25.01867	2753128
25.02680	1953452
25.03492	1475735
25.04303	1240743
25.05117	1097364
25.05928	1045661
25.06742	969148
25.07553	933849
25.08365	846746
25.09178	736061
25.09990	612697
25.10803	531959
25.11615	482823
25.12427	442974
25.13240	442425
25.14052	419240
25.14863	406054
25.15677	399966
25.16488	370308
25.17302	346743
25.18113	334239
25.18925	329892
25.19738	312707
25.20550	300904
25.21363	307034
25.22175	301139
25.22987	293808
25.23800	290819
25.24612	290047
25.25425	280104
25.26237	273151
25.27048	280595
25.27862	275901
25.28673	268650
25.29485	273227
25.30298	286932
25.31110	290756
25.31923	286604
25.32735	290183
25.33547	278220
25.34360	264266
25.35172	262031
25.35985	258430
25.36797	245318
25.37608	247131
25.38422	246830
25.39233	249085
25.40047	240814
25.40858	226359
25.41670	231131
25.42483	239416
25.43295	231321
25.44107	236103
25.44920	233278
25.45732	234950
25.46545	236823
25.47357	239948
25.48168	231968
25.48982	238400
25.49793	244315
25.50607	255752
25.51418	244271
25.52230	263152
25.53043	268340
25.53855	262969
25.54667	260563
25.55480	250707
25.56292	239288
25.57105	259203
25.57917	271368
25.58728	324926
25.59542	399950
25.60353	490965
25.61167	590716
25.61978	643357
25.62790	621958
25.63603	537748
25.64415	448558
25.65228	376576
25.66040	316161
25.66852	286899
25.67665	270420
25.68477	253578
25.69288	250207
25.70102	255760
25.70913	261152
25.71727	282451
25.72538	308967
25.73350	321098
25.74163	329572
25.74975	329883
25.75788	332053
25.76600	325987
25.77412	329076
25.78225	333975
25.79037	317146
25.79850	316816
25.80662	299855
25.81473	299621
25.82287	300824
25.83098	285963
25.83910	255336
25.84723	246589
25.85535	234905
25.86348	241394
25.87160	225350
25.87972	240517
25.88785	265922
25.89597	344805
25.90410	478108
25.91222	779380
25.92033	1192322
25.92847	1686918
25.93658	2013426
25.94470	2073345
25.95283	1830644
25.96095	1453717
25.96908	1067788
25.97720	821258
25.98532	669954
25.99345	587546
26.00157	522033
26.00970	492635
26.01782	461759
26.02593	425027
26.03407	435255
26.04218	470421
26.05032	531255
26.05843	643346
26.06655	775205
26.07468	818021
26.08280	783813
26.09092	689991
26.09905	591135
26.10717	480471
26.11530	446279
26.12342	402409
26.13153	374194
26.13967	354777
26.14778	345650
26.15592	334933
26.16403	329891
26.17215	315221
26.18028	301951
26.18840	303124
26.19653	299317
26.20465	296050
26.21277	293703
26.22090	285482
26.22902	304480
26.23713	300254
26.24527	312677
26.25338	303509
26.26152	293348
26.26963	292009
26.27775	285267
26.28588	283071
26.29400	269832
26.30213	270707
26.31025	267971
26.31837	277190
26.32650	274525
26.33462	279865
26.34275	280792
26.35087	273076
26.35898	267503
26.36712	274321
26.37523	263538
26.38335	269695
26.39148	264706
26.39960	272088
26.40773	285128
26.41585	279101
26.42397	280943
26.43210	276210
26.44022	275891
26.44835	278586
26.45647	283142
26.46458	297224
26.47272	311359
26.48083	322686
26.48895	327950
26.49708	315954
26.50520	314872
26.51333	283972
26.52145	280606
26.52957	272137
26.53770	276127
26.54582	303369
26.55395	326944
26.56207	354735
26.57018	361250
26.57832	377821
26.58643	368306
26.59457	361152
26.60268	345822
26.61080	333137
26.61893	323201
26.62705	302711
26.63517	309355
26.64330	297352
26.65142	287882
26.65955	291803
26.66767	293355
26.67578	298792
26.68392	301220
26.69203	290468
26.70017	288207
26.70828	292038
26.71640	293220
26.72453	293845
26.73265	291360
26.74078	303132
26.74890	301523
26.75702	327970
26.76515	343016
26.77327	344620
26.78138	347366
26.78952	350906
26.79763	370737
26.80577	423939
26.81388	585257
26.82200	1030539
26.83013	1915458
26.83825	3363975
26.84638	5227041
26.85450	6911395
26.86262	7640866
26.87075	7066834
26.87887	5722692
26.88698	3864713
26.89512	2370153
26.90323	1394497
26.91137	832961
26.91948	596919
26.92760	502647
26.93573	440158
26.94385	420344
26.95198	445917
26.96010	476476
26.96822	548782
26.97635	654446
26.98447	726027
26.99260	729712
27.00072	678239
27.00883	616322
27.01697	550114
27.02508	464895
27.03320	416234
27.04133	398295
27.04945	405506
27.05758	398790
27.06570	413355
27.07382	427067
27.08195	417072
27.09007	387814
27.09820	358742
27.10632	325861
27.11443	310817
27.12257	298895
27.13068	293699
27.13882	296290
27.14693	293636
27.15505	305321
27.16318	304913
27.17130	309819
27.17942	305522
27.18755	313623
27.19567	310805
27.20380	322553
27.21192	308658
27.22003	315220
27.22817	303148
27.23628	301452
27.24442	309529
27.25253	307437
27.26065	308174
27.26878	312046
27.27690	298635
27.28502	297095
27.29315	301187
27.30127	287598
27.30940	274445
27.31752	269455
27.32563	274746
27.33377	276930
27.34188	278480
27.35002	302753
27.35813	326431
27.36625	341978
27.37438	360977
27.38250	357667
27.39063	365884
27.39875	373554
27.40687	376665
27.41500	396497
27.42312	420253
27.43123	449000
27.43937	497749
27.44748	587396
27.45562	770367
27.46373	1067302
27.47185	1512495
27.47998	1980212
27.48810	2339439
27.49623	2426575
27.50435	2313768
27.51247	2069887
27.52060	1719423
27.52872	1488539
27.53685	1234239
27.54497	1043426
27.55308	894822
27.56122	781057
27.56933	697661
27.57745	629614
27.58558	564440
27.59370	510687
27.60183	465174
27.60995	439948
27.61807	416037
27.62620	403856
27.63432	403452
27.64245	402189
27.65057	408084
27.65868	393989
27.66682	399988
27.67493	402951
27.68307	406226
27.69118	440323
27.69930	537179
27.70743	832048
27.71555	1458139
27.72367	2341982
27.73180	3150237
27.73992	3400781
27.74805	3267124
27.75617	2932458
27.76428	2606096
27.77242	2246422
27.78053	1932438
27.78867	1747537
27.79678	1503231
27.80490	1287137
27.81303	1161286
27.82115	1040102
27.82927	937771
27.83740	903385
27.84552	879049
27.85365	870301
27.86177	896341
27.86988	893369
27.87802	851346
27.88613	801316
27.89427	734347
27.90238	684148
27.91050	667210
27.91863	684427
27.92675	679448
27.93488	663354
27.94300	630543
27.95112	574882
27.95925	529840
27.96737	491148
27.97548	442082
27.98362	395429
27.99173	394247
27.99987	380076
28.00798	372795
28.01610	382365
28.02423	363694
28.03235	354618
28.04048	354094
28.04860	355646
28.05672	344008
28.06485	335009
28.07297	342217
28.08110	340892
28.08922	358786
28.09733	399238
28.10547	443600
28.11358	457254
28.12170	475309
28.12983	465400
28.13795	425530
28.14608	390824
28.15420	367076
28.16232	347053
28.17045	336404
28.17857	339687
28.18670	347700
28.19482	363900
28.20293	375577
28.21107	390427
28.21918	393853
28.22730	401990
28.23543	411029
28.24355	438239
28.25168	471150
28.25980	520607
28.26792	600841
28.27605	685987
28.28417	791345
28.29230	845262
28.30042	858964
28.30853	812627
28.31667	748769
28.32478	642323
28.33292	579846
28.34103	528957
28.34915	533611
28.35728	541120
28.36540	571730
28.37352	606518
28.38165	616773
28.38977	619232
28.39790	624111
28.40602	637172
28.41413	641133
28.42227	647847
28.43038	644922
28.43852	590626
28.44663	534440
28.45475	473636
28.46288	426582
28.47100	385833
28.47913	384245
28.48725	387261
28.49537	431046
28.50350	449012
28.51162	459887
28.51973	470147
28.52787	459548
28.53598	441558
28.54412	415250
28.55223	378254
28.56035	368572
28.56848	363499
28.57660	365079
28.58473	348032
28.59285	351941
28.60097	359454
28.60910	368232
28.61722	384517
28.62533	389448
28.63347	401875
28.64158	411843
28.64972	421411
28.65783	419387
28.66595	429343
28.67408	431315
28.68220	430423
28.69033	425479
28.69845	422898
28.70657	421168
28.71470	442100
28.72282	516413
28.73095	582884
28.73907	726782
28.74718	830940
28.75532	916251
28.76343	968618
28.77155	1056878
28.77968	1079790
28.78780	1143344
28.79593	1205989
28.80405	1235094
28.81217	1273992
28.82030	1284712
28.82842	1282738
28.83655	1264460
28.84467	1231199
28.85278	1134434
28.86092	1039560
28.86903	974125
28.87717	910794
28.88528	934835
28.89340	990774
28.90153	1081151
28.90965	1123186
28.91777	1177476
28.92590	1141306
28.93402	1110917
28.94215	1069053
28.95027	1020214
28.95838	995859
28.96652	978556
28.97463	950636
28.98277	924154
28.99088	907592
28.99900	921554
29.00713	927853
29.01525	912897
29.02338	881133
29.03150	828985
29.03962	770672
29.04775	730892
29.05587	700149
29.06398	695507
29.07212	660772
29.08023	686349
29.08837	699743
29.09648	696974
29.10460	674835
29.11273	627226
29.12085	564499
29.12898	539797
29.13710	497790
29.14522	479456
29.15335	471771
29.16147	470475
29.16958	449911
29.17772	442546
29.18583	428874
29.19397	427649
29.20208	439654
29.21020	446044
29.21833	455263
29.22645	472435
29.23458	500362
29.24270	501443
29.25082	510820
29.25895	507895
29.26707	493830
29.27520	456949
29.28332	436517
29.29143	420663
29.29957	397108
29.30768	389835
29.31580	390262
29.32393	399283
29.33205	424466
29.34018	447972
29.34830	490133
29.35642	533053
29.36455	554188
29.37267	575799
29.38080	544625
29.38892	528992
29.39703	497263
29.40517	466250
29.41328	443316
29.42142	422871
29.42953	437186
29.43765	440771
29.44578	505369
29.45390	578791
29.46202	677945
29.47015	734787
29.47827	769903
29.48640	739036
29.49452	670457
29.50263	601868
29.51077	556217
29.51888	514554
29.52702	547435
29.53513	610032
29.54325	687702
29.55138	681614
29.55950	667878
29.56762	616166
29.57575	562171
29.58387	510464
29.59200	461247
29.60012	436700
29.60823	424700
29.61637	429445
29.62448	423089
29.63262	439950
29.64073	456930
29.64885	474684
29.65698	509946
29.66510	514228
29.67323	532771
29.68135	554422
29.68947	549994
29.69760	533510
29.70572	504549
29.71383	487707
29.72197	462254
29.73008	447141
29.73822	426214
29.74633	426480
29.75445	427804
29.76258	442624
29.77070	458214
29.77883	494622
29.78695	530463
29.79507	567026
29.80320	572505
29.81132	563880
29.81945	529277
29.82757	518821
29.83568	502453
29.84382	552084
29.85193	676825
29.86005	805650
29.86818	892519
29.87630	918296
29.88443	847332
29.89255	743702
29.90067	618180
29.90880	550962
29.91692	532403
29.92505	536620
29.93317	542608
29.94128	544958
29.94942	522263
29.95753	489663
29.96565	459233
29.97378	436311
29.98190	436051
29.99003	468983
29.99815	514132
30.00627	549343
30.01440	571565
30.02252	588282
30.03065	575886
30.03877	565093
30.04688	546414
30.05502	539020
30.06313	526814
30.07127	517889
30.07938	491067
30.08750	511298
30.09563	502070
30.10375	504632
30.11187	516168
30.12000	497770
30.12812	499494
30.13625	503276
30.14437	502265
30.15248	524093
30.16062	569590
30.16873	575080
30.17687	586107
30.18498	587637
30.19310	577582
30.20123	579796
30.20935	567432
30.21748	559709
30.22560	564304
30.23372	556886
30.24185	542382
30.24997	515960
30.25808	500144
30.26622	477463
30.27433	476173
30.28247	464930
30.29058	468295
30.29870	445178
30.30683	448952
30.31495	476469
30.32308	518186
30.33120	579927
30.33932	672085
30.34745	792815
30.35557	1001813
30.36368	1233463
30.37182	1475852
30.37993	1631462
30.38807	1637076
30.39618	1522264
30.40430	1357179
30.41243	1189169
30.42055	1088481
30.42868	1072064
30.43680	1128070
30.44492	1244904
30.45305	1409032
30.46117	1566176
30.46930	1648452
30.47742	1698980
30.48553	1601117
30.49367	1502868
30.50178	1359102
30.50990	1265815
30.51803	1113228
30.52615	1020831
30.53428	930101
30.54240	863445
30.55052	819445
30.55865	786996
30.56677	804908
30.57490	918055
30.58302	1092320
30.59113	1374206
30.59927	1729230
30.60738	2086961
30.61552	2264960
30.62363	2244237
30.63175	2000702
30.63988	1674448
30.64800	1318412
30.65612	1070559
30.66425	880824
30.67237	761985
30.68050	720174
30.68862	689285
30.69673	670808
30.70487	681775
30.71298	691281
30.72112	702814
30.72923	700184
30.73735	696725
30.74548	676650
30.75360	643022
30.76172	608988
30.76985	580190
30.77797	581658
30.78610	570848
30.79422	602610
30.80233	614491
30.81047	643632
30.81858	700654
30.82672	819598
30.83483	950340
30.84295	1068690
30.85108	1110575
30.85920	1079446
30.86733	948125
30.87545	829208
30.88357	715129
30.89170	643570
30.89982	608714
30.90793	618085
30.91607	648505
30.92418	710841
30.93232	777736
30.94043	875588
30.94855	907721
30.95668	914154
30.96480	935363
30.97293	898702
30.98105	903528
30.98917	932824
30.99730	1009007
31.00542	1117625
31.01355	1188040
31.02167	1236399
31.02978	1190618
31.03792	1107961
31.04603	950931
31.05415	780135
31.06228	649603
31.07040	566534
31.07853	515577
31.08665	496298
31.09477	492296
31.10290	470189
31.11102	474562
31.11915	465307
31.12727	494621
31.13538	480435
31.14352	487741
31.15163	468823
31.15975	469746
31.16788	446901
31.17600	433338
31.18413	436414
31.19225	442976
31.20037	450344
31.20850	453504
31.21662	467686
31.22475	466949
31.23287	470627
31.24098	468181
31.24912	461954
31.25723	468758
31.26537	458412
31.27348	466068
31.28160	475440
31.28973	474500
31.29785	489306
31.30597	509930
31.31410	526792
31.32222	539809
31.33035	573544
31.33847	587010
31.34658	630503
31.35472	638245
31.36283	667349
31.37097	652301
31.37908	656644
31.38720	615490
31.39533	581919
31.40345	566945
31.41158	546363
31.41970	578300
31.42782	616603
31.43595	706541
31.44407	794733
31.45218	804031
31.46032	819605
31.46843	773097
31.47657	739770
31.48468	743505
31.49280	765812
31.50093	807553
31.50905	889033
31.51718	953773
31.52530	980668
31.53342	938837
31.54155	866234
31.54967	784558
31.55780	717660
31.56592	685843
31.57403	718537
31.58217	852616
31.59028	1230962
31.59840	2255669
31.60653	4921628
31.61465	1.136872E+07
31.62278	2.289618E+07
31.63090	3.786602E+07
31.63902	5.402648E+07
31.64715	7.082356E+07
31.65527	8.568462E+07
31.66340	9.566733E+07
31.67152	1.001611E+08
31.67963	9.36165E+07
31.68777	7.800089E+07
31.69588	5.65319E+07
31.70400	3.487644E+07
31.71213	1.791021E+07
31.72025	7565401
31.72838	3111861
31.73650	1506920
31.74462	985768
31.75275	780181
31.76087	687866
31.76900	638277
31.77712	618008
31.78523	597374
31.79337	567579
31.80148	532992
31.80962	550766
31.81773	563074
31.82585	561386
31.83398	590857
31.84210	626258
31.85022	624048
31.85835	645452
31.86647	637705
31.87460	645852
31.88272	631069
31.89083	620759
31.89897	586905
31.90708	560337
31.91522	542381
31.92333	515871
31.93145	499133
31.93958	477149
31.94770	465796
31.95583	464648
31.96395	475398
31.97207	516547
31.98020	603963
31.98832	710664
31.99643	881466
32.00457	1080838
32.01268	1292291
32.02082	1440225
32.02893	1494049
32.03705	1418111
32.04518	1270747
32.05330	1166367
32.06143	1098029
32.06955	1138822
32.07767	1335810
32.08580	1670377
32.09392	2179843
32.10203	2683655
32.11017	3038850
32.11828	3124297
32.12642	2973677
32.13453	2697988
32.14265	2447838
32.15078	2524598
32.15890	2785276
32.16703	3145857
32.17515	3371225
32.18327	3238292
32.19140	2735791
32.19952	2083875
32.20765	1536818
32.21577	1160634
32.22388	964916
32.23202	824024
32.24013	778545
32.24825	718679
32.25638	701229
32.26450	688475
32.27263	705589
32.28075	720533
32.28887	743290
32.29700	769484
32.30512	787781
32.31325	842194
32.32137	846241
32.32948	877179
32.33762	867959
32.34573	875755
32.35387	864924
32.36198	860352
32.37010	875900
32.37823	850433
32.38635	847706
32.39447	811645
32.40260	749658
32.41072	751512
32.41885	727769
32.42697	707178
32.43508	709499
32.44322	695826
32.45133	675339
32.45947	655151
32.46758	642414
32.47570	632940
32.48383	678874
32.49195	884819
32.50007	1390682
32.50820	2570362
32.51632	4929444
32.52445	8539560
32.53257	1.238954E+07
32.54068	1.553859E+07
32.54882	1.721983E+07
32.55693	1.704038E+07
32.56507	1.517126E+07
32.57318	1.193261E+07
32.58130	8090900
32.58943	5127761
32.59755	3060985
32.60568	1916878
32.61380	1328091
32.62192	1031143
32.63005	874237
32.63817	782214
32.64628	714869
32.65442	707357
32.66253	689390
32.67067	679112
32.67878	653465
32.68690	640895
32.69503	594544
32.70315	586321
32.71128	564568
32.71940	550016
32.72752	549983
32.73565	543969
32.74377	550352
32.75190	569932
32.76002	581925
32.76813	590699
32.77627	612732
32.78438	640526
32.79250	670665
32.80063	700610
32.80875	797193
32.81688	948037
32.82500	1066276
32.83312	1130179
32.84125	1143768
32.84937	1050127
32.85750	920632
32.86562	798752
32.87373	692826
32.88187	619942
32.88998	567809
32.89812	568849
32.90623	577957
32.91435	630210
32.92248	683545
32.93060	786650
32.93872	857760
32.94685	925663
32.95497	946531
32.96310	918611
32.97122	876876
32.97933	821990
32.98747	770902
32.99558	749596
33.00372	744864
33.01183	719960
33.01995	716053
33.02808	706367
33.03620	696785
33.04432	718765
33.05245	737314
33.06057	732525
33.06870	748293
33.07682	742543
33.08493	748754
33.09307	711109
33.10118	677267
33.10932	637629
33.11743	611139
33.12555	616561
33.13368	628446
33.14180	645396
33.14993	681878
33.15805	748257
33.16617	779460
33.17430	817194
33.18242	821409
33.19053	794898
33.19867	755414
33.20678	725896
33.21492	692087
33.22303	648974
33.23115	654031
33.23928	645333
33.24740	629667
33.25553	634017
33.26365	610663
33.27177	585602
33.27990	557182
33.28802	547248
33.29615	559670
33.30427	592435
33.31238	629986
33.32052	702246
33.32863	795921
33.33675	870868
33.34488	914990
33.35300	959119
33.36113	1002579
33.36925	1067876
33.37737	1087763
33.38550	1061188
33.39362	989095
33.40175	958185
33.40987	885624
33.41798	829334
33.42612	779336
33.43423	726094
33.44235	713024
33.45048	685735
33.45860	675287
33.46673	672730
33.47485	708167
33.48297	754066
33.49110	799522
33.49922	825227
33.50735	877232
33.51547	898204
33.52358	925595
33.53172	969419
33.53983	1060618
33.54797	1168109
33.55608	1324058
33.56420	1424791
33.57233	1452076
33.58045	1467783
33.58857	1389710
33.59670	1301049
33.60482	1150562
33.61295	1105912
33.62107	1004292
33.62918	923641
33.63732	862251
33.64543	830580
33.65357	795350
33.66168	788912
33.66980	788899
33.67793	803599
33.68605	845036
33.69418	905429
33.70230	952249
33.71042	992138
33.71855	982531
33.72667	939851
33.73478	880860
33.74292	814279
33.75103	731065
33.75917	661787
33.76728	628836
33.77540	588199
33.78353	581872
33.79165	632710
33.79978	673362
33.80790	719175
33.81602	729136
33.82415	762595
33.83227	740305
33.84038	689678
33.84852	646097
33.85663	612999
33.86477	618911
33.87288	618793
33.88100	637084
33.88913	616427
33.89725	629432
33.90538	583894
33.91350	568218
33.92162	553669
33.92975	536534
33.93787	545904
33.94600	541581
33.95412	548547
33.96223	558179
33.97037	547452
33.97848	565467
33.98660	586617
33.99473	610223
34.00285	719110
34.01098	833496
34.01910	989880
34.02722	1114171
34.03535	1187237
34.04347	1162808
34.05160	1049730
34.05972	874078
34.06783	751181
34.07597	669234
34.08408	595676
34.09222	570682
34.10033	547685
34.10845	549839
34.11658	527423
34.12470	503878
34.13282	492116
34.14095	488298
34.14907	481648
34.15720	469475
34.16532	476823
34.17343	483795
34.18157	491587
34.18968	505219
34.19782	515389
34.20593	582704
34.21405	697595
34.22218	765154
34.23030	831718
34.23843	854871
34.24655	843803
34.25467	811232
34.26280	754588
34.27092	690265
34.27903	632302
34.28717	599028
34.29528	559419
34.30342	514238
34.31153	508316
34.31965	493861
34.32778	477446
34.33590	480210
34.34403	487400
34.35215	481208
34.36027	480922
34.36840	473200
34.37652	483268
34.38463	483034
34.39277	497717
34.40088	499498
34.40902	525934
34.41713	549230
34.42525	556605
34.43338	569109
34.44150	593625
34.44963	586555
34.45775	575309
34.46587	550531
34.47400	529529
34.48212	547332
34.49025	543517
34.49837	574333
34.50648	594857
34.51462	627623
34.52273	691005
34.53085	758519
34.53898	824611
34.54710	848384
34.55523	853929
34.56335	783709
34.57147	725299
34.57960	642046
34.58772	589636
34.59585	578259
34.60397	606545
34.61208	641356
34.62022	685713
34.62833	713623
34.63647	716582
34.64458	721778
34.65270	707724
34.66083	699916
34.66895	715519
34.67707	780028
34.68520	849206
34.69332	869909
34.70145	890932
34.70957	829585
34.71768	759659
34.72582	687585
34.73393	611345
34.74207	561556
34.75018	538453
34.75830	505419
34.76643	514965
34.77455	547439
34.78267	587005
34.79080	635940
34.79892	678920
34.80705	703969
34.81517	733399
34.82328	717501
34.83142	699191
34.83953	686290
34.84767	678645
34.85578	678344
34.86390	741637
34.87203	837947
34.88015	952598
34.88828	1067374
34.89640	1143873
34.90452	1170326
34.91265	1145743
34.92077	1100131
34.92888	1026295
34.93702	898474
34.94513	851090
34.95327	803436
34.96138	733689
34.96950	701508
34.97763	677523
34.98575	616105
34.99388	594175
35.00200	587042
35.01012	575755
35.01825	607973
35.02637	637807
35.03450	747853
35.04262	894985
35.05073	1053976
35.05887	1139975
35.06698	1119209
35.07510	1073570
35.08323	943297
35.09135	825695
35.09948	709345
35.10760	644596
35.11572	611479
35.12385	608413
35.13197	644419
35.14010	684473
35.14822	749983
35.15633	826098
35.16447	893827
35.17258	945741
35.18070	986465
35.18883	971737
35.19695	956805
35.20508	869793
35.21320	807505
35.22132	733832
35.22945	707580
35.23757	676484
35.24570	617442
35.25382	610902
35.26193	578451
35.27007	567515
35.27818	588326
35.28632	585610
35.29443	619956
35.30255	632458
35.31068	677690
35.31880	711116
35.32692	760215
35.33505	810952
35.34317	855434
35.35130	923907
35.35942	914147
35.36753	923659
35.37567	862527
35.38378	788857
35.39192	719186
35.40003	642769
35.40815	586227
35.41628	556262
35.42440	525408
35.43253	526608
35.44065	508622
35.44877	505161
35.45690	529107
35.46502	521695
35.47313	531671
35.48127	575969
35.48938	603651
35.49752	645405
35.50563	704783
35.51375	749914
35.52188	785861
35.53000	789147
35.53813	774846
35.54625	725856
35.55437	716187
35.56250	732445
35.57062	777706
35.57875	934517
35.58687	1244953
35.59498	1791007
35.60312	2647312
35.61123	3688588
35.61935	4826777
35.62748	5956918
35.63560	7112087
35.64373	8768894
35.65185	1.111807E+07
35.65997	1.39498E+07
35.66810	1.652102E+07
35.67622	1.781151E+07
35.68435	1.662852E+07
35.69247	1.373812E+07
35.70058	1.0008E+07
35.70872	6316865
35.71683	3648461
35.72495	2165558
35.73308	1386348
35.74120	1080997
35.74933	957478
35.75745	1001388
35.76557	1180865
35.77370	1601101
35.78182	2272482
35.78995	3115958
35.79807	3920985
35.80618	4386669
35.81432	4329313
35.82243	3768762
35.83057	2869901
35.83868	2039052
35.84680	1375873
35.85493	971720
35.86305	767420
35.87117	700054
35.87930	651486
35.88742	646374
35.89555	630357
35.90367	636073
35.91178	612124
35.91992	606503
35.92803	609894
35.93617	606463
35.94428	617769
35.95240	616518
35.96053	628252
35.96865	632831
35.97678	665974
35.98490	695780
35.99302	718949
36.00115	753560
36.00927	766897
36.01738	757277
36.02552	706311
36.03363	667624
36.04177	637834
36.04988	618053
36.05800	599689
36.06613	604857
36.07425	654461
36.08238	721001
36.09050	819078
36.09862	954351
36.10675	1078130
36.11487	1178105
36.12298	1178696
36.13112	1133814
36.13923	1007191
36.14737	865674
36.15548	750847
36.16360	647794
36.17173	599277
36.17985	569125
36.18798	543888
36.19610	552747
36.20422	548889
36.21235	548419
36.22047	535998
36.22860	534203
36.23672	545630
36.24483	554664
36.25297	570925
36.26108	599247
36.26920	620423
36.27733	666340
36.28545	700186
36.29358	690699
36.30170	672979
36.30982	652434
36.31795	623503
36.32607	600552
36.33420	596146
36.34232	569266
36.35043	560238
36.35857	581488
36.36668	582109
36.37482	560558
36.38293	579208
36.39105	569724
36.39918	565906
36.40730	556031
36.41542	543721
36.42355	535246
36.43167	550348
36.43980	541990
36.44792	542070
36.45603	543396
36.46417	537711
36.47228	554626
36.48042	571726
36.48853	578687
36.49665	593459
36.50478	598332
36.51290	620559
36.52102	643813
36.52915	669834
36.53727	705763
36.54540	754047
36.55352	727536
36.56163	721989
36.56977	722798
36.57788	680079
36.58602	661511
36.59413	658444
36.60225	642551
36.61038	660503
36.61850	676317
36.62663	731812
36.63475	777766
36.64287	863308
36.65100	941313
36.65912	962909
36.66723	970402
36.67537	956943
36.68348	974808
36.69162	1048500
36.69973	1282186
36.70785	1749395
36.71598	2533484
36.72410	3379617
36.73223	4136177
36.74035	4466532
36.74847	4336216
36.75660	3816271
36.76472	2963270
36.77285	2343241
36.78097	1978017
36.78908	1874375
36.79722	1945995
36.80533	2110239
36.81345	2169854
36.82158	2097454
36.82970	1910903
36.83783	1549537
36.84595	1290450
36.85407	1135731
36.86220	1145952
36.87032	1605816
36.87845	2798466
36.88657	5055749
36.89468	8589004
36.90282	1.300883E+07
36.91093	1.750991E+07
36.91907	2.052675E+07
36.92718	2.063558E+07
36.93530	1.792838E+07
36.94343	1.416613E+07
36.95155	9609738
36.95967	5744544
36.96780	3425590
36.97592	1992292
36.98405	1300724
36.99217	979769
37.00028	800262
37.00842	686169
37.01653	652412
37.02467	645226
37.03278	650352
37.04090	710036
37.04903	785245
37.05715	862421
37.06527	896032
37.07340	918436
37.08152	913774
37.08965	865300
37.09777	825515
37.10588	802625
37.11402	766965
37.12213	781651
37.13027	775105
37.13838	770765
37.14650	770528
37.15463	739285
37.16275	711559
37.17088	688360
37.17900	645150
37.18712	615886
37.19525	610881
37.20337	615326
37.21148	593127
37.21962	596989
37.22773	615923
37.23587	614627
37.24398	618023
37.25210	619495
37.26023	625554
37.26835	652898
37.27648	632744
37.28460	650489
37.29272	658679
37.30085	664104
37.30897	678708
37.31710	685737
37.32522	739990
37.33333	792756
37.34147	897418
37.34958	1018419
37.35770	1140083
37.36583	1194934
37.37395	1165795
37.38208	1074613
37.39020	951745
37.39832	847336
37.40645	766777
37.41457	720116
37.42270	691827
37.43082	692577
37.43893	668970
37.44707	661332
37.45518	646731
37.46330	658031
37.47143	654926
37.47955	668031
37.48768	673316
