C:\MassHunter\GCMS\1\data\JTB-E02\BACandBLUE\JTB-E18-016-10.D Thu Jun 27 12:31:27 2019
Start of data points
2.09515	62131
2.10327	61899
2.11138	57650
2.11952	63008
2.12763	61435
2.13577	61099
2.14388	62648
2.15200	62071
2.16013	65724
2.16825	61230
2.17637	62465
2.18450	59119
2.19262	59746
2.20075	55539
2.20887	54903
2.21698	56741
2.22512	53829
2.23323	52745
2.24137	55556
2.24948	57454
2.25760	53220
2.26573	51203
2.27385	112429
2.28198	698761
2.29010	1118433
2.29822	512684
2.30635	276442
2.31447	215371
2.32258	188002
2.33072	173108
2.33883	256804
2.34697	332310
2.35508	197766
2.36320	163612
2.37133	138351
2.37945	141587
2.38758	127533
2.39570	124334
2.40382	120355
2.41195	112160
2.42007	110911
2.42818	124554
2.43632	124290
2.44443	104262
2.45257	109309
2.46068	107896
2.46880	109205
2.47693	101076
2.48505	95942
2.49318	113213
2.50130	154165
2.50942	129101
2.51755	114380
2.52567	111488
2.53380	106633
2.54192	107683
2.55003	106014
2.55817	110941
2.56628	136914
2.57440	148605
2.58253	122939
2.59065	107511
2.59878	104727
2.60690	141895
2.61502	442001
2.62315	738996
2.63127	479919
2.63940	276305
2.64752	216125
2.65563	180920
2.66377	157610
2.67188	142846
2.68002	130993
2.68813	121010
2.69625	120392
2.70438	113732
2.71250	113617
2.72062	110370
2.72875	108111
2.73687	108372
2.74500	109758
2.75312	98448
2.76123	103802
2.76937	100521
2.77748	96760
2.78562	129401
2.79373	220259
2.80185	196066
2.80998	146759
2.81810	132046
2.82622	145417
2.83435	136745
2.84247	126761
2.85060	113589
2.85872	110688
2.86683	110478
2.87497	109920
2.88308	99238
2.89122	103056
2.89933	96684
2.90745	97799
2.91558	96524
2.92370	96802
2.93183	88265
2.93995	97136
2.94807	92228
2.95620	90854
2.96432	97367
2.97243	106221
2.98057	108175
2.98868	100250
2.99682	96601
3.00493	96626
3.01305	95043
3.02118	97156
3.02930	90083
3.03743	88742
3.04555	87099
3.05367	85469
3.06180	87579
3.06992	89651
3.07805	96118
3.08617	199519
3.09428	808137
3.10242	1977154
3.11053	3729872
3.11865	5375771
3.12678	4107365
3.13490	2396950
3.14303	1702305
3.15115	1328581
3.15927	1067368
3.16740	888129
3.17552	785019
3.18365	717068
3.19177	892701
3.19988	1457516
3.20802	1513251
3.21613	1091272
3.22425	804354
3.23238	682467
3.24050	599031
3.24863	519952
3.25675	461813
3.26487	418383
3.27300	388903
3.28112	375688
3.28925	439224
3.29737	1048181
3.30548	3261490
3.31362	6347293
3.32173	7297298
3.32987	5582816
3.33798	3599052
3.34610	2469816
3.35423	1880134
3.36235	1529656
3.37047	1300458
3.37860	1115407
3.38672	982841
3.39485	876881
3.40297	798157
3.41108	720472
3.41922	668771
3.42733	621354
3.43547	594061
3.44358	555901
3.45170	537681
3.45983	514705
3.46795	499847
3.47607	512019
3.48420	511337
3.49232	486962
3.50045	461039
3.50857	430586
3.51668	406291
3.52482	402154
3.53293	405771
3.54107	406480
3.54918	391688
3.55730	387866
3.56543	371820
3.57355	368955
3.58168	374037
3.58980	375702
3.59792	363671
3.60605	349853
3.61417	337029
3.62228	348194
3.63042	348701
3.63853	349908
3.64667	336170
3.65478	316087
3.66290	364022
3.67103	845479
3.67915	2829708
3.68728	5148875
3.69540	4772661
3.70352	2826698
3.71165	1767855
3.71977	1347226
3.72790	1127662
3.73602	983874
3.74413	891122
3.75227	808836
3.76038	742508
3.76850	705735
3.77663	665642
3.78475	631283
3.79288	601753
3.80100	627416
3.80912	883578
3.81725	1681721
3.82537	2330646
3.83350	1986304
3.84162	1342758
3.84973	1011039
3.85787	853950
3.86598	776880
3.87410	700444
3.88223	640459
3.89035	610511
3.89848	583725
3.90660	551290
3.91472	538152
3.92285	589276
3.93097	699738
3.93910	765987
3.94722	744330
3.95533	1004259
3.96347	2079743
3.97158	3505829
3.97972	3671636
3.98783	2601452
3.99595	1883473
4.00408	3352625
4.01220	8989481
4.02032	1.576037E+07
4.02845	1.651783E+07
4.03657	1.066336E+07
4.04470	5690340
4.05282	3382455
4.06093	2435557
4.06907	1894152
4.07718	1573978
4.08532	1325131
4.09343	1151719
4.10155	1030552
4.10968	943617
4.11780	846985
4.12593	792891
4.13405	748366
4.14217	767358
4.15030	842323
4.15842	902621
4.16653	839609
4.17467	737062
4.18278	679152
4.19092	620819
4.19903	593426
4.20715	612077
4.21528	1332317
4.22340	4464582
4.23153	1.073614E+07
4.23965	1.623688E+07
4.24777	1.670017E+07
4.25590	1.206448E+07
4.26402	7267792
4.27213	4921444
4.28027	3631550
4.28838	2842317
4.29652	2303492
4.30463	1940673
4.31275	1681999
4.32088	1475493
4.32900	1328628
4.33713	1214811
4.34525	1121725
4.35337	1058453
4.36150	1032051
4.36962	991484
4.37775	925264
4.38587	870872
4.39398	807195
4.40212	767172
4.41023	725621
4.41835	700497
4.42648	671423
4.43460	653249
4.44273	623881
4.45085	607036
4.45897	569053
4.46710	555057
4.47522	541304
4.48335	524225
4.49147	517224
4.49958	499230
4.50772	488647
4.51583	475904
4.52395	465641
4.53208	452911
4.54020	447228
4.54833	441367
4.55645	431820
4.56457	431852
4.57270	410774
4.58082	413290
4.58895	388970
4.59707	383595
4.60518	382924
4.61332	364132
4.62143	380224
4.62957	434319
4.63768	556989
4.64580	720085
4.65393	753719
4.66205	652914
4.67017	517749
4.67830	449516
4.68642	406761
4.69455	383382
4.70267	380345
4.71078	355935
4.71892	339220
4.72703	336093
4.73517	327527
4.74328	315301
4.75140	319462
4.75953	305525
4.76765	307092
4.77578	300943
4.78390	301475
4.79202	298719
4.80015	322595
4.80827	368334
4.81638	384966
4.82452	367284
4.83263	342455
4.84077	343511
4.84888	359278
4.85700	359252
4.86513	348743
4.87325	328722
4.88138	319190
4.88950	293897
4.89762	282301
4.90575	288926
4.91387	274330
4.92198	275048
4.93012	316729
4.93823	517101
4.94637	1211335
4.95448	2611775
4.96260	4199787
4.97073	5010323
4.97885	4458378
4.98698	3329709
4.99510	2256437
5.00322	1578942
5.01135	1223310
5.01947	1005467
5.02760	938005
5.03572	1095305
5.04383	1348624
5.05197	1449783
5.06008	1267058
5.06820	1011079
5.07633	833045
5.08445	731359
5.09258	659156
5.10070	625056
5.10882	585403
5.11695	542193
5.12507	528276
5.13320	498768
5.14132	480962
5.14943	466371
5.15757	480675
5.16568	506831
5.17382	520561
5.18193	510200
5.19005	480284
5.19818	465711
5.20630	471375
5.21442	475275
5.22255	478349
5.23067	471794
5.23880	438178
5.24692	435119
5.25503	421622
5.26317	386303
5.27128	363668
5.27942	345361
5.28753	336256
5.29565	325825
5.30378	316356
5.31190	316871
5.32002	326228
5.32815	324520
5.33627	347349
5.34440	356286
5.35252	366818
5.36063	350763
5.36877	319698
5.37688	306217
5.38502	304538
5.39313	302601
5.40125	302882
5.40938	300002
5.41750	296797
5.42563	281482
5.43375	281989
5.44187	275906
5.45000	282920
5.45812	277857
5.46623	288552
5.47437	278908
5.48248	264025
5.49062	260841
5.49873	255348
5.50685	251498
5.51498	264418
5.52310	260260
5.53123	261072
5.53935	255139
5.54747	255667
5.55560	254902
5.56372	259426
5.57183	265381
5.57997	284095
5.58808	284668
5.59622	270948
5.60433	255294
5.61245	248709
5.62058	251220
5.62870	237475
5.63683	263468
5.64495	268416
5.65307	272952
5.66120	265970
5.66932	253018
5.67745	262305
5.68557	285472
5.69368	318945
5.70182	329396
5.70993	319684
5.71805	293098
5.72618	266446
5.73430	243410
5.74243	231669
5.75055	221830
5.75867	220907
5.76680	217888
5.77492	226306
5.78305	217395
5.79117	213875
5.79928	211765
5.80742	214018
5.81553	208568
5.82367	199963
5.83178	206956
5.83990	207125
5.84803	200644
5.85615	200390
5.86427	193364
5.87240	197527
5.88052	196225
5.88865	194955
5.89677	196457
5.90488	189126
5.91302	167557
5.92113	151797
5.92927	145552
5.93738	142788
5.94550	156118
5.95363	167351
5.96175	189084
5.96988	218965
5.97800	256468
5.98612	295219
5.99425	314710
6.00237	310865
6.01048	266701
6.01862	224805
6.02673	194138
6.03487	176836
6.04298	158674
6.05110	159178
6.05923	152795
6.06735	146223
6.07548	148480
6.08360	139592
6.09172	141345
6.09985	140897
6.10797	135564
6.11608	144416
6.12422	155610
6.13233	208053
6.14047	318087
6.14858	450581
6.15670	473615
6.16483	420977
6.17295	327036
6.18108	254332
6.18920	219765
6.19732	203781
6.20545	184825
6.21357	180789
6.22170	175089
6.22982	175870
6.23793	174646
6.24607	182617
6.25418	179527
6.26230	174075
6.27043	178471
6.27855	178316
6.28668	188793
6.29480	181990
6.30292	174384
6.31105	168738
6.31917	178617
6.32730	180025
6.33542	183653
6.34353	191334
6.35167	184495
6.35978	187256
6.36790	180120
6.37603	185400
6.38415	185986
6.39228	177408
6.40040	181203
6.40852	182131
6.41665	188128
6.42477	181834
6.43290	187312
6.44102	184693
6.44913	182657
6.45727	185593
6.46538	183388
6.47352	183168
6.48163	192649
6.48975	192281
6.49788	189509
6.50600	191625
6.51412	185035
6.52225	186694
6.53037	189280
6.53850	193507
6.54662	193346
6.55473	192271
6.56287	189852
6.57098	195870
6.57912	212772
6.58723	220274
6.59535	223236
6.60348	211389
6.61160	206511
6.61973	200346
6.62785	202257
6.63597	196658
6.64410	202055
6.65222	217552
6.66033	262789
6.66847	338793
6.67658	416679
6.68472	423815
6.69283	360155
6.70095	298381
6.70908	260768
6.71720	253354
6.72533	231843
6.73345	232608
6.74157	232309
6.74970	233998
6.75782	229372
6.76593	224645
6.77407	190226
6.78218	180769
6.79032	167856
6.79843	161415
6.80655	147308
6.81468	151974
6.82280	141019
6.83093	138441
6.83905	138851
6.84717	149296
6.85530	156538
6.86342	162753
6.87155	157162
6.87967	147950
6.88778	123226
6.89592	106707
6.90403	95112
6.91215	90070
6.92028	83086
6.92840	83057
6.93653	83820
6.94465	79230
6.95277	83561
6.96090	88625
6.96902	101953
6.97715	115228
6.98527	125740
6.99338	122479
7.00152	112867
7.00963	98051
7.01777	87786
7.02588	86621
7.03400	89086
7.04213	80377
7.05025	83734
7.05837	77839
7.06650	79126
7.07462	77775
7.08275	77610
7.09087	72858
7.09898	72299
7.10712	72523
7.11523	69769
7.12337	69206
7.13148	72962
7.13960	76065
7.14773	88955
7.15585	121666
7.16397	153008
7.17210	169572
7.18022	159419
7.18835	134172
7.19647	108789
7.20458	96625
7.21272	105138
7.22083	200239
7.22897	486310
7.23708	978151
7.24520	1484188
7.25333	1605520
7.26145	1239940
7.26958	781333
7.27770	495113
7.28582	350145
7.29395	277115
7.30207	214165
7.31018	156378
7.31832	123800
7.32643	110935
7.33457	108743
7.34268	98362
7.35080	96149
7.35893	86278
7.36705	84836
7.37518	88448
7.38330	89877
7.39142	95671
7.39955	94923
7.40767	92645
7.41578	88398
7.42392	80375
7.43203	76705
7.44017	76087
7.44828	75572
7.45640	75571
7.46453	77030
7.47265	73584
7.48078	71366
7.48890	73760
7.49702	70857
7.50515	73430
7.51327	73735
7.52140	86368
7.52952	116558
7.53763	160684
7.54577	209507
7.55388	261297
7.56200	267470
7.57013	242860
7.57825	201957
7.58638	157397
7.59450	124732
7.60262	101374
7.61075	94318
7.61887	81429
7.62700	81723
7.63512	73845
7.64323	67787
7.65137	67683
7.65948	67720
7.66762	64996
7.67573	64721
7.68385	59158
7.69198	61576
7.70010	61137
7.70822	66418
7.71635	61101
7.72447	63040
7.73260	66169
7.74072	64734
7.74883	64709
7.75697	66256
7.76508	68912
7.77322	64649
7.78133	66871
7.78945	66138
7.79758	71448
7.80570	70158
7.81382	77520
7.82195	78358
7.83007	69016
7.83820	67405
7.84632	65332
7.85443	64296
7.86257	69638
7.87068	71847
7.87882	75807
7.88693	74138
7.89505	78588
7.90318	74616
7.91130	69717
7.91943	63564
7.92755	80875
7.93567	96381
7.94380	108555
7.95192	126890
7.96003	124806
7.96817	108284
7.97628	95038
7.98442	85465
7.99253	71235
8.00065	69503
8.00878	67199
8.01690	61105
8.02503	59195
8.03315	60163
8.04127	56866
8.04940	60593
8.05752	57830
8.06565	58190
8.07377	56237
8.08188	57003
8.09002	54687
8.09813	55406
8.10625	55573
8.11438	55016
8.12250	58138
8.13063	65096
8.13875	74590
8.14687	85416
8.15500	96896
8.16312	92834
8.17125	87073
8.17937	74330
8.18748	64001
8.19562	60714
8.20373	58914
8.21185	60455
8.21998	55382
8.22810	58172
8.23623	56474
8.24435	55291
8.25247	56103
8.26060	54861
8.26872	55902
8.27685	51907
8.28497	52988
8.29308	57357
8.30122	59871
8.30933	63523
8.31747	76064
8.32558	73908
8.33370	67409
8.34183	62437
8.34995	61665
8.35807	56951
8.36620	58585
8.37432	54488
8.38245	58374
8.39057	56426
8.39868	62138
8.40682	54240
8.41493	53866
8.42307	51937
8.43118	54111
8.43930	54578
8.44743	51883
8.45555	48968
8.46368	52611
8.47180	51430
8.47992	50140
8.48805	50216
8.49617	51729
8.50428	51732
8.51242	49410
8.52053	56366
8.52867	77852
8.53678	123246
8.54490	205719
8.55303	309588
8.56115	355468
8.56928	309634
8.57740	233021
8.58552	160970
8.59365	107946
8.60177	85235
8.60988	77504
8.61802	76461
8.62613	76316
8.63427	67315
8.64238	64239
8.65050	59913
8.65863	58974
8.66675	61434
8.67488	60787
8.68300	60801
8.69112	63866
8.69925	64074
8.70737	60779
8.71550	66294
8.72362	60451
8.73173	60476
8.73987	71958
8.74798	133804
8.75610	322897
8.76423	757404
8.77235	1450356
8.78048	2124515
8.78860	2365169
8.79672	2015623
8.80485	1410240
8.81297	854143
8.82110	498065
8.82922	343492
8.83733	268231
8.84547	234996
8.85358	233945
8.86170	234407
8.86983	218267
8.87795	208259
8.88608	188362
8.89420	172174
8.90232	163795
8.91045	151898
8.91857	147725
8.92670	147565
8.93482	150635
8.94293	155289
8.95107	163155
8.95918	169941
8.96732	156294
8.97543	143279
8.98355	142433
8.99168	134458
8.99980	126382
9.00792	125274
9.01605	115126
9.02417	113702
9.03230	108703
9.04042	102978
9.04853	100055
9.05667	99011
9.06478	96775
9.07292	97586
9.08103	101754
9.08915	103716
9.09728	105104
9.10540	102789
9.11353	114016
9.12165	113362
9.12977	111285
9.13790	111499
9.14602	107923
9.15413	96063
9.16227	95588
9.17038	88472
9.17852	88577
9.18663	89006
9.19475	80927
9.20288	82339
9.21100	79723
9.21913	83211
9.22725	84718
9.23537	85742
9.24350	84040
9.25162	81302
9.25973	78874
9.26787	77759
9.27598	78307
9.28412	74777
9.29223	75912
9.30035	72658
9.30848	78801
9.31660	77387
9.32473	73574
9.33285	71276
9.34097	65067
9.34910	70503
9.35722	70241
9.36535	67617
9.37347	73155
9.38158	72049
9.38972	73855
9.39783	75683
9.40595	80498
9.41408	85887
9.42220	89155
9.43033	103338
9.43845	109198
9.44657	107643
9.45470	100168
9.46282	96644
9.47095	84693
9.47907	76338
9.48718	71137
9.49532	67957
9.50343	73669
9.51157	80670
9.51968	84834
9.52780	91205
9.53593	90011
9.54405	81220
9.55217	83495
9.56030	89167
9.56842	117910
9.57655	173330
9.58467	255830
9.59278	333398
9.60092	343247
9.60903	289418
9.61717	203841
9.62528	132894
9.63340	86763
9.64153	68787
9.64965	60015
9.65777	57823
9.66590	59010
9.67402	54090
9.68215	57380
9.69027	55574
9.69838	51803
9.70652	52828
9.71463	52478
9.72277	52235
9.73088	50041
9.73900	51638
9.74713	50095
9.75525	48733
9.76338	49686
9.77150	47490
9.77962	49655
9.78775	46141
9.79587	45223
9.80398	44164
9.81212	42738
9.82023	44760
9.82837	46051
9.83648	41705
9.84460	46086
9.85273	46156
9.86085	45675
9.86898	44826
9.87710	49639
9.88522	48716
9.89335	47944
9.90147	47636
9.90958	46145
9.91772	45159
9.92583	50734
9.93397	65827
9.94208	84829
9.95020	112174
9.95833	127531
9.96645	125280
9.97458	119304
9.98270	99863
9.99082	82107
9.99895	71428
10.00707	68716
10.01520	62364
10.02332	61103
10.03143	53535
10.03957	52869
10.04768	48253
10.05580	53630
10.06393	47027
10.07205	48419
10.08018	51609
10.08830	50744
10.09642	49715
10.10455	53793
10.11267	51948
10.12080	50067
10.12892	54125
10.13703	50043
10.14517	44390
10.15328	46529
10.16142	44293
10.16953	44615
10.17765	45811
10.18578	45048
10.19390	41988
10.20202	45314
10.21015	46071
10.21827	45096
10.22640	46641
10.23452	49613
10.24263	48400
10.25077	53236
10.25888	76020
10.26702	144253
10.27513	332900
10.28325	744048
10.29138	1433776
10.29950	2333197
10.30762	3336939
10.31575	4861011
10.32387	7241505
10.33200	1.034082E+07
10.34012	1.253563E+07
10.34823	1.244868E+07
10.35637	9455115
10.36448	5749135
10.37262	3016674
10.38073	1609101
10.38885	1017717
10.39698	725604
10.40510	557891
10.41323	447062
10.42135	381522
10.42947	324237
10.43760	305641
10.44572	291116
10.45383	255010
10.46197	250172
10.47008	236049
10.47822	217523
10.48633	204268
10.49445	193782
10.50258	186051
10.51070	175225
10.51883	171474
10.52695	163884
10.53507	162467
10.54320	159795
10.55132	157985
10.55945	154033
10.56757	146909
10.57568	147034
10.58382	134045
10.59193	130484
10.60005	123463
10.60818	118917
10.61630	121219
10.62443	112743
10.63255	101710
10.64067	105731
10.64880	95622
10.65692	102370
10.66505	88254
10.67317	98637
10.68128	99757
10.68942	92869
10.69753	90137
10.70565	91247
10.71378	92893
10.72190	86655
10.73003	83989
10.73815	88457
10.74627	86041
10.75440	92540
10.76252	91518
10.77065	81049
10.77877	77722
10.78688	73960
10.79502	76741
10.80313	76192
10.81127	74834
10.81938	74665
10.82750	68451
10.83563	68607
10.84375	74164
10.85187	69721
10.86000	66763
10.86812	64201
10.87625	66477
10.88437	59627
10.89248	61764
10.90062	56886
10.90873	57761
10.91687	57832
10.92498	57220
10.93310	64048
10.94123	59523
10.94935	60794
10.95747	57363
10.96560	59303
10.97372	59371
10.98185	56650
10.98997	58002
10.99808	55677
11.00622	55642
11.01433	54619
11.02247	54809
11.03058	54853
11.03870	51335
11.04683	52197
11.05495	50762
11.06308	51440
11.07120	57496
11.07932	59854
11.08745	55285
11.09557	57009
11.10368	56043
11.11182	54111
11.11993	49628
11.12807	47633
11.13618	44370
11.14430	41780
11.15243	39337
11.16055	45434
11.16868	45496
11.17680	45970
11.18492	52522
11.19305	51498
11.20117	53191
11.20930	53206
11.21742	50274
11.22553	45182
11.23367	43702
11.24178	39203
11.24990	39971
11.25803	40127
11.26615	40056
11.27428	38200
11.28240	40340
11.29052	45222
11.29865	50477
11.30677	65293
11.31490	95483
11.32302	147726
11.33113	218505
11.33927	280097
11.34738	316461
11.35552	293581
11.36363	251827
11.37175	183701
11.37988	131063
11.38800	102976
11.39612	86725
11.40425	74874
11.41237	73135
11.42050	70440
11.42862	70340
11.43673	70289
11.44487	64059
11.45298	65466
11.46112	59296
11.46923	68489
11.47735	86278
11.48548	116235
11.49360	164996
11.50172	188990
11.50985	200811
11.51797	177080
11.52610	144986
11.53422	116878
11.54233	93839
11.55047	91265
11.55858	83825
11.56672	79955
11.57483	75055
11.58295	72352
11.59108	72612
11.59920	84617
11.60733	102413
11.61545	123487
11.62357	135168
11.63170	135499
11.63982	115746
11.64793	90799
11.65607	75394
11.66418	69609
11.67232	60229
11.68043	57507
11.68855	52219
11.69668	54010
11.70480	54449
11.71293	55373
11.72105	53102
11.72917	55644
11.73730	52642
11.74542	54251
11.75353	52819
11.76167	51842
11.76978	46431
11.77792	48686
11.78603	49701
11.79415	44372
11.80228	45410
11.81040	47410
11.81853	45878
11.82665	49415
11.83477	44401
11.84290	48126
11.85102	45085
11.85915	47035
11.86727	47894
11.87538	44615
11.88352	38533
11.89163	41630
11.89975	41793
11.90788	40658
11.91600	46212
11.92413	48762
11.93225	52984
11.94037	51338
11.94850	48223
11.95662	48066
11.96475	43738
11.97287	44947
11.98098	52706
11.98912	65704
11.99723	97013
12.00537	139235
12.01348	175224
12.02160	178143
12.02973	159598
12.03785	124946
12.04597	87304
12.05410	74718
12.06222	63924
12.07035	58763
12.07847	58997
12.08658	54603
12.09472	51514
12.10283	55639
12.11097	54512
12.11908	59949
12.12720	54647
12.13533	55239
12.14345	58691
12.15157	52960
12.15970	54991
12.16782	47088
12.17595	44463
12.18407	46094
12.19218	42836
12.20032	43422
12.20843	46441
12.21657	45031
12.22468	45680
12.23280	41086
12.24093	45406
12.24905	46079
12.25718	44034
12.26530	43626
12.27342	39628
12.28155	39810
12.28967	41962
12.29778	42119
12.30592	42234
12.31403	36879
12.32217	41250
12.33028	39686
12.33840	37458
12.34653	39232
12.35465	38898
12.36278	41129
12.37090	36897
12.37902	38910
12.38715	38629
12.39527	40219
12.40340	46442
12.41152	53755
12.41963	67001
12.42777	73329
12.43588	78944
12.44400	74674
12.45213	71572
12.46025	67560
12.46838	60227
12.47650	55594
12.48462	50163
12.49275	47831
12.50087	46310
12.50900	44736
12.51712	46875
12.52523	49071
12.53337	54533
12.54148	60129
12.54960	81903
12.55773	102219
12.56585	121213
12.57398	129488
12.58210	118086
12.59022	107597
12.59835	79691
12.60647	65564
12.61460	59377
12.62272	54674
12.63083	54276
12.63897	47180
12.64708	47416
12.65522	46357
12.66333	44347
12.67145	45095
12.67958	45252
12.68770	40174
12.69582	41335
12.70395	43192
12.71207	43098
12.72020	44371
12.72832	48054
12.73643	51711
12.74457	53177
12.75268	50904
12.76082	49431
12.76893	45120
12.77705	41381
12.78518	36876
12.79330	36465
12.80142	39877
12.80955	39163
12.81767	37145
12.82580	35049
12.83392	38434
12.84203	35224
12.85017	32397
12.85828	33199
12.86642	35481
12.87453	32377
12.88265	30399
12.89078	30881
12.89890	34965
12.90703	32659
12.91515	32586
12.92327	29912
12.93140	31891
12.93952	32537
12.94763	32808
12.95577	36122
12.96388	48658
12.97202	61647
12.98013	75374
12.98825	88933
12.99638	86245
13.00450	81435
13.01263	64938
13.02075	51679
13.02887	47026
13.03700	42481
13.04512	41057
13.05325	38641
13.06137	36407
13.06948	35628
13.07762	40864
13.08573	46634
13.09385	38776
13.10198	37729
13.11010	37486
13.11823	35777
13.12635	34999
13.13447	32238
13.14260	32854
13.15072	35024
13.15885	40130
13.16697	38499
13.17508	37371
13.18322	37536
13.19133	38278
13.19945	41350
13.20758	38897
13.21570	38909
13.22383	38879
13.23195	42726
13.24007	37793
13.24820	39267
13.25632	34741
13.26445	36837
13.27257	34648
13.28068	37970
13.28882	32907
13.29693	32484
13.30507	28961
13.31318	31821
13.32130	32325
13.32943	34812
13.33755	36749
13.34567	31822
13.35380	32128
13.36192	31695
13.37005	30172
13.37817	31557
13.38628	30398
13.39442	29876
13.40253	33523
13.41067	29779
13.41878	31445
13.42690	28433
13.43503	28716
13.44315	31271
13.45128	29204
13.45940	32567
13.46752	31902
13.47565	31777
13.48377	29421
13.49188	32789
13.50002	28763
13.50813	29642
13.51627	29857
13.52438	33380
13.53250	32268
13.54063	33452
13.54875	30673
13.55688	31978
13.56500	33360
13.57312	31382
13.58125	33167
13.58937	38173
13.59748	45115
13.60562	65555
13.61373	96635
13.62187	126454
13.62998	143413
13.63810	138277
13.64623	112177
13.65435	81290
13.66248	63712
13.67060	47770
13.67872	41846
13.68685	41514
13.69497	38185
13.70310	35235
13.71122	38201
13.71933	38290
13.72747	41727
13.73558	57195
13.74370	110264
13.75183	244175
13.75995	495964
13.76808	935514
13.77620	1287077
13.78432	1510444
13.79245	1450494
13.80057	1191977
13.80870	821480
13.81682	611593
13.82493	458389
13.83307	413987
13.84118	392865
13.84932	338613
13.85743	312030
13.86555	258941
13.87368	211029
13.88180	176484
13.88992	165031
13.89805	145482
13.90617	133819
13.91430	129978
13.92242	122301
13.93053	110679
13.93867	109431
13.94678	104948
13.95492	104106
13.96303	101677
13.97115	107403
13.97928	110822
13.98740	113993
13.99552	110986
14.00365	108144
14.01177	104814
14.01990	91093
14.02802	89427
14.03613	85346
14.04427	79266
14.05238	85633
14.06052	87788
14.06863	80319
14.07675	78973
14.08488	72319
14.09300	81972
14.10113	78734
14.10925	78385
14.11737	76156
14.12550	75407
14.13362	76336
14.14173	81174
14.14987	81950
14.15798	88210
14.16612	98646
14.17423	126550
14.18235	182474
14.19048	272337
14.19860	382223
14.20673	444396
14.21485	427754
14.22297	347368
14.23110	273786
14.23922	208786
14.24733	179767
14.25547	163762
14.26358	143619
14.27172	130696
14.27983	118006
14.28795	108734
14.29608	106974
14.30420	90764
14.31233	92724
14.32045	88101
14.32857	83752
14.33670	78006
14.34482	73387
14.35295	67154
14.36107	62633
14.36918	57410
14.37732	52242
14.38543	58967
14.39355	78331
14.40168	119988
14.40980	203087
14.41793	317916
14.42605	395902
14.43417	409182
14.44230	341594
14.45042	245578
14.45855	174864
14.46667	121648
14.47478	98591
14.48292	86346
14.49103	78798
14.49917	73045
14.50728	72435
14.51540	65266
14.52353	72045
14.53165	66122
14.53977	65114
14.54790	65804
14.55602	56747
14.56415	59412
14.57227	54565
14.58038	48856
14.58852	48987
14.59663	50458
14.60477	47793
14.61288	41957
14.62100	43519
14.62913	44042
14.63725	45219
14.64537	48023
14.65350	44990
14.66162	46392
14.66975	46394
14.67787	41199
14.68598	41423
14.69412	40787
14.70223	40069
14.71037	39410
14.71848	48596
14.72660	45742
14.73473	45398
14.74285	47348
14.75098	49740
14.75910	47920
14.76722	45353
14.77535	49181
14.78347	55379
14.79158	82360
14.79972	165809
14.80783	373117
14.81597	826918
14.82408	1470224
14.83220	1961947
14.84033	2172219
14.84845	1930237
14.85658	1400679
14.86470	930811
14.87282	584578
14.88095	373620
14.88907	274499
14.89720	222312
14.90532	188118
14.91343	152766
14.92157	150961
14.92968	131081
14.93780	125056
14.94593	113777
14.95405	113727
14.96218	103924
14.97030	105166
14.97842	96094
14.98655	97875
14.99467	90805
15.00280	85969
15.01092	82708
15.01903	79824
15.02717	82021
15.03528	75937
15.04340	73466
15.05153	72411
15.05965	70160
15.06778	74060
15.07590	67605
15.08402	65684
15.09215	64588
15.10027	65115
15.10840	63221
15.11652	64198
15.12463	64326
15.13277	72841
15.14088	75162
15.14902	77541
15.15713	75428
15.16525	66212
15.17338	65203
15.18150	57034
15.18962	52287
15.19775	51884
15.20587	50490
15.21400	45890
15.22212	44409
15.23023	50249
15.23837	44982
15.24648	40732
15.25462	40719
15.26273	41649
15.27085	39449
15.27898	42989
15.28710	38872
15.29522	38867
15.30335	37082
15.31147	39720
15.31960	36707
15.32772	38312
15.33583	36548
15.34397	37600
15.35208	39891
15.36022	35980
15.36833	35461
15.37645	38848
15.38458	36656
15.39270	38775
15.40083	38905
15.40895	40710
15.41707	37065
15.42520	39462
15.43332	37816
15.44143	37243
15.44957	35002
15.45768	36223
15.46582	42400
15.47393	49831
15.48205	60528
15.49018	70707
15.49830	80618
15.50643	88088
15.51455	91424
15.52267	86293
15.53080	91270
15.53892	89542
15.54705	91425
15.55517	85948
15.56328	79310
15.57142	70278
15.57953	58368
15.58765	53204
15.59578	46662
15.60390	43939
15.61203	42525
15.62015	40844
15.62827	38843
15.63640	41586
15.64452	39139
15.65265	40325
15.66077	37380
15.66888	34802
15.67702	36933
15.68513	35703
15.69325	34880
15.70138	36286
15.70950	35558
15.71763	38420
15.72575	41732
15.73387	42128
15.74200	46087
15.75012	49757
15.75825	61520
15.76637	94390
15.77448	142872
15.78262	202452
15.79073	255835
15.79887	267162
15.80698	230565
15.81510	175005
15.82323	125535
15.83135	96039
15.83947	76141
15.84760	62624
15.85572	60925
15.86385	58038
15.87197	54743
15.88008	51140
15.88822	48808
15.89633	47931
15.90447	49572
15.91258	47124
15.92070	48412
15.92883	47929
15.93695	44699
15.94508	52570
15.95320	56669
15.96132	62590
15.96945	75929
15.97757	86907
15.98568	87930
15.99382	88497
16.00193	80786
16.01007	72380
16.01818	75780
16.02630	69491
16.03443	72582
16.04255	63305
16.05068	59859
16.05880	60559
16.06692	55929
16.07505	47330
16.08317	44721
16.09128	47109
16.09942	42651
16.10753	43884
16.11567	42944
16.12378	45177
16.13190	45628
16.14003	43625
16.14815	50998
16.15628	54096
16.16440	49758
16.17252	48448
16.18065	46118
16.18877	42593
16.19690	40244
16.20502	42769
16.21313	42945
16.22127	42922
16.22938	42992
16.23750	41892
16.24563	39213
16.25375	42261
16.26188	43326
16.27000	38559
16.27812	38967
16.28625	38993
16.29437	42677
16.30250	44038
16.31062	42430
16.31873	44395
16.32687	40828
16.33498	45483
16.34310	44925
16.35123	45271
16.35935	62180
16.36748	72975
16.37560	90549
16.38372	93963
16.39185	89586
16.39997	80520
16.40810	69827
16.41622	58384
16.42433	51678
16.43247	49210
16.44058	52616
16.44872	48018
16.45683	50967
16.46495	66322
16.47308	79264
16.48120	94749
16.48932	98495
16.49745	87370
16.50557	76947
16.51370	66335
16.52182	60154
16.52993	49934
16.53807	45383
16.54618	47057
16.55432	47222
16.56243	44109
16.57055	46110
16.57868	49370
16.58680	46783
16.59493	56927
16.60305	60618
16.61117	73353
16.61930	74384
16.62742	67526
16.63553	67638
16.64367	60339
16.65178	54860
16.65992	48547
16.66803	46729
16.67615	43672
16.68428	41373
16.69240	41628
16.70053	43520
16.70865	46162
16.71677	38641
16.72490	38125
16.73302	39207
16.74115	39468
16.74927	40923
16.75738	42382
16.76552	44485
16.77363	42013
16.78175	41357
16.78988	42471
16.79800	40383
16.80613	40039
16.81425	36703
16.82237	35668
16.83050	32689
16.83862	33638
16.84675	35081
16.85487	34978
16.86298	33239
16.87112	33429
16.87923	35154
16.88735	36361
16.89548	35920
16.90360	36267
16.91173	36118
16.91985	35233
16.92797	33733
16.93610	36030
16.94422	34044
16.95235	35945
16.96047	31139
16.96858	33383
16.97672	35285
16.98483	35208
16.99297	38387
17.00108	34625
17.00920	31183
17.01733	36094
17.02545	38819
17.03357	39129
17.04170	40310
17.04982	44980
17.05795	44168
17.06607	48243
17.07418	42261
17.08232	43713
17.09043	40203
17.09857	40431
17.10668	37693
17.11480	38945
17.12293	40128
17.13105	43293
17.13917	40680
17.14730	41758
17.15542	40697
17.16355	39221
17.17167	38282
17.17978	36445
17.18792	36090
17.19603	35587
17.20417	34534
17.21228	32992
17.22040	34469
17.22853	34782
17.23665	36423
17.24478	33836
17.25290	36156
17.26102	36956
17.26915	35193
17.27727	34932
17.28538	31991
17.29352	32035
17.30163	35732
17.30977	35170
17.31788	35683
17.32600	47974
17.33413	49242
17.34225	53606
17.35038	53106
17.35850	60853
17.36662	52625
17.37475	53387
17.38287	46882
17.39100	45174
17.39912	47545
17.40723	46856
17.41537	42996
17.42348	46017
17.43160	41223
17.43973	46581
17.44785	44773
17.45598	44247
17.46410	45488
17.47222	38584
17.48035	39294
17.48847	39209
17.49660	39616
17.50472	36724
17.51283	36961
17.52097	37913
17.52908	37524
17.53720	37086
17.54533	45413
17.55345	49079
17.56158	62156
17.56970	93133
17.57782	157912
17.58595	266422
17.59407	430272
17.60220	639762
17.61032	785347
17.61843	816197
17.62657	719987
17.63468	554074
17.64282	413052
17.65093	282570
17.65905	227788
17.66718	180405
17.67530	158195
17.68342	139634
17.69155	125294
17.69967	111333
17.70780	102096
17.71592	96611
17.72403	85930
17.73217	77610
17.74028	77441
17.74842	70942
17.75653	69618
17.76465	63413
17.77278	63739
17.78090	62743
17.78903	62240
17.79715	70594
17.80527	96162
17.81340	136871
17.82152	183963
17.82963	216921
17.83777	226817
17.84588	208043
17.85402	177231
17.86213	143776
17.87025	119519
17.87838	101752
17.88650	85917
17.89463	86477
17.90275	70427
17.91087	69837
17.91900	60722
17.92712	60183
17.93523	57730
17.94337	56055
17.95148	54879
17.95962	54029
17.96773	60186
17.97585	52328
17.98398	50570
17.99210	49680
18.00023	51506
18.00835	54307
18.01647	53949
18.02460	64774
18.03272	69981
18.04085	75271
18.04897	79112
18.05708	95182
18.06522	131006
18.07333	214808
18.08145	337869
18.08958	498340
18.09770	577866
18.10583	584046
18.11395	498789
18.12207	402863
18.13020	293784
18.13832	245886
18.14645	204521
18.15457	179071
18.16268	166861
18.17082	151246
18.17893	140037
18.18705	130586
18.19518	126950
18.20330	114330
18.21143	105527
18.21955	102263
18.22767	99497
18.23580	91588
18.24392	92779
18.25205	90184
18.26017	84224
18.26828	79000
18.27642	77523
18.28453	65762
18.29267	59491
18.30078	55903
18.30890	52259
18.31703	50830
18.32515	50100
18.33327	47165
18.34140	46589
18.34952	41970
18.35765	46538
18.36577	45584
18.37388	43799
18.38202	44402
18.39013	46184
18.39827	43549
18.40638	48600
18.41450	42305
18.42263	52671
18.43075	63061
18.43888	104581
18.44700	160511
18.45512	230948
18.46325	299321
18.47137	369236
18.47948	440337
18.48762	485273
18.49573	489250
18.50387	459070
18.51198	419657
18.52010	364293
18.52823	321585
18.53635	306531
18.54448	300763
18.55260	287151
18.56072	276454
18.56885	273683
18.57697	272675
18.58508	256712
18.59322	261417
18.60133	263949
18.60947	266154
18.61758	264735
18.62570	257548
18.63383	252986
18.64195	253615
18.65008	247626
18.65820	242419
18.66632	245969
18.67445	234209
18.68257	226847
18.69070	230312
18.69882	224533
18.70693	230619
18.71507	225763
18.72318	212547
18.73130	204460
18.73943	215894
18.74755	206565
18.75568	210596
18.76380	204206
18.77192	209342
18.78005	200974
18.78817	204950
18.79630	199716
18.80442	200101
18.81253	198262
18.82067	200711
18.82878	192675
18.83692	190488
18.84503	189604
18.85315	186243
18.86128	189189
18.86940	180330
18.87752	179564
18.88565	181157
18.89377	181688
18.90190	176068
18.91002	179629
18.91813	178329
18.92627	181153
18.93438	175462
18.94252	172019
18.95063	176814
18.95875	177569
18.96688	182401
18.97500	175935
18.98312	163320
18.99125	167640
18.99937	157531
19.00750	166106
19.01562	153807
19.02373	157356
19.03187	149878
19.03998	151237
19.04812	150596
19.05623	155969
19.06435	170191
19.07248	207699
19.08060	288370
19.08873	403293
19.09685	570853
19.10497	716496
19.11310	751746
19.12122	692720
19.12933	571799
19.13747	430136
19.14558	332546
19.15372	263450
19.16183	219412
19.16995	196486
19.17808	183934
19.18620	184203
19.19433	166934
19.20245	163659
19.21057	153791
19.21870	151125
19.22682	146958
19.23495	144631
19.24307	141856
19.25118	139537
19.25932	129322
19.26743	136243
19.27555	138950
19.28368	141266
19.29180	137570
19.29993	145322
19.30805	139128
19.31617	139636
19.32430	137468
19.33242	133276
19.34055	131255
19.34867	139823
19.35678	155783
19.36492	170923
19.37303	203384
19.38115	199740
19.38928	194983
19.39740	182315
19.40553	154965
19.41365	137558
19.42177	127506
19.42990	120088
19.43802	123065
19.44615	113912
19.45427	118487
19.46238	120394
19.47052	130569
19.47863	144781
19.48677	180782
19.49488	222540
19.50300	276548
19.51113	309682
19.51925	297995
19.52737	251134
19.53550	211302
19.54362	158935
19.55175	134684
19.55987	120252
19.56798	117993
19.57612	108806
19.58423	107552
19.59237	102872
19.60048	101481
19.60860	97550
19.61673	99131
19.62485	98129
19.63297	107757
19.64110	118148
19.64922	140281
19.65735	166488
19.66547	199578
19.67358	231818
19.68172	254125
19.68983	256950
19.69797	237753
19.70608	221134
19.71420	195327
19.72233	176037
19.73045	161224
19.73858	141246
19.74670	126618
19.75482	123581
19.76295	117954
19.77107	113327
19.77918	112732
19.78732	116164
19.79543	115261
19.80357	120775
19.81168	120599
19.81980	116621
19.82793	108061
19.83605	109084
19.84418	103233
19.85230	121268
19.86042	171166
19.86855	303766
19.87667	610716
19.88480	1055786
19.89292	1614671
19.90103	2096502
19.90917	2217810
19.91728	2102105
19.92540	1670693
19.93353	1264647
19.94165	962245
19.94978	746705
19.95790	618432
19.96602	549040
19.97415	497860
19.98227	474994
19.99040	437468
19.99852	413253
20.00663	394920
20.01477	383211
20.02288	361698
20.03100	342492
20.03913	305678
20.04725	278385
20.05538	252122
20.06350	215670
20.07162	178996
20.07975	160614
20.08787	149209
20.09600	142099
20.10412	137341
20.11223	121987
20.12037	121427
20.12848	119124
20.13662	116153
20.14473	109297
20.15285	109862
20.16098	109120
20.16910	123011
20.17722	126067
20.18535	130262
20.19347	137868
20.20160	143065
20.20972	140169
20.21783	131751
20.22597	125952
20.23408	122398
20.24222	127773
20.25033	133866
20.25845	157939
20.26658	182642
20.27470	224494
20.28283	237450
20.29095	245770
20.29907	233299
20.30720	206069
20.31532	186329
20.32343	156857
20.33157	138613
20.33968	123829
20.34782	107856
20.35593	106124
20.36405	99303
20.37218	91821
20.38030	92253
20.38843	91030
20.39655	80167
20.40467	84834
20.41280	77030
20.42092	82725
20.42903	83905
20.43717	84059
20.44528	86747
20.45342	92001
20.46153	87421
20.46965	85958
20.47778	77888
20.48590	77612
20.49403	74382
20.50215	77780
20.51027	68422
20.51840	70774
20.52652	72982
20.53465	68271
20.54277	71507
20.55088	64654
20.55902	72160
20.56713	65403
20.57525	63558
20.58338	64560
20.59150	65608
20.59963	63262
20.60775	63029
20.61587	61868
20.62400	65787
20.63212	61432
20.64025	63589
20.64837	63817
20.65648	64562
20.66462	70266
20.67273	65950
20.68085	68343
20.68898	60400
20.69710	61262
20.70523	59733
20.71335	58936
20.72147	55792
20.72960	56152
20.73772	56012
20.74585	63486
20.75397	62728
20.76208	62997
20.77022	67149
20.77833	73020
20.78647	85041
20.79458	115041
20.80270	148003
20.81083	204476
20.81895	247079
20.82707	251773
20.83520	240194
20.84332	186513
20.85145	142036
20.85957	112882
20.86768	91956
20.87582	78216
20.88393	72325
20.89207	72496
20.90018	70215
20.90830	74965
20.91643	70395
20.92455	67958
20.93268	70063
20.94080	65784
20.94892	65933
20.95705	64548
20.96517	65314
20.97328	62187
20.98142	62273
20.98953	62607
20.99767	59397
21.00578	59753
21.01390	57718
21.02203	62349
21.03015	63811
21.03828	60941
21.04640	62818
21.05452	60051
21.06265	59898
21.07077	57473
21.07890	58347
21.08702	60300
21.09513	59262
21.10327	54867
21.11138	51537
21.11950	55131
21.12763	56136
21.13575	58658
21.14388	68957
21.15200	67322
21.16012	76325
21.16825	77791
21.17637	79452
21.18450	73832
21.19262	73375
21.20073	66800
21.20887	64028
21.21698	63468
21.22510	60609
21.23323	55349
21.24135	56207
21.24948	52812
21.25760	55173
21.26572	56792
21.27385	59871
21.28197	58416
21.29010	55749
21.29822	53736
21.30633	48533
21.31447	50248
21.32258	53209
21.33072	52156
21.33883	49466
21.34695	48383
21.35508	48578
21.36320	53516
21.37132	48081
21.37945	47201
21.38757	48052
21.39570	55728
21.40382	52806
21.41193	55160
21.42007	55296
21.42818	59581
21.43632	53439
21.44443	53184
21.45255	52050
21.46068	51673
21.46880	51662
21.47692	46769
21.48505	46852
21.49317	44836
21.50130	47934
21.50942	49973
21.51753	43428
21.52567	47229
21.53378	48318
21.54192	45131
21.55003	44840
21.55815	43435
21.56628	47309
21.57440	55733
21.58253	56944
21.59065	64696
21.59877	65775
21.60690	64732
21.61502	67067
21.62313	73351
21.63127	71184
21.63938	74040
21.64752	77097
21.65563	79871
21.66375	79157
21.67188	84301
21.68000	82227
21.68813	83200
21.69625	80360
21.70437	70493
21.71250	70966
21.72062	63707
21.72873	62264
21.73687	58541
21.74498	57213
21.75312	54602
21.76123	54579
21.76935	58020
21.77748	53227
21.78560	54264
21.79373	54663
21.80185	55445
21.80997	55555
21.81810	56810
21.82622	59448
21.83435	64114
21.84247	70917
21.85058	72496
21.85872	66060
21.86683	68865
21.87495	62609
21.88308	54927
21.89120	53841
21.89933	48692
21.90745	53901
21.91557	55599
21.92370	51333
21.93182	51731
21.93995	50329
21.94807	45244
21.95618	43525
21.96432	40770
21.97243	42241
21.98057	40859
21.98868	40875
21.99680	40452
22.00493	42235
22.01305	41779
22.02117	41903
22.02930	44405
22.03742	44366
22.04555	48086
22.05367	46248
22.06178	55426
22.06992	58286
22.07803	64327
22.08617	65333
22.09428	70687
22.10240	66896
22.11053	70157
22.11865	70534
22.12678	71792
22.13490	70511
22.14302	72689
22.15115	78578
22.15927	76992
22.16738	74481
22.17552	72809
22.18363	81219
22.19177	81994
22.19988	74609
22.20800	76450
22.21613	77640
22.22425	80648
22.23238	81967
22.24050	82613
22.24862	77579
22.25675	76898
22.26487	73226
22.27298	73386
22.28112	74393
22.28923	72623
22.29737	68636
22.30548	67331
22.31360	62171
22.32173	64593
22.32985	65613
22.33798	64811
22.34610	59193
22.35422	61503
22.36235	58628
22.37047	63773
22.37860	55289
22.38672	59849
22.39483	71193
22.40297	82373
22.41108	96122
22.41920	104449
22.42733	115781
22.43545	109429
22.44358	99616
22.45170	84725
22.45982	80535
22.46795	70668
22.47607	69252
22.48420	74114
22.49232	84098
22.50043	83451
22.50857	88730
22.51668	85774
22.52480	78981
22.53293	71434
22.54105	73084
22.54918	63151
22.55730	60364
22.56542	58298
22.57355	51508
22.58167	57040
22.58980	64592
22.59792	74206
22.60603	86672
22.61417	98129
22.62228	100925
22.63042	111099
22.63853	107315
22.64665	118636
22.65478	119867
22.66290	122325
22.67102	128045
22.67915	133778
22.68727	129110
22.69540	132312
22.70352	147153
22.71163	153222
22.71977	157059
22.72788	152193
22.73602	151773
22.74413	145026
22.75225	135035
22.76038	138654
22.76850	142666
22.77663	140539
22.78475	151963
22.79287	156539
22.80100	177239
22.80912	188734
22.81723	196599
22.82537	193074
22.83348	178869
22.84162	161827
22.84973	156563
22.85785	148630
22.86598	142259
22.87410	141257
22.88223	149882
22.89035	153956
22.89847	172171
22.90660	187251
22.91472	216016
22.92283	244103
22.93097	255396
22.93908	255154
22.94722	229511
22.95533	194941
22.96345	168596
22.97158	152075
22.97970	137383
22.98783	134847
22.99595	122273
23.00407	119707
23.01220	116283
23.02032	113174
23.02845	112796
23.03657	110735
23.04468	109769
23.05282	108968
23.06093	105517
23.06905	105877
23.07718	103760
23.08530	100118
23.09343	101158
23.10155	97693
23.10967	98790
23.11780	91539
23.12592	93152
23.13405	91442
23.14217	90669
23.15028	89661
23.15842	91121
23.16653	87691
23.17467	88746
23.18278	89746
23.19090	92329
23.19903	86176
23.20715	84374
23.21527	91671
23.22340	84341
23.23152	82868
23.23965	88576
23.24777	94145
23.25588	90719
23.26402	90187
23.27213	93623
23.28027	95629
23.28838	93582
23.29650	93856
23.30463	85274
23.31275	85079
23.32087	84700
23.32900	91232
23.33712	99634
23.34525	116022
23.35337	153992
23.36148	198016
23.36962	267510
23.37773	360283
23.38587	442442
23.39398	533239
23.40210	606688
23.41023	653748
23.41835	698084
23.42648	683315
23.43460	678338
23.44272	666391
23.45085	648401
23.45897	586194
23.46708	541240
23.47522	529836
23.48333	467982
23.49147	441415
23.49958	399004
23.50770	374584
23.51583	337065
23.52395	324265
23.53208	303823
23.54020	276602
23.54832	264374
23.55645	247946
23.56457	246284
23.57268	247946
23.58082	268745
23.58893	294326
23.59707	323540
23.60518	358568
23.61330	357509
23.62143	331221
23.62955	291909
23.63768	262827
23.64580	237952
23.65392	237388
23.66205	230159
23.67017	229790
23.67830	227001
23.68642	208206
23.69453	187741
23.70267	169600
23.71078	150648
23.71890	142452
23.72703	126934
23.73515	127961
23.74328	138276
23.75140	178671
23.75952	272912
23.76765	486267
23.77577	841727
23.78390	1330891
23.79202	1767532
23.80013	1990297
23.80827	1946667
23.81638	1714380
23.82452	1378081
23.83263	1122979
23.84075	867999
23.84888	673483
23.85700	560350
23.86512	450129
23.87325	393200
23.88137	355347
23.88950	309851
23.89762	294953
23.90573	274805
23.91387	258866
23.92198	241863
23.93012	221932
23.93823	216459
23.94635	196586
23.95448	187178
23.96260	179975
23.97072	172026
23.97885	160913
23.98697	151570
23.99510	148755
24.00322	167364
24.01133	202897
24.01947	260505
24.02758	340479
24.03572	404223
24.04383	413801
24.05195	365280
24.06008	293197
24.06820	220805
24.07633	168919
24.08445	137394
24.09257	121589
24.10070	120981
24.10882	109762
24.11693	110089
24.12507	114760
24.13318	108945
24.14132	112655
24.14943	108703
24.15755	105288
24.16568	103918
24.17380	103458
24.18193	104459
24.19005	106053
24.19817	101635
24.20630	93294
24.21442	95173
24.22255	102017
24.23067	95472
24.23878	91451
24.24692	88027
24.25503	82722
24.26315	84376
24.27128	79876
24.27940	75856
24.28753	78464
24.29565	79064
24.30377	78352
24.31190	77818
24.32002	82453
24.32815	74963
24.33627	76380
24.34438	81905
24.35252	97673
24.36063	122228
24.36875	148092
24.37688	177714
24.38500	208714
24.39313	237690
24.40125	257038
24.40937	251051
24.41750	232649
24.42562	216356
24.43375	196785
24.44187	187005
24.44998	185108
24.45812	186535
24.46623	192944
24.47437	197369
24.48248	194751
24.49060	196764
24.49873	202378
24.50685	204122
24.51497	206391
24.52310	209282
24.53122	215777
24.53935	212109
24.54747	227373
24.55558	237782
24.56372	226227
24.57183	225534
24.57997	220976
24.58808	215712
24.59620	210623
24.60433	203005
24.61245	193811
24.62058	196446
24.62870	188752
24.63682	191507
24.64495	185911
24.65307	183058
24.66118	187274
24.66932	177252
24.67743	182432
24.68557	182449
24.69368	182204
24.70180	180750
24.70993	177963
24.71805	177849
24.72618	178647
24.73430	183927
24.74242	180286
24.75055	184765
24.75867	184229
24.76678	187387
24.77492	192588
24.78303	184586
24.79117	188386
24.79928	185901
24.80740	185092
24.81553	185986
24.82365	183752
24.83178	198730
24.83990	211984
24.84802	236461
24.85615	276687
24.86427	341263
24.87240	424024
24.88052	523361
24.88863	612238
24.89677	655083
24.90488	629792
24.91300	548794
24.92113	463969
24.92925	357894
24.93738	268685
24.94550	227153
24.95362	197869
24.96175	181789
24.96987	171255
24.97800	160550
24.98612	157445
24.99423	149821
25.00237	148491
25.01048	148373
25.01860	152445
25.02673	138370
25.03485	138686
25.04298	133337
25.05110	130796
25.05922	127729
25.06735	121962
25.07547	119245
25.08360	109957
25.09172	104781
25.09983	145971
25.10797	242749
25.11608	450479
25.12422	841245
25.13233	1396178
25.14045	2014434
25.14858	2352029
25.15670	2390751
25.16482	2028189
25.17295	1478878
25.18107	960021
25.18920	559439
25.19732	349547
25.20543	233250
25.21357	167906
25.22168	138099
25.22982	126694
25.23793	129320
25.24605	145870
25.25418	186529
25.26230	208424
25.27043	249059
25.27855	253963
25.28667	245104
25.29480	213411
25.30292	178968
25.31103	142620
25.31917	113904
25.32728	96194
25.33542	89908
25.34353	88104
25.35165	77078
25.35978	78361
25.36790	66906
25.37603	65590
25.38415	65854
25.39227	67000
25.40040	63985
25.40852	65303
25.41663	68098
25.42477	64050
25.43288	63060
25.44102	63256
25.44913	64188
25.45725	64016
25.46538	71640
25.47350	69846
25.48163	68622
25.48975	87290
25.49787	112067
25.50600	144062
25.51412	168595
25.52225	192363
25.53037	202427
25.53848	206806
25.54662	212947
25.55473	223617
25.56285	219224
25.57098	219329
25.57910	224641
25.58723	223571
25.59535	229449
25.60347	235550
25.61160	234222
25.61972	232503
25.62785	236300
25.63597	235187
25.64408	244450
25.65222	231540
25.66033	226759
25.66847	227145
25.67658	215936
25.68470	223618
25.69283	220596
25.70095	218618
25.70907	215760
25.71720	216920
25.72532	214552
25.73345	207631
25.74157	213916
25.74968	210454
25.75782	213051
25.76593	206013
25.77407	207213
25.78218	200517
25.79030	201708
25.79843	197619
25.80655	197679
25.81467	196533
25.82280	195539
25.83092	186286
25.83905	189542
25.84717	193388
25.85528	188956
25.86342	193138
25.87153	186544
25.87967	185529
25.88778	174761
25.89590	170818
25.90403	171887
25.91215	168555
25.92028	164937
25.92840	164592
25.93652	160798
25.94465	161688
25.95277	162971
25.96088	158101
25.96902	155127
25.97713	150466
25.98527	150860
25.99338	146604
26.00150	150151
26.00963	145954
26.01775	146389
26.02588	136160
26.03400	139358
26.04212	135500
26.05025	141190
26.05837	130882
26.06648	132528
26.07462	130096
26.08273	133473
26.09087	123462
26.09898	132403
26.10710	129745
26.11523	125229
26.12335	131023
26.13148	130093
26.13960	130910
26.14772	127392
26.15585	123660
26.16397	128707
26.17210	129098
26.18022	129337
26.18833	120006
26.19647	118415
26.20458	109817
26.21270	116004
26.22083	111001
26.22895	113373
26.23708	114466
26.24520	110369
26.25332	105490
26.26145	105744
26.26957	100747
26.27770	100029
26.28582	103630
26.29393	101982
26.30207	98634
26.31018	98734
26.31832	93568
26.32643	94832
26.33455	92760
26.34268	91718
26.35080	96697
26.35892	87692
26.36705	91301
26.37517	88399
26.38330	90517
26.39142	98426
26.39953	94633
26.40767	104385
26.41578	98649
26.42392	94412
26.43203	87851
26.44015	84396
26.44828	83278
26.45640	81535
26.46453	87704
26.47265	80467
26.48077	85676
26.48890	77824
26.49702	82365
26.50513	75616
26.51327	75489
26.52138	73698
26.52952	74940
26.53763	71442
26.54575	72591
26.55388	69541
26.56200	73615
26.57013	71168
26.57825	68677
26.58637	69700
26.59450	64052
26.60262	64274
26.61073	64555
26.61887	63819
26.62698	64919
26.63512	64974
26.64323	62029
26.65135	68198
26.65948	69576
26.66760	72746
26.67573	70706
26.68385	73133
26.69197	70272
26.70010	62926
26.70822	66692
26.71635	63081
26.72447	64715
26.73258	62551
26.74072	66397
26.74883	62676
26.75695	57878
26.76508	59128
26.77320	59417
26.78133	63544
26.78945	65209
26.79757	64368
26.80570	60196
26.81382	65076
26.82195	57799
26.83007	60344
26.83818	59030
26.84632	58042
26.85443	59302
26.86255	56159
26.87068	56810
26.87880	53799
26.88693	52666
26.89505	58555
26.90317	54336
26.91130	53417
26.91942	50835
26.92755	55000
26.93567	53840
26.94378	56188
26.95192	56481
26.96003	55459
26.96817	59054
26.97628	70979
26.98440	93034
26.99253	126707
27.00065	171268
27.00877	228969
27.01690	288465
27.02502	348094
27.03315	370453
27.04127	361112
27.04938	327302
27.05752	290162
27.06563	254900
27.07377	222794
27.08188	186209
27.09000	168126
27.09813	148437
27.10625	139166
27.11438	128879
27.12250	119272
27.13062	118919
27.13875	113335
27.14687	105848
27.15498	99670
27.16312	95663
27.17123	93820
27.17937	96430
27.18748	93031
27.19560	100122
27.20373	91185
27.21185	89214
27.21998	86259
27.22810	82263
27.23622	78269
27.24435	74294
27.25247	72986
27.26058	66952
27.26872	68469
27.27683	66865
27.28497	66518
27.29308	62527
27.30120	62566
27.30933	60280
27.31745	65688
27.32558	58354
27.33370	60880
27.34182	58632
27.34995	62331
27.35807	63329
27.36620	65361
27.37432	65508
27.38243	65498
27.39057	63419
27.39868	60513
27.40680	57591
27.41493	54569
27.42305	55404
27.43118	57132
27.43930	52202
27.44742	53976
27.45555	50433
27.46367	51534
27.47180	56756
27.47992	53408
27.48803	52937
27.49617	52513
27.50428	55658
27.51242	53285
27.52053	56020
27.52865	56439
27.53678	59054
27.54490	55039
27.55302	55594
27.56115	54175
27.56927	56153
27.57740	62426
27.58552	62805
27.59363	73401
27.60177	75326
27.60988	74739
27.61802	71478
27.62613	65255
27.63425	62840
27.64238	54051
27.65050	53064
27.65862	54632
27.66675	53603
27.67487	54033
27.68300	56794
27.69112	55069
27.69923	54371
27.70737	53936
27.71548	46497
27.72362	49630
27.73173	45465
27.73985	45075
27.74798	48584
27.75610	45116
27.76423	47974
27.77235	47264
27.78047	46946
27.78860	46547
27.79672	51956
27.80483	49322
27.81297	47916
27.82108	49866
27.82922	47597
27.83733	47065
27.84545	51339
27.85358	47679
27.86170	45693
27.86983	42144
27.87795	43471
27.88607	42955
27.89420	45785
27.90232	43609
27.91043	46828
27.91857	42073
27.92668	45550
27.93482	42525
27.94293	43591
27.95105	43737
27.95918	44242
27.96730	40295
27.97543	45925
27.98355	47779
27.99167	44733
27.99980	44310
28.00792	41003
28.01605	45239
28.02417	51888
28.03228	52991
28.04042	57914
28.04853	59260
28.05665	59172
28.06478	66009
28.07290	56003
28.08103	54544
28.08915	47085
28.09727	48676
28.10540	46424
28.11352	46516
28.12165	42323
28.12977	41846
28.13788	41653
28.14602	41493
28.15413	42696
28.16227	40938
28.17038	40737
28.17850	43259
28.18663	49785
28.19475	56102
28.20287	62501
28.21100	78216
28.21912	75235
28.22725	78501
28.23537	75869
28.24348	66962
28.25162	63860
28.25973	56202
28.26787	49997
28.27598	48416
28.28410	47459
28.29223	45652
28.30035	50825
28.30847	54949
28.31660	59393
28.32472	66643
28.33285	76457
28.34097	86011
28.34908	96385
28.35722	110921
28.36533	119247
28.37347	131122
28.38158	137470
28.38970	139765
28.39783	142374
28.40595	145917
28.41408	145137
28.42220	144004
28.43032	131259
28.43845	128560
28.44657	123600
28.45468	116033
28.46282	103663
28.47093	97235
28.47907	88737
28.48718	88042
28.49530	86279
28.50343	84274
28.51155	83822
28.51968	78374
28.52780	70325
28.53592	70804
28.54405	66332
28.55217	68329
28.56030	66345
28.56842	62900
28.57653	61451
28.58467	61610
28.59278	62447
28.60090	60070
28.60903	60033
28.61715	59363
28.62528	62507
28.63340	57685
28.64152	61028
28.64965	63903
28.65777	59485
28.66590	62309
28.67402	61831
28.68213	59661
28.69027	59953
28.69838	56315
28.70650	58331
28.71463	55806
28.72275	54816
28.73088	51754
28.73900	55905
28.74712	58204
28.75525	64864
28.76337	73715
28.77150	75412
28.77962	82775
28.78773	76878
28.79587	72171
28.80398	66313
28.81212	64285
28.82023	61040
28.82835	62780
28.83648	61420
28.84460	53971
28.85272	56515
28.86085	54179
28.86897	53935
28.87710	58281
28.88522	63238
28.89333	66496
28.90147	67493
28.90958	67919
28.91772	68128
28.92583	62110
28.93395	56392
28.94208	56790
28.95020	54065
28.95833	58176
28.96645	55468
28.97457	54659
28.98270	49950
28.99082	54831
28.99893	51465
29.00707	47471
29.01518	44484
29.02332	45523
29.03143	44638
29.03955	43017
29.04768	47424
29.05580	46762
29.06393	46989
29.07205	51112
29.08017	51427
29.08830	52378
29.09642	51593
29.10453	48772
29.11267	47864
29.12078	43735
29.12892	47720
29.13703	46940
29.14515	46360
29.15328	46570
29.16140	47096
29.16953	45708
29.17765	53665
29.18577	57418
29.19390	64208
29.20202	79718
29.21015	88219
29.21827	93659
29.22638	96340
29.23452	91495
29.24263	83098
29.25075	79782
29.25888	75352
29.26700	72854
29.27513	73539
29.28325	74968
29.29137	65439
29.29950	61504
29.30762	52334
29.31575	49562
29.32387	47398
29.33198	47116
29.34012	43199
29.34823	45330
29.35635	40245
29.36448	44299
29.37260	40049
29.38073	42759
29.38885	41288
29.39697	44593
29.40510	42258
29.41322	47723
29.42135	42007
29.42947	43426
29.43758	40631
29.44572	40900
29.45383	40529
29.46197	45352
29.47008	45889
29.47820	44915
29.48633	44272
29.49445	43684
29.50257	50335
29.51070	46768
29.51882	46139
29.52695	41620
29.53507	44513
29.54318	45246
29.55132	45544
29.55943	45847
29.56757	40825
29.57568	41667
29.58380	43317
29.59193	39532
29.60005	40951
29.60818	39837
29.61630	39924
29.62442	40157
29.63255	39413
29.64067	41732
29.64878	41485
29.65692	40828
29.66503	39891
29.67317	43004
29.68128	41027
29.68940	48120
29.69753	48021
29.70565	47334
29.71378	47357
29.72190	48018
29.73002	40088
29.73815	43534
29.74627	41659
29.75438	39380
29.76252	40476
29.77063	38272
29.77877	36467
29.78688	37104
29.79500	39632
29.80313	37152
29.81125	36961
29.81938	35470
29.82750	35585
29.83562	39288
29.84375	39306
29.85187	41324
29.86000	41703
29.86812	56244
29.87623	74940
29.88437	102856
29.89248	144997
29.90060	172276
29.90873	174861
29.91685	152602
29.92498	122452
29.93310	95677
29.94122	70345
29.94935	59002
29.95747	59152
29.96560	59297
29.97372	59339
29.98183	72905
29.98997	67150
29.99808	72909
30.00622	77903
30.01433	78536
30.02245	84346
30.03058	84564
30.03870	88157
30.04682	86538
30.05495	85799
30.06307	87892
30.07120	86999
30.07932	90090
30.08743	86510
30.09557	88818
30.10368	85858
30.11182	86244
30.11993	82441
30.12805	80271
30.13618	75717
30.14430	73155
30.15242	72488
30.16055	72166
30.16867	67034
30.17680	64528
30.18492	61719
30.19303	63652
30.20117	64549
30.20928	57892
30.21742	62967
30.22553	56896
30.23365	59882
30.24178	56703
30.24990	52278
30.25803	55813
30.26615	51555
30.27427	50537
30.28240	51704
30.29052	47086
30.29863	48713
30.30677	45547
30.31488	49608
30.32302	48816
30.33113	46519
30.33925	47509
30.34738	47807
30.35550	45896
30.36363	45682
30.37175	47109
30.37987	45928
30.38800	47471
30.39612	50164
30.40423	45751
30.41237	45950
30.42048	40363
30.42862	46333
30.43673	40205
30.44485	43277
30.45298	44684
30.46110	41544
30.46923	41438
30.47735	40579
30.48547	45241
30.49360	42233
30.50172	44739
30.50985	42721
30.51797	46125
30.52608	44077
30.53422	40686
30.54233	40264
30.55045	40065
30.55858	44857
30.56670	44384
30.57483	42392
30.58295	41663
30.59107	41604
30.59920	43381
30.60732	37010
30.61545	43133
30.62357	40821
30.63168	39965
30.63982	39489
30.64793	42374
30.65607	37648
30.66418	38080
30.67230	37986
30.68043	38369
30.68855	35222
30.69667	37713
30.70480	35539
30.71292	39382
30.72105	36872
30.72917	41611
30.73728	39361
30.74542	43160
30.75353	39265
30.76167	43327
30.76978	45557
30.77790	51879
30.78603	60724
30.79415	77478
30.80227	93120
30.81040	111052
30.81852	103832
30.82665	97836
30.83477	87309
30.84288	69562
30.85102	59479
30.85913	50958
30.86727	47459
30.87538	45824
30.88350	44039
30.89163	45079
30.89975	42311
30.90788	41896
30.91600	39519
30.92412	39313
30.93225	42596
30.94037	44885
30.94848	45640
30.95662	50570
30.96473	50459
30.97287	51245
30.98098	52620
30.98910	50682
30.99723	51859
31.00535	50458
31.01348	54447
31.02160	53800
31.02972	58539
31.03785	54858
31.04597	60143
31.05410	58693
31.06222	58275
31.07033	55386
31.07847	64598
31.08658	63648
31.09470	70347
31.10283	74164
31.11095	75504
31.11908	75392
31.12720	68098
31.13532	71298
31.14345	65498
31.15157	66653
31.15970	62997
31.16782	65018
31.17593	66343
31.18407	71348
31.19218	84058
31.20030	97995
31.20843	110820
31.21655	134137
31.22468	151086
31.23280	145487
31.24092	140954
31.24905	116292
31.25717	97699
31.26530	81157
31.27342	72143
31.28153	62531
31.28967	57876
31.29778	58310
31.30592	58621
31.31403	57011
31.32215	55095
31.33028	58139
31.33840	54278
31.34652	59152
31.35465	55647
31.36277	55978
31.37090	54755
31.37902	56695
31.38713	61149
31.39527	62724
31.40338	60585
31.41152	59194
31.41963	53975
31.42775	60112
31.43588	53854
31.44400	52741
31.45212	52011
31.46025	46505
31.46837	50498
31.47650	51825
31.48462	53769
31.49273	53572
31.50087	52878
31.50898	52007
31.51712	51088
31.52523	47061
31.53335	53135
31.54148	50088
31.54960	50386
31.55773	53470
31.56585	50225
31.57397	52497
31.58210	49737
31.59022	47976
31.59833	46686
31.60647	49335
31.61458	49530
31.62272	47784
31.63083	46334
31.63895	48544
31.64708	49992
31.65520	51401
31.66333	54935
31.67145	52310
31.67957	50311
31.68770	52534
31.69582	51650
31.70395	51111
31.71207	48638
31.72018	49533
31.72832	42110
31.73643	48243
31.74455	45111
31.75268	44983
31.76080	41178
31.76893	46304
31.77705	44683
31.78517	47531
31.79330	44089
31.80142	48370
31.80955	46791
31.81767	47376
31.82578	44469
31.83392	43329
31.84203	43284
31.85017	45418
31.85828	45220
31.86640	45261
31.87453	50869
31.88265	49220
31.89077	52868
31.89890	56083
31.90702	63573
31.91515	66690
31.92327	70481
31.93138	69152
31.93952	74915
31.94763	80234
31.95577	77249
31.96388	85728
31.97200	87305
31.98013	89027
31.98825	87384
31.99637	85355
32.00450	81305
32.01262	83924
32.02075	84224
32.02887	82312
32.03698	75280
32.04512	71361
32.05323	78924
32.06137	68162
32.06948	72131
32.07760	68872
32.08573	68831
32.09385	64159
32.10198	61835
32.11010	62190
32.11822	55166
32.12635	53971
32.13447	60498
32.14258	56883
32.15072	57714
32.15883	49049
32.16697	53771
32.17508	55195
32.18320	52353
32.19133	53487
32.19945	48293
32.20758	48165
32.21570	46490
32.22382	50526
32.23195	47825
32.24007	48943
32.24818	52445
32.25632	49269
32.26443	48275
32.27257	51130
32.28068	50070
32.28880	48056
32.29693	44993
32.30505	46149
32.31318	41210
32.32130	46006
32.32942	49451
32.33755	48106
32.34567	42734
32.35380	44884
32.36192	46908
32.37003	48252
32.37817	46346
32.38628	44469
32.39440	45369
32.40253	43742
32.41065	41308
32.41878	42003
32.42690	42197
32.43502	45092
32.44315	42250
32.45127	36339
32.45940	40268
32.46752	38970
32.47563	39154
32.48377	40767
32.49188	44838
32.50002	45234
32.50813	39856
32.51625	39786
32.52438	44361
32.53250	43677
32.54062	45016
32.54875	39330
32.55687	41910
32.56500	47324
32.57312	40809
32.58123	41326
32.58937	42047
32.59748	38912
32.60562	44284
32.61373	41610
32.62185	41548
32.62998	42623
32.63810	44712
32.64622	49669
32.65435	52300
32.66247	56044
32.67060	59265
32.67872	56494
32.68683	47031
32.69497	50257
32.70308	49241
32.71122	47711
32.71933	42911
32.72745	44812
32.73558	47028
32.74370	43604
32.75183	40488
32.75995	39020
32.76807	42842
32.77620	39464
32.78432	42693
32.79243	41295
32.80057	40127
32.80868	39168
32.81682	41266
32.82493	40289
32.83305	41468
32.84118	38947
32.84930	38988
32.85743	37932
32.86555	39660
32.87367	41840
32.88180	40733
32.88992	43254
32.89805	44711
32.90617	43162
32.91428	42998
32.92242	43630
32.93053	40994
32.93865	42189
32.94678	39216
32.95490	44545
32.96303	45090
32.97115	43032
32.97927	45585
32.98740	51439
32.99552	54688
33.00365	58546
33.01177	58130
33.01988	57419
33.02802	48959
33.03613	51662
33.04425	49928
33.05238	45095
33.06050	46315
33.06863	49130
33.07675	52830
33.08487	51212
33.09300	55516
33.10112	60303
33.10925	59991
33.11737	63613
33.12548	61250
33.13362	61985
33.14173	59896
33.14987	54530
33.15798	50971
33.16610	47333
33.17423	44507
33.18235	44357
33.19047	45372
33.19860	43354
33.20672	43999
33.21485	41459
33.22297	46144
33.23108	42337
33.23922	40565
33.24733	42790
33.25547	40507
33.26358	38417
33.27170	41573
33.27983	39117
33.28795	45427
33.29607	38400
33.30420	39185
33.31232	41697
33.32045	37190
33.32857	38162
33.33668	46901
33.34482	46175
33.35293	45333
33.36107	45311
33.36918	44532
33.37730	45384
33.38543	42529
33.39355	43260
33.40168	42418
33.40980	41578
33.41792	39304
33.42605	39275
33.43417	39967
33.44228	39207
33.45042	38306
33.45853	38865
33.46667	37622
33.47478	40239
33.48290	38551
33.49103	42087
33.49915	37140
33.50728	38297
33.51540	40622
33.52352	40296
33.53165	40486
33.53977	46184
33.54790	46143
33.55602	49400
33.56413	45407
33.57227	47293
33.58038	44378
33.58850	41437
33.59663	38901
33.60475	43058
33.61288	40475
33.62100	37914
33.62912	41775
33.63725	41524
33.64537	42279
33.65350	42932
33.66162	45836
33.66973	43535
33.67787	45907
33.68598	45566
33.69410	43056
33.70223	42616
33.71035	42449
33.71848	40625
33.72660	35359
33.73472	39186
33.74285	40179
33.75097	41383
33.75910	44562
33.76722	39933
33.77533	40646
33.78347	40476
33.79158	36307
33.79972	40526
33.80783	37884
33.81595	40120
33.82408	39078
33.83220	40503
33.84032	43448
33.84845	42624
33.85657	43523
33.86470	42564
33.87282	41670
33.88093	42574
33.88907	41830
33.89718	44075
33.90532	43947
33.91343	40910
33.92155	40739
33.92968	47077
33.93780	42564
33.94593	37201
33.95405	41169
33.96217	38742
33.97030	43795
33.97842	41310
33.98653	41458
33.99467	37792
34.00278	37425
34.01092	40788
34.01903	42280
34.02715	40518
34.03528	38244
34.04340	38474
34.05153	38476
34.05965	40059
34.06777	39085
34.07590	38366
34.08402	39454
34.09213	42332
34.10027	38174
34.10838	45434
34.11652	40323
34.12463	40161
34.13275	43207
34.14088	42950
34.14900	41211
34.15713	42246
34.16525	42717
34.17337	39561
34.18150	42717
34.18962	38418
34.19775	43894
34.20587	42220
34.21398	41608
34.22212	43078
34.23023	41592
34.23835	42285
34.24648	39656
34.25460	39571
34.26273	38939
34.27085	42782
34.27897	39957
34.28710	41700
34.29522	41707
34.30335	38929
34.31147	43663
34.31958	42750
34.32772	44098
34.33583	43809
34.34397	43221
34.35208	47825
34.36020	43182
34.36833	44404
34.37645	41437
34.38457	42532
34.39270	42066
34.40082	42802
34.40895	42202
34.41707	40659
34.42518	44110
34.43332	40640
34.44143	41337
34.44957	43558
34.45768	41870
34.46580	41571
34.47393	39324
34.48205	42824
34.49017	39085
34.49830	45683
34.50642	47285
34.51455	54972
34.52267	60727
34.53078	66947
34.53892	69774
34.54703	70962
34.55517	76481
34.56328	79101
34.57140	72624
34.57953	67687
34.58765	66255
34.59578	68785
34.60390	64044
34.61202	61195
34.62015	58626
34.62827	63647
34.63638	56594
34.64452	54387
34.65263	54995
34.66077	54259
34.66888	51732
34.67700	52953
34.68513	47735
34.69325	52348
34.70138	48866
34.70950	46678
34.71762	50611
34.72575	49692
34.73387	48448
34.74198	47166
34.75012	46725
34.75823	46778
34.76637	47688
34.77448	44880
34.78260	45585
34.79073	46928
34.79885	48551
34.80698	46407
34.81510	48434
34.82322	50014
34.83135	46097
34.83947	44928
34.84760	44013
34.85572	46860
34.86383	47157
34.87197	49202
34.88008	45343
34.88820	48135
34.89633	49134
34.90445	43320
34.91258	48321
34.92070	49967
34.92882	51222
34.93695	51804
34.94507	50480
34.95320	47748
34.96132	54118
34.96943	49296
34.97757	52936
34.98568	50602
34.99382	52933
35.00193	51416
35.01005	51170
35.01818	43739
35.02630	46599
35.03442	48369
35.04255	44632
35.05067	47555
35.05880	46076
35.06692	47007
35.07503	44006
35.08317	45865
35.09128	43726
35.09942	43586
35.10753	48088
35.11565	47894
35.12378	46156
35.13190	42095
35.14002	46118
35.14815	48267
35.15627	49112
35.16440	45242
35.17252	49161
35.18063	46210
35.18877	43039
35.19688	42787
35.20502	44579
35.21313	40845
35.22125	41819
35.22938	40561
35.23750	43785
35.24563	42340
35.25375	41158
35.26187	45546
35.27000	46382
35.27812	44584
35.28623	44349
35.29437	46118
35.30248	43644
35.31062	43459
35.31873	45683
35.32685	43690
35.33498	45453
35.34310	42422
35.35123	43549
35.35935	45538
35.36747	44072
35.37560	45413
35.38372	43791
35.39185	43505
35.39997	44802
35.40808	47031
35.41622	46660
35.42433	46971
35.43245	47906
35.44058	52747
35.44870	53098
35.45683	50701
35.46495	48250
35.47307	47642
35.48120	45445
35.48932	51155
35.49745	45959
35.50557	50650
35.51368	47603
35.52182	43470
35.52993	44803
35.53805	45668
35.54618	44114
35.55430	46929
35.56243	42182
35.57055	44185
35.57867	44424
35.58680	43518
35.59492	44467
35.60305	45828
35.61117	46644
35.61928	45103
35.62742	47557
35.63553	45365
35.64367	44567
35.65178	43498
35.65990	44165
35.66803	42666
35.67615	51157
35.68427	45821
35.69240	45406
35.70052	46960
35.70865	46859
35.71677	46853
35.72488	51199
35.73302	50062
35.74113	49322
35.74927	47221
35.75738	45790
35.76550	56854
35.77363	49927
35.78175	46004
35.78987	49584
35.79800	48966
35.80612	44284
35.81425	43988
35.82237	45089
35.83048	42903
35.83862	45187
35.84673	44111
35.85487	45010
35.86298	45357
35.87110	43880
35.87923	42681
35.88735	46126
35.89548	46309
35.90360	41105
35.91172	42221
35.91985	43889
35.92797	40478
35.93608	47100
35.94422	45368
35.95233	44472
35.96047	44633
35.96858	43101
35.97670	45184
35.98483	44323
35.99295	42885
36.00108	49115
36.00920	48520
36.01732	51488
36.02545	50487
36.03357	48100
36.04170	47017
36.04982	51141
36.05793	46041
36.06607	48307
36.07418	49747
36.08230	47898
36.09043	48028
36.09855	45719
36.10668	52988
36.11480	46368
36.12292	47419
36.13105	49862
36.13917	48891
36.14730	47758
36.15542	47331
36.16353	49484
36.17167	49490
36.17978	48962
36.18792	45353
36.19603	46534
36.20415	45844
36.21228	45823
36.22040	43632
36.22852	48543
36.23665	46209
36.24477	46279
36.25290	43613
36.26102	50065
36.26913	45933
36.27727	50100
36.28538	54375
36.29352	55386
36.30163	60852
36.30975	61710
36.31788	60064
36.32600	59665
36.33412	57715
36.34225	55576
36.35037	50625
36.35850	48198
36.36662	53297
36.37473	49363
36.38287	50709
36.39098	48633
36.39912	49751
36.40723	49710
36.41535	47977
36.42348	49333
36.43160	51709
36.43973	47938
36.44785	50778
36.45597	46196
36.46410	46175
36.47222	44550
36.48033	44699
36.48847	48657
36.49658	53644
36.50472	46824
36.51283	44392
36.52095	47787
36.52908	50931
36.53720	47295
36.54533	45686
36.55345	51261
36.56157	51968
36.56970	51690
36.57782	48379
36.58593	47995
36.59407	52221
36.60218	50387
36.61032	50387
36.61843	50440
36.62655	49262
36.63468	52436
36.64280	48549
36.65093	51689
36.65905	49652
36.66717	52977
36.67530	50656
36.68342	50440
36.69155	53538
36.69967	50226
36.70778	48548
36.71592	53618
36.72403	50631
36.73215	48428
36.74028	51001
36.74840	53059
36.75653	51863
36.76465	48663
36.77277	49253
36.78090	51340
36.78902	52024
36.79715	51212
36.80527	48621
36.81338	48799
36.82152	46984
36.82963	49866
36.83777	52850
36.84588	47716
36.85400	44880
36.86213	47761
36.87025	49980
36.87837	50002
36.88650	52866
36.89462	49452
36.90275	51933
36.91087	51455
36.91898	48724
36.92712	50301
36.93523	51101
36.94337	55662
36.95148	59309
36.95960	61885
36.96773	60787
36.97585	61676
36.98397	64203
36.99210	60911
37.00022	58903
37.00835	55232
37.01647	56337
37.02458	54866
37.03272	51109
37.04083	55753
37.04897	50444
37.05708	51974
37.06520	51381
37.07333	51999
37.08145	51664
37.08958	57257
37.09770	50159
37.10582	53816
37.11395	52780
37.12207	53377
37.13018	48867
37.13832	50544
37.14643	53640
37.15457	53298
37.16268	49499
37.17080	52465
37.17893	53369
37.18705	48876
37.19518	50879
37.20330	54081
37.21142	47890
37.21955	58658
37.22767	53276
37.23580	53273
37.24392	48933
37.25203	53977
37.26017	51373
37.26828	50777
37.27640	53051
37.28453	49793
37.29265	48263
37.30078	53493
37.30890	54464
37.31702	57470
37.32515	64598
37.33327	73822
37.34140	71890
37.34952	78859
37.35763	75859
37.36577	76808
37.37388	75292
37.38200	70096
37.39013	71641
37.39825	69574
37.40638	66784
37.41450	63966
37.42262	65227
37.43075	66289
37.43887	67459
37.44700	64058
37.45512	61709
37.46323	63617
37.47137	59072
37.47948	60253
37.48762	61023
