Z:\data\JTB-E02\BACandBLUE\JTB-E18-001-16.D Fri Mar 15 14:58:01 2019
Start of data points
2.09522	55427
2.10335	52066
2.11147	56150
2.11958	57971
2.12772	55397
2.13583	54517
2.14397	56257
2.15208	56145
2.16020	54570
2.16833	54148
2.17645	51580
2.18458	48141
2.19270	47963
2.20082	43284
2.20895	46007
2.21707	46690
2.22520	48377
2.23332	47438
2.24143	42622
2.24957	41610
2.25768	45725
2.26580	62439
2.27393	679893
2.28205	2627638
2.29018	1885724
2.29830	767343
2.30642	565047
2.31455	461803
2.32267	410097
2.33080	360163
2.33892	327128
2.34703	300892
2.35517	276880
2.36328	247575
2.37140	247299
2.37953	237749
2.38765	217887
2.39578	203208
2.40390	190418
2.41202	192982
2.42015	185630
2.42827	188273
2.43640	181652
2.44452	174949
2.45263	180315
2.46077	173623
2.46888	163312
2.47702	154146
2.48513	149224
2.49325	171108
2.50138	181824
2.50950	155592
2.51762	156073
2.52575	152749
2.53387	141322
2.54200	142091
2.55012	155251
2.55823	376767
2.56637	794409
2.57448	540889
2.58262	313156
2.59073	257830
2.59885	234912
2.60698	221761
2.61510	221698
2.62322	217144
2.63135	195741
2.63947	190299
2.64760	175635
2.65572	168227
2.66383	166043
2.67197	166710
2.68008	163594
2.68822	158715
2.69633	152892
2.70445	152766
2.71258	149846
2.72070	144198
2.72883	153621
2.73695	144126
2.74507	137638
2.75320	137504
2.76132	140369
2.76943	136547
2.77757	134987
2.78568	138280
2.79382	149594
2.80193	141825
2.81005	140270
2.81818	135745
2.82630	137477
2.83443	140368
2.84255	134614
2.85067	130713
2.85880	129317
2.86692	129145
2.87505	127470
2.88317	123316
2.89128	120795
2.89942	126614
2.90753	117973
2.91565	114872
2.92378	118928
2.93190	117249
2.94003	117769
2.94815	111989
2.95627	111918
2.96440	110114
2.97252	114658
2.98065	108608
2.98877	114716
2.99688	114500
3.00502	118135
3.01313	112875
3.02125	115548
3.02938	110216
3.03750	106497
3.04563	107651
3.05375	106088
3.06187	104562
3.07000	111116
3.07812	105605
3.08625	112219
3.09437	182000
3.10248	820258
3.11062	3085449
3.11873	4506436
3.12687	3226446
3.13498	2078237
3.14310	1612638
3.15123	1338051
3.15935	1095896
3.16747	928880
3.17560	797081
3.18372	703040
3.19185	612771
3.19997	554049
3.20808	511445
3.21622	472074
3.22433	444316
3.23247	393863
3.24058	361791
3.24870	331347
3.25683	313375
3.26495	298887
3.27308	274016
3.28120	275807
3.28932	324355
3.29745	715794
3.30557	1939733
3.31368	3573599
3.32182	4081836
3.32993	3274159
3.33807	2305734
3.34618	1727913
3.35430	1417455
3.36243	1185176
3.37055	1047874
3.37868	939360
3.38680	863729
3.39492	800013
3.40305	741187
3.41117	684816
3.41928	661295
3.42742	622739
3.43553	598959
3.44367	566805
3.45178	550109
3.45990	511902
3.46803	505422
3.47615	529355
3.48428	510967
3.49240	477416
3.50052	435096
3.50865	435545
3.51677	400750
3.52490	380991
3.53302	368597
3.54113	360330
3.54927	349427
3.55738	331572
3.56550	308186
3.57363	319370
3.58175	308554
3.58988	306278
3.59800	278934
3.60612	282858
3.61425	276698
3.62237	271102
3.63050	275845
3.63862	264526
3.64673	262958
3.65487	254577
3.66298	242098
3.67110	247813
3.67923	260504
3.68735	266128
3.69548	266248
3.70360	242318
3.71172	237303
3.71985	226101
3.72797	222359
3.73610	220884
3.74422	205903
3.75233	211863
3.76047	212064
3.76858	204372
3.77672	215837
3.78483	208186
3.79295	223699
3.80108	329667
3.80920	939045
3.81732	2402649
3.82545	3315638
3.83357	2714593
3.84170	1767906
3.84982	1311482
3.85793	1068767
3.86607	917991
3.87418	806669
3.88232	704408
3.89043	630734
3.89855	586756
3.90668	548212
3.91480	515650
3.92293	484645
3.93105	459884
3.93917	431295
3.94730	418034
3.95542	429716
3.96353	479792
3.97167	516941
3.97978	499821
3.98792	439059
3.99603	411507
4.00415	568980
4.01228	981722
4.02040	1399564
4.02853	1331244
4.03665	937904
4.04477	636454
4.05290	483067
4.06102	414163
4.06915	377183
4.07727	359517
4.08538	334522
4.09352	308001
4.10163	292289
4.10975	277683
4.11788	267815
4.12600	265760
4.13413	260784
4.14225	280519
4.15037	320133
4.15850	344342
4.16662	332489
4.17475	316683
4.18287	318027
4.19098	302594
4.19912	265498
4.20723	243143
4.21535	230241
4.22348	244649
4.23160	266346
4.23973	278455
4.24785	267617
4.25597	236612
4.26410	228413
4.27222	221561
4.28035	210386
4.28847	202134
4.29658	203932
4.30472	198715
4.31283	188519
4.32097	179477
4.32908	188690
4.33720	192695
4.34533	186503
4.35345	184520
4.36157	176094
4.36970	179724
4.37782	180090
4.38595	179005
4.39407	174880
4.40218	175127
4.41032	171959
4.41843	170384
4.42657	179335
4.43468	174383
4.44280	167899
4.45093	162657
4.45905	158141
4.46717	163871
4.47530	158656
4.48342	155127
4.49155	149428
4.49967	154482
4.50778	158292
4.51592	156240
4.52403	156838
4.53217	154211
4.54028	148770
4.54840	149350
4.55653	152079
4.56465	155801
4.57278	147408
4.58090	145464
4.58902	146823
4.59715	144503
4.60527	143765
4.61338	144913
4.62152	149294
4.62963	147733
4.63777	135261
4.64588	136688
4.65400	141089
4.66213	141128
4.67025	132395
4.67838	144673
4.68650	142085
4.69462	140901
4.70275	132766
4.71087	141587
4.71900	138336
4.72712	138832
4.73523	137555
4.74337	132209
4.75148	125850
4.75960	132949
4.76773	123286
4.77585	130457
4.78398	126837
4.79210	128638
4.80022	134234
4.80835	137221
4.81647	136731
4.82460	145229
4.83272	163355
4.84083	208255
4.84897	240399
4.85708	242407
4.86520	203211
4.87333	172174
4.88145	157487
4.88958	147016
4.89770	145934
4.90582	145622
4.91395	140585
4.92207	137975
4.93020	131765
4.93832	173283
4.94643	313669
4.95457	700899
4.96268	1361767
4.97082	1944147
4.97893	2125108
4.98705	1861799
4.99518	1430681
5.00330	1057375
5.01142	842055
5.01955	703122
5.02767	627038
5.03580	568501
5.04392	517766
5.05203	488682
5.06017	463999
5.06828	412546
5.07642	405402
5.08453	383193
5.09265	356478
5.10078	343797
5.10890	330822
5.11703	309875
5.12515	292582
5.13327	281318
5.14140	274183
5.14952	276513
5.15763	274251
5.16577	263915
5.17388	257101
5.18202	246680
5.19013	245584
5.19825	233177
5.20638	233358
5.21450	234474
5.22263	224771
5.23075	224213
5.23887	235317
5.24700	236401
5.25512	230461
5.26323	220558
5.27137	214175
5.27948	200370
5.28762	191736
5.29573	185500
5.30385	181575
5.31198	182642
5.32010	179671
5.32823	189181
5.33635	201008
5.34447	217258
5.35260	222599
5.36072	208815
5.36885	195770
5.37697	181376
5.38508	169428
5.39322	169762
5.40133	178232
5.40945	176017
5.41758	172618
5.42570	169969
5.43383	164194
5.44195	163546
5.45007	171245
5.45820	178526
5.46632	173987
5.47445	164245
5.48257	163836
5.49068	153747
5.49882	147581
5.50693	147006
5.51505	151356
5.52318	166282
5.53130	162514
5.53943	156042
5.54755	153863
5.55567	150049
5.56380	145355
5.57192	148462
5.58005	167366
5.58817	185582
5.59628	201219
5.60442	218968
5.61253	193615
5.62067	179203
5.62878	164321
5.63690	165786
5.64503	159905
5.65315	158125
5.66127	148582
5.66940	157642
5.67752	153615
5.68565	187165
5.69377	230347
5.70188	255711
5.71002	254726
5.71813	216922
5.72627	190760
5.73438	167197
5.74250	156889
5.75063	145372
5.75875	146642
5.76688	141407
5.77500	134666
5.78312	130679
5.79125	129107
5.79937	134980
5.80748	128708
5.81562	129640
5.82373	118779
5.83187	122357
5.83998	123245
5.84810	126597
5.85623	124457
5.86435	125125
5.87248	116640
5.88060	119864
5.88872	114334
5.89685	120189
5.90497	130669
5.91308	157637
5.92122	205576
5.92933	245046
5.93747	233641
5.94558	189100
5.95370	143547
5.96183	130473
5.96995	116482
5.97808	122532
5.98620	122896
5.99432	138064
6.00245	147090
6.01057	147403
6.01870	154330
6.02682	141295
6.03493	138781
6.04307	121782
6.05118	109700
6.05930	99962
6.06743	94314
6.07555	97536
6.08368	98026
6.09180	90932
6.09992	92771
6.10805	96113
6.11617	89822
6.12430	93354
6.13242	98425
6.14053	91224
6.14867	102872
6.15678	104846
6.16492	107743
6.17303	115384
6.18115	104580
6.18928	110543
6.19740	110989
6.20552	111589
6.21365	113470
6.22177	115203
6.22990	118956
6.23802	121423
6.24613	136876
6.25427	147905
6.26238	174446
6.27052	195281
6.27863	190285
6.28675	173877
6.29488	150397
6.30300	142272
6.31112	143280
6.31925	138554
6.32737	146058
6.33550	141806
6.34362	141399
6.35173	153612
6.35987	150913
6.36798	152455
6.37612	157824
6.38423	156263
6.39235	149055
6.40048	159873
6.40860	154874
6.41673	156881
6.42485	157181
6.43297	162936
6.44110	163689
6.44922	158544
6.45733	170734
6.46547	167246
6.47358	168716
6.48172	172179
6.48983	167762
6.49795	168456
6.50608	180003
6.51420	170546
6.52233	175145
6.53045	180763
6.53857	184347
6.54670	185343
6.55482	188510
6.56295	183577
6.57107	195274
6.57918	211898
6.58732	219923
6.59543	215957
6.60355	222192
6.61168	205839
6.61980	206212
6.62793	202174
6.63605	215933
6.64417	347787
6.65230	1110251
6.66042	4225852
6.66855	1.051957E+07
6.67667	1.705937E+07
6.68478	1.93055E+07
6.69292	1.611283E+07
6.70103	1.087334E+07
6.70915	6748019
6.71728	4622588
6.72540	3587564
6.73353	2921971
6.74165	2451006
6.74977	2141300
6.75790	1834314
6.76602	1648998
6.77415	1496053
6.78227	1350190
6.79038	1247626
6.79852	1160102
6.80663	1078250
6.81477	980863
6.82288	939440
6.83100	901671
6.83913	830168
6.84725	808353
6.85537	764351
6.86350	731178
6.87162	709186
6.87975	665843
6.88787	648237
6.89598	606433
6.90412	615782
6.91223	539521
6.92037	504172
6.92848	490069
6.93660	470924
6.94473	464533
6.95285	441978
6.96097	418453
6.96910	423674
6.97722	435086
6.98535	438419
6.99347	420698
7.00158	390408
7.00972	357581
7.01783	321725
7.02597	313615
7.03408	297561
7.04220	285009
7.05033	267310
7.05845	258155
7.06658	246259
7.07470	220591
7.08282	222892
7.09095	206433
7.09907	182424
7.10718	156032
7.11532	141117
7.12343	119831
7.13157	118124
7.13968	142520
7.14780	207306
7.15593	279900
7.16405	332543
7.17218	326554
7.18030	322619
7.18842	321820
7.19655	303566
7.20467	312124
7.21280	308894
7.22092	298717
7.22903	291236
7.23717	288118
7.24528	285174
7.25340	287918
7.26153	351088
7.26965	522667
7.27778	866036
7.28590	1239031
7.29402	1428534
7.30215	1228092
7.31027	882966
7.31840	576797
7.32652	435547
7.33463	351887
7.34277	314878
7.35088	311808
7.35900	309307
7.36713	294291
7.37525	273203
7.38338	250180
7.39150	227311
7.39962	216495
7.40775	210429
7.41587	201838
7.42400	199493
7.43212	194542
7.44023	190089
7.44837	193477
7.45648	193088
7.46462	187531
7.47273	179897
7.48085	185824
7.48898	181887
7.49710	178454
7.50522	174586
7.51335	171980
7.52147	173525
7.52960	161574
7.53772	161287
7.54583	159553
7.55397	166346
7.56208	164855
7.57022	155052
7.57833	145539
7.58645	150861
7.59458	143360
7.60270	147803
7.61083	145115
7.61895	140647
7.62707	142664
7.63520	147592
7.64332	137280
7.65143	141699
7.65957	139987
7.66768	140365
7.67582	134400
7.68393	138394
7.69205	133430
7.70018	136069
7.70830	140074
7.71643	127111
7.72455	133239
7.73267	127943
7.74080	126619
7.74892	128788
7.75703	126768
7.76517	120417
7.77328	125735
7.78142	122320
7.78953	120094
7.79765	117860
7.80578	117242
7.81390	121683
7.82203	122419
7.83015	118391
7.83827	118318
7.84640	119255
7.85452	116998
7.86265	118878
7.87077	120119
7.87888	122812
7.88702	122327
7.89513	116775
7.90325	115282
7.91138	110583
7.91950	108548
7.92763	132355
7.93575	170925
7.94387	238012
7.95200	300357
7.96012	330848
7.96825	297676
7.97637	241884
7.98448	179343
7.99262	139553
8.00073	124322
8.00885	113132
8.01698	115306
8.02510	106895
8.03323	105347
8.04135	102742
8.04947	105376
8.05760	101992
8.06572	102377
8.07385	102445
8.08197	93385
8.09008	94091
8.09822	92720
8.10633	93991
8.11447	90285
8.12258	90299
8.13070	94245
8.13883	88342
8.14695	89913
8.15507	93361
8.16320	92429
8.17132	87554
8.17945	83988
8.18757	81745
8.19568	83208
8.20382	86980
8.21193	87480
8.22007	91337
8.22818	83871
8.23630	87620
8.24443	82587
8.25255	82799
8.26068	82981
8.26880	88147
8.27692	81091
8.28505	81441
8.29317	91345
8.30128	90346
8.30942	88669
8.31753	88490
8.32567	84063
8.33378	90935
8.34190	79198
8.35003	78260
8.35815	76971
8.36628	83765
8.37440	84566
8.38252	77271
8.39065	79984
8.39877	71700
8.40690	64136
8.41502	59861
8.42313	54982
8.43127	59557
8.43938	65571
8.44750	71620
8.45563	77246
8.46375	75399
8.47188	71120
8.48000	61517
8.48812	59163
8.49625	53488
8.50437	52928
8.51250	53353
8.52062	53130
8.52873	50881
8.53687	55194
8.54498	52840
8.55310	62330
8.56123	81435
8.56935	119266
8.57748	187227
8.58560	256691
8.59372	277740
8.60185	242573
8.60997	198923
8.61810	147867
8.62622	112608
8.63433	88762
8.64247	74166
8.65058	69390
8.65872	69527
8.66683	67498
8.67495	65716
8.68308	64771
8.69120	62303
8.69932	59163
8.70745	62922
8.71557	59706
8.72370	54826
8.73182	62192
8.73993	65700
8.74807	72512
8.75618	116279
8.76432	229784
8.77243	419572
8.78055	689067
8.78868	875599
8.79680	878146
8.80492	745957
8.81305	533969
8.82117	370643
8.82930	266386
8.83742	210968
8.84553	174603
8.85367	158557
8.86178	150527
8.86992	158329
8.87803	163132
8.88615	170089
8.89428	162369
8.90240	161573
8.91053	146468
8.91865	142194
8.92677	134651
8.93490	126113
8.94302	124782
8.95113	125544
8.95927	121768
8.96738	115320
8.97552	111878
8.98363	120487
8.99175	120590
8.99988	111713
9.00800	110125
9.01613	105531
9.02425	100026
9.03237	99076
9.04050	100856
9.04862	98462
9.05673	101005
9.06487	93599
9.07298	97202
9.08112	86869
9.08923	91818
9.09735	88955
9.10548	89781
9.11360	89717
9.12173	85927
9.12985	83333
9.13797	87854
9.14610	92157
9.15422	86042
9.16235	84496
9.17047	82056
9.17858	78359
9.18672	85544
9.19483	77452
9.20295	86201
9.21108	75975
9.21920	79327
9.22733	78308
9.23545	86395
9.24357	84099
9.25170	88741
9.25982	91788
9.26795	82040
9.27607	77322
9.28418	74301
9.29232	67965
9.30043	72653
9.30857	70718
9.31668	65877
9.32480	69245
9.33293	61674
9.34105	69539
9.34917	64728
9.35730	65257
9.36542	68523
9.37355	66360
9.38167	64852
9.38978	71970
9.39792	61724
9.40603	64226
9.41417	61931
9.42228	62559
9.43040	58657
9.43853	60106
9.44665	64085
9.45478	62736
9.46290	61059
9.47102	62560
9.47915	60696
9.48727	68719
9.49538	75595
9.50352	101349
9.51163	133900
9.51977	161403
9.52788	168785
9.53600	159705
9.54413	129148
9.55225	115300
9.56038	92498
9.56850	93836
9.57662	98748
9.58475	99610
9.59287	100411
9.60098	88215
9.60912	75568
9.61723	66068
9.62537	63159
9.63348	59964
9.64160	65759
9.64973	71623
9.65785	76216
9.66598	86282
9.67410	82496
9.68222	73278
9.69035	63311
9.69847	55387
9.70660	51818
9.71472	47118
9.72283	48352
9.73097	47361
9.73908	48139
9.74720	47848
9.75533	50508
9.76345	50990
9.77158	48564
9.77970	49821
9.78782	51759
9.79595	51617
9.80407	47871
9.81220	47780
9.82032	45677
9.82843	45725
9.83657	45267
9.84468	41451
9.85280	42810
9.86093	47382
9.86905	43836
9.87718	45523
9.88530	50077
9.89342	50359
9.90155	54060
9.90967	53372
9.91780	55906
9.92592	56909
9.93403	61074
9.94217	58297
9.95028	52191
9.95842	52127
9.96653	51510
9.97465	50201
9.98278	53254
9.99090	52868
9.99902	57965
10.00715	63163
10.01527	60540
10.02340	57837
10.03152	54564
10.03963	53973
10.04777	46989
10.05588	43572
10.06402	43630
10.07213	40734
10.08025	42056
10.08838	45372
10.09650	45738
10.10463	44557
10.11275	53466
10.12087	47278
10.12900	50677
10.13712	42429
10.14523	48431
10.15337	40141
10.16148	45245
10.16962	46704
10.17773	40738
10.18585	41075
10.19398	41835
10.20210	41336
10.21023	38640
10.21835	39442
10.22647	43354
10.23460	44798
10.24272	48747
10.25083	49586
10.25897	59660
10.26708	83211
10.27522	132487
10.28333	298046
10.29145	785028
10.29958	1934010
10.30770	4044901
10.31583	6960318
10.32395	1.007279E+07
10.33207	1.418796E+07
10.34020	1.975785E+07
10.34832	2.710673E+07
10.35645	3.645199E+07
10.36457	4.713012E+07
10.37268	5.634457E+07
10.38082	6.414833E+07
10.38893	7.05871E+07
10.39705	7.646762E+07
10.40518	8.04779E+07
10.41330	8.348938E+07
10.42143	7.930623E+07
10.42955	5.019047E+07
10.43767	1.24703E+07
10.44580	3597177
10.45392	2401181
10.46205	2084998
10.47017	1888561
10.47828	1728978
10.48642	1589059
10.49453	1489720
10.50267	1381463
10.51078	1289992
10.51890	1189742
10.52703	1112167
10.53515	1084507
10.54327	998543
10.55140	953545
10.55952	908982
10.56765	856821
10.57577	822238
10.58388	776658
10.59202	727832
10.60013	703799
10.60827	684738
10.61638	652098
10.62450	638583
10.63263	601538
10.64075	563941
10.64887	554527
10.65700	533943
10.66512	519572
10.67325	514726
10.68137	481808
10.68948	464457
10.69762	454416
10.70573	433899
10.71387	432894
10.72198	398390
10.73010	393071
10.73823	394893
10.74635	382479
10.75448	372663
10.76260	364814
10.77072	346674
10.77885	327951
10.78697	330665
10.79508	315428
10.80322	306901
10.81133	308690
10.81947	294017
10.82758	285048
10.83570	278147
10.84383	281623
10.85195	265553
10.86008	258904
10.86820	258032
10.87632	246080
10.88445	240810
10.89257	243196
10.90068	240533
10.90882	234135
10.91693	231198
10.92507	221550
10.93318	222409
10.94130	222025
10.94943	213141
10.95755	207641
10.96568	203421
10.97380	198980
10.98192	196745
10.99005	191626
10.99817	187371
11.00630	184949
11.01442	183453
11.02253	180535
11.03067	178835
11.03878	179752
11.04690	198380
11.05503	210369
11.06315	236556
11.07128	232467
11.07940	239017
11.08752	217763
11.09565	195016
11.10377	188170
11.11190	159760
11.12002	140469
11.12813	130749
11.13627	115050
11.14438	98398
11.15252	93748
11.16063	89632
11.16875	85952
11.17688	88113
11.18500	86042
11.19312	80788
11.20125	70078
11.20937	72170
11.21750	68178
11.22562	64370
11.23373	68432
11.24187	65563
11.24998	67478
11.25812	57626
11.26623	58911
11.27435	60550
11.28248	57643
11.29060	62661
11.29872	57571
11.30685	62699
11.31497	61020
11.32310	57095
11.33122	54877
11.33933	56218
11.34747	53725
11.35558	52684
11.36372	54009
11.37183	54226
11.37995	63791
11.38808	52000
11.39620	55613
11.40433	47770
11.41245	48651
11.42057	55969
11.42870	49191
11.43682	53085
11.44493	47752
11.45307	48268
11.46118	50010
11.46932	51278
11.47743	54026
11.48555	56706
11.49368	66411
11.50180	86494
11.50993	98083
11.51805	102854
11.52617	101315
11.53430	98840
11.54242	104293
11.55055	111800
11.55867	125172
11.56678	130977
11.57492	129028
11.58303	115302
11.59115	92184
11.59928	72251
11.60740	71710
11.61553	62164
11.62365	58515
11.63177	63723
11.63990	58187
11.64802	57048
11.65615	60552
11.66427	57267
11.67238	58520
11.68052	59689
11.68863	69637
11.69675	74424
11.70488	76773
11.71300	81757
11.72113	67876
11.72925	59584
11.73737	57392
11.74550	55002
11.75362	48997
11.76175	48857
11.76987	50898
11.77798	53714
11.78612	52263
11.79423	51187
11.80237	49507
11.81048	51739
11.81860	47499
11.82673	52702
11.83485	52432
11.84297	50166
11.85110	47335
11.85922	50160
11.86735	53149
11.87547	47340
11.88358	49308
11.89172	48835
11.89983	48888
11.90797	50096
11.91608	50384
11.92420	56470
11.93233	50195
11.94045	49700
11.94858	51293
11.95670	51838
11.96482	47934
11.97295	49667
11.98107	47991
11.98918	44765
11.99732	45764
12.00543	61579
12.01357	62767
12.02168	75860
12.02980	81025
12.03793	80458
12.04605	79959
12.05418	70196
12.06230	61378
12.07042	65121
12.07855	58583
12.08667	52934
12.09478	52659
12.10292	50662
12.11103	49655
12.11917	53871
12.12728	52839
12.13540	53471
12.14353	48039
12.15165	48106
12.15978	45348
12.16790	41442
12.17602	45363
12.18415	44058
12.19227	43309
12.20040	44138
12.20852	43759
12.21663	43766
12.22477	45494
12.23288	45010
12.24100	44200
12.24913	46906
12.25725	49692
12.26538	47851
12.27350	48695
12.28162	51922
12.28975	49382
12.29787	49552
12.30600	49620
12.31412	43974
12.32223	41546
12.33037	39888
12.33848	41891
12.34660	46301
12.35473	46536
12.36285	41078
12.37098	44779
12.37910	40659
12.38722	40912
12.39535	39501
12.40347	41074
12.41160	43934
12.41972	37876
12.42783	44206
12.43597	44393
12.44408	47017
12.45222	44526
12.46033	45413
12.46845	42282
12.47658	39638
12.48470	40779
12.49282	39738
12.50095	43763
12.50907	37668
12.51720	38876
12.52532	38352
12.53343	38345
12.54157	38631
12.54968	41900
12.55782	44504
12.56593	58007
12.57405	77986
12.58218	97439
12.59030	111990
12.59843	107691
12.60655	94931
12.61467	79871
12.62280	60299
12.63092	56139
12.63903	47441
12.64717	49193
12.65528	49446
12.66342	44289
12.67153	40660
12.67965	40537
12.68778	41126
12.69590	43652
12.70403	39904
12.71215	42196
12.72027	44780
12.72840	48825
12.73652	45464
12.74463	50887
12.75277	47483
12.76088	46268
12.76902	43034
12.77713	42196
12.78525	41389
12.79338	41682
12.80150	42036
12.80963	35665
12.81775	36409
12.82587	34917
12.83400	40648
12.84212	34650
12.85025	38433
12.85837	34182
12.86648	33960
12.87462	39587
12.88273	36842
12.89085	42669
12.89898	37352
12.90710	38020
12.91523	41176
12.92335	44533
12.93147	36899
12.93960	37744
12.94772	34731
12.95585	35178
12.96397	38427
12.97208	37834
12.98022	38114
12.98833	39127
12.99647	42765
13.00458	46996
13.01270	42214
13.02083	39132
13.02895	39362
13.03707	38413
13.04520	35587
13.05332	40137
13.06145	35947
13.06957	39638
13.07768	36309
13.08582	41696
13.09393	37297
13.10207	42366
13.11018	43604
13.11830	45219
13.12643	41606
13.13455	39278
13.14267	37622
13.15080	33435
13.15892	30533
13.16705	36048
13.17517	37613
13.18328	43127
13.19142	46058
13.19953	42958
13.20767	46273
13.21578	45929
13.22390	44688
13.23203	45841
13.24015	41929
13.24828	41517
13.25640	41236
13.26452	35779
13.27265	36547
13.28077	39986
13.28888	36046
13.29702	37887
13.30513	37145
13.31327	37972
13.32138	37314
13.32950	35815
13.33763	34739
13.34575	33793
13.35388	33016
13.36200	34860
13.37012	36263
13.37825	35937
13.38637	31351
13.39448	33506
13.40262	34889
13.41073	38292
13.41887	36532
13.42698	35743
13.43510	37591
13.44323	37351
13.45135	32909
13.45948	33969
13.46760	31987
13.47572	32205
13.48385	31358
13.49197	33537
13.50010	31892
13.50822	31608
13.51633	30333
13.52447	32428
13.53258	32076
13.54070	35215
13.54883	35810
13.55695	34149
13.56508	36337
13.57320	38007
13.58132	38324
13.58945	33680
13.59757	32450
13.60570	32458
13.61382	36354
13.62193	33316
13.63007	36361
13.63818	34698
13.64632	34529
13.65443	35272
13.66255	34780
13.67068	31124
13.67880	31411
13.68692	27849
13.69505	33414
13.70317	34754
13.71130	34303
13.71942	30683
13.72753	36253
13.73567	40183
13.74378	46784
13.75192	86785
13.76003	178098
13.76815	373194
13.77628	712309
13.78440	1115023
13.79253	1392727
13.80065	1378691
13.80877	1120081
13.81690	837104
13.82502	514091
13.83313	336664
13.84127	247491
13.84938	200135
13.85752	167126
13.86563	159381
13.87375	147988
13.88188	131544
13.89000	122446
13.89813	120470
13.90625	115755
13.91437	103971
13.92250	101358
13.93062	103655
13.93873	101312
13.94687	103200
13.95498	118532
13.96312	159076
13.97123	258993
13.97935	433407
13.98748	657739
13.99560	826626
14.00373	927714
14.01185	776184
14.01997	565656
14.02810	432330
14.03622	307909
14.04435	240846
14.05247	196473
14.06058	159812
14.06872	151268
14.07683	144606
14.08495	136620
14.09308	132048
14.10120	124536
14.10933	122478
14.11745	119065
14.12557	107881
14.13370	104325
14.14182	112810
14.14995	109201
14.15807	96729
14.16618	99993
14.17432	103244
14.18243	108119
14.19055	104364
14.19868	121810
14.20680	144384
14.21493	181177
14.22305	220022
14.23117	244668
14.23930	248747
14.24742	233069
14.25555	227628
14.26367	217249
14.27178	187403
14.27992	163723
14.28803	140656
14.29617	124398
14.30428	115148
14.31240	108811
14.32053	102105
14.32865	100630
14.33677	100665
14.34490	89020
14.35302	88630
14.36115	90055
14.36927	90747
14.37738	85799
14.38552	81439
14.39363	70399
14.40177	64155
14.40988	58928
14.41800	59756
14.42613	58051
14.43425	57061
14.44238	53712
14.45050	53591
14.45862	51105
14.46675	45607
14.47487	53536
14.48298	48711
14.49112	49345
14.49923	50362
14.50737	45850
14.51548	45021
14.52360	54671
14.53173	49209
14.53985	53185
14.54798	49196
14.55610	48009
14.56422	47666
14.57235	43893
14.58047	43615
14.58858	41987
14.59672	43972
14.60483	47685
14.61297	46081
14.62108	42670
14.62920	39611
14.63733	39589
14.64545	41283
14.65358	39141
14.66170	38355
14.66982	43389
14.67795	39230
14.68607	40665
14.69420	40742
14.70232	38559
14.71043	40084
14.71857	40050
14.72668	45458
14.73480	40079
14.74293	38999
14.75105	38174
14.75918	39171
14.76730	40975
14.77542	45189
14.78355	43193
14.79167	43375
14.79980	43698
14.80792	39260
14.81603	43218
14.82417	46430
14.83228	42438
14.84042	50389
14.84853	50265
14.85665	50554
14.86478	50150
14.87290	49550
14.88102	51645
14.88915	50136
14.89727	48409
14.90540	48042
14.91352	43386
14.92163	46141
14.92977	41857
14.93788	40092
14.94602	42659
14.95413	42090
14.96225	40319
14.97038	39292
14.97850	36612
14.98662	39059
14.99475	37171
15.00287	36611
15.01100	39171
15.01912	40402
15.02723	36455
15.03537	35730
15.04348	35057
15.05162	34441
15.05973	38624
15.06785	39310
15.07598	37049
15.08410	37288
15.09223	37874
15.10035	35933
15.10847	33002
15.11660	39638
15.12472	38131
15.13283	33650
15.14097	32513
15.14908	36017
15.15722	33554
15.16533	37731
15.17345	34506
15.18158	35517
15.18970	36042
15.19783	38794
15.20595	36309
15.21407	35233
15.22220	33913
15.23032	32788
15.23843	35947
15.24657	35327
15.25468	34523
15.26282	32552
15.27093	36349
15.27905	35668
15.28718	35085
15.29530	32191
15.30343	32366
15.31155	29839
15.31967	30820
15.32780	31870
15.33592	35239
15.34405	35206
15.35217	32804
15.36028	33471
15.36842	32055
15.37653	35653
15.38465	37006
15.39278	30076
15.40090	31944
15.40903	35104
15.41715	35028
15.42527	35021
15.43340	33178
15.44152	33354
15.44965	30018
15.45777	30288
15.46588	27560
15.47402	30121
15.48213	30485
15.49027	38188
15.49838	58456
15.50650	105811
15.51463	240796
15.52275	536853
15.53087	1115911
15.53900	2109018
15.54712	3037837
15.55525	3428075
15.56337	3020491
15.57148	2178670
15.57962	1394207
15.58773	874726
15.59587	600959
15.60398	491859
15.61210	423527
15.62023	372605
15.62835	326714
15.63647	282513
15.64460	240819
15.65272	217314
15.66085	188612
15.66897	175535
15.67708	162426
15.68522	138358
15.69333	130303
15.70147	119487
15.70958	110809
15.71770	108252
15.72583	103094
15.73395	98918
15.74208	91425
15.75020	87906
15.75832	87064
15.76645	80835
15.77457	81782
15.78268	83739
15.79082	86840
15.79893	84975
15.80707	93023
15.81518	86115
15.82330	81235
15.83143	74528
15.83955	72301
15.84768	64540
15.85580	66393
15.86392	68876
15.87205	81362
15.88017	84501
15.88830	99364
15.89642	108085
15.90453	114014
15.91267	101309
15.92078	88631
15.92890	82152
15.93703	74256
15.94515	68283
15.95328	59590
15.96140	64711
15.96952	69169
15.97765	71819
15.98577	76617
15.99390	78972
16.00202	84233
16.01013	84502
16.01827	79508
16.02638	78360
16.03450	83006
16.04263	74518
16.05075	69079
16.05888	59493
16.06700	58432
16.07512	56418
16.08325	53101
16.09137	50886
16.09950	51629
16.10762	49826
16.11573	50977
16.12387	46075
16.13198	48518
16.14012	49007
16.14823	45512
16.15635	45238
16.16448	43186
16.17260	46958
16.18072	47000
16.18885	45434
16.19697	41797
16.20510	42404
16.21322	46819
16.22133	44318
16.22947	42990
16.23758	42652
16.24572	44247
16.25383	41936
16.26195	41632
16.27008	41833
16.27820	42401
16.28632	41256
16.29445	46501
16.30257	41440
16.31070	38146
16.31882	41560
16.32693	38397
16.33507	39516
16.34318	41205
16.35132	44358
16.35943	53115
16.36755	66450
16.37568	78600
16.38380	96769
16.39193	98949
16.40005	100584
16.40817	90520
16.41630	73724
16.42442	61398
16.43253	54864
16.44067	48813
16.44878	50420
16.45692	47224
16.46503	44129
16.47315	40719
16.48128	43387
16.48940	42726
16.49753	45994
16.50565	43283
16.51377	45316
16.52190	46780
16.53002	47079
16.53815	45744
16.54627	42458
16.55438	44025
16.56252	38257
16.57063	45914
16.57875	43973
16.58688	41673
16.59500	48161
16.60313	50832
16.61125	54855
16.61937	60748
16.62750	60140
16.63562	63261
16.64375	58362
16.65187	51724
16.65998	50870
16.66812	41230
16.67623	44928
16.68435	44865
16.69248	42441
16.70060	41866
16.70873	36713
16.71685	37708
16.72497	38154
16.73310	37802
16.74122	46861
16.74935	39168
16.75747	41194
16.76558	33217
16.77372	40747
16.78183	38306
16.78997	36421
16.79808	36619
16.80620	35963
16.81433	33738
16.82245	35978
16.83057	34749
16.83870	32636
16.84682	33257
16.85495	40278
16.86307	32584
16.87118	33815
16.87932	35822
16.88743	35561
16.89557	31423
16.90368	36254
16.91180	37997
16.91993	40927
16.92805	31256
16.93618	35672
16.94430	34888
16.95242	35060
16.96055	35771
16.96867	34527
16.97678	29452
16.98492	35321
16.99303	34419
17.00117	34953
17.00928	37297
17.01740	34243
17.02553	30097
17.03365	31350
17.04178	32034
17.04990	31941
17.05802	31285
17.06615	35563
17.07427	34813
17.08238	33529
17.09052	36230
17.09863	35397
17.10677	37652
17.11488	31798
17.12300	36299
17.13113	32377
17.13925	33430
17.14738	35554
17.15550	32874
17.16362	32266
17.17175	32057
17.17987	30858
17.18800	33126
17.19612	33006
17.20423	38038
17.21237	32164
17.22048	33833
17.22860	31895
17.23673	31979
17.24485	36331
17.25298	34592
17.26110	35871
17.26922	35315
17.27735	39369
17.28547	33662
17.29360	33337
17.30172	33188
17.30983	35217
17.31797	35071
17.32608	35791
17.33422	37862
17.34233	39031
17.35045	37251
17.35858	36357
17.36670	34137
17.37482	35415
17.38295	38767
17.39107	39935
17.39920	36091
17.40732	37933
17.41543	36974
17.42357	37678
17.43168	39121
17.43982	38293
17.44793	36947
17.45605	36443
17.46418	35834
17.47230	41858
17.48042	34369
17.48855	34479
17.49667	32689
17.50480	36172
17.51292	31707
17.52103	31193
17.52917	35531
17.53728	35048
17.54542	33841
17.55353	34365
17.56165	39002
17.56978	35029
17.57790	35517
17.58603	37130
17.59415	36132
17.60227	34765
17.61040	32110
17.61852	32572
17.62663	35530
17.63477	40432
17.64288	56265
17.65102	75638
17.65913	99011
17.66725	141036
17.67538	168561
17.68350	167742
17.69163	161028
17.69975	133404
17.70787	104552
17.71600	85219
17.72412	70383
17.73223	63637
17.74037	61335
17.74848	62923
17.75662	50785
17.76473	48913
17.77285	48152
17.78098	52525
17.78910	48485
17.79723	44189
17.80535	48746
17.81347	46873
17.82160	47063
17.82972	42409
17.83785	45848
17.84597	43667
17.85408	47819
17.86222	45211
17.87033	40644
17.87845	42608
17.88658	40970
17.89470	40637
17.90283	39919
17.91095	39262
17.91907	40943
17.92720	37060
17.93532	38808
17.94345	36940
17.95157	35014
17.95968	38272
17.96782	34496
17.97593	33845
17.98407	33109
17.99218	34990
18.00030	36485
18.00843	36710
18.01655	35483
18.02467	38184
18.03280	38992
18.04092	37914
18.04905	36809
18.05717	38755
18.06528	38380
18.07342	34472
18.08153	40506
18.08967	39098
18.09778	38096
18.10590	44686
18.11403	43176
18.12215	46817
18.13027	48844
18.13840	42607
18.14652	43139
18.15465	41747
18.16277	43389
18.17088	44643
18.17902	48194
18.18713	51299
18.19527	45495
18.20338	49115
18.21150	46856
18.21963	41160
18.22775	41983
18.23588	42917
18.24400	39643
18.25212	41871
18.26025	40984
18.26837	38812
18.27648	38710
18.28462	38998
18.29273	42902
18.30087	38791
18.30898	37377
18.31710	35062
18.32523	37491
18.33335	35791
18.34148	35124
18.34960	35086
18.35772	37089
18.36585	39686
18.37397	36012
18.38210	36234
18.39022	32775
18.39833	30541
18.40647	31500
18.41458	34570
18.42270	33796
18.43083	33127
18.43895	37405
18.44708	31846
18.45520	33883
18.46332	34519
18.47145	34186
18.47957	33165
18.48770	33671
18.49582	31750
18.50393	34617
18.51207	37621
18.52018	31747
18.52830	34704
18.53643	34438
18.54455	29619
18.55268	33077
18.56080	34931
18.56892	32116
18.57705	34279
18.58517	36837
18.59330	35622
18.60142	39247
18.60953	48547
18.61767	43196
18.62578	44159
18.63392	41063
18.64203	40708
18.65015	40139
18.65828	38910
18.66640	39174
18.67452	37731
18.68265	35363
18.69077	33545
18.69890	34982
18.70702	34702
18.71513	30876
18.72327	34625
18.73138	31178
18.73952	35585
18.74763	33493
18.75575	30795
18.76388	32503
18.77200	29732
18.78012	30101
18.78825	30437
18.79637	31812
18.80450	33421
18.81262	32222
18.82073	30389
18.82887	25703
18.83698	34714
18.84512	32169
18.85323	30979
18.86135	30587
18.86948	36040
18.87760	33249
18.88573	28956
18.89385	32798
18.90197	32393
18.91010	31919
18.91822	36180
18.92633	37501
18.93447	41004
18.94258	52172
18.95072	66817
18.95883	79420
18.96695	86682
18.97508	93751
18.98320	91618
18.99133	80616
18.99945	74558
19.00757	64702
19.01570	51457
19.02382	44160
19.03195	43018
19.04007	40508
19.04818	42194
19.05632	37027
19.06443	42604
19.07255	40762
19.08068	38648
19.08880	44087
19.09693	51143
19.10505	59634
19.11317	67419
19.12130	70173
19.12942	67705
19.13755	62467
19.14567	60143
19.15378	59763
19.16192	56912
19.17003	63551
19.17817	63507
19.18628	59742
19.19440	59089
19.20253	57467
19.21065	52460
19.21877	52241
19.22690	47380
19.23502	46742
19.24315	43920
19.25127	43424
19.25938	46094
19.26752	44325
19.27563	51076
19.28377	53853
19.29188	58866
19.30000	54985
19.30813	54048
19.31625	54424
19.32437	52011
19.33250	55412
19.34062	55386
19.34875	53201
19.35687	48258
19.36498	49892
19.37312	49462
19.38123	40738
19.38937	39052
19.39748	42799
19.40560	41691
19.41373	41454
19.42185	46609
19.42998	36610
19.43810	37087
19.44622	35927
19.45435	37928
19.46247	36642
19.47058	40580
19.47872	37922
19.48683	39935
19.49497	43148
19.50308	54498
19.51120	67207
19.51933	91943
19.52745	104594
19.53558	112639
19.54370	110958
19.55182	88179
19.55995	75025
19.56807	58865
19.57618	49291
19.58432	40632
19.59243	42301
19.60057	36800
19.60868	36456
19.61680	40022
19.62493	44465
19.63305	46365
19.64118	44653
19.64930	58453
19.65742	90011
19.66555	122025
19.67367	150794
19.68180	182956
19.68992	196412
19.69803	176557
19.70617	148677
19.71428	124584
19.72240	99634
19.73053	85013
19.73865	81611
19.74678	77164
19.75490	72138
19.76302	70453
19.77115	61158
19.77927	58788
19.78740	56380
19.79552	52740
19.80363	50140
19.81177	44638
19.81988	50563
19.82802	45070
19.83613	44227
19.84425	45213
19.85238	43556
19.86050	49332
19.86862	62205
19.87675	91733
19.88487	159289
19.89300	265432
19.90112	412733
19.90923	603971
19.91737	777773
19.92548	921416
19.93362	1040098
19.94173	1053854
19.94985	1025701
19.95798	979245
19.96610	960320
19.97422	920328
19.98235	853692
19.99047	839768
19.99860	786518
20.00672	746061
20.01483	702968
20.02297	691844
20.03108	656749
20.03922	608867
20.04733	560133
20.05545	484834
20.06358	399348
20.07170	301649
20.07983	238642
20.08795	196245
20.09607	167410
20.10420	150005
20.11232	141716
20.12043	132174
20.12857	127550
20.13668	126671
20.14482	130964
20.15293	120675
20.16105	119797
20.16918	124791
20.17730	118922
20.18543	119826
20.19355	111758
20.20167	105265
20.20980	106563
20.21792	98502
20.22605	105917
20.23417	102310
20.24228	101679
20.25042	108971
20.25853	121608
20.26665	152678
20.27478	197768
20.28290	245462
20.29103	293586
20.29915	309195
20.30727	287756
20.31540	257506
20.32352	209379
20.33165	170025
20.33977	138168
20.34788	118855
20.35602	98487
20.36413	83422
20.37225	69824
20.38038	57787
20.38850	59302
20.39663	54540
20.40475	54585
20.41287	47040
20.42100	49105
20.42912	58586
20.43725	58853
20.44537	66399
20.45348	82794
20.46162	82828
20.46973	85757
20.47787	79900
20.48598	68636
20.49410	67305
20.50223	54183
20.51035	50042
20.51847	49498
20.52660	47157
20.53472	44120
20.54285	44008
20.55097	40687
20.55908	45777
20.56722	44807
20.57533	43249
20.58347	42841
20.59158	39765
20.59970	40506
20.60783	45412
20.61595	37657
20.62407	46500
20.63220	39853
20.64032	38827
20.64845	40057
20.65657	38864
20.66468	40315
20.67282	40093
20.68093	38938
20.68907	41659
20.69718	41695
20.70530	42544
20.71343	42708
20.72155	35983
20.72968	37037
20.73780	41972
20.74592	41759
20.75405	39331
20.76217	43975
20.77028	40412
20.77842	40083
20.78653	39169
20.79467	38067
20.80278	38377
20.81090	41483
20.81903	40585
20.82715	40307
20.83528	39537
20.84340	41138
20.85152	44590
20.85965	42829
20.86777	38947
20.87590	40066
20.88402	39211
20.89213	39469
20.90027	41711
20.90838	40200
20.91650	37858
20.92463	44026
20.93275	37572
20.94088	39253
20.94900	48805
20.95712	43337
20.96525	41457
20.97337	42085
20.98150	38885
20.98962	40194
20.99773	39914
21.00587	37180
21.01398	38063
21.02210	40181
21.03023	35958
21.03835	46679
21.04648	41514
21.05460	36408
21.06272	42010
21.07085	38916
21.07897	40589
21.08710	36707
21.09522	39041
21.10333	35474
21.11147	37310
21.11958	41069
21.12772	41706
21.13583	38064
21.14395	44329
21.15208	49822
21.16020	45629
21.16832	48132
21.17645	48968
21.18457	46361
21.19270	42655
21.20082	39508
21.20893	41079
21.21707	41354
21.22518	40494
21.23332	41998
21.24143	40782
21.24955	42801
21.25768	37093
21.26580	42457
21.27393	39827
21.28205	40172
21.29017	35923
21.29830	38733
21.30642	42262
21.31453	43992
21.32267	36661
21.33078	39235
21.33892	38980
21.34703	43517
21.35515	39062
21.36328	39071
21.37140	38435
21.37953	43219
21.38765	46540
21.39577	42333
21.40390	40857
21.41202	42676
21.42013	40017
21.42827	42323
21.43638	41677
21.44452	38337
21.45263	38077
21.46075	39701
21.46888	36870
21.47700	37364
21.48513	37763
21.49325	35937
21.50137	35481
21.50950	34938
21.51762	38931
21.52575	35028
21.53387	40190
21.54198	36017
21.55012	37771
21.55823	37969
21.56635	36471
21.57448	36397
21.58260	35073
21.59073	35686
21.59885	37858
21.60697	35888
21.61510	38884
21.62322	41461
21.63135	47013
21.63947	55956
21.64758	69466
21.65572	73617
21.66383	78884
21.67195	76355
21.68008	70000
21.68820	62085
21.69633	55398
21.70445	48951
21.71257	45673
21.72070	43865
21.72882	43707
21.73695	39347
21.74507	39172
21.75318	38003
21.76132	41405
21.76943	38774
21.77757	36589
21.78568	40018
21.79380	42694
21.80193	39824
21.81005	41456
21.81817	43371
21.82630	48068
21.83442	57571
21.84255	73886
21.85067	78148
21.85878	82549
21.86692	80489
21.87503	83844
21.88317	68057
21.89128	58745
21.89940	55457
21.90753	48253
21.91565	43063
21.92378	40883
21.93190	39522
21.94002	38220
21.94815	37993
21.95627	36326
21.96438	38943
21.97252	37509
21.98063	41725
21.98877	33553
21.99688	34363
22.00500	34059
22.01313	33353
22.02125	31675
22.02938	32733
22.03750	34159
22.04562	35586
22.05375	32659
22.06187	34248
22.06998	35258
22.07812	36851
22.08623	32359
22.09437	34244
22.10248	33730
22.11060	36545
22.11873	33357
22.12685	36983
22.13498	34880
22.14310	33129
22.15122	34912
22.15935	33678
22.16747	37158
22.17560	37493
22.18372	36177
22.19183	37569
22.19997	37842
22.20808	36150
22.21620	37662
22.22433	38566
22.23245	38790
22.24058	41692
22.24870	47593
22.25682	46039
22.26495	42595
22.27307	47075
22.28120	52167
22.28932	59587
22.29743	69958
22.30557	83067
22.31368	95681
22.32182	104962
22.32993	113785
22.33805	120286
22.34618	124214
22.35430	114009
22.36242	101522
22.37055	87255
22.37867	78674
22.38680	63094
22.39492	60391
22.40303	55437
22.41117	53087
22.41928	51790
22.42742	47469
22.43553	46407
22.44365	42358
22.45178	40188
22.45990	43024
22.46802	37924
22.47615	42001
22.48427	40743
22.49240	37803
22.50052	32875
22.50863	39976
22.51677	34919
22.52488	39732
22.53302	39397
22.54113	37773
22.54925	37771
22.55738	36689
22.56550	32188
22.57363	35980
22.58175	36245
22.58987	38487
22.59800	34576
22.60612	36109
22.61423	35412
22.62237	33626
22.63048	34758
22.63862	33141
22.64673	33682
22.65485	34714
22.66298	36922
22.67110	36139
22.67923	44450
22.68735	38541
22.69547	42037
22.70360	43680
22.71172	42843
22.71985	37243
22.72797	39081
22.73608	38103
22.74422	36134
22.75233	34843
22.76045	35812
22.76858	33107
22.77670	39018
22.78483	34111
22.79295	36626
22.80107	31150
22.80920	34944
22.81732	34168
22.82545	39383
22.83357	30632
22.84168	33182
22.84982	31780
22.85793	31532
22.86605	32078
22.87418	38481
22.88230	31784
22.89043	33092
22.89855	33715
22.90667	40188
22.91480	45082
22.92292	45083
22.93105	51181
22.93917	58356
22.94728	64452
22.95542	72208
22.96353	65696
22.97167	65504
22.97978	65893
22.98790	69654
22.99603	60635
23.00415	57213
23.01227	52664
23.02040	43673
23.02852	52133
23.03665	45425
23.04477	40088
23.05288	38601
23.06102	37187
23.06913	38495
23.07727	33725
23.08538	39185
23.09350	37311
23.10163	39157
23.10975	32808
23.11787	38931
23.12600	35877
23.13412	39423
23.14225	36242
23.15037	35404
23.15848	37966
23.16662	34145
23.17473	33590
23.18287	35557
23.19098	39149
23.19910	35759
23.20723	36228
23.21535	36071
23.22348	34945
23.23160	37272
23.23972	37843
23.24785	39248
23.25597	39443
23.26408	42480
23.27222	46111
23.28033	49078
23.28847	39697
23.29658	40094
23.30470	36878
23.31283	36032
23.32095	39067
23.32908	37011
23.33720	35301
23.34532	32536
23.35345	38789
23.36157	32077
23.36970	37270
23.37782	37205
23.38593	34804
23.39407	37570
23.40218	34919
23.41030	37583
23.41843	36148
23.42655	36785
23.43468	37978
23.44280	37681
23.45092	36508
23.45905	36616
23.46717	35701
23.47530	35060
23.48342	37640
23.49153	39349
23.49967	41775
23.50778	39127
23.51590	41228
23.52403	38928
23.53215	38229
23.54028	40397
23.54840	40932
23.55652	35605
23.56465	38912
23.57277	42506
23.58090	42861
23.58902	49016
23.59713	55911
23.60527	60045
23.61338	68584
23.62152	74021
23.62963	79292
23.63775	96361
23.64588	134334
23.65400	185500
23.66212	259787
23.67025	333077
23.67837	366990
23.68650	355025
23.69462	309525
23.70273	229793
23.71087	178536
23.71898	148028
23.72712	123113
23.73523	101080
23.74335	86434
23.75148	95735
23.75960	129217
23.76773	247906
23.77585	537654
23.78397	1144578
23.79210	2017768
23.80022	2777500
23.80833	3055614
23.81647	2876374
23.82458	2492314
23.83272	1920095
23.84083	1390853
23.84895	997862
23.85708	705613
23.86520	552710
23.87333	458154
23.88145	397062
23.88957	342101
23.89770	298433
23.90582	272184
23.91393	242965
23.92207	214030
23.93018	201636
23.93832	190627
23.94643	170721
23.95455	172395
23.96268	153018
23.97080	154277
23.97893	136323
23.98705	133845
23.99517	133788
24.00330	127805
24.01142	117182
24.01955	119258
24.02767	122847
24.03578	125331
24.04392	130997
24.05203	129732
24.06015	125072
24.06828	120534
24.07640	111844
24.08453	101308
24.09265	98581
24.10077	100983
24.10890	94223
24.11702	85031
24.12515	91353
24.13327	85814
24.14138	87653
24.14952	87841
24.15763	90474
24.16575	92595
24.17388	91058
24.18200	84834
24.19013	81792
24.19825	80348
24.20637	74977
24.21450	80882
24.22262	80842
24.23075	81298
24.23887	86104
24.24698	88122
24.25512	84478
24.26323	74127
24.27137	73558
24.27948	69926
24.28760	72325
24.29573	66788
24.30385	67371
24.31197	59899
24.32010	60946
24.32822	58216
24.33635	55884
24.34447	58794
24.35258	57316
24.36072	54688
24.36883	59551
24.37697	56842
24.38508	59462
24.39320	65185
24.40133	70593
24.40945	89341
24.41758	99143
24.42570	101370
24.43382	101144
24.44195	90598
24.45007	73859
24.45818	58028
24.46632	58266
24.47443	52305
24.48257	51946
24.49068	51250
24.49880	51222
24.50693	56971
24.51505	60148
24.52318	66429
24.53130	69230
24.53942	65916
24.54755	67358
24.55567	59375
24.56380	57995
24.57192	55401
24.58003	57488
24.58817	54503
24.59628	58728
24.60440	52511
24.61253	52828
24.62065	51987
24.62878	52398
24.63690	49407
24.64502	49155
24.65315	51368
24.66127	51351
24.66940	51930
24.67752	51539
24.68563	48737
24.69377	50195
24.70188	53473
24.71000	47129
24.71813	45908
24.72625	47331
24.73438	48593
24.74250	46593
24.75062	46938
24.75875	44832
24.76687	44724
24.77500	42287
24.78312	40252
24.79123	46225
24.79937	45815
24.80748	43619
24.81562	42518
24.82373	41189
24.83185	41925
24.83998	40536
24.84810	40783
24.85622	41476
24.86435	40706
24.87247	43807
24.88060	41158
24.88872	45599
24.89683	43982
24.90497	45008
24.91308	42187
24.92122	40935
24.92933	40657
24.93745	37901
24.94558	40548
24.95370	39556
24.96182	39283
24.96995	38868
24.97807	36401
24.98620	40019
24.99432	37514
25.00243	41913
25.01057	37751
25.01868	35824
25.02682	35777
25.03493	37151
25.04305	39505
25.05118	39773
25.05930	37470
25.06743	43532
25.07555	37816
25.08367	37739
25.09180	37773
25.09992	41339
25.10803	38012
25.11617	38795
25.12428	36176
25.13242	37782
25.14053	38718
25.14865	38214
25.15678	43265
25.16490	41931
25.17303	42689
25.18115	40312
25.18927	44611
25.19740	42606
25.20552	41381
25.21365	41085
25.22177	38204
25.22988	36530
25.23802	40748
25.24613	36990
25.25425	37337
25.26238	37085
25.27050	36916
25.27863	37177
25.28675	39014
25.29487	40345
25.30300	40018
25.31112	43309
25.31925	44940
25.32737	44390
25.33548	46307
25.34362	47199
25.35173	42077
25.35985	44561
25.36798	40156
25.37610	41024
25.38423	44674
25.39235	40282
25.40047	35541
25.40860	35679
25.41672	36606
25.42485	36102
25.43297	37049
25.44108	38699
25.44922	34674
25.45733	34668
25.46547	39317
25.47358	38629
25.48170	38152
25.48983	41286
25.49795	40934
25.50607	44011
25.51420	41208
25.52232	41222
25.53045	41757
25.53857	40568
25.54668	37164
25.55482	34367
25.56293	35787
25.57107	36645
25.57918	34350
25.58730	31438
25.59543	35460
25.60355	31511
25.61168	35854
25.61980	40394
25.62792	41650
25.63605	56751
25.64417	65255
25.65228	73399
25.66042	79505
25.66853	79785
25.67667	66541
25.68478	60636
25.69290	50870
25.70103	45673
25.70915	43830
25.71728	39139
25.72540	38687
25.73352	44446
25.74165	40366
25.74977	37880
25.75788	42709
25.76602	46378
25.77413	40797
25.78227	38284
25.79038	37592
25.79850	39388
25.80663	35323
25.81475	42343
25.82288	45370
25.83100	47029
25.83912	49605
25.84725	47779
25.85537	46857
25.86350	44225
25.87162	45727
25.87973	42312
25.88787	42981
25.89598	34551
25.90410	32144
25.91223	32354
25.92035	35244
25.92848	33846
25.93660	33736
25.94472	32385
25.95285	33734
25.96097	35486
25.96910	37121
25.97722	30552
25.98533	36687
25.99347	29434
26.00158	32124
26.00970	28000
26.01783	34009
26.02595	33542
26.03408	33553
26.04220	32083
26.05032	34507
26.05845	33797
26.06657	35892
26.07470	36597
26.08282	36185
26.09093	33101
26.09907	35453
26.10718	34551
26.11532	36503
26.12343	35205
26.13155	39230
26.13968	46266
26.14780	42179
26.15592	43105
26.16405	43435
26.17217	45504
26.18030	43290
26.18842	45404
26.19653	40113
26.20467	38462
26.21278	37991
26.22092	40328
26.22903	33533
26.23715	32546
26.24528	32341
26.25340	30902
26.26153	33312
26.26965	36205
26.27777	36983
26.28590	34007
26.29402	34501
26.30213	34685
26.31027	33520
26.31838	36058
26.32652	34588
26.33463	36685
26.34275	33166
26.35088	35420
26.35900	34745
26.36713	31445
26.37525	34076
26.38337	32201
26.39150	36123
26.39962	32022
26.40773	35428
26.41587	35809
26.42398	39742
26.43212	33796
26.44023	31408
26.44835	35473
26.45648	31034
26.46460	30777
26.47273	28931
26.48085	31980
26.48897	33333
26.49710	33337
26.50522	31739
26.51335	30313
26.52147	30371
26.52958	29493
26.53772	30338
26.54583	28905
26.55395	28733
26.56208	32004
26.57020	30272
26.57833	30141
26.58645	30206
26.59457	32288
26.60270	30777
26.61082	29824
26.61895	31177
26.62707	28429
26.63518	28506
26.64332	31854
26.65143	31038
26.65957	35201
26.66768	32783
26.67580	37101
26.68393	35472
26.69205	38670
26.70017	34880
26.70830	34080
26.71642	37268
26.72455	30738
26.73267	35238
26.74078	35036
26.74892	32138
26.75703	37191
26.76517	31781
26.77328	30710
26.78140	33790
26.78953	32861
26.79765	30260
26.80577	36613
26.81390	37080
26.82202	36928
26.83015	42925
26.83827	40171
26.84638	38411
26.85452	39331
26.86263	38663
26.87077	36832
26.87888	39982
26.88700	40848
26.89513	38121
26.90325	39898
26.91138	41836
26.91950	35443
26.92762	35139
26.93575	33091
26.94387	32534
26.95198	33083
26.96012	31817
26.96823	36368
26.97637	43954
26.98448	54759
26.99260	81522
27.00073	127500
27.00885	192242
27.01698	296534
27.02510	400928
27.03322	501037
27.04135	529787
27.04947	513552
27.05760	457108
27.06572	380572
27.07383	311521
27.08197	252242
27.09008	205930
27.09820	166637
27.10633	151791
27.11445	130607
27.12258	119205
27.13070	112625
27.13882	102463
27.14695	89725
27.15507	90796
27.16320	90984
27.17132	79337
27.17943	79449
27.18757	78002
27.19568	73095
27.20380	67748
27.21193	67440
27.22005	66913
27.22818	65328
27.23630	63757
27.24442	60881
27.25255	58086
27.26067	59009
27.26880	55201
27.27692	55603
27.28503	55166
27.29317	51422
27.30128	51496
27.30942	51056
27.31753	53579
27.32565	48462
27.33378	51114
27.34190	52493
27.35002	48660
27.35815	48137
27.36627	50594
27.37440	51877
27.38252	55563
27.39063	56605
27.39877	57589
27.40688	51915
27.41502	49483
27.42313	47115
27.43125	49487
27.43938	48613
27.44750	46667
27.45562	44285
27.46375	42767
27.47187	43013
27.48000	40975
27.48812	45855
27.49623	49678
27.50437	46741
27.51248	45761
27.52062	49822
27.52873	43503
27.53685	47464
27.54498	47639
27.55310	44428
27.56123	43491
27.56935	47447
27.57747	40193
27.58560	41690
27.59372	37430
27.60183	37492
27.60997	38472
27.61808	38328
27.62622	39793
27.63433	42598
27.64245	40791
27.65058	40902
27.65870	40045
27.66683	38715
27.67495	39059
27.68307	33978
27.69120	37882
27.69932	40836
27.70745	35137
27.71557	36188
27.72368	40415
27.73182	37328
27.73993	36521
27.74805	38584
27.75618	36423
27.76430	33499
27.77243	38482
27.78055	33753
27.78867	36189
27.79680	31541
27.80492	36106
27.81305	35753
27.82117	34902
27.82928	41434
27.83742	42220
27.84553	37379
27.85365	38867
27.86178	40357
27.86990	38345
27.87803	38205
27.88615	36515
27.89427	36668
27.90240	34491
27.91052	36651
27.91865	34192
27.92677	34984
27.93488	33748
27.94302	34320
27.95113	35185
27.95927	32218
27.96738	31155
27.97550	32906
27.98363	35315
27.99175	38865
27.99987	36534
28.00800	34655
28.01612	34392
28.02425	37495
28.03237	33859
28.04048	33840
28.04862	35529
28.05673	37476
28.06487	37879
28.07298	33149
28.08110	37396
28.08923	33000
28.09735	35860
28.10548	31442
28.11360	32524
28.12172	36516
28.12985	39411
28.13797	34471
28.14608	34351
28.15422	35459
28.16233	33781
28.17047	36064
28.17858	37563
28.18670	39547
28.19483	45354
28.20295	45710
28.21108	59863
28.21920	75934
28.22732	76417
28.23545	78987
28.24357	81936
28.25168	75893
28.25982	65142
28.26793	57206
28.27607	51720
28.28418	49575
28.29230	46889
28.30043	49105
28.30855	42566
28.31668	47150
28.32480	51432
28.33292	53422
28.34105	56525
28.34917	66792
28.35730	77019
28.36542	87860
28.37353	103937
28.38167	112036
28.38978	125530
28.39790	127826
28.40603	136318
28.41415	130783
28.42228	126443
28.43040	114517
28.43852	105576
28.44665	101838
28.45477	95562
28.46290	85407
28.47102	83612
28.47913	80808
28.48727	71758
28.49538	71104
28.50350	66922
28.51163	65818
28.51975	64346
28.52788	58219
28.53600	58206
28.54412	55549
28.55225	51693
28.56037	52767
28.56850	54516
28.57662	50477
28.58473	47223
28.59287	49265
28.60098	44997
28.60912	48324
28.61723	51604
28.62535	54210
28.63348	64555
28.64160	72087
28.64972	80450
28.65785	101601
28.66597	106686
28.67410	112793
28.68222	102517
28.69033	94382
28.69847	84130
28.70658	68887
28.71472	63706
28.72283	56859
28.73095	49253
28.73908	47386
28.74720	48139
28.75533	47268
28.76345	48939
28.77157	49831
28.77970	58866
28.78782	66218
28.79593	70379
28.80407	68198
28.81218	61290
28.82032	55793
28.82843	49419
28.83655	47595
28.84468	46171
28.85280	43258
28.86093	41656
28.86905	37944
28.87717	42510
28.88530	44798
28.89342	39685
28.90155	39552
28.90967	43680
28.91778	40508
28.92592	42187
28.93403	42753
28.94215	41355
28.95028	45050
28.95840	47467
28.96653	56373
28.97465	49964
28.98277	44788
28.99090	47363
28.99902	50936
29.00715	41328
29.01527	44955
29.02338	46217
29.03152	39178
29.03963	38717
29.04775	43363
29.05588	37724
29.06400	41904
29.07213	40202
29.08025	42802
29.08837	39517
29.09650	37214
29.10462	39828
29.11275	40044
29.12087	39630
29.12898	38636
29.13712	35861
29.14523	35729
29.15337	40111
29.16148	41511
29.16960	40056
29.17773	40265
29.18585	37890
29.19397	40376
29.20210	41141
29.21022	40830
29.21835	39811
29.22647	38368
29.23458	37844
29.24272	36480
29.25083	42753
29.25897	36226
29.26708	37311
29.27520	36208
29.28333	39112
29.29145	37270
29.29957	35238
29.30770	38116
29.31582	42135
29.32395	39570
29.33207	44859
29.34018	40405
29.34832	40568
29.35643	42391
29.36457	42884
29.37268	41683
29.38080	39233
29.38893	41281
29.39705	42623
29.40518	49223
29.41330	46090
29.42142	51144
29.42955	57638
29.43767	59570
29.44578	58960
29.45392	49113
29.46203	49276
29.47017	42732
29.47828	46975
29.48640	41346
29.49453	39667
29.50265	42748
29.51078	45006
29.51890	48279
29.52702	47910
29.53515	45765
29.54327	41342
29.55140	38483
29.55952	43043
29.56763	38320
29.57577	38702
29.58388	36763
29.59200	41456
29.60013	40611
29.60825	36410
29.61638	36712
29.62450	37114
29.63262	40578
29.64075	39229
29.64887	33839
29.65700	32388
29.66512	35565
29.67323	36440
29.68137	37347
29.68948	37005
29.69760	33846
29.70573	38258
29.71385	33268
29.72198	36046
29.73010	37327
29.73822	38769
29.74635	40226
29.75447	37047
29.76260	36248
29.77072	32667
29.77883	34964
29.78697	34917
29.79508	36752
29.80322	32817
29.81133	34929
29.81945	36272
29.82758	31436
29.83570	32302
29.84382	36299
29.85195	38169
29.86007	47147
29.86820	78563
29.87632	159261
29.88443	300743
29.89257	561973
29.90068	874886
29.90882	1149563
29.91693	1189367
29.92505	1023718
29.93318	740457
29.94130	457448
29.94943	258935
29.95755	154107
29.96567	102158
29.97380	88682
29.98192	79191
29.99003	77232
29.99817	83884
30.00628	87919
30.01442	90675
30.02253	94683
30.03065	102949
30.03878	101343
30.04690	99416
30.05503	107474
30.06315	110631
30.07127	107109
30.07940	105229
30.08752	107431
30.09563	100200
30.10377	99698
30.11188	92485
30.12002	87135
30.12813	80226
30.13625	82599
30.14438	75579
30.15250	81052
30.16063	76392
30.16875	75573
30.17687	70156
30.18500	63874
30.19312	65056
30.20125	61821
30.20937	59605
30.21748	56184
30.22562	60261
30.23373	55732
30.24185	50884
30.24998	49661
30.25810	51981
30.26623	51277
30.27435	48915
30.28247	47014
30.29060	48749
30.29872	54117
30.30685	44511
30.31497	45872
30.32308	46286
30.33122	48323
30.33933	46948
30.34745	46299
30.35558	46220
30.36370	46492
30.37183	42146
30.37995	44061
30.38807	42323
30.39620	44378
30.40432	43916
30.41245	42362
30.42057	42395
30.42868	43745
30.43682	42550
30.44493	39399
30.45307	41501
30.46118	45796
30.46930	44196
30.47743	42839
30.48555	39469
30.49367	42641
30.50180	40632
30.50992	41150
30.51805	39946
30.52617	40455
30.53428	36783
30.54242	42263
30.55053	40978
30.55867	37279
30.56678	37480
30.57490	40289
30.58303	44399
30.59115	38414
30.59928	37743
30.60740	38518
30.61552	38515
30.62365	38354
30.63177	36760
30.63988	34870
30.64802	35932
30.65613	36747
30.66427	38851
30.67238	37587
30.68050	36410
30.68863	36810
30.69675	38815
30.70488	37789
30.71300	35940
30.72112	37557
30.72925	39139
30.73737	38170
30.74548	37772
30.75362	39922
30.76173	42845
30.76987	48466
30.77798	75649
30.78610	129470
30.79423	231736
30.80235	386539
30.81048	595830
30.81860	770436
30.82672	821010
30.83485	712593
30.84297	531020
30.85110	343248
30.85922	206344
30.86733	140457
30.87547	99357
30.88358	81008
30.89170	69827
30.89983	59925
30.90795	55417
30.91608	56726
30.92420	52338
30.93232	53352
30.94045	56321
30.94857	54856
30.95670	53772
30.96482	51471
30.97293	53450
30.98107	49387
30.98918	47287
30.99732	49691
31.00543	48032
31.01355	47407
31.02168	46962
31.02980	46435
31.03792	49308
31.04605	50116
31.05417	52686
31.06230	52948
31.07042	50027
31.07853	57228
31.08667	67245
31.09478	81622
31.10292	100569
31.11103	128252
31.11915	144034
31.12728	139600
31.13540	125796
31.14352	99941
31.15165	82812
31.15977	61722
31.16790	52528
31.17602	50251
31.18413	53751
31.19227	51632
31.20038	58301
31.20852	69144
31.21663	71174
31.22475	82063
31.23288	92656
31.24100	86076
31.24913	75340
31.25725	65451
31.26537	60107
31.27350	51685
31.28162	49842
31.28973	44244
31.29787	44075
31.30598	38206
31.31412	40658
31.32223	40746
31.33035	37418
31.33848	38852
31.34660	39780
31.35473	44121
31.36285	42246
31.37097	48302
31.37910	47238
31.38722	52218
31.39533	54430
31.40347	54644
31.41158	54836
31.41972	51747
31.42783	52537
31.43595	44336
31.44408	47848
31.45220	44584
31.46033	47288
31.46845	50698
31.47657	43966
31.48470	44208
31.49282	46102
31.50095	43159
31.50907	39189
31.51718	42863
31.52532	43113
31.53343	36821
31.54155	37488
31.54968	43386
31.55780	37361
31.56593	39395
31.57405	38595
31.58217	37132
31.59030	40942
31.59842	41677
31.60655	37542
31.61467	38352
31.62278	41105
31.63092	45767
31.63903	40758
31.64717	41168
31.65528	42677
31.66340	38064
31.67153	38778
31.67965	41353
31.68777	38950
31.69590	38114
31.70402	40457
31.71215	38339
31.72027	33644
31.72838	40493
31.73652	36762
31.74463	37576
31.75277	34293
31.76088	37769
31.76900	33736
31.77713	42017
31.78525	39973
31.79337	40768
31.80150	40312
31.80962	39011
31.81775	39983
31.82587	43780
31.83398	42324
31.84212	44547
31.85023	40234
31.85837	44280
31.86648	44962
31.87460	48763
31.88273	44903
31.89085	46831
31.89898	47662
31.90710	48724
31.91522	52166
31.92335	54443
31.93147	54454
31.93958	59164
31.94772	64494
31.95583	74054
31.96397	74256
31.97208	82532
31.98020	85687
31.98833	83220
31.99645	89802
32.00458	93561
32.01270	88698
32.02082	92351
32.02895	83792
32.03707	80794
32.04520	78683
32.05332	83687
32.06143	71456
32.06957	75179
32.07768	68555
32.08580	64722
32.09393	63441
32.10205	63587
32.11018	61176
32.11830	62481
32.12642	55557
32.13455	51851
32.14267	51560
32.15080	50424
32.15892	51632
32.16703	47013
32.17517	54041
32.18328	46044
32.19140	46340
32.19953	47012
32.20765	47660
32.21578	46713
32.22390	45324
32.23202	41098
32.24015	45802
32.24827	50548
32.25640	44928
32.26452	42106
32.27263	46244
32.28077	44295
32.28888	47677
32.29702	48477
32.30513	44373
32.31325	41999
32.32138	39300
32.32950	42343
32.33762	47197
32.34575	44450
32.35387	47539
32.36200	50440
32.37012	49465
32.37823	51660
32.38637	50838
32.39448	48896
32.40262	44369
32.41073	41491
32.41885	41379
32.42698	42478
32.43510	43193
32.44323	46240
32.45135	38437
32.45947	42067
32.46760	40248
32.47572	44225
32.48383	39949
32.49197	41825
32.50008	43688
32.50822	38229
32.51633	36241
32.52445	34483
32.53258	37946
32.54070	38055
32.54883	38899
32.55695	41075
32.56507	38830
32.57320	42007
32.58132	43727
32.58943	39424
32.59757	37109
32.60568	36750
32.61382	40443
32.62193	39628
32.63005	36634
32.63818	42329
32.64630	37112
32.65443	41245
32.66255	41224
32.67067	42381
32.67880	47996
32.68692	52313
32.69505	54098
32.70317	52969
32.71128	53634
32.71942	42702
32.72753	44121
32.73565	38222
32.74378	39757
32.75190	41188
32.76003	40199
32.76815	36519
32.77627	41315
32.78440	37960
32.79252	38037
32.80065	36265
32.80877	38537
32.81688	35177
32.82502	38125
32.83313	34217
32.84125	34806
32.84938	36430
32.85750	37204
32.86563	38829
32.87375	37367
32.88187	38641
32.89000	35052
32.89812	37306
32.90625	34990
32.91437	42895
32.92248	35930
32.93062	38239
32.93873	35334
32.94687	38430
32.95498	42139
32.96310	38899
32.97123	39570
32.97935	39676
32.98747	34772
32.99560	37839
33.00372	37389
33.01185	39416
33.01997	37867
33.02808	35636
33.03622	34021
33.04433	38596
33.05247	37970
33.06058	33161
33.06870	37163
33.07683	40005
33.08495	49473
33.09308	61585
33.10120	101834
33.10932	173352
33.11745	285514
33.12557	409988
33.13368	477656
33.14182	431263
33.14993	323833
33.15807	200380
33.16618	134750
33.17430	84382
33.18243	60200
33.19055	50911
33.19868	50785
33.20680	53599
33.21492	45992
33.22305	49989
33.23117	51790
33.23928	55228
33.24742	46485
33.25553	43893
33.26367	41342
33.27178	45264
33.27990	43839
33.28803	41168
33.29615	43110
33.30428	45499
33.31240	43213
33.32052	41623
33.32865	39378
33.33677	39201
33.34490	41064
33.35302	38755
33.36113	40388
33.36927	42290
33.37738	36791
33.38550	40144
33.39363	43528
33.40175	43396
33.40988	37198
33.41800	40240
33.42612	37275
33.43425	38370
33.44237	33775
33.45050	39185
33.45862	36878
33.46673	38741
33.47487	38077
33.48298	44477
33.49112	38636
33.49923	38228
33.50735	37882
33.51548	37688
33.52360	40002
33.53172	40560
33.53985	36379
33.54797	37721
33.55610	40931
33.56422	38483
33.57233	38665
33.58047	39546
33.58858	39590
33.59672	37300
33.60483	44146
33.61295	41624
33.62108	44627
33.62920	40979
33.63732	39212
33.64545	43606
33.65357	39831
33.66170	38186
33.66982	41467
33.67793	38184
33.68607	48045
33.69418	40910
33.70232	45075
33.71043	42159
33.71855	37359
33.72668	38355
33.73480	37573
33.74293	43530
33.75105	40264
33.75917	36262
33.76730	37489
33.77542	36268
33.78353	41098
33.79167	35437
33.79978	36431
33.80792	36027
33.81603	38036
33.82415	38704
33.83228	41452
33.84040	40908
33.84853	39782
33.85665	47320
33.86477	42460
33.87290	44151
33.88102	46128
33.88913	39669
33.89727	39554
33.90538	39196
33.91352	43740
33.92163	41531
33.92975	38565
33.93788	40241
33.94600	39631
33.95413	42730
33.96225	42544
33.97037	39308
33.97850	44162
33.98662	41809
33.99475	39416
34.00287	40694
34.01098	37281
34.01912	36481
34.02723	38928
34.03535	42496
34.04348	38061
34.05160	43114
34.05973	35935
34.06785	39750
34.07597	40812
34.08410	39271
34.09222	37954
34.10035	37762
34.10847	40584
34.11658	39950
34.12472	40692
34.13283	39492
34.14097	36763
34.14908	41264
34.15720	38906
34.16533	40586
34.17345	36934
34.18157	36838
34.18970	40652
34.19782	40277
34.20595	40383
34.21407	37249
34.22218	37918
34.23032	40675
34.23843	41685
34.24657	49106
34.25468	48335
34.26280	50237
34.27093	47747
34.27905	57897
34.28718	50910
34.29530	44720
34.30342	46213
34.31155	45832
34.31967	47152
34.32778	40304
34.33592	41904
34.34403	41674
34.35217	41363
34.36028	42575
34.36840	44572
34.37653	40410
34.38465	39787
34.39278	42936
34.40090	45873
34.40902	42458
34.41715	40642
34.42527	42994
34.43338	41665
34.44152	39851
34.44963	40429
34.45777	38798
34.46588	37964
34.47400	37717
34.48213	36978
34.49025	40612
34.49838	40903
34.50650	35778
34.51462	39092
34.52275	42715
34.53087	47616
34.53900	52326
34.54712	59024
34.55523	66348
34.56337	70821
34.57148	74867
34.57960	80152
34.58773	77935
34.59585	79247
34.60398	75358
34.61210	67720
34.62022	65347
34.62835	60510
34.63647	58008
34.64460	57707
34.65272	55323
34.66083	56498
34.66897	49469
34.67708	53019
34.68520	46088
34.69333	51948
34.70145	45478
34.70958	45125
34.71770	49412
34.72582	45194
34.73395	46501
34.74207	48403
34.75020	48581
34.75832	47333
34.76643	47475
34.77457	47261
34.78268	44456
34.79082	41685
34.79893	42896
34.80705	40175
34.81518	41805
34.82330	49672
34.83142	44518
34.83955	46705
34.84767	39954
34.85580	43660
34.86392	43167
34.87203	49564
34.88017	42938
34.88828	42775
34.89642	39205
34.90453	39864
34.91265	44029
34.92078	43269
34.92890	42883
34.93703	48101
34.94515	59659
34.95327	72006
34.96140	109661
34.96952	146874
34.97763	209310
34.98577	260219
34.99388	284090
35.00202	261631
35.01013	197219
35.01825	132557
35.02638	92798
35.03450	73237
35.04263	70719
35.05075	62431
35.05887	58260
35.06700	56600
35.07512	54629
35.08323	59245
35.09137	55899
35.09948	57294
35.10762	55590
35.11573	53303
35.12385	56608
35.13198	57653
35.14010	48992
35.14823	49117
35.15635	48743
35.16447	50149
35.17260	49363
35.18072	49352
35.18885	49779
35.19697	50418
35.20508	56496
35.21322	48334
35.22133	47143
35.22945	48618
35.23758	45477
35.24570	46988
35.25383	48405
35.26195	47814
35.27007	46158
35.27820	49721
35.28632	51164
35.29445	48425
35.30257	48843
35.31068	44690
35.31882	46907
35.32693	41384
35.33507	42686
35.34318	40017
35.35130	42007
35.35943	46732
35.36755	42286
35.37567	46639
35.38380	45495
35.39192	43619
35.40005	41966
35.40817	40666
35.41628	47259
35.42442	39789
35.43253	42610
35.44067	44480
35.44878	46187
35.45690	45727
35.46503	43001
35.47315	46515
35.48127	46178
35.48940	45697
35.49752	47935
35.50565	47722
35.51377	46070
35.52188	49407
35.53002	47711
35.53813	47405
35.54627	43763
35.55438	42987
35.56250	46731
35.57063	45591
35.57875	45597
35.58688	45009
35.59500	47052
35.60312	47875
35.61125	54099
35.61937	49361
35.62748	50129
35.63562	47302
35.64373	49614
35.65187	43082
35.65998	42252
35.66810	44810
35.67623	45445
35.68435	47129
35.69248	49291
35.70060	52200
35.70872	55459
35.71685	52323
35.72497	50389
35.73308	49218
35.74122	48057
35.74933	46442
35.75747	49068
35.76558	52137
35.77370	46892
35.78183	45870
35.78995	47988
35.79808	50937
35.80620	49536
35.81432	43955
35.82245	46179
35.83057	51014
35.83870	49775
35.84682	47038
35.85493	48114
35.86307	49017
35.87118	52248
35.87930	44536
35.88743	50550
35.89555	44747
35.90368	44422
35.91180	41566
35.91992	43988
35.92805	42991
35.93617	45314
35.94430	42396
35.95242	46968
35.96053	44650
35.96867	45330
35.97678	47147
35.98492	46798
35.99303	44811
36.00115	46176
36.00928	48175
36.01740	49689
36.02552	50791
36.03365	48237
36.04177	50979
36.04990	46644
36.05802	46646
36.06613	50775
36.07427	45832
36.08238	48205
36.09052	48753
36.09863	45248
36.10675	44553
36.11488	43428
36.12300	46394
36.13112	51248
36.13925	50444
36.14737	46092
36.15550	52021
36.16362	48533
36.17173	47130
36.17987	49886
36.18798	45811
36.19612	47105
36.20423	43593
36.21235	46897
36.22048	50300
36.22860	46936
36.23673	45824
36.24485	43640
36.25297	45538
36.26110	47007
36.26922	47201
36.27733	43873
36.28547	42890
36.29358	43827
36.30172	45619
36.30983	49983
36.31795	50480
36.32608	55886
36.33420	59351
36.34233	60579
36.35045	54482
36.35857	51885
36.36670	49193
36.37482	51781
36.38295	46293
36.39107	43976
36.39918	47441
36.40732	47835
36.41543	46585
36.42355	42966
36.43168	44961
36.43980	47380
36.44793	47014
36.45605	53084
36.46417	45888
36.47230	46592
36.48042	43810
36.48855	45390
36.49667	44178
36.50478	42699
36.51292	44356
36.52103	47421
36.52915	41545
36.53728	46276
36.54540	44674
36.55353	48028
36.56165	45142
36.56977	41999
36.57790	48669
36.58602	45281
36.59415	42654
36.60227	42680
36.61038	48453
36.61852	50918
36.62663	46664
36.63477	43838
36.64288	43717
36.65100	45786
36.65913	44692
36.66725	45725
36.67537	47330
36.68350	49187
36.69162	46864
36.69975	48027
36.70787	49792
36.71598	48250
36.72412	49667
36.73223	53603
36.74037	47096
36.74848	46525
36.75660	51201
36.76473	46322
36.77285	47087
36.78097	47026
36.78910	48327
36.79722	42511
36.80535	43917
36.81347	43641
36.82158	45062
36.82972	46306
36.83783	47668
36.84597	46705
36.85408	50746
36.86220	44728
36.87033	42805
36.87845	47229
36.88658	47455
36.89470	47475
36.90282	48484
36.91095	45342
36.91907	45859
36.92718	47503
36.93532	47054
36.94343	46414
36.95157	47093
36.95968	45614
36.96780	50059
36.97593	46611
36.98405	47605
36.99218	41934
37.00030	46340
37.00842	46479
37.01655	47401
37.02467	44406
37.03280	48797
37.04092	47393
37.04903	46163
37.05717	45243
37.06528	53513
37.07340	49062
37.08153	48058
37.08965	47715
37.09778	47623
37.10590	46902
37.11402	49683
37.12215	49425
37.13027	49143
37.13840	47858
37.14652	46501
37.15463	47352
37.16277	49608
37.17088	49387
37.17900	49847
37.18713	51849
37.19525	53131
37.20338	49730
37.21150	52558
37.21962	58407
37.22775	52058
37.23587	50676
37.24400	55327
37.25212	49389
37.26023	46748
37.26837	50866
37.27648	51345
37.28462	54755
37.29273	47451
37.30085	47319
37.30898	48762
37.31710	52680
37.32522	53905
37.33335	55335
37.34147	56332
37.34960	60653
37.35772	60950
37.36583	65805
37.37397	69531
37.38208	71644
37.39022	74585
37.39833	72664
37.40645	68834
37.41458	66189
37.42270	61784
37.43083	63928
37.43895	59733
37.44707	56451
37.45520	62021
37.46332	65066
37.47143	55628
37.47957	56377
37.48768	50876
