C:\MassHunter\GCMS\1\data\JTB-E18\JTB-E18-036-07.D Thu Oct 17 13:54:59 2019
Start of data points
2.09527,245418
2.10340,240836
2.11152,226593
2.11963,220281
2.12777,217726
2.13588,202069
2.14402,199547
2.15213,203346
2.16025,195334
2.16838,184835
2.17650,175197
2.18463,174272
2.19275,164337
2.20087,168388
2.20900,162422
2.21712,157820
2.22523,150039
2.23337,152115
2.24148,153495
2.24962,150251
2.25773,140277
2.26585,180407
2.27398,930426
2.28210,2437174
2.29023,1515210
2.29835,602004
2.30647,375979
2.31460,309191
2.32272,286737
2.33083,252266
2.33897,239976
2.34708,218736
2.35522,205428
2.36333,197546
2.37145,182202
2.37958,183398
2.38770,200235
2.39583,179779
2.40395,170627
2.41207,165261
2.42020,168499
2.42832,171525
2.43645,163278
2.44457,166927
2.45268,168751
2.46082,158805
2.46893,143715
2.47705,143501
2.48518,145152
2.49330,142846
2.50143,139403
2.50955,137392
2.51767,135062
2.52580,128390
2.53392,130697
2.54205,130941
2.55017,147866
2.55828,160847
2.56642,166719
2.57453,141692
2.58267,131805
2.59078,130878
2.59890,128406
2.60703,163821
2.61515,269458
2.62327,272269
2.63140,211522
2.63952,167097
2.64765,152438
2.65577,145104
2.66388,135228
2.67202,143639
2.68013,157124
2.68827,146483
2.69638,128823
2.70450,121281
2.71263,119422
2.72075,115554
2.72887,126634
2.73700,113763
2.74512,122727
2.75325,111856
2.76137,110153
2.76948,110189
2.77762,114745
2.78573,139986
2.79387,153652
2.80198,137872
2.81010,127237
2.81823,139157
2.82635,209398
2.83448,364937
2.84260,367929
2.85072,237391
2.85885,188978
2.86697,185317
2.87508,163838
2.88322,142838
2.89133,127375
2.89947,123097
2.90758,117063
2.91570,115391
2.92383,109245
2.93195,110358
2.94008,107900
2.94820,105004
2.95632,100751
2.96445,103555
2.97257,103830
2.98070,99767
2.98882,102661
2.99693,108840
3.00507,114350
3.01318,125068
3.02130,137180
3.02943,264508
3.03755,470713
3.04568,704826
3.05380,1951080
3.06192,5271787
3.07005,6009787
3.07817,3553412
3.08630,1844771
3.09442,1285693
3.10253,1790579
3.11067,3696481
3.11878,4236925
3.12690,2836526
3.13503,1909423
3.14315,1435353
3.15128,1177935
3.15940,978561
3.16752,836093
3.17565,742866
3.18377,727515
3.19190,988107
3.20002,1240620
3.20813,1028618
3.21627,769634
3.22438,632504
3.23252,561596
3.24063,495881
3.24875,434646
3.25688,402184
3.26500,365362
3.27312,342852
3.28125,357368
3.28937,574602
3.29750,1154061
3.30562,1984651
3.31373,2379932
3.32187,2132777
3.32998,1707018
3.33812,1363048
3.34623,1139118
3.35435,988040
3.36248,870178
3.37060,836609
3.37872,955428
3.38685,1003051
3.39497,902645
3.40310,994647
3.41122,1729783
3.41933,2678455
3.42747,2480154
3.43558,1577785
3.44372,990739
3.45183,747620
3.45995,627942
3.46808,573197
3.47620,512562
3.48433,473541
3.49245,425425
3.50057,405151
3.50870,381282
3.51682,355835
3.52493,350701
3.53307,336526
3.54118,333417
3.54932,315658
3.55743,306732
3.56555,295623
3.57368,281138
3.58180,281798
3.58993,266694
3.59805,265371
3.60617,261091
3.61430,294228
3.62242,474896
3.63055,944058
3.63867,1427020
3.64678,1389735
3.65492,952331
3.66303,796847
3.67115,1449284
3.67928,2957705
3.68740,3508059
3.69553,2470749
3.70365,1495718
3.71177,1062832
3.71990,863099
3.72802,752338
3.73615,669776
3.74427,612187
3.75238,566831
3.76052,539821
3.76863,550062
3.77675,564991
3.78488,546804
3.79300,525374
3.80113,562963
3.80925,801079
3.81737,1234410
3.82550,1287583
3.83362,969456
3.84175,730112
3.84987,598293
3.85798,517645
3.86612,468345
3.87423,424129
3.88237,407537
3.89048,389747
3.89860,371414
3.90673,358792
3.91485,367342
3.92297,421546
3.93110,497947
3.93922,498954
3.94735,442726
3.95547,404695
3.96358,419159
3.97172,426096
3.97983,385869
3.98797,349460
3.99608,364225
4.00420,528813
4.01233,845373
4.02045,1012908
4.02858,861671
4.03670,593669
4.04482,428200
4.05295,356607
4.06107,332166
4.06918,305109
4.07732,279112
4.08543,264265
4.09357,253955
4.10168,237639
4.10980,230706
4.11793,235006
4.12605,228772
4.13418,240477
4.14230,301442
4.15042,407918
4.15855,449366
4.16667,395737
4.17478,339820
4.18292,287356
4.19103,253051
4.19917,245931
4.20728,364452
4.21540,1458045
4.22353,5308556
4.23165,1.140454E+07
4.23978,1.561779E+07
4.24790,1.496008E+07
4.25602,1.032871E+07
4.26415,6297801
4.27227,4169027
4.28040,2848681
4.28852,2078540
4.29663,1578979
4.30477,1271574
4.31288,1038215
4.32100,891952
4.32913,785470
4.33725,701445
4.34538,653858
4.35350,615015
4.36162,578582
4.36975,560780
4.37787,497314
4.38600,462814
4.39412,419969
4.40223,411498
4.41037,380922
4.41848,364050
4.42660,347760
4.43473,327649
4.44285,320348
4.45098,320720
4.45910,319603
4.46722,323603
4.47535,305380
4.48347,292710
4.49160,277429
4.49972,275192
4.50783,270850
4.51597,256863
4.52408,247893
4.53222,250799
4.54033,240162
4.54845,226180
4.55658,236448
4.56470,231822
4.57282,226819
4.58095,219273
4.58907,215733
4.59720,212034
4.60532,209800
4.61343,215027
4.62157,222467
4.62968,277723
4.63782,366281
4.64593,410710
4.65405,384170
4.66218,314183
4.67030,267559
4.67843,235558
4.68655,229751
4.69467,211149
4.70280,206639
4.71092,203098
4.71903,192130
4.72717,193555
4.73528,190726
4.74342,192766
4.75153,184414
4.75965,178291
4.76778,179670
4.77590,176525
4.78403,181719
4.79215,230368
4.80027,383539
4.80840,502706
4.81652,511367
4.82465,421859
4.83277,346228
4.84088,325810
4.84902,303405
4.85713,275526
4.86525,259972
4.87338,230173
4.88150,220379
4.88963,210383
4.89775,200647
4.90587,197571
4.91400,213345
4.92212,271905
4.93025,403361
4.93837,616284
4.94648,801019
4.95462,865330
4.96273,771826
4.97085,630562
4.97898,522740
4.98710,442687
4.99523,396727
5.00335,357671
5.01147,338904
5.01960,368689
5.02772,463679
5.03585,704906
5.04397,911723
5.05208,896150
5.06022,743184
5.06833,600115
5.07647,501804
5.08458,446106
5.09270,411389
5.10083,410165
5.10895,431778
5.11707,438024
5.12520,440421
5.13332,403567
5.14145,368786
5.14957,338876
5.15768,332012
5.16582,344198
5.17393,369408
5.18207,392413
5.19018,407878
5.19830,393205
5.20643,355711
5.21455,331605
5.22267,310443
5.23080,295997
5.23892,298694
5.24705,291783
5.25517,277495
5.26328,250117
5.27142,234649
5.27953,217243
5.28767,217117
5.29578,220559
5.30390,209088
5.31203,200519
5.32015,204976
5.32828,204085
5.33640,199460
5.34452,216714
5.35265,200604
5.36077,189683
5.36888,186642
5.37702,184517
5.38513,186998
5.39327,183743
5.40138,174319
5.40950,179432
5.41763,167963
5.42575,165779
5.43388,165912
5.44200,157318
5.45012,159392
5.45825,159029
5.46637,158613
5.47450,160824
5.48262,154856
5.49073,155148
5.49887,149187
5.50698,149447
5.51510,162226
5.52323,159141
5.53135,159777
5.53948,151318
5.54760,148850
5.55572,152182
5.56385,147871
5.57197,149806
5.58010,163620
5.58822,166945
5.59633,165517
5.60447,167484
5.61258,156101
5.62070,152340
5.62883,157299
5.63695,168201
5.64508,168945
5.65320,157168
5.66132,152663
5.66945,157197
5.67757,166411
5.68570,190804
5.69382,218390
5.70193,221652
5.71007,228233
5.71818,221206
5.72632,209349
5.73443,207801
5.74255,205081
5.75068,198743
5.75880,194713
5.76692,213167
5.77505,206406
5.78317,200118
5.79130,200074
5.79942,202557
5.80753,267163
5.81567,431708
5.82378,730181
5.83192,975615
5.84003,1103568
5.84815,939664
5.85628,673938
5.86440,458292
5.87253,348514
5.88065,283436
5.88877,241224
5.89690,227446
5.90502,245221
5.91313,284351
5.92127,364612
5.92938,453900
5.93752,494973
5.94563,462064
5.95375,384855
5.96188,321496
5.97000,306756
5.97813,292026
5.98625,294125
5.99437,294190
6.00250,274053
6.01062,239359
6.01873,210655
6.02687,192109
6.03498,173508
6.04312,154804
6.05123,154716
6.05935,143917
6.06748,145431
6.07560,130526
6.08373,129415
6.09185,131393
6.09997,124425
6.10810,124131
6.11622,126399
6.12435,139740
6.13247,204014
6.14058,284891
6.14872,331693
6.15683,322253
6.16495,260561
6.17308,216223
6.18120,190513
6.18933,190891
6.19745,192734
6.20557,196686
6.21370,197314
6.22182,183544
6.22995,173343
6.23807,164041
6.24618,164030
6.25432,165809
6.26243,162223
6.27055,163253
6.27868,161314
6.28680,166856
6.29493,170237
6.30305,180754
6.31117,175866
6.31930,178230
6.32742,193163
6.33555,204664
6.34367,218541
6.35178,213984
6.35992,210588
6.36803,202720
6.37617,189605
6.38428,195723
6.39240,193260
6.40053,191469
6.40865,196096
6.41677,193685
6.42490,191934
6.43302,187092
6.44115,196930
6.44927,196367
6.45738,206383
6.46552,210750
6.47363,205589
6.48177,202654
6.48988,213062
6.49800,220327
6.50613,216025
6.51425,224217
6.52238,222066
6.53050,221560
6.53862,222961
6.54675,227349
6.55487,224616
6.56298,231217
6.57112,229337
6.57923,237280
6.58737,227207
6.59548,236812
6.60360,230300
6.61173,224550
6.61985,204902
6.62798,153929
6.63610,133034
6.64422,126346
6.65235,127003
6.66047,121077
6.66858,120626
6.67672,120638
6.68483,128910
6.69297,133669
6.70108,146239
6.70920,168827
6.71733,176765
6.72545,167577
6.73358,152073
6.74170,135037
6.74982,112928
6.75795,101761
6.76607,105457
6.77420,95067
6.78232,92397
6.79043,90475
6.79857,91902
6.80668,105725
6.81480,116997
6.82293,162900
6.83105,257147
6.83918,370910
6.84730,498849
6.85542,554830
6.86355,510953
6.87167,394820
6.87980,274888
6.88792,191459
6.89603,144521
6.90417,117547
6.91228,109098
6.92042,95690
6.92853,93465
6.93665,86659
6.94478,82725
6.95290,84673
6.96102,90810
6.96915,101800
6.97727,125172
6.98540,156755
6.99352,193387
7.00163,233384
7.00977,245833
7.01788,220209
7.02602,189869
7.03413,145880
7.04225,122075
7.05038,109242
7.05850,95458
7.06662,87903
7.07475,87118
7.08287,86463
7.09100,83538
7.09912,80736
7.10723,81440
7.11537,82082
7.12348,80512
7.13162,81270
7.13973,86152
7.14785,91314
7.15598,101252
7.16410,113243
7.17223,163440
7.18035,337936
7.18847,739185
7.19660,1248825
7.20472,1527966
7.21283,1300623
7.22097,876558
7.22908,506744
7.23722,301787
7.24533,215603
7.25345,169685
7.26158,156811
7.26970,141248
7.27783,122487
7.28595,118727
7.29407,114460
7.30220,117350
7.31032,117605
7.31845,109312
7.32657,103217
7.33468,105091
7.34282,106924
7.35093,125354
7.35905,147940
7.36718,181965
7.37530,197896
7.38343,201974
7.39155,180870
7.39967,151054
7.40780,129641
7.41592,116379
7.42405,104898
7.43217,99676
7.44028,97434
7.44842,95311
7.45653,105264
7.46465,121790
7.47278,130176
7.48090,143917
7.48903,147443
7.49715,133435
7.50527,115198
7.51340,104705
7.52152,93846
7.52965,89592
7.53777,84534
7.54588,80141
7.55402,88960
7.56213,89197
7.57027,96897
7.57838,102135
7.58650,110350
7.59463,102897
7.60275,94263
7.61087,87724
7.61900,80354
7.62712,76016
7.63525,68400
7.64337,71681
7.65148,72138
7.65962,70206
7.66773,70823
7.67587,67294
7.68398,67646
7.69210,68231
7.70023,66905
7.70835,65786
7.71647,68720
7.72460,67664
7.73272,67172
7.74085,65802
7.74897,65946
7.75708,63833
7.76522,61476
7.77333,63088
7.78147,63841
7.78958,63434
7.79770,62593
7.80583,61474
7.81395,61902
7.82208,63654
7.83020,62508
7.83832,61995
7.84645,58098
7.85457,59000
7.86268,59502
7.87082,59604
7.87893,58689
7.88707,56471
7.89518,65006
7.90330,64721
7.91143,64026
7.91955,61026
7.92768,68076
7.93580,71108
7.94392,77590
7.95205,82849
7.96017,83840
7.96830,74950
7.97642,68424
7.98453,62608
7.99267,60503
8.00078,60012
8.00890,58496
8.01703,61077
8.02515,54856
8.03328,56137
8.04140,55304
8.04952,53502
8.05765,52071
8.06577,51850
8.07390,49166
8.08202,45788
8.09013,52783
8.09827,54766
8.10638,51502
8.11450,52089
8.12263,53550
8.13075,55320
8.13888,55060
8.14700,60152
8.15512,61681
8.16325,59315
8.17137,59248
8.17950,57104
8.18762,53936
8.19573,55868
8.20387,51546
8.21198,51044
8.22012,51852
8.22823,53898
8.23635,48938
8.24448,50691
8.25260,52429
8.26072,51299
8.26885,50742
8.27697,49749
8.28510,52834
8.29322,50863
8.30133,52523
8.30947,55393
8.31758,53142
8.32572,53018
8.33383,54888
8.34195,56565
8.35008,56521
8.35820,56494
8.36633,54544
8.37445,50572
8.38257,48489
8.39070,48040
8.39882,49333
8.40693,49859
8.41507,47153
8.42318,47890
8.43132,45487
8.43943,48817
8.44755,47188
8.45568,48684
8.46380,44437
8.47193,42407
8.48005,51310
8.48817,47197
8.49630,50989
8.50442,67676
8.51253,115859
8.52067,196320
8.52878,285587
8.53692,326384
8.54503,275912
8.55315,196636
8.56128,130822
8.56940,97082
8.57753,77121
8.58565,71653
8.59377,72869
8.60190,66254
8.61002,61785
8.61815,62153
8.62627,60524
8.63438,58172
8.64252,55689
8.65063,53119
8.65875,54173
8.66688,49307
8.67500,51091
8.68313,52943
8.69125,53492
8.69937,55430
8.70750,56596
8.71562,62828
8.72375,75112
8.73187,94754
8.73998,133367
8.74812,166943
8.75623,179303
8.76435,163522
8.77248,140159
8.78060,119081
8.78873,98318
8.79685,90023
8.80497,86293
8.81310,87435
8.82122,79090
8.82935,71884
8.83747,74311
8.84558,72183
8.85372,73204
8.86183,74886
8.86997,63058
8.87808,63676
8.88620,66183
8.89433,61205
8.90245,64600
8.91057,60711
8.91870,67578
8.92682,66948
8.93495,72395
8.94307,65795
8.95118,63585
8.95932,58291
8.96743,57533
8.97557,55733
8.98368,60092
8.99180,60547
8.99993,57434
9.00805,56215
9.01618,53960
9.02430,51694
9.03242,58664
9.04055,52714
9.04867,52472
9.05678,51115
9.06492,48215
9.07303,53028
9.08117,49733
9.08928,49581
9.09740,51564
9.10553,55679
9.11365,54682
9.12178,55452
9.12990,57036
9.13802,49577
9.14615,51131
9.15427,50815
9.16238,50226
9.17052,48824
9.17863,52448
9.18677,45523
9.19488,45597
9.20300,50634
9.21113,43558
9.21925,45634
9.22738,43668
9.23550,46425
9.24362,44674
9.25175,47062
9.25987,49977
9.26800,47154
9.27612,49028
9.28423,55307
9.29237,56781
9.30048,53645
9.30860,49428
9.31673,48045
9.32485,53762
9.33298,50688
9.34110,52155
9.34922,52331
9.35735,57104
9.36547,53762
9.37360,47898
9.38172,44639
9.38983,43232
9.39797,42881
9.40608,43361
9.41422,43531
9.42233,46369
9.43045,51387
9.43858,49447
9.44670,48530
9.45482,48018
9.46295,49292
9.47107,45564
9.47920,43166
9.48732,42231
9.49543,42426
9.50357,44313
9.51168,55114
9.51982,59469
9.52793,61676
9.53605,59510
9.54418,52651
9.55230,47786
9.56042,42310
9.56855,42020
9.57667,37919
9.58480,37714
9.59292,37223
9.60103,37996
9.60917,37323
9.61728,36948
9.62542,38591
9.63353,39398
9.64165,37517
9.64978,41316
9.65790,42236
9.66603,42431
9.67415,40950
9.68227,35133
9.69040,37026
9.69852,35331
9.70663,34493
9.71477,33459
9.72288,35048
9.73102,35272
9.73913,34766
9.74725,34765
9.75538,31403
9.76350,33368
9.77163,33715
9.77975,32742
9.78787,31547
9.79600,32727
9.80412,31140
9.81223,30193
9.82037,33774
9.82848,31648
9.83662,35219
9.84473,34636
9.85285,33140
9.86098,31837
9.86910,32061
9.87723,32068
9.88535,33747
9.89347,29954
9.90160,33892
9.90972,30489
9.91785,34587
9.92597,32952
9.93408,39791
9.94222,48848
9.95033,48606
9.95845,55577
9.96658,52462
9.97470,55426
9.98283,50941
9.99095,46522
9.99907,43901
10.00720,38118
10.01532,38048
10.02345,37320
10.03157,38049
10.03968,34422
10.04782,36748
10.05593,34306
10.06407,34350
10.07218,36553
10.08030,34817
10.08843,34333
10.09655,33556
10.10467,33457
10.11280,32960
10.12092,30695
10.12905,29468
10.13717,35038
10.14528,31199
10.15342,33157
10.16153,35082
10.16967,31627
10.17778,33092
10.18590,33222
10.19403,31093
10.20215,30506
10.21028,29775
10.21840,31273
10.22652,33820
10.23465,41219
10.24277,39479
10.25088,60873
10.25902,118452
10.26713,237504
10.27527,513174
10.28338,966633
10.29150,1659045
10.29963,2610431
10.30775,4184048
10.31588,6097882
10.32400,7447156
10.33212,7264467
10.34025,5499313
10.34837,3339238
10.35648,1793598
10.36462,994080
10.37273,656428
10.38087,469904
10.38898,386659
10.39710,313433
10.40523,252322
10.41335,210496
10.42148,185463
10.42960,166708
10.43772,153432
10.44585,134515
10.45397,125118
10.46210,120942
10.47022,116292
10.47833,101451
10.48647,94049
10.49458,99827
10.50270,88466
10.51083,87825
10.51895,87303
10.52708,83808
10.53520,80537
10.54332,83529
10.55145,80716
10.55957,73659
10.56770,75212
10.57582,75888
10.58393,71303
10.59207,67935
10.60018,67035
10.60830,65269
10.61643,58530
10.62455,59104
10.63268,61726
10.64080,58688
10.64892,55904
10.65705,55882
10.66517,51320
10.67330,54069
10.68142,52474
10.68953,53030
10.69767,57852
10.70578,56692
10.71392,52499
10.72203,56918
10.73015,54023
10.73828,56966
10.74640,53439
10.75452,54861
10.76265,50809
10.77077,57536
10.77890,47213
10.78702,51155
10.79513,45811
10.80327,46405
10.81138,47696
10.81952,43534
10.82763,44285
10.83575,47106
10.84388,42233
10.85200,42371
10.86013,39864
10.86825,42035
10.87637,39702
10.88450,42887
10.89262,41113
10.90073,39793
10.90887,40703
10.91698,39523
10.92512,38447
10.93323,38244
10.94135,39069
10.94948,39477
10.95760,40159
10.96573,39905
10.97385,38057
10.98197,42361
10.99010,40708
10.99822,37525
11.00633,38135
11.01447,37887
11.02258,39178
11.03072,35945
11.03883,36080
11.04695,36813
11.05508,37635
11.06320,36589
11.07133,35694
11.07945,42191
11.08757,36606
11.09570,36641
11.10382,36055
11.11195,37209
11.12007,37955
11.12818,35537
11.13632,37003
11.14443,35021
11.15255,37312
11.16068,38596
11.16880,35497
11.17693,33719
11.18505,37486
11.19317,34591
11.20130,37240
11.20942,34698
11.21755,34114
11.22567,34017
11.23378,35233
11.24192,33148
11.25003,34101
11.25817,32123
11.26628,36557
11.27440,43737
11.28253,52398
11.29065,56475
11.29877,66519
11.30690,65505
11.31502,66814
11.32315,73923
11.33127,83989
11.33938,89432
11.34752,96669
11.35563,90802
11.36377,91246
11.37188,78372
11.38000,67275
11.38813,60411
11.39625,56163
11.40437,53414
11.41250,47293
11.42062,42308
11.42875,42357
11.43687,42622
11.44498,39766
11.45312,44603
11.46123,41359
11.46937,43147
11.47748,46640
11.48560,52564
11.49373,58735
11.50185,63923
11.50998,60449
11.51810,60554
11.52622,54893
11.53435,55469
11.54247,61677
11.55058,53550
11.55872,47369
11.56683,47245
11.57497,42465
11.58308,48058
11.59120,51846
11.59933,63882
11.60745,71607
11.61558,73425
11.62370,73241
11.63182,59965
11.63995,53775
11.64807,48914
11.65618,47458
11.66432,44279
11.67243,45360
11.68057,49430
11.68868,48929
11.69680,52122
11.70493,55849
11.71305,56336
11.72118,58310
11.72930,51895
11.73742,49834
11.74555,50655
11.75367,45684
11.76180,42644
11.76992,39915
11.77803,42151
11.78617,43469
11.79428,38144
11.80240,36083
11.81053,38760
11.81865,36277
11.82678,38112
11.83490,38045
11.84302,37638
11.85115,36129
11.85927,42305
11.86740,35851
11.87552,33028
11.88363,38060
11.89177,35108
11.89988,35773
11.90802,36057
11.91613,40286
11.92425,40572
11.93238,42304
11.94050,47058
11.94862,44012
11.95675,39350
11.96487,40425
11.97300,42363
11.98112,41788
11.98923,45168
11.99737,47726
12.00548,50038
12.01362,50271
12.02173,46665
12.02985,45232
12.03798,38116
12.04610,37161
12.05422,34954
12.06235,35021
12.07047,36875
12.07860,34613
12.08672,39604
12.09483,36109
12.10297,33791
12.11108,37591
12.11922,34990
12.12733,33219
12.13545,31819
12.14358,35467
12.15170,31815
12.15983,30899
12.16795,28756
12.17607,31944
12.18420,30265
12.19232,30102
12.20043,29404
12.20857,31227
12.21668,30193
12.22482,30730
12.23293,29573
12.24105,29595
12.24918,30223
12.25730,28244
12.26543,31679
12.27355,29109
12.28167,26727
12.28980,27386
12.29792,34139
12.30605,30857
12.31417,28188
12.32228,29003
12.33042,30135
12.33853,27893
12.34665,29092
12.35478,29604
12.36290,28942
12.37103,28727
12.37915,32442
12.38727,35403
12.39540,44044
12.40352,54608
12.41165,69431
12.41977,79252
12.42788,73861
12.43602,65662
12.44413,53128
12.45225,40914
12.46038,42905
12.46850,40409
12.47663,36136
12.48475,36186
12.49287,34739
12.50100,33707
12.50912,33154
12.51725,31820
12.52537,39080
12.53348,42927
12.54162,57875
12.54973,79136
12.55787,81543
12.56598,84697
12.57410,84442
12.58223,63330
12.59035,51453
12.59847,42440
12.60660,40385
12.61472,40547
12.62285,36127
12.63097,38669
12.63908,37081
12.64722,34966
12.65533,36895
12.66347,32852
12.67158,35189
12.67970,32994
12.68783,32425
12.69595,30310
12.70408,28286
12.71220,26974
12.72032,30556
12.72845,29986
12.73657,30522
12.74468,30326
12.75282,28655
12.76093,29643
12.76907,33090
12.77718,32347
12.78530,29289
12.79343,29464
12.80155,32617
12.80968,31142
12.81780,29815
12.82592,31458
12.83405,30612
12.84217,31481
12.85028,34804
12.85842,30297
12.86653,29174
12.87467,27566
12.88278,29492
12.89090,29913
12.89903,26235
12.90715,27224
12.91528,29507
12.92340,29319
12.93152,31766
12.93965,35323
12.94777,38668
12.95590,51907
12.96402,58629
12.97213,71987
12.98027,74874
12.98838,69089
12.99650,65414
13.00463,55571
13.01275,54232
13.02088,50569
13.02900,44949
13.03712,44426
13.04525,40646
13.05337,42041
13.06150,35114
13.06962,38072
13.07773,32677
13.08587,32626
13.09398,34647
13.10210,32684
13.11023,33468
13.11835,39435
13.12648,33260
13.13460,32590
13.14272,31981
13.15085,31266
13.15897,32325
13.16710,33748
13.17522,30751
13.18333,30636
13.19147,35129
13.19958,30148
13.20772,35396
13.21583,32706
13.22395,28142
13.23208,29754
13.24020,28552
13.24832,32882
13.25645,31271
13.26457,33765
13.27270,37126
13.28082,36730
13.28893,34552
13.29707,33447
13.30518,36425
13.31332,36395
13.32143,35234
13.32955,33696
13.33768,36773
13.34580,32798
13.35393,32284
13.36205,32393
13.37017,33995
13.37830,30980
13.38642,30751
13.39453,30476
13.40267,28064
13.41078,31332
13.41892,28244
13.42703,28596
13.43515,30182
13.44328,29955
13.45140,27064
13.45953,28814
13.46765,28417
13.47577,28134
13.48390,30454
13.49202,27012
13.50013,26471
13.50827,25336
13.51638,25739
13.52452,29247
13.53263,28383
13.54075,38109
13.54888,29462
13.55700,27865
13.56513,30015
13.57325,29889
13.58137,35512
13.58950,41890
13.59762,51861
13.60575,65376
13.61387,83842
13.62198,90153
13.63012,86146
13.63823,79965
13.64635,65835
13.65448,51161
13.66260,53330
13.67073,45025
13.67885,44086
13.68697,42057
13.69510,38479
13.70322,35186
13.71135,37430
13.71947,35838
13.72758,35845
13.73572,41320
13.74383,51664
13.75197,69593
13.76008,108912
13.76820,132966
13.77633,160611
13.78445,175102
13.79257,166331
13.80070,146133
13.80882,117848
13.81695,112461
13.82507,102102
13.83318,98696
13.84132,97744
13.84943,98796
13.85757,84311
13.86568,69459
13.87380,62863
13.88193,58235
13.89005,56602
13.89817,55783
13.90630,53992
13.91442,50455
13.92255,46933
13.93067,48427
13.93878,47519
13.94692,48218
13.95503,44928
13.96317,48066
13.97128,44141
13.97940,43865
13.98753,44241
13.99565,46121
14.00378,44917
14.01190,41782
14.02002,44940
14.02815,44960
14.03627,39477
14.04438,39095
14.05252,40790
14.06063,38500
14.06877,37121
14.07688,37536
14.08500,36570
14.09313,35266
14.10125,32246
14.10938,32148
14.11750,37699
14.12562,40902
14.13375,45785
14.14187,59422
14.14998,64866
14.15812,72356
14.16623,73883
14.17437,68852
14.18248,64965
14.19060,59651
14.19873,58524
14.20685,53645
14.21498,53772
14.22310,53414
14.23122,48068
14.23935,47176
14.24747,43986
14.25560,44407
14.26372,45267
14.27183,43081
14.27997,40391
14.28808,35811
14.29620,36982
14.30433,35423
14.31245,34220
14.32058,34353
14.32870,31386
14.33682,34664
14.34495,32261
14.35307,39259
14.36120,33745
14.36932,34076
14.37743,35253
14.38557,45635
14.39368,62033
14.40182,85317
14.40993,106183
14.41805,134718
14.42618,133770
14.43430,113741
14.44242,92564
14.45055,72871
14.45867,62660
14.46680,56017
14.47492,48411
14.48303,43000
14.49117,42974
14.49928,41242
14.50742,36873
14.51553,41878
14.52365,37512
14.53178,37807
14.53990,33787
14.54803,31713
14.55615,33759
14.56427,34642
14.57240,37147
14.58052,34653
14.58863,33334
14.59677,29356
14.60488,28708
14.61302,32153
14.62113,32621
14.62925,31051
14.63738,30321
14.64550,31308
14.65363,30999
14.66175,29815
14.66987,25991
14.67800,29449
14.68612,28118
14.69423,28178
14.70237,29848
14.71048,28348
14.71862,26900
14.72673,28614
14.73485,29766
14.74298,27508
14.75110,27810
14.75923,29383
14.76735,31595
14.77547,34298
14.78360,47353
14.79172,79942
14.79985,162234
14.80797,350960
14.81608,678638
14.82422,1093604
14.83233,1299352
14.84045,1178864
14.84858,861900
14.85670,554032
14.86483,354282
14.87295,240987
14.88107,177083
14.88920,153246
14.89732,122762
14.90545,108126
14.91357,99178
14.92168,91911
14.92982,86422
14.93793,76363
14.94605,78228
14.95418,67955
14.96230,67058
14.97043,63343
14.97855,61787
14.98667,59601
14.99480,55733
15.00292,58925
15.01105,52264
15.01917,52908
15.02728,53365
15.03542,47321
15.04353,47206
15.05167,43793
15.05978,44532
15.06790,43018
15.07603,45138
15.08415,40855
15.09227,40382
15.10040,43315
15.10852,42891
15.11665,46106
15.12477,45143
15.13288,44083
15.14102,44819
15.14913,45701
15.15727,43669
15.16538,45985
15.17350,39617
15.18163,37640
15.18975,33220
15.19788,37355
15.20600,34260
15.21412,34711
15.22225,34227
15.23037,34536
15.23848,32939
15.24662,33087
15.25473,31401
15.26287,30756
15.27098,29138
15.27910,31992
15.28723,33396
15.29535,30023
15.30348,28888
15.31160,35391
15.31972,33480
15.32785,29723
15.33597,30812
15.34408,30468
15.35222,30946
15.36033,30958
15.36847,32176
15.37658,29907
15.38470,27656
15.39283,28375
15.40095,29785
15.40908,31258
15.41720,31346
15.42532,28730
15.43345,27226
15.44157,28434
15.44970,29656
15.45782,28238
15.46593,29471
15.47407,33493
15.48218,35780
15.49030,36172
15.49843,43991
15.50655,41186
15.51468,42756
15.52280,43081
15.53092,40224
15.53905,34100
15.54717,36939
15.55530,33704
15.56342,31165
15.57153,28581
15.57967,30262
15.58778,29649
15.59592,29885
15.60403,30608
15.61215,27236
15.62028,27991
15.62840,26315
15.63652,32437
15.64465,27778
15.65277,27880
15.66090,25752
15.66902,29096
15.67713,27535
15.68527,27598
15.69338,26473
15.70152,25407
15.70963,33172
15.71775,27614
15.72588,27711
15.73400,28550
15.74212,34795
15.75025,40319
15.75837,50739
15.76650,72882
15.77462,98235
15.78273,112056
15.79087,114817
15.79898,107127
15.80712,88225
15.81523,70100
15.82335,54913
15.83148,46862
15.83960,47263
15.84773,42408
15.85585,43455
15.86397,37940
15.87210,40880
15.88022,43344
15.88833,44919
15.89647,42686
15.90458,41595
15.91272,37777
15.92083,40918
15.92895,37219
15.93708,37428
15.94520,37281
15.95333,36844
15.96145,36489
15.96957,38556
15.97770,33153
15.98582,36698
15.99393,35644
16.00207,38723
16.01018,40289
16.01832,41551
16.02643,38231
16.03455,40675
16.04268,38714
16.05080,27403
16.05893,37504
16.06705,34032
16.07517,30143
16.08330,31914
16.09142,27960
16.09955,29809
16.10767,31787
16.11578,31102
16.12392,30190
16.13203,30385
16.14015,30051
16.14828,29329
16.15640,28884
16.16453,30200
16.17265,28316
16.18077,27818
16.18890,29407
16.19702,26778
16.20515,29194
16.21327,30494
16.22138,29025
16.22952,30198
16.23763,28492
16.24577,27166
16.25388,26664
16.26200,31403
16.27013,29883
16.27825,32205
16.28637,26304
16.29450,29809
16.30262,27748
16.31075,28749
16.31887,29199
16.32698,30848
16.33512,28268
16.34323,26834
16.35137,26876
16.35948,34333
16.36760,30212
16.37573,32319
16.38385,33864
16.39197,30944
16.40010,31230
16.40822,25835
16.41635,27042
16.42447,29839
16.43258,32475
16.44072,33905
16.44883,47640
16.45697,56636
16.46508,83574
16.47320,94067
16.48133,107428
16.48945,105615
16.49758,86749
16.50570,70920
16.51382,52420
16.52195,47608
16.53007,40743
16.53818,41319
16.54632,37965
16.55443,36134
16.56257,41620
16.57068,35935
16.57880,33465
16.58693,33592
16.59505,32659
16.60318,33093
16.61130,31962
16.61942,33431
16.62755,31496
16.63567,34884
16.64380,34066
16.65192,31361
16.66003,31258
16.66817,33562
16.67628,29979
16.68440,30539
16.69253,28437
16.70065,29362
16.70878,34236
16.71690,30815
16.72502,28865
16.73315,25786
16.74127,29006
16.74940,34036
16.75752,29180
16.76563,30608
16.77377,28605
16.78188,29595
16.79000,31117
16.79813,26762
16.80625,26220
16.81438,29810
16.82250,30246
16.83062,27290
16.83875,25951
16.84687,30627
16.85500,26146
16.86312,27835
16.87123,26449
16.87937,31141
16.88748,24712
16.89562,25471
16.90373,25772
16.91185,27137
16.91998,26677
16.92810,28806
16.93622,24354
16.94435,29603
16.95247,27382
16.96060,26066
16.96872,25590
16.97683,28682
16.98497,26724
16.99308,29411
17.00122,27173
17.00933,24529
17.01745,26902
17.02558,28381
17.03370,27960
17.04183,28969
17.04995,26934
17.05807,27308
17.06620,31342
17.07432,29457
17.08243,33499
17.09057,30731
17.09868,32796
17.10682,30832
17.11493,29895
17.12305,27450
17.13118,29678
17.13930,28051
17.14743,29082
17.15555,29480
17.16367,27876
17.17180,26983
17.17992,26900
17.18803,22971
17.19617,27101
17.20428,26485
17.21242,27045
17.22053,25569
17.22865,27636
17.23678,26437
17.24490,27496
17.25303,26556
17.26115,26845
17.26927,29236
17.27740,26785
17.28552,26714
17.29365,27147
17.30177,25873
17.30988,26860
17.31802,26595
17.32613,26219
17.33425,29298
17.34238,28177
17.35050,32864
17.35863,29611
17.36675,30864
17.37487,30596
17.38300,32425
17.39112,31652
17.39925,31186
17.40737,30934
17.41548,33304
17.42362,29746
17.43173,30674
17.43985,28813
17.44798,31148
17.45610,29247
17.46423,34202
17.47235,27324
17.48047,27604
17.48860,27679
17.49672,27993
17.50485,29273
17.51297,29423
17.52108,32464
17.52922,34236
17.53733,35800
17.54547,40314
17.55358,40969
17.56170,50359
17.56983,65773
17.57795,83973
17.58607,111214
17.59420,134003
17.60232,140204
17.61045,138993
17.61857,117854
17.62668,99939
17.63482,83784
17.64293,67167
17.65107,58440
17.65918,52358
17.66730,51699
17.67543,50873
17.68355,49151
17.69168,48564
17.69980,46445
17.70792,48401
17.71605,45480
17.72417,39624
17.73228,40703
17.74042,39850
17.74853,37310
17.75667,39784
17.76478,35703
17.77290,38066
17.78103,34962
17.78915,33943
17.79728,37452
17.80540,35627
17.81352,37357
17.82165,37256
17.82977,38625
17.83788,36067
17.84602,40747
17.85413,40434
17.86227,38070
17.87038,39339
17.87850,38875
17.88663,34950
17.89475,38321
17.90288,34580
17.91100,33259
17.91912,32562
17.92725,32922
17.93537,30504
17.94350,30697
17.95162,31313
17.95973,29255
17.96787,28283
17.97598,28197
17.98410,30392
17.99223,30250
18.00035,31926
18.00848,37908
18.01660,37823
18.02472,41990
18.03285,46775
18.04097,41911
18.04910,42608
18.05722,43333
18.06533,45122
18.07347,51064
18.08158,66894
18.08972,95691
18.09783,150289
18.10595,199681
18.11408,242511
18.12220,249579
18.13032,269469
18.13845,279507
18.14657,280521
18.15470,294989
18.16282,299504
18.17093,299564
18.17907,288713
18.18718,290812
18.19532,291189
18.20343,291712
18.21155,292937
18.21968,289073
18.22780,288409
18.23592,270722
18.24405,270770
18.25217,269130
18.26030,261486
18.26842,258650
18.27653,254643
18.28467,249775
18.29278,240601
18.30092,242749
18.30903,230518
18.31715,229179
18.32528,225428
18.33340,216675
18.34153,216235
18.34965,212309
18.35777,202972
18.36590,198856
18.37402,200987
18.38213,193303
18.39027,185888
18.39838,196059
18.40652,182310
18.41463,177399
18.42275,181449
18.43088,180138
18.43900,183970
18.44713,188715
18.45525,195913
18.46337,207296
18.47150,206698
18.47962,209138
18.48773,200225
18.49587,193293
18.50398,178320
18.51212,168314
18.52023,158970
18.52835,152519
18.53648,145849
18.54460,149476
18.55273,141208
18.56085,129746
18.56897,134723
18.57710,127852
18.58522,130678
18.59335,130861
18.60147,127887
18.60958,126578
18.61772,125902
18.62583,126112
18.63395,114113
18.64208,119655
18.65020,113562
18.65833,111519
18.66645,108840
18.67457,108514
18.68270,104742
18.69082,101699
18.69895,101098
18.70707,103038
18.71518,95209
18.72332,96270
18.73143,93520
18.73957,88793
18.74768,90528
18.75580,85335
18.76393,87591
18.77205,84772
18.78017,85286
18.78830,82943
18.79642,83882
18.80455,83563
18.81267,84775
18.82078,81429
18.82892,75162
18.83703,79558
18.84517,73664
18.85328,72659
18.86140,69612
18.86953,70943
18.87765,72068
18.88578,75381
18.89390,70360
18.90202,66910
18.91015,73860
18.91827,71908
18.92638,70315
18.93452,74875
18.94263,75783
18.95077,70215
18.95888,68521
18.96700,69710
18.97513,64003
18.98325,63815
18.99138,64579
18.99950,62500
19.00762,62702
19.01575,62697
19.02387,58537
19.03198,62476
19.04012,59489
19.04823,60055
19.05637,57687
19.06448,57458
19.07260,63598
19.08073,73148
19.08885,85075
19.09698,84953
19.10510,86621
19.11322,89962
19.12135,83537
19.12947,75814
19.13760,69790
19.14572,65142
19.15383,70097
19.16197,64755
19.17008,62506
19.17820,61903
19.18633,62836
19.19445,57429
19.20258,56184
19.21070,53005
19.21882,53908
19.22695,52584
19.23507,50658
19.24320,51223
19.25132,49469
19.25943,48121
19.26757,51622
19.27568,49760
19.28380,50741
19.29193,48326
19.30005,47533
19.30818,45833
19.31630,49196
19.32442,49010
19.33255,52118
19.34067,46843
19.34880,48263
19.35692,54355
19.36503,56812
19.37317,58692
19.38128,54226
19.38942,51315
19.39753,49318
19.40565,50368
19.41378,49341
19.42190,53598
19.43002,59644
19.43815,73507
19.44627,75554
19.45440,75543
19.46252,68204
19.47063,67317
19.47877,56899
19.48688,54854
19.49502,46303
19.50313,48515
19.51125,42264
19.51938,45228
19.52750,46923
19.53563,44261
19.54375,45856
19.55187,43720
19.56000,40989
19.56812,39724
19.57623,39253
19.58437,39084
19.59248,37543
19.60062,39889
19.60873,42360
19.61685,41902
19.62498,56377
19.63310,70176
19.64123,91419
19.64935,114109
19.65747,131907
19.66560,141705
19.67372,128056
19.68183,116012
19.68997,103836
19.69808,94950
19.70622,82415
19.71433,73773
19.72245,65445
19.73058,58107
19.73870,57776
19.74683,50200
19.75495,50759
19.76307,52255
19.77120,50819
19.77932,50775
19.78745,49380
19.79557,50068
19.80368,46864
19.81182,48345
19.81993,45326
19.82805,44677
19.83618,42692
19.84430,43798
19.85243,49179
19.86055,49669
19.86867,70889
19.87680,89721
19.88492,121006
19.89305,159942
19.90117,171232
19.90928,161619
19.91742,138461
19.92553,114831
19.93367,94043
19.94178,81151
19.94990,71480
19.95803,66411
19.96615,61067
19.97427,58829
19.98240,61846
19.99052,59900
19.99865,58408
20.00677,60325
20.01488,55154
20.02302,55326
20.03113,53164
20.03927,53129
20.04738,50874
20.05550,53861
20.06363,46560
20.07175,44933
20.07987,45670
20.08800,42595
20.09612,44286
20.10425,47536
20.11237,43047
20.12048,40537
20.12862,38854
20.13673,40259
20.14487,39127
20.15298,40897
20.16110,40470
20.16923,43821
20.17735,42467
20.18548,44919
20.19360,44238
20.20172,48638
20.20985,51495
20.21797,50280
20.22608,59356
20.23422,73013
20.24233,83159
20.25047,98452
20.25858,100044
20.26670,102949
20.27483,91997
20.28295,91205
20.29108,71821
20.29920,65913
20.30732,58979
20.31545,51189
20.32357,41690
20.33168,46747
20.33982,44469
20.34793,40409
20.35607,40931
20.36418,37881
20.37230,40292
20.38043,38288
20.38855,40375
20.39668,45494
20.40480,44948
20.41292,44909
20.42105,52917
20.42917,53543
20.43730,48127
20.44542,43868
20.45353,42276
20.46167,37635
20.46978,37282
20.47790,38282
20.48603,37692
20.49415,37032
20.50228,35757
20.51040,33968
20.51852,36016
20.52665,33849
20.53477,33220
20.54290,37325
20.55102,34329
20.55913,34094
20.56727,35028
20.57538,30780
20.58352,33183
20.59163,32242
20.59975,36444
20.60788,32057
20.61600,35472
20.62412,32063
20.63225,31226
20.64037,33027
20.64850,35720
20.65662,31458
20.66473,34451
20.67287,31969
20.68098,34122
20.68912,30749
20.69723,33730
20.70535,29441
20.71348,32927
20.72160,29829
20.72972,33644
20.73785,32089
20.74597,31981
20.75410,32233
20.76222,35628
20.77033,35186
20.77847,39089
20.78658,45701
20.79472,52403
20.80283,65227
20.81095,71273
20.81908,72634
20.82720,64045
20.83533,59609
20.84345,53304
20.85157,45074
20.85970,39018
20.86782,37960
20.87593,42230
20.88407,35787
20.89218,34464
20.90032,33153
20.90843,33591
20.91655,33718
20.92468,36894
20.93280,39545
20.94093,37010
20.94905,34042
20.95717,33569
20.96530,32736
20.97342,32947
20.98155,32376
20.98967,31021
20.99778,32244
21.00592,32711
21.01403,32152
21.02215,31728
21.03028,31226
21.03840,30839
21.04653,28989
21.05465,30619
21.06277,30136
21.07090,30593
21.07902,29573
21.08715,30252
21.09527,28993
21.10338,29395
21.11152,37380
21.11963,32499
21.12775,34903
21.13588,38343
21.14400,46631
21.15213,47395
21.16025,51474
21.16837,49259
21.17650,44892
21.18462,38766
21.19275,38046
21.20087,37538
21.20898,35986
21.21712,33251
21.22523,32295
21.23337,32096
21.24148,38681
21.24960,36299
21.25773,40233
21.26585,42912
21.27397,44838
21.28210,41683
21.29022,44955
21.29835,42269
21.30647,41781
21.31458,44246
21.32272,42602
21.33083,43861
21.33897,44744
21.34708,51872
21.35520,46266
21.36333,47322
21.37145,47886
21.37957,43106
21.38770,43520
21.39582,43496
21.40395,46752
21.41207,45455
21.42018,44099
21.42832,44815
21.43643,44228
21.44457,45313
21.45268,43858
21.46080,43316
21.46893,43334
21.47705,44854
21.48518,43356
21.49330,42510
21.50142,49588
21.50955,47349
21.51767,43974
21.52578,45070
21.53392,46047
21.54203,48070
21.55017,43702
21.55828,49287
21.56640,50222
21.57453,58961
21.58265,62597
21.59078,68982
21.59890,76396
21.60702,69762
21.61515,63766
21.62327,60912
21.63140,56487
21.63952,53130
21.64763,48690
21.65577,44007
21.66388,45772
21.67200,45042
21.68013,45061
21.68825,41196
21.69638,41005
21.70450,40666
21.71262,36543
21.72075,37719
21.72887,37874
21.73700,39755
21.74512,37764
21.75323,34852
21.76137,34469
21.76948,44167
21.77760,48338
21.78573,50238
21.79385,50071
21.80198,55108
21.81010,51518
21.81822,46433
21.82635,41083
21.83447,40701
21.84260,37256
21.85072,34973
21.85883,33965
21.86697,36223
21.87508,36384
21.88322,33583
21.89133,38303
21.89945,34606
21.90758,33798
21.91570,32646
21.92382,33097
21.93195,32994
21.94007,38453
21.94820,52050
21.95632,72077
21.96443,88676
21.97257,95563
21.98068,97911
21.98882,104411
21.99693,101453
22.00505,108177
22.01318,108244
22.02130,109086
22.02943,120212
22.03755,113982
22.04567,116142
22.05380,122232
22.06192,110745
22.07003,110133
22.07817,106187
22.08628,115756
22.09442,114090
22.10253,107092
22.11065,106777
22.11878,101814
22.12690,99598
22.13503,105195
22.14315,94625
22.15127,97481
22.15940,93317
22.16752,97976
22.17563,93563
22.18377,95279
22.19188,93758
22.20002,89527
22.20813,85820
22.21625,91777
22.22438,84141
22.23250,79658
22.24063,82994
22.24875,78468
22.25687,76032
22.26500,72747
22.27312,78848
22.28125,77180
22.28937,72683
22.29748,69902
22.30562,72389
22.31373,72005
22.32185,68601
22.32998,66131
22.33810,71064
22.34623,65309
22.35435,63173
22.36247,60256
22.37060,65554
22.37872,69466
22.38685,62050
22.39497,65708
22.40308,70071
22.41122,69528
22.41933,69910
22.42747,65488
22.43558,67219
22.44370,62714
22.45183,59316
22.45995,55637
22.46807,53263
22.47620,53243
22.48432,58417
22.49245,52305
22.50057,60749
22.50868,52646
22.51682,50816
22.52493,51044
22.53307,43012
22.54118,46736
22.54930,48486
22.55743,45707
22.56555,47389
22.57367,42711
22.58180,44303
22.58992,42356
22.59805,39665
22.60617,41851
22.61428,43981
22.62242,39043
22.63053,38452
22.63867,39718
22.64678,36845
22.65490,39667
22.66303,39523
22.67115,39027
22.67928,42155
22.68740,43597
22.69552,44686
22.70365,48253
22.71177,45930
22.71988,43258
22.72802,46362
22.73613,44007
22.74427,42805
22.75238,45680
22.76050,44734
22.76863,40824
22.77675,39366
22.78488,43950
22.79300,44256
22.80112,50682
22.80925,46527
22.81737,46155
22.82548,45408
22.83362,41230
22.84173,40819
22.84987,37866
22.85798,43040
22.86610,40366
22.87423,42833
22.88235,43430
22.89048,48901
22.89860,59743
22.90672,73891
22.91485,93960
22.92297,113925
22.93110,124907
22.93922,127969
22.94733,116126
22.95547,100783
22.96358,91460
22.97170,82269
22.97983,74755
22.98795,69770
22.99608,65360
23.00420,59582
23.01232,58130
23.02045,51434
23.02857,49496
23.03670,48752
23.04482,45851
23.05293,48181
23.06107,49675
23.06918,43220
23.07732,40190
23.08543,44886
23.09355,42409
23.10168,41840
23.10980,38523
23.11792,40329
23.12605,40831
23.13417,38820
23.14230,41129
23.15042,41039
23.15853,37271
23.16667,37427
23.17478,35384
23.18292,40298
23.19103,35914
23.19915,34669
23.20728,33053
23.21540,32696
23.22352,33682
23.23165,34533
23.23977,34592
23.24790,35397
23.25602,38317
23.26413,35602
23.27227,35724
23.28038,36641
23.28852,35803
23.29663,33810
23.30475,34301
23.31288,35403
23.32100,35591
23.32913,33053
23.33725,34513
23.34537,37292
23.35350,42609
23.36162,40648
23.36973,43550
23.37787,47478
23.38598,45142
23.39412,42316
23.40223,37676
23.41035,37229
23.41848,36467
23.42660,37233
23.43473,33089
23.44285,35877
23.45097,33033
23.45910,34089
23.46722,33545
23.47535,36378
23.48347,35147
23.49158,29892
23.49972,32101
23.50783,31700
23.51595,29418
23.52408,34052
23.53220,31374
23.54033,35489
23.54845,32008
23.55657,34132
23.56470,35315
23.57282,39393
23.58095,42417
23.58907,47709
23.59718,56056
23.60532,53707
23.61343,53735
23.62155,48640
23.62968,44580
23.63780,40769
23.64593,40764
23.65405,42359
23.66217,45881
23.67030,43332
23.67842,39820
23.68655,39235
23.69467,41486
23.70278,45981
23.71092,58154
23.71903,78299
23.72717,101652
23.73528,145584
23.74340,228336
23.75153,418592
23.75965,831842
23.76777,1442539
23.77590,2113646
23.78402,2675660
23.79215,2767731
23.80027,2440084
23.80838,1984418
23.81652,1504605
23.82463,1149780
23.83277,900605
23.84088,704349
23.84900,590167
23.85713,506116
23.86525,441284
23.87337,398282
23.88150,356012
23.88962,326249
23.89775,299014
23.90587,283584
23.91398,264154
23.92212,257822
23.93023,243494
23.93837,222303
23.94648,214694
23.95460,210369
23.96273,192216
23.97085,192516
23.97898,176513
23.98710,174834
23.99522,172321
24.00335,167307
24.01147,162722
24.01958,167954
24.02772,161372
24.03583,162461
24.04397,160021
24.05208,155426
24.06020,147993
24.06833,145391
24.07645,138818
24.08458,132471
24.09270,121162
24.10082,123506
24.10895,121364
24.11707,113778
24.12520,123373
24.13332,121521
24.14143,127860
24.14957,117572
24.15768,124747
24.16580,121748
24.17393,116237
24.18205,112688
24.19018,106466
24.19830,100588
24.20642,97452
24.21455,97215
24.22267,89338
24.23080,89643
24.23892,84223
24.24703,81755
24.25517,80284
24.26328,75886
24.27142,79305
24.27953,78724
24.28765,74663
24.29578,76339
24.30390,75344
24.31202,79545
24.32015,83325
24.32827,93234
24.33640,95581
24.34452,82238
24.35263,78224
24.36077,79715
24.36888,69467
24.37702,69089
24.38513,68964
24.39325,66768
24.40138,67462
24.40950,64406
24.41762,69243
24.42575,67670
24.43387,78532
24.44200,77695
24.45012,78533
24.45823,80740
24.46637,76743
24.47448,70105
24.48262,67533
24.49073,63516
24.49885,59461
24.50698,56483
24.51510,58304
24.52323,56103
24.53135,58936
24.53947,59988
24.54760,64369
24.55572,62105
24.56383,59032
24.57197,55963
24.58008,55520
24.58822,49856
24.59633,49152
24.60445,51351
24.61258,49068
24.62070,48771
24.62883,50403
24.63695,46755
24.64507,45613
24.65320,46184
24.66132,47370
24.66943,44710
24.67757,43462
24.68568,43913
24.69382,44429
24.70193,40916
24.71005,43006
24.71818,46407
24.72630,42056
24.73443,43792
24.74255,42593
24.75067,47433
24.75880,44370
24.76692,46832
24.77505,45484
24.78317,48592
24.79128,47725
24.79942,46867
24.80753,46695
24.81565,48565
24.82378,50718
24.83190,49175
24.84003,55486
24.84815,63163
24.85627,72798
24.86440,82971
24.87252,92236
24.88065,101124
24.88877,107589
24.89688,98930
24.90502,85693
24.91313,78334
24.92127,64775
24.92938,57737
24.93750,56005
24.94563,71619
24.95375,87445
24.96187,103925
24.97000,117320
24.97812,131699
24.98625,133516
24.99437,141006
25.00248,141097
25.01062,145723
25.01873,141864
25.02687,141279
25.03498,143651
25.04310,138498
25.05123,140298
25.05935,142073
25.06747,134823
25.07560,134182
25.08372,139250
25.09185,147324
25.09997,171525
25.10808,212273
25.11622,298335
25.12433,432801
25.13247,568186
25.14058,705360
25.14870,723985
25.15683,666559
25.16495,542910
25.17308,394259
25.18120,287833
25.18932,219428
25.19745,187266
25.20557,168129
25.21368,154820
25.22182,150133
25.22993,155556
25.23807,175450
25.24618,217361
25.25430,269978
25.26243,309117
25.27055,332095
25.27868,318069
25.28680,281054
25.29492,216775
25.30305,182210
25.31117,143534
25.31930,125251
25.32742,114133
25.33553,114499
25.34367,95827
25.35178,92414
25.35990,93022
25.36803,89745
25.37615,81109
25.38428,82605
25.39240,82847
25.40052,88566
25.40865,83264
25.41677,77213
25.42490,72934
25.43302,72427
25.44113,70452
25.44927,71620
25.45738,67590
25.46550,64810
25.47363,69068
25.48175,65906
25.48988,71633
25.49800,63924
25.50612,63002
25.51425,60859
25.52237,61178
25.53050,59873
25.53862,62918
25.54673,57428
25.55487,60594
25.56298,55359
25.57112,54375
25.57923,56164
25.58735,56306
25.59548,53426
25.60360,55572
25.61172,53865
25.61985,52966
25.62797,54199
25.63610,53705
25.64422,51130
25.65233,47729
25.66047,47374
25.66858,47475
25.67672,51807
25.68483,50226
25.69295,45056
25.70108,48424
25.70920,48009
25.71732,45153
25.72545,53206
25.73357,44815
25.74170,41570
25.74982,45361
25.75793,43142
25.76607,44395
25.77418,45244
25.78232,49381
25.79043,42194
25.79855,43383
25.80668,48067
25.81480,43059
25.82293,44292
25.83105,42922
25.83917,39398
25.84730,40713
25.85542,41249
25.86353,43180
25.87167,41900
25.87978,39139
25.88792,40902
25.89603,38700
25.90415,38715
25.91228,38679
25.92040,38479
25.92853,41377
25.93665,38410
25.94477,42913
25.95290,38876
25.96102,39923
25.96915,43953
25.97727,37322
25.98538,39661
25.99352,35518
26.00163,35699
26.00975,37832
26.01788,40686
26.02600,36505
26.03413,38849
26.04225,45267
26.05037,41166
26.05850,37961
26.06662,36957
26.07475,38614
26.08287,37694
26.09098,37028
26.09912,39743
26.10723,39479
26.11535,40435
26.12348,39206
26.13160,39330
26.13973,45071
26.14785,40838
26.15597,43448
26.16410,42252
26.17222,44047
26.18035,43685
26.18847,40702
26.19658,41482
26.20472,38137
26.21283,39651
26.22097,41558
26.22908,36805
26.23720,38591
26.24533,41740
26.25345,39066
26.26157,39833
26.26970,37846
26.27782,36619
26.28595,34556
26.29407,39233
26.30218,38086
26.31032,35475
26.31843,38419
26.32657,35711
26.33468,38924
26.34280,37086
26.35093,36386
26.35905,36711
26.36718,35536
26.37530,38305
26.38342,35834
26.39155,36781
26.39967,38097
26.40778,38808
26.41592,37789
26.42403,38293
26.43217,36785
26.44028,33725
26.44840,34888
26.45653,39207
26.46465,40391
26.47278,37819
26.48090,35899
26.48902,39209
26.49715,34949
26.50527,35487
26.51338,37048
26.52152,39393
26.52963,36240
26.53777,34051
26.54588,35851
26.55400,36322
26.56213,36439
26.57025,33407
26.57838,34802
26.58650,31454
26.59462,31008
26.60275,32703
26.61087,38730
26.61900,39289
26.62712,36558
26.63523,32431
26.64337,34201
26.65148,34789
26.65960,37441
26.66773,31317
26.67585,38194
26.68398,35364
26.69210,35418
26.70022,34938
26.70835,34498
26.71647,33809
26.72460,36527
26.73272,33077
26.74083,32788
26.74897,32219
26.75708,37041
26.76520,31974
26.77333,36109
26.78145,34752
26.78958,38347
26.79770,36674
26.80582,37944
26.81395,38009
26.82207,35026
26.83020,32445
26.83832,35372
26.84643,32527
26.85457,34767
26.86268,29851
26.87082,31828
26.87893,32946
26.88705,31415
26.89518,31919
26.90330,34152
26.91142,34748
26.91955,37571
26.92767,37224
26.93580,36706
26.94392,49281
26.95203,68310
26.96017,105494
26.96828,170121
26.97642,254148
26.98453,368319
26.99265,442995
27.00078,497010
27.00890,472741
27.01703,448535
27.02515,385380
27.03327,310989
27.04140,252023
27.04952,201543
27.05763,160465
27.06577,133008
27.07388,107626
27.08202,100593
27.09013,87347
27.09825,83385
27.10638,81398
27.11450,75823
27.12263,74624
27.13075,71539
27.13887,67846
27.14700,66787
27.15512,66962
27.16323,69413
27.17137,72119
27.17948,64985
27.18762,63695
27.19573,56275
27.20385,57416
27.21198,51236
27.22010,53170
27.22823,49998
27.23635,50567
27.24447,52109
27.25260,53199
27.26072,50092
27.26885,45228
27.27697,45909
27.28508,44100
27.29322,42847
27.30133,45595
27.30945,44801
27.31758,46853
27.32570,43486
27.33383,41514
27.34195,43527
27.35007,41780
27.35820,40073
27.36632,43162
27.37445,43186
27.38257,39196
27.39068,43470
27.39882,44006
27.40693,39406
27.41507,39121
27.42318,38194
27.43130,42615
27.43943,41652
27.44755,42636
27.45567,41212
27.46380,41565
27.47192,40393
27.48005,40705
27.48817,39444
27.49628,39852
27.50442,41238
27.51253,38195
27.52067,38753
27.52878,41080
27.53690,38660
27.54503,39710
27.55315,39363
27.56127,42452
27.56940,38947
27.57752,39133
27.58565,42886
27.59377,38896
27.60188,37727
27.61002,36648
27.61813,38579
27.62627,36789
27.63438,37120
27.64250,37635
27.65063,35291
27.65875,37832
27.66688,33673
27.67500,33384
27.68312,37167
27.69125,35188
27.69937,35648
27.70748,31912
27.71562,35205
27.72373,36316
27.73187,35587
27.73998,37270
27.74810,40521
27.75623,40343
27.76435,43205
27.77248,45476
27.78060,42095
27.78872,40437
27.79685,42216
27.80497,36880
27.81310,38044
27.82122,40323
27.82933,34454
27.83747,33781
27.84558,33127
27.85370,36788
27.86183,30569
27.86995,31730
27.87808,33192
27.88620,32137
27.89432,34764
27.90245,32725
27.91057,36113
27.91870,30533
27.92682,30330
27.93493,30642
27.94307,30182
27.95118,30045
27.95930,34250
27.96743,32149
27.97555,33629
27.98368,38540
27.99180,39329
27.99992,34528
28.00805,39989
28.01617,41340
28.02430,36816
28.03242,35932
28.04053,36909
28.04867,36985
28.05678,36459
28.06492,35138
28.07303,37156
28.08115,38478
28.08928,32990
28.09740,35700
28.10552,42551
28.11365,43890
28.12177,44550
28.12990,44145
28.13802,41295
28.14613,41437
28.15427,38921
28.16238,36662
28.17052,32795
28.17863,32690
28.18675,33191
28.19488,36975
28.20300,35710
28.21112,38334
28.21925,36626
28.22737,35393
28.23550,35887
28.24362,34788
28.25173,39487
28.25987,44425
28.26798,48923
28.27612,63374
28.28423,72017
28.29235,85178
28.30048,96652
28.30860,111114
28.31673,117395
28.32485,114471
28.33297,111410
28.34110,110753
28.34922,99736
28.35733,88636
28.36547,91825
28.37358,76763
28.38172,70793
28.38983,72477
28.39795,63267
28.40608,60842
28.41420,50674
28.42233,56104
28.43045,50789
28.43857,50690
28.44670,42103
28.45482,44423
28.46295,44245
28.47107,42875
28.47918,41506
28.48732,38964
28.49543,39030
28.50355,41103
28.51168,37052
28.51980,40677
28.52793,39429
28.53605,38654
28.54417,35649
28.55230,33655
28.56042,35595
28.56855,38628
28.57667,34277
28.58478,36517
28.59292,37338
28.60103,35277
28.60915,33796
28.61728,37555
28.62540,34680
28.63353,37191
28.64165,41547
28.64977,38086
28.65790,41817
28.66602,42582
28.67415,45359
28.68227,42582
28.69038,49983
28.69852,47213
28.70663,43960
28.71477,45366
28.72288,37296
28.73100,34432
28.73913,34517
28.74725,32913
28.75537,34286
28.76350,33904
28.77162,29825
28.77975,35892
28.78787,36707
28.79598,32804
28.80412,33235
28.81223,34976
28.82037,32592
28.82848,32744
28.83660,36983
28.84473,32695
28.85285,34349
28.86098,34340
28.86910,30997
28.87722,32993
28.88535,35548
28.89347,34805
28.90158,35185
28.90972,35798
28.91783,31999
28.92597,29869
28.93408,31587
28.94220,35262
28.95033,36009
28.95845,34924
28.96658,34516
28.97470,32171
28.98282,32025
28.99095,31415
28.99907,32063
29.00718,33521
29.01532,30495
29.02343,30674
29.03157,29125
29.03968,34249
29.04780,36041
29.05593,33959
29.06405,33322
29.07218,37319
29.08030,38394
29.08842,32497
29.09655,32907
29.10467,31669
29.11280,36249
29.12092,32455
29.12903,32455
29.13717,30424
29.14528,30784
29.15340,30618
29.16153,29422
29.16965,30446
29.17778,33111
29.18590,34558
29.19402,36893
29.20215,37521
29.21027,38588
29.21840,39433
29.22652,36499
29.23463,42513
29.24277,40865
29.25088,39589
29.25900,37274
29.26713,37000
29.27525,35582
29.28338,34670
29.29150,33721
29.29962,33650
29.30775,33322
29.31587,30940
29.32400,30098
29.33212,29268
29.34023,32068
29.34837,30697
29.35648,27486
29.36462,27931
29.37273,29829
29.38085,31761
29.38898,31997
29.39710,29735
29.40522,31441
29.41335,30912
29.42147,37261
29.42960,29925
29.43772,27157
29.44583,31579
29.45397,30275
29.46208,32735
29.47022,31629
29.47833,29884
29.48645,32006
29.49458,33598
29.50270,34543
29.51083,31081
29.51895,32153
29.52707,36450
29.53520,34571
29.54332,31529
29.55143,30877
29.55957,29014
29.56768,28412
29.57582,29706
29.58393,29358
29.59205,31127
29.60018,30272
29.60830,33473
29.61643,30361
29.62455,33225
29.63267,32532
29.64080,29963
29.64892,26258
29.65705,29118
29.66517,28999
29.67328,30123
29.68142,29823
29.68953,30723
29.69765,28036
29.70578,27730
29.71390,29643
29.72203,31012
29.73015,30184
29.73827,29503
29.74640,27236
29.75452,28556
29.76265,29900
29.77077,26134
29.77888,27541
29.78702,28824
29.79513,29062
29.80325,27697
29.81138,25978
29.81950,30240
29.82763,32087
29.83575,27253
29.84387,28520
29.85200,31240
29.86012,32263
29.86825,38843
29.87637,47245
29.88448,53556
29.89262,61419
29.90073,64744
29.90887,64434
29.91698,63063
29.92510,60025
29.93323,62571
29.94135,58554
29.94947,65073
29.95760,62723
29.96572,60042
29.97385,60926
29.98197,58070
29.99008,59183
29.99822,52377
30.00633,51652
30.01447,51837
30.02258,47155
30.03070,49864
30.03883,43735
30.04695,45233
30.05507,52325
30.06320,51783
30.07132,54431
30.07945,55282
30.08757,52898
30.09568,49849
30.10382,54593
30.11193,56083
30.12007,49730
30.12818,43853
30.13630,50692
30.14443,46961
30.15255,45532
30.16068,49330
30.16880,46715
30.17692,43773
30.18505,48019
30.19317,44608
30.20128,48199
30.20942,46174
30.21753,42255
30.22567,42004
30.23378,41502
30.24190,41979
30.25003,37397
30.25815,41082
30.26628,39337
30.27440,40123
30.28252,38954
30.29065,37528
30.29877,36405
30.30690,35177
30.31502,35323
30.32313,37047
30.33127,40951
30.33938,37789
30.34750,38408
30.35563,40671
30.36375,35246
30.37188,38562
30.38000,38184
30.38812,34344
30.39625,36221
30.40437,32122
30.41250,33923
30.42062,35955
30.42873,36100
30.43687,34759
30.44498,31677
30.45310,33067
30.46123,34600
30.46935,31984
30.47748,33096
30.48560,33853
30.49372,34750
30.50185,32037
30.50997,34340
30.51810,29290
30.52622,30204
30.53433,34111
30.54247,32873
30.55058,33025
30.55872,31035
30.56683,30928
30.57495,33818
30.58308,30583
30.59120,31255
30.59932,32990
30.60745,30982
30.61557,29642
30.62370,33295
30.63182,31847
30.63993,30650
30.64807,29573
30.65618,29882
30.66432,29882
30.67243,31252
30.68055,29320
30.68868,27825
30.69680,30764
30.70493,27181
30.71305,31255
30.72117,32056
30.72930,29861
30.73742,31821
30.74553,35299
30.75367,32028
30.76178,32444
30.76992,37095
30.77803,49760
30.78615,53211
30.79428,59665
30.80240,63025
30.81053,62980
30.81865,57300
30.82677,47493
30.83490,41571
30.84302,38873
30.85113,34284
30.85927,33534
30.86738,33744
30.87552,30912
30.88363,31353
30.89175,30582
30.89988,35615
30.90800,32241
30.91613,31037
30.92425,30603
30.93237,29909
30.94050,34532
30.94862,31643
30.95675,30355
30.96487,32369
30.97298,27993
30.98112,31452
30.98923,31567
30.99735,31166
31.00548,31212
31.01360,30488
31.02173,28972
31.02985,29085
31.03797,32321
31.04610,30194
31.05422,32541
31.06235,31963
31.07047,36608
31.07858,41593
31.08672,43997
31.09483,43007
31.10295,47225
31.11108,44974
31.11920,41646
31.12733,37299
31.13545,33992
31.14357,35942
31.15170,36209
31.15982,35532
31.16795,31840
31.17607,34837
31.18418,34419
31.19232,34656
31.20043,31759
31.20857,30779
31.21668,33283
31.22480,30035
31.23293,33569
31.24105,33837
31.24917,33658
31.25730,31141
31.26542,30322
31.27355,28296
31.28167,31080
31.28978,29018
31.29792,29534
31.30603,30015
31.31417,31409
31.32228,32978
31.33040,34030
31.33853,36181
31.34665,34028
31.35478,32546
31.36290,34614
31.37102,30660
31.37915,27848
31.38727,34503
31.39538,32797
31.40352,35250
31.41163,31109
31.41977,29592
31.42788,26698
31.43600,32403
31.44413,32816
31.45225,33614
31.46038,37565
31.46850,37470
31.47662,38710
31.48475,38814
31.49287,37018
31.50098,37982
31.50912,35463
31.51723,35994
31.52537,35286
31.53348,34985
31.54160,37244
31.54973,37935
31.55785,40431
31.56598,41915
31.57410,38637
31.58222,36205
31.59035,33734
31.59847,32561
31.60660,34348
31.61472,31178
31.62283,26524
31.63097,32919
31.63908,30962
31.64720,34922
31.65533,35015
31.66345,29767
31.67158,34085
31.67970,33354
31.68782,34074
31.69595,33720
31.70407,32237
31.71220,31564
31.72032,30173
31.72843,32804
31.73657,32068
31.74468,28554
31.75282,29823
31.76093,32858
31.76905,31947
31.77718,32549
31.78530,33728
31.79342,31998
31.80155,35934
31.80967,33715
31.81780,33537
31.82592,37740
31.83403,38784
31.84217,40606
31.85028,45108
31.85842,49608
31.86653,52317
31.87465,49722
31.88278,56421
31.89090,50478
31.89902,54464
31.90715,50413
31.91527,56278
31.92340,54620
31.93152,51186
31.93963,45456
31.94777,46246
31.95588,45644
31.96402,44846
31.97213,44666
31.98025,45852
31.98838,46816
31.99650,45409
32.00463,42740
32.01275,41863
32.02087,39930
32.02900,37098
32.03712,33543
32.04523,39022
32.05337,36348
32.06148,34580
32.06962,36253
32.07773,35065
32.08585,33310
32.09398,32560
32.10210,31918
32.11023,32733
32.11835,31651
32.12647,30993
32.13460,30544
32.14272,33386
32.15083,32958
32.15897,31631
32.16708,30796
32.17522,33676
32.18333,31747
32.19145,30651
32.19958,31534
32.20770,31365
32.21583,29199
32.22395,31347
32.23207,32748
32.24020,31378
32.24832,27340
32.25645,30617
32.26457,29904
32.27268,33658
32.28082,32029
32.28893,30801
32.29705,31730
32.30518,28568
32.31330,29810
32.32143,29633
32.32955,32554
32.33767,30654
32.34580,36227
32.35392,31394
32.36205,32545
32.37017,38211
32.37828,30740
32.38642,28192
32.39453,31642
32.40267,30491
32.41078,34131
32.41890,30621
32.42703,29603
32.43515,32183
32.44327,31761
32.45140,30702
32.45952,31216
32.46765,28730
32.47577,29944
32.48388,28850
32.49202,32945
32.50013,30572
32.50827,29206
32.51638,30975
32.52450,29948
32.53263,31912
32.54075,33010
32.54887,32781
32.55700,37460
32.56512,35346
32.57325,36495
32.58137,38213
32.58948,36059
32.59762,37615
32.60573,34457
32.61387,30726
32.62198,34305
32.63010,32308
32.63823,30231
32.64635,30890
32.65448,33048
32.66260,31532
32.67072,30427
32.67885,29254
32.68697,36412
32.69508,34969
32.70322,33183
32.71133,34881
32.71947,34899
32.72758,31668
32.73570,33503
32.74383,30342
32.75195,28839
32.76008,29582
32.76820,31370
32.77632,32863
32.78445,30723
32.79257,28731
32.80070,31598
32.80882,27142
32.81693,30674
32.82507,28231
32.83318,31305
32.84130,28664
32.84943,33795
32.85755,31638
32.86568,27380
32.87380,29688
32.88192,30954
32.89005,31012
32.89817,29280
32.90630,29046
32.91442,29224
32.92253,31215
32.93067,31480
32.93878,30510
32.94690,30711
32.95503,32857
32.96315,39771
32.97128,43920
32.97940,50789
32.98752,57569
32.99565,61049
33.00377,56950
33.01190,50080
33.02002,47829
33.02813,41471
33.03627,43238
33.04438,40210
33.05252,36358
33.06063,34538
33.06875,36861
33.07688,37139
33.08500,37875
33.09312,42637
33.10125,42396
33.10937,45892
33.11750,44032
33.12562,47330
33.13373,40090
33.14187,39192
33.14998,37305
33.15812,32092
33.16623,34774
33.17435,33609
33.18248,32251
33.19060,34477
33.19873,34796
33.20685,32980
33.21497,32157
33.22310,32603
33.23122,33601
33.23933,28436
33.24747,32868
33.25558,32748
33.26372,31523
33.27183,26410
33.27995,32763
33.28808,31323
33.29620,30383
33.30433,31038
33.31245,31034
33.32057,31635
33.32870,30380
33.33682,34509
33.34493,35282
33.35307,28287
33.36118,29502
33.36932,32241
33.37743,30384
33.38555,31661
33.39368,30532
33.40180,31563
33.40993,31779
33.41805,35847
33.42617,31291
33.43430,30865
33.44242,30335
33.45055,31237
33.45867,31676
33.46678,31216
33.47492,31469
33.48303,33055
33.49115,33218
33.49928,35262
33.50740,31803
33.51553,31592
33.52365,35077
33.53177,33278
33.53990,32456
33.54802,33374
33.55615,36086
33.56427,31067
33.57238,31451
33.58052,31528
33.58863,31479
33.59675,31239
33.60488,28017
33.61300,32330
33.62113,32516
33.62925,33450
33.63737,33705
33.64550,32636
33.65362,33277
33.66175,32515
33.66987,31579
33.67798,32506
33.68612,32784
33.69423,34189
33.70237,34968
33.71048,33777
33.71860,36528
33.72673,35732
33.73485,33235
33.74297,35074
33.75110,35804
33.75922,36364
33.76735,34673
33.77547,36334
33.78358,31276
33.79172,33287
33.79983,32788
33.80797,36289
33.81608,36013
33.82420,36526
33.83233,33648
33.84045,35316
33.84858,37057
33.85670,35985
33.86482,34291
33.87295,37690
33.88107,36609
33.88918,31831
33.89732,33271
33.90543,36139
33.91357,29030
33.92168,31625
33.92980,36337
33.93793,32599
33.94605,35423
33.95418,34729
33.96230,35233
33.97042,31842
33.97855,34941
33.98667,30856
33.99478,32123
34.00292,33043
34.01103,30151
34.01917,32347
34.02728,30462
34.03540,31013
34.04353,31517
34.05165,30417
34.05978,33546
34.06790,32069
34.07602,31659
34.08415,34599
34.09227,32356
34.10040,34466
34.10852,33163
34.11663,35353
34.12477,29207
34.13288,28583
34.14100,31114
34.14913,36000
34.15725,34295
34.16538,31864
34.17350,34667
34.18162,31413
34.18975,34542
34.19787,35264
34.20600,34027
34.21412,31876
34.22223,31551
34.23037,32738
34.23848,34659
34.24662,34472
34.25473,33557
34.26285,33074
34.27098,32315
34.27910,32331
34.28722,35592
34.29535,33619
34.30347,31276
34.31160,33055
34.31972,30614
34.32783,29854
34.33597,30794
34.34408,33031
34.35222,30425
34.36033,31247
34.36845,33521
34.37658,32801
34.38470,33863
34.39282,33913
34.40095,32094
34.40907,35175
34.41720,36487
34.42532,37939
34.43343,37713
34.44157,38660
34.44968,45148
34.45782,47122
34.46593,51468
34.47405,54023
34.48218,54116
34.49030,56155
34.49843,54853
34.50655,49076
34.51467,49398
34.52280,45425
34.53092,44018
34.53903,42747
34.54717,40401
34.55528,40948
34.56342,41865
34.57153,41686
34.57965,41368
34.58778,35399
34.59590,37586
34.60403,39774
34.61215,37702
34.62027,36643
34.62840,44310
34.63652,37233
34.64463,38484
34.65277,37409
34.66088,36469
34.66902,35254
34.67713,37461
34.68525,34777
34.69338,39388
34.70150,35165
34.70963,33868
34.71775,34969
34.72587,34211
34.73400,36871
34.74212,33216
34.75025,35466
34.75837,36711
34.76648,37924
34.77462,35175
34.78273,35234
34.79085,38040
34.79898,36799
34.80710,33582
34.81523,34979
34.82335,36179
34.83147,33262
34.83960,32549
34.84772,34657
34.85585,36255
34.86397,37962
34.87208,31654
34.88022,36177
34.88833,37194
34.89647,33478
34.90458,35561
34.91270,36782
34.92083,35979
34.92895,38473
34.93707,37260
34.94520,40946
34.95332,39570
34.96145,35978
34.96957,37400
34.97768,37600
34.98582,38414
34.99393,35878
35.00207,33148
35.01018,35437
35.01830,34361
35.02643,34090
35.03455,34235
35.04268,34819
35.05080,37797
35.05892,44398
35.06705,39654
35.07517,41643
35.08328,33956
35.09142,33725
35.09953,36669
35.10767,38474
35.11578,35183
35.12390,33364
35.13203,33341
35.14015,35043
35.14828,35463
35.15640,35246
35.16452,36343
35.17265,34395
35.18077,35447
35.18888,33268
35.19702,34022
35.20513,38629
35.21327,38238
35.22138,35484
35.22950,37461
35.23763,38090
35.24575,37770
35.25388,38217
35.26200,38745
35.27012,36913
35.27825,39989
35.28637,36198
35.29450,35683
35.30262,34911
35.31073,34973
35.31887,35158
35.32698,33799
35.33510,42379
35.34323,32836
35.35135,38864
35.35948,35322
35.36760,36156
35.37572,36578
35.38385,38535
35.39197,35916
35.40010,38530
35.40822,35879
35.41633,34812
35.42447,34794
35.43258,36958
35.44070,37696
35.44883,38098
35.45695,38550
35.46508,40384
35.47320,40519
35.48132,36440
35.48945,34135
35.49757,39718
35.50570,39884
35.51382,38339
35.52193,36661
35.53007,39143
35.53818,36936
35.54632,41278
35.55443,39615
35.56255,42141
35.57068,45941
35.57880,50737
35.58692,47262
35.59505,47129
35.60317,46869
35.61130,42116
35.61942,42902
35.62753,42896
35.63567,40346
35.64378,38623
35.65192,37663
35.66003,40704
35.66815,40190
35.67628,39072
35.68440,38440
35.69253,42120
35.70065,37916
35.70877,44481
35.71690,37625
35.72502,37367
35.73313,42011
35.74127,44857
35.74938,40734
35.75752,38441
35.76563,46467
35.77375,41823
35.78188,38712
35.79000,38562
35.79813,38542
35.80625,39039
35.81437,39507
35.82250,42372
35.83062,42033
35.83873,37389
35.84687,40804
35.85498,37532
35.86312,36991
35.87123,40442
35.87935,37336
35.88748,40141
35.89560,41059
35.90373,40268
35.91185,40557
35.91997,43126
35.92810,39210
35.93622,38791
35.94435,35788
35.95247,39965
35.96058,37464
35.96872,38561
35.97683,39379
35.98495,37494
35.99308,38660
36.00120,39047
36.00933,40247
36.01745,40316
36.02557,38552
36.03370,38333
36.04182,40608
36.04995,40926
36.05807,40698
36.06618,37189
36.07432,36924
36.08243,39178
36.09057,39650
36.09868,45527
36.10680,45243
36.11493,37556
36.12305,40387
36.13117,41746
36.13930,47360
36.14742,40841
36.15555,39868
36.16367,41127
36.17178,39933
36.17992,37448
36.18803,40715
36.19617,40058
36.20428,45171
36.21240,42537
36.22053,46451
36.22865,47239
36.23677,47749
36.24490,46029
36.25302,39647
36.26115,43889
36.26927,43323
36.27738,39152
36.28552,43695
36.29363,41646
36.30177,41326
36.30988,36871
36.31800,40418
36.32613,40229
36.33425,38812
36.34238,39839
36.35050,37314
36.35862,40084
36.36675,41000
36.37487,44213
36.38298,41174
36.39112,42393
36.39923,42940
36.40737,42865
36.41548,38837
36.42360,41590
36.43173,39818
36.43985,38322
36.44798,41897
36.45610,47007
36.46422,44034
36.47235,39951
36.48047,39570
36.48858,40759
36.49672,40063
36.50483,41358
36.51297,39762
36.52108,40143
36.52920,41580
36.53733,42663
36.54545,41942
36.55358,39830
36.56170,42326
36.56982,42042
36.57795,42296
36.58607,44596
36.59420,41710
36.60232,42936
36.61043,44531
36.61857,39570
36.62668,41099
36.63480,42518
36.64293,41509
36.65105,42425
36.65918,39548
36.66730,39726
36.67542,44306
36.68355,39176
36.69167,39996
36.69980,39198
36.70792,39257
36.71603,43548
36.72417,39354
36.73228,40305
36.74042,42219
36.74853,46913
36.75665,42112
36.76478,40832
36.77290,46899
36.78102,40412
36.78915,43076
36.79727,41133
36.80540,39956
36.81352,44336
36.82163,42668
36.82977,42326
36.83788,40517
36.84602,40420
36.85413,40570
36.86225,42841
36.87038,42204
36.87850,43291
36.88662,43700
36.89475,40652
36.90287,47124
36.91100,45714
36.91912,48225
36.92723,44216
36.93537,46164
36.94348,51537
36.95162,53436
36.95973,57651
36.96785,52808
36.97598,51189
36.98410,49260
36.99223,52685
37.00035,46038
37.00847,55796
37.01660,53173
37.02472,55701
37.03283,56933
37.04097,58725
37.04908,55933
37.05722,48633
37.06533,49333
37.07345,48192
37.08158,45758
37.08970,44425
37.09783,44902
37.10595,42945
37.11407,48336
37.12220,45334
37.13032,44317
37.13845,45295
37.14657,43454
37.15468,44718
37.16282,48038
37.17093,43385
37.17905,43315
37.18718,48695
37.19530,46664
37.20343,44384
37.21155,47876
37.21967,51395
37.22780,54735
37.23592,50881
37.24405,54917
37.25217,62426
37.26028,65193
37.26842,65338
37.27653,65096
37.28465,62821
37.29278,64425
37.30090,57671
37.30903,58631
37.31715,60032
37.32527,51650
37.33340,49980
37.34152,50787
37.34965,53260
37.35777,51046
37.36588,48513
37.37402,53682
37.38213,49543
37.39027,55029
37.39838,48460
37.40650,50931
37.41463,49658
37.42275,48929
37.43087,47173
37.43900,50144
37.44712,48804
37.45525,45344
37.46337,47755
37.47148,51673
37.47962,45775
37.48773,47267
