Z:\data\JTB-E02\BACandBLUE\JTB-E02-193-08.D Wed Dec 19 09:30:21 2018
Start of data points
2.09537,88776
2.10348,85447
2.11162,85078
2.11973,88812
2.12787,84872
2.13598,84833
2.14410,85595
2.15223,87381
2.16035,82451
2.16847,78620
2.17660,77777
2.18472,79427
2.19285,71782
2.20097,78754
2.20908,83108
2.21722,76377
2.22533,71256
2.23347,76589
2.24158,74429
2.24970,70239
2.25783,82495
2.26595,280212
2.27408,1397587
2.28220,2517847
2.29032,2096656
2.29845,1077701
2.30657,656797
2.31468,531756
2.32282,465154
2.33093,407299
2.33907,378640
2.34718,325232
2.35530,283035
2.36343,259009
2.37155,235944
2.37968,234086
2.38780,232181
2.39592,215836
2.40405,224580
2.41217,225665
2.42028,258799
2.42842,296704
2.43653,242187
2.44467,217778
2.45278,198661
2.46090,181333
2.46903,171504
2.47715,159901
2.48528,153755
2.49340,151473
2.50152,152057
2.50965,144460
2.51777,147990
2.52590,148779
2.53402,142619
2.54213,139864
2.55027,154311
2.55838,167650
2.56650,169155
2.57463,151224
2.58275,121301
2.59088,120007
2.59900,118137
2.60712,124686
2.61525,135624
2.62337,143403
2.63150,133228
2.63962,123330
2.64773,115183
2.65587,109803
2.66398,114539
2.67210,116336
2.68023,104994
2.68835,109319
2.69648,111771
2.70460,105789
2.71272,112109
2.72085,112185
2.72897,104346
2.73710,105309
2.74522,106140
2.75333,101810
2.76147,96760
2.76958,96631
2.77772,94154
2.78583,93517
2.79395,101643
2.80208,108281
2.81020,107369
2.81832,106517
2.82645,106091
2.83457,99357
2.84270,100408
2.85082,99585
2.85893,99106
2.86707,101406
2.87518,101510
2.88332,100412
2.89143,95945
2.89955,96536
2.90768,96489
2.91580,97916
2.92393,90861
2.93205,93009
2.94017,91348
2.94830,91555
2.95642,86953
2.96453,89356
2.97267,90786
2.98078,94178
2.98892,96694
2.99703,89975
3.00515,89913
3.01328,91361
3.02140,93710
3.02953,88557
3.03765,91359
3.04577,89392
3.05390,83708
3.06202,85577
3.07013,84248
3.07827,81494
3.08638,85367
3.09452,83644
3.10263,85370
3.11075,99100
3.11888,119253
3.12700,121470
3.13513,107213
3.14325,102338
3.15137,96307
3.15950,93012
3.16762,95138
3.17575,89791
3.18387,88901
3.19198,88621
3.20012,84253
3.20823,88253
3.21635,85249
3.22448,86250
3.23260,87392
3.24073,85250
3.24885,88440
3.25697,80433
3.26510,82383
3.27322,78607
3.28135,79813
3.28947,97431
3.29758,211969
3.30572,873134
3.31383,2932386
3.32197,5938324
3.33008,7463593
3.33820,6630896
3.34633,4972770
3.35445,3652023
3.36257,2817531
3.37070,2298497
3.37882,1954330
3.38695,1661274
3.39507,1435604
3.40318,1268290
3.41132,1130326
3.41943,1017461
3.42757,941636
3.43568,861847
3.44380,805793
3.45193,740343
3.46005,694455
3.46817,641648
3.47630,616428
3.48442,576217
3.49255,564839
3.50067,539253
3.50878,502654
3.51692,494585
3.52503,467727
3.53317,454362
3.54128,424540
3.54940,405908
3.55753,379243
3.56565,351964
3.57378,330432
3.58190,326585
3.59002,299245
3.59815,288615
3.60627,281592
3.61438,275089
3.62252,266827
3.63063,282963
3.63877,274966
3.64688,278174
3.65500,267653
3.66313,271527
3.67125,275346
3.67938,287287
3.68750,279990
3.69562,296816
3.70375,322471
3.71187,324248
3.71998,298538
3.72812,291421
3.73623,290333
3.74437,271628
3.75248,264296
3.76060,260414
3.76873,250332
3.77685,252036
3.78498,242708
3.79310,247776
3.80122,236185
3.80935,257646
3.81747,249884
3.82560,257082
3.83372,258602
3.84183,255110
3.84997,253174
3.85808,248038
3.86620,241379
3.87433,234268
3.88245,234142
3.89058,231233
3.89870,220677
3.90682,217808
3.91495,219465
3.92307,224315
3.93120,217425
3.93932,204442
3.94743,207102
3.95557,204633
3.96368,205468
3.97182,198698
3.97993,203648
3.98805,200432
3.99618,192171
4.00430,200904
4.01242,201307
4.02055,192383
4.02867,195774
4.03680,201851
4.04492,188568
4.05303,204169
4.06117,190009
4.06928,195190
4.07742,192296
4.08553,184000
4.09365,194919
4.10178,185311
4.10990,181372
4.11802,182895
4.12615,173864
4.13427,179099
4.14240,186148
4.15052,207222
4.15863,259097
4.16677,315922
4.17488,291305
4.18302,237962
4.19113,213618
4.19925,198294
4.20738,190942
4.21550,179335
4.22363,179925
4.23175,187611
4.23987,228356
4.24800,277128
4.25612,334778
4.26423,309540
4.27237,281396
4.28048,254584
4.28862,230531
4.29673,222021
4.30485,206656
4.31298,201471
4.32110,210993
4.32923,195358
4.33735,204388
4.34547,201101
4.35360,203391
4.36172,197677
4.36985,187144
4.37797,185845
4.38608,194583
4.39422,189118
4.40233,184423
4.41045,183060
4.41858,178752
4.42670,166742
4.43483,173767
4.44295,175264
4.45107,173839
4.45920,170266
4.46732,167867
4.47545,170034
4.48357,170445
4.49168,167441
4.49982,157215
4.50793,161596
4.51605,162971
4.52418,156497
4.53230,159120
4.54043,162471
4.54855,153248
4.55667,157130
4.56480,155598
4.57292,150285
4.58105,154000
4.58917,160275
4.59728,150634
4.60542,152615
4.61353,150645
4.62167,159235
4.62978,152467
4.63790,152386
4.64603,151265
4.65415,147466
4.66227,153565
4.67040,148708
4.67852,148087
4.68665,147338
4.69477,148097
4.70288,142059
4.71102,144100
4.71913,150291
4.72727,146760
4.73538,138903
4.74350,141399
4.75163,147827
4.75975,144116
4.76787,140776
4.77600,152427
4.78412,143282
4.79225,145703
4.80037,140003
4.80848,134267
4.81662,140124
4.82473,146439
4.83287,138509
4.84098,143489
4.84910,140411
4.85723,144209
4.86535,138163
4.87348,140133
4.88160,159202
4.88972,138077
4.89785,131406
4.90597,141222
4.91408,145352
4.92222,139418
4.93033,145822
4.93847,139338
4.94658,147414
4.95470,168584
4.96283,283953
4.97095,656605
4.97908,1340401
4.98720,2190827
4.99532,2728706
5.00345,2607837
5.01157,2184079
5.01970,1722007
5.02782,1354273
5.03593,1089287
5.04407,935910
5.05218,836811
5.06030,740145
5.06843,681023
5.07655,624829
5.08468,584977
5.09280,552192
5.10092,522962
5.10905,482429
5.11717,448497
5.12530,430148
5.13342,376542
5.14153,364482
5.14967,334474
5.15778,327001
5.16592,315860
5.17403,307584
5.18215,299375
5.19028,313304
5.19840,319298
5.20652,317776
5.21465,306771
5.22277,308485
5.23090,311690
5.23902,304812
5.24713,298869
5.25527,295452
5.26338,304217
5.27152,286807
5.27963,292209
5.28775,261531
5.29588,258702
5.30400,258672
5.31212,247111
5.32025,240519
5.32837,240241
5.33650,245233
5.34462,233717
5.35273,239330
5.36087,236332
5.36898,226542
5.37712,226963
5.38523,220534
5.39335,223011
5.40148,211381
5.40960,213126
5.41773,217268
5.42585,211828
5.43397,207945
5.44210,200103
5.45022,210317
5.45833,204774
5.46647,214292
5.47458,202240
5.48272,202281
5.49083,203039
5.49895,197982
5.50708,201325
5.51520,191942
5.52333,194270
5.53145,188824
5.53957,194773
5.54770,184276
5.55582,191840
5.56393,191111
5.57207,180501
5.58018,184038
5.58832,182175
5.59643,185917
5.60455,192151
5.61268,189970
5.62080,181467
5.62893,190691
5.63705,190229
5.64517,194011
5.65330,210574
5.66142,207422
5.66955,196046
5.67767,185676
5.68578,185105
5.69392,193136
5.70203,201984
5.71015,224438
5.71828,235299
5.72640,227833
5.73453,217082
5.74265,199717
5.75077,191293
5.75890,178592
5.76702,180245
5.77515,179680
5.78327,171007
5.79138,173824
5.79952,168084
5.80763,170592
5.81577,161815
5.82388,165764
5.83200,158677
5.84013,168150
5.84825,155761
5.85637,158736
5.86450,168234
5.87262,158779
5.88075,156362
5.88887,156175
5.89698,160861
5.90512,155034
5.91323,152769
5.92137,143886
5.92948,126116
5.93760,124688
5.94573,125430
5.95385,123384
5.96197,129899
5.97010,119784
5.97822,135604
5.98635,136441
5.99447,154051
6.00258,175875
6.01072,168695
6.01883,152781
6.02697,147868
6.03508,138824
6.04320,142860
6.05133,131657
6.05945,130585
6.06758,125288
6.07570,130254
6.08382,132693
6.09195,130048
6.10007,126630
6.10818,131255
6.11632,128210
6.12443,120823
6.13257,123677
6.14068,119692
6.14880,126455
6.15693,125783
6.16505,129171
6.17318,128456
6.18130,133203
6.18942,137124
6.19755,140965
6.20567,136118
6.21380,139406
6.22192,138628
6.23003,132870
6.23817,133652
6.24628,134330
6.25440,130271
6.26253,136716
6.27065,144207
6.27878,140472
6.28690,148294
6.29502,149897
6.30315,149640
6.31127,146933
6.31940,153913
6.32752,145931
6.33563,159111
6.34377,161802
6.35188,163609
6.36000,163255
6.36813,168490
6.37625,170289
6.38438,164401
6.39250,174104
6.40062,164865
6.40875,175694
6.41687,172820
6.42500,177153
6.43312,176011
6.44123,182426
6.44937,185028
6.45748,186969
6.46562,190838
6.47373,169243
6.48185,152038
6.48998,150338
6.49810,139576
6.50622,141430
6.51435,139273
6.52247,133753
6.53060,136386
6.53872,130853
6.54683,131171
6.55497,119353
6.56308,125539
6.57122,121092
6.57933,121231
6.58745,125610
6.59558,111676
6.60370,124632
6.61182,116889
6.61995,117490
6.62807,116898
6.63620,115859
6.64432,117149
6.65243,118897
6.66057,112671
6.66868,112473
6.67682,112733
6.68493,107557
6.69305,113598
6.70118,116068
6.70930,108875
6.71743,107750
6.72555,117795
6.73367,113930
6.74180,112538
6.74992,108822
6.75803,117771
6.76617,104400
6.77428,109158
6.78242,103611
6.79053,109566
6.79865,101955
6.80678,112269
6.81490,109240
6.82303,101383
6.83115,99774
6.83927,110295
6.84740,103804
6.85552,107246
6.86365,101559
6.87177,93161
6.87988,88316
6.88802,84846
6.89613,80823
6.90425,81914
6.91238,92159
6.92050,84582
6.92863,83016
6.93675,83174
6.94487,81542
6.95300,79625
6.96112,75304
6.96925,74550
6.97737,72213
6.98548,72509
6.99362,73765
7.00173,76938
7.00985,77034
7.01798,74026
7.02610,68644
7.03423,67533
7.04235,73207
7.05047,69166
7.05860,71710
7.06672,77154
7.07485,73999
7.08297,71180
7.09108,72847
7.09922,76723
7.10733,72353
7.11547,73815
7.12358,72064
7.13170,71269
7.13983,74795
7.14795,71534
7.15607,70924
7.16420,72876
7.17232,74975
7.18045,77383
7.18857,84123
7.19668,80885
7.20482,78212
7.21293,74028
7.22107,71567
7.22918,74506
7.23730,71327
7.24543,67406
7.25355,74338
7.26168,78176
7.26980,73132
7.27792,75548
7.28605,74332
7.29417,76055
7.30228,78167
7.31042,70368
7.31853,68002
7.32667,70550
7.33478,68313
7.34290,70110
7.35103,69062
7.35915,64934
7.36728,66682
7.37540,66518
7.38352,64631
7.39165,64081
7.39977,70500
7.40788,69833
7.41602,73488
7.42413,73303
7.43227,74388
7.44038,71484
7.44850,70317
7.45663,69014
7.46475,70180
7.47288,72219
7.48100,77564
7.48912,80359
7.49725,72692
7.50537,75165
7.51350,77461
7.52162,74705
7.52973,70404
7.53787,73245
7.54598,63438
7.55410,67157
7.56223,71936
7.57035,73766
7.57848,66931
7.58660,67127
7.59472,70402
7.60285,75662
7.61097,73338
7.61910,69485
7.62722,71593
7.63533,68182
7.64347,67874
7.65158,71202
7.65972,67175
7.66783,69034
7.67595,67531
7.68408,70673
7.69220,72314
7.70032,69749
7.70845,69013
7.71657,67656
7.72470,69678
7.73282,69035
7.74093,67734
7.74907,65626
7.75718,64743
7.76532,68019
7.77343,65747
7.78155,63609
7.78968,63979
7.79780,67450
7.80592,67105
7.81405,67029
7.82217,67073
7.83030,62081
7.83842,61779
7.84653,64127
7.85467,64207
7.86278,63064
7.87092,63652
7.87903,62079
7.88715,57260
7.89528,59047
7.90340,61378
7.91153,56817
7.91965,59940
7.92777,57441
7.93590,58565
7.94402,57222
7.95213,56031
7.96027,55146
7.96838,56124
7.97652,65234
7.98463,60611
7.99275,60454
8.00088,68826
8.00900,71719
8.01713,66931
8.02525,65222
8.03337,61761
8.04150,61419
8.04962,55406
8.05773,57626
8.06587,61654
8.07398,64999
8.08212,56938
8.09023,57564
8.09835,56586
8.10648,57920
8.11460,57401
8.12273,62795
8.13085,60564
8.13897,60452
8.14710,60502
8.15522,58471
8.16335,57024
8.17147,64249
8.17958,60112
8.18772,66264
8.19583,71060
8.20395,67032
8.21208,74579
8.22020,69868
8.22833,70956
8.23645,66482
8.24457,66234
8.25270,60127
8.26082,64733
8.26895,61972
8.27707,62165
8.28518,63143
8.29332,60860
8.30143,59528
8.30957,59030
8.31768,61569
8.32580,58788
8.33393,59835
8.34205,63358
8.35017,66439
8.35830,69298
8.36642,68880
8.37455,73499
8.38267,79989
8.39078,76309
8.39892,69314
8.40703,70944
8.41517,67793
8.42328,61249
8.43140,61399
8.43953,65576
8.44765,64175
8.45577,62918
8.46390,60384
8.47202,64753
8.48015,61196
8.48827,56028
8.49638,62026
8.50452,60749
8.51263,57859
8.52077,65987
8.52888,65040
8.53700,71136
8.54513,71355
8.55325,69474
8.56138,69864
8.56950,64560
8.57762,68562
8.58575,61128
8.59387,67256
8.60198,62780
8.61012,62530
8.61823,63205
8.62637,63400
8.63448,61820
8.64260,56663
8.65073,55802
8.65885,61161
8.66698,57523
8.67510,60939
8.68322,61224
8.69135,60630
8.69947,59119
8.70760,60961
8.71572,58137
8.72383,64964
8.73197,66204
8.74008,59652
8.74820,57710
8.75633,60379
8.76445,59542
8.77258,58184
8.78070,55815
8.78882,60890
8.79695,73653
8.80507,107477
8.81320,203386
8.82132,344090
8.82943,511420
8.83757,625704
8.84568,639888
8.85380,582562
8.86193,475907
8.87005,402167
8.87818,310368
8.88630,268364
8.89442,238576
8.90255,215740
8.91067,202151
8.91880,189017
8.92692,182111
8.93503,175741
8.94317,168574
8.95128,161261
8.95942,154999
8.96753,149784
8.97565,142740
8.98378,148916
8.99190,145311
9.00002,138962
9.00815,132010
9.01627,133418
9.02440,130262
9.03252,132719
9.04063,131666
9.04877,124180
9.05688,126889
9.06502,116724
9.07313,121338
9.08125,115281
9.08938,115578
9.09750,120278
9.10562,123408
9.11375,114154
9.12187,116210
9.13000,108690
9.13812,109217
9.14623,108535
9.15437,106937
9.16248,106646
9.17062,109427
9.17873,107383
9.18685,111161
9.19498,111304
9.20310,106448
9.21123,112793
9.21935,112905
9.22747,113753
9.23560,107828
9.24372,113732
9.25183,106066
9.25997,106072
9.26808,104433
9.27622,104725
9.28433,103536
9.29245,104469
9.30058,103661
9.30870,99166
9.31683,94239
9.32495,98953
9.33307,98155
9.34120,94872
9.34932,91726
9.35745,92971
9.36557,96477
9.37368,91282
9.38182,93021
9.38993,90435
9.39805,88944
9.40618,89350
9.41430,87738
9.42243,84756
9.43055,83685
9.43867,85646
9.44680,89010
9.45492,92302
9.46305,89758
9.47117,86556
9.47928,89981
9.48742,83358
9.49553,83158
9.50367,84247
9.51178,90105
9.51990,86533
9.52803,83518
9.53615,80512
9.54427,85536
9.55240,90594
9.56052,86109
9.56865,85880
9.57677,84991
9.58488,80096
9.59302,82010
9.60113,84633
9.60927,68819
9.61738,69944
9.62550,72606
9.63363,71044
9.64175,70988
9.64987,67603
9.65800,63989
9.66612,66142
9.67425,63870
9.68237,69540
9.69048,60991
9.69862,63674
9.70673,59732
9.71487,61277
9.72298,54990
9.73110,56180
9.73923,61863
9.74735,59089
9.75548,63772
9.76360,62249
9.77172,61998
9.77985,58726
9.78797,60268
9.79608,58519
9.80422,58247
9.81233,61461
9.82047,60100
9.82858,58918
9.83670,59912
9.84483,60304
9.85295,58465
9.86108,64574
9.86920,61802
9.87732,66565
9.88545,60735
9.89357,58993
9.90168,58423
9.90982,53730
9.91793,63544
9.92607,53493
9.93418,56019
9.94230,56776
9.95043,55295
9.95855,54125
9.96668,59532
9.97480,57918
9.98292,57332
9.99105,57747
9.99917,57407
10.00730,55630
10.01542,67390
10.02353,69894
10.03167,72559
10.03978,78356
10.04790,84354
10.05603,93997
10.06415,105163
10.07228,106872
10.08040,108447
10.08852,101524
10.09665,98494
10.10477,91815
10.11290,85659
10.12102,81212
10.12913,75803
10.13727,77935
10.14538,73509
10.15352,71974
10.16163,71992
10.16975,72686
10.17788,69252
10.18600,70015
10.19412,68831
10.20225,63253
10.21037,62361
10.21850,68010
10.22662,64511
10.23473,67255
10.24287,65628
10.25098,67151
10.25912,70320
10.26723,72961
10.27535,74430
10.28348,77118
10.29160,74309
10.29972,74952
10.30785,84204
10.31597,83505
10.32410,93671
10.33222,110423
10.34033,130297
10.34847,128483
10.35658,136392
10.36472,118804
10.37283,118046
10.38095,100829
10.38908,94843
10.39720,90779
10.40533,84834
10.41345,80298
10.42157,84896
10.42970,82281
10.43782,78823
10.44593,85894
10.45407,81572
10.46218,78576
10.47032,79812
10.47843,73522
10.48655,73328
10.49468,76455
10.50280,74536
10.51093,76048
10.51905,72091
10.52717,74118
10.53530,75983
10.54342,71965
10.55155,70791
10.55967,79263
10.56778,74571
10.57592,75757
10.58403,75520
10.59215,79381
10.60028,81412
10.60840,77031
10.61653,73995
10.62465,77710
10.63277,81341
10.64090,79222
10.64902,73917
10.65715,76895
10.66527,72979
10.67338,72569
10.68152,75908
10.68963,73509
10.69775,76459
10.70588,77874
10.71400,81029
10.72213,80184
10.73025,78611
10.73837,74922
10.74650,78353
10.75462,79698
10.76275,77380
10.77087,77966
10.77898,78441
10.78712,77752
10.79523,80740
10.80337,80652
10.81148,79516
10.81960,76212
10.82773,76974
10.83585,78800
10.84397,70463
10.85210,69144
10.86022,67859
10.86835,70059
10.87647,71631
10.88458,74047
10.89272,73115
10.90083,69667
10.90897,73914
10.91708,64041
10.92520,66848
10.93333,65951
10.94145,69966
10.94957,65171
10.95770,70608
10.96582,67286
10.97395,73609
10.98207,75187
10.99018,70212
10.99832,67989
11.00643,71185
11.01457,69784
11.02268,67542
11.03080,69778
11.03893,68741
11.04705,64009
11.05518,61563
11.06330,61782
11.07142,66509
11.07955,69895
11.08767,62240
11.09578,64077
11.10392,59614
11.11203,61861
11.12017,61746
11.12828,60952
11.13640,63501
11.14453,60906
11.15265,53908
11.16078,58015
11.16890,55669
11.17702,55468
11.18515,55196
11.19327,56370
11.20140,58105
11.20952,61441
11.21763,76238
11.22577,79368
11.23388,82464
11.24200,89447
11.25013,85698
11.25825,76225
11.26638,73207
11.27450,64285
11.28262,63850
11.29075,59257
11.29887,60597
11.30700,58050
11.31512,57651
11.32323,56096
11.33137,57660
11.33948,57542
11.34760,52896
11.35573,57100
11.36385,57872
11.37198,55198
11.38010,60721
11.38822,63325
11.39635,65580
11.40447,64776
11.41260,62700
11.42072,59768
11.42883,60389
11.43697,68642
11.44508,58524
11.45322,60522
11.46133,57266
11.46945,61040
11.47758,56956
11.48570,58836
11.49382,54897
11.50195,54407
11.51007,58844
11.51820,57726
11.52632,57561
11.53443,59472
11.54257,58907
11.55068,54445
11.55882,54428
11.56693,51674
11.57505,56204
11.58318,54074
11.59130,59266
11.59943,53783
11.60755,52921
11.61567,54550
11.62380,54620
11.63192,58894
11.64003,57299
11.64817,58250
11.65628,53008
11.66442,53618
11.67253,55684
11.68065,59875
11.68878,61209
11.69690,52323
11.70503,55993
11.71315,54403
11.72127,61165
11.72940,59411
11.73752,57427
11.74563,64012
11.75377,65348
11.76188,61874
11.77002,65080
11.77813,57605
11.78625,59444
11.79438,60392
11.80250,61456
11.81063,60734
11.81875,61666
11.82687,65929
11.83500,57820
11.84312,55457
11.85125,56079
11.85937,56157
11.86748,53245
11.87562,61526
11.88373,56721
11.89185,58344
11.89998,58705
11.90810,56385
11.91623,56276
11.92435,51030
11.93247,53178
11.94060,55427
11.94872,52367
11.95685,53257
11.96497,49772
11.97308,49578
11.98122,50890
11.98933,50949
11.99745,49873
12.00558,47844
12.01370,54725
12.02183,51737
12.02995,54956
12.03807,51229
12.04620,52076
12.05432,52037
12.06245,52133
12.07057,52858
12.07868,49644
12.08682,47022
12.09493,51830
12.10307,52504
12.11118,47977
12.11930,49331
12.12743,48234
12.13555,52748
12.14367,49321
12.15180,48366
12.15992,56352
12.16805,58651
12.17617,65099
12.18428,74681
12.19242,83906
12.20053,102963
12.20867,102164
12.21678,103368
12.22490,110546
12.23303,108122
12.24115,103219
12.24928,98341
12.25740,100170
12.26552,95943
12.27365,101376
12.28177,103294
12.28988,100978
12.29802,100148
12.30613,101860
12.31427,98985
12.32238,97099
12.33050,90799
12.33863,94151
12.34675,87936
12.35488,97126
12.36300,93231
12.37112,94404
12.37925,90032
12.38737,90417
12.39548,93210
12.40362,87136
12.41173,88588
12.41987,84475
12.42798,90248
12.43610,90940
12.44423,85799
12.45235,92326
12.46048,86918
12.46860,88573
12.47672,92239
12.48485,95389
12.49297,96029
12.50110,92202
12.50922,86759
12.51733,90544
12.52547,87522
12.53358,83283
12.54170,74450
12.54983,77980
12.55795,76391
12.56608,78192
12.57420,72551
12.58232,81544
12.59045,74402
12.59857,74224
12.60670,76953
12.61482,78558
12.62293,77375
12.63107,71959
12.63918,73934
12.64732,77599
12.65543,78795
12.66355,73951
12.67168,76261
12.67980,76583
12.68792,76983
12.69605,72805
12.70417,70754
12.71230,76888
12.72042,74683
12.72853,72141
12.73667,68318
12.74478,66013
12.75292,70539
12.76103,78615
12.76915,79752
12.77728,83137
12.78540,75912
12.79352,80576
12.80165,72065
12.80977,74124
12.81790,71030
12.82602,65902
12.83413,69407
12.84227,60755
12.85038,55587
12.85852,51982
12.86663,52473
12.87475,51975
12.88288,48669
12.89100,48812
12.89913,52963
12.90725,48634
12.91537,51168
12.92350,47900
12.93162,49038
12.93973,46805
12.94787,48516
12.95598,49047
12.96412,48307
12.97223,54486
12.98035,47338
12.98848,46503
12.99660,50772
13.00473,52261
13.01285,48418
13.02097,49678
13.02910,53368
13.03722,48546
13.04535,49584
13.05347,49335
13.06158,52100
13.06972,47245
13.07783,46819
13.08595,46270
13.09408,44982
13.10220,48744
13.11033,51755
13.11845,49227
13.12657,52321
13.13470,49788
13.14282,48947
13.15095,49143
13.15907,48606
13.16718,51297
13.17532,45472
13.18343,53461
13.19155,49226
13.19968,46681
13.20780,48216
13.21593,49462
13.22405,55437
13.23217,56686
13.24030,57102
13.24842,57358
13.25655,57937
13.26467,53689
13.27278,53267
13.28092,51044
13.28903,48468
13.29717,50414
13.30528,48892
13.31340,48671
13.32153,50454
13.32965,49527
13.33777,50818
13.34590,48120
13.35402,48818
13.36215,48498
13.37027,49666
13.37838,45906
13.38652,48246
13.39463,45786
13.40277,48070
13.41088,45666
13.41900,47014
13.42713,50929
13.43525,45925
13.44337,49343
13.45150,49351
13.45962,46933
13.46775,43788
13.47587,44715
13.48398,48535
13.49212,44047
13.50023,44205
13.50837,45552
13.51648,46187
13.52460,47949
13.53273,40041
13.54085,44095
13.54898,46525
13.55710,42781
13.56522,43068
13.57335,46113
13.58147,48684
13.58958,49667
13.59772,43512
13.60583,44273
13.61397,40926
13.62208,41123
13.63020,39883
13.63833,47375
13.64645,41126
13.65458,48242
13.66270,44809
13.67082,47446
13.67895,42422
13.68707,44213
13.69520,44992
13.70332,44839
13.71143,40635
13.71957,40822
13.72768,41584
13.73580,43199
13.74393,42131
13.75205,46102
13.76018,43474
13.76830,52220
13.77642,48620
13.78455,43896
13.79267,40523
13.80080,40288
13.80892,46452
13.81703,46010
13.82517,46219
13.83328,45920
13.84140,46225
13.84953,45803
13.85765,45224
13.86578,45030
13.87390,48091
13.88202,51184
13.89015,47272
13.89827,50448
13.90640,44836
13.91452,45451
13.92263,48123
13.93077,49227
13.93888,48017
13.94702,45317
13.95513,54406
13.96325,52983
13.97138,56754
13.97950,53353
13.98762,49489
13.99575,52103
14.00387,46041
14.01200,47094
14.02012,44860
14.02823,43875
14.03637,48564
14.04448,45143
14.05262,49027
14.06073,47745
14.06885,53601
14.07698,54333
14.08510,48779
14.09323,50942
14.10135,56580
14.10947,56585
14.11760,53754
14.12572,51262
14.13383,48888
14.14197,49117
14.15008,48770
14.15822,48253
14.16633,50494
14.17445,49231
14.18258,51467
14.19070,54859
14.19883,51972
14.20695,60198
14.21507,70520
14.22320,101478
14.23132,149177
14.23943,195834
14.24757,227923
14.25568,220564
14.26382,216552
14.27193,186437
14.28005,161560
14.28818,151195
14.29630,134147
14.30443,120638
14.31255,111948
14.32067,100693
14.32880,103272
14.33692,97082
14.34505,97762
14.35317,92422
14.36128,87137
14.36942,82464
14.37753,82123
14.38565,78120
14.39378,70029
14.40190,66002
14.41003,54270
14.41815,55200
14.42627,61352
14.43440,52484
14.44252,54021
14.45065,55764
14.45877,49105
14.46688,55517
14.47502,55345
14.48313,52802
14.49125,57737
14.49938,50328
14.50750,51935
14.51563,50981
14.52375,57741
14.53187,54983
14.54000,52745
14.54812,50645
14.55625,52556
14.56437,58494
14.57248,57355
14.58062,52890
14.58873,51213
14.59687,56486
14.60498,52451
14.61310,52927
14.62123,50330
14.62935,52095
14.63747,48079
14.64560,51326
14.65372,45627
14.66185,49396
14.66997,47681
14.67808,49183
14.68622,45054
14.69433,47459
14.70247,43351
14.71058,50337
14.71870,47402
14.72683,46807
14.73495,46592
14.74308,46372
14.75120,47375
14.75932,49186
14.76745,46408
14.77557,51763
14.78368,50685
14.79182,45467
14.79993,46442
14.80807,51630
14.81618,50200
14.82430,49947
14.83243,66575
14.84055,87611
14.84868,122887
14.85680,157117
14.86492,202885
14.87305,221384
14.88117,224127
14.88930,218804
14.89742,214768
14.90553,203446
14.91367,198186
14.92178,194143
14.92990,175244
14.93803,174142
14.94615,171247
14.95428,164854
14.96240,155378
14.97052,153376
14.97865,165538
14.98677,147112
14.99490,151030
15.00302,144042
15.01113,134478
15.01927,133187
15.02738,124028
15.03550,133782
15.04363,121748
15.05175,123512
15.05988,124579
15.06800,113927
15.07612,111661
15.08425,114874
15.09237,111933
15.10050,110765
15.10862,108138
15.11673,108935
15.12487,104011
15.13298,107066
15.14112,109380
15.14923,102615
15.15735,92589
15.16548,91550
15.17360,86445
15.18172,79143
15.18985,70365
15.19797,64119
15.20610,60949
15.21422,65699
15.22233,60339
15.23047,63649
15.23858,62034
15.24672,58762
15.25483,58519
15.26295,59932
15.27108,62441
15.27920,61181
15.28732,58190
15.29545,63306
15.30357,60071
15.31170,55863
15.31982,54285
15.32793,55591
15.33607,53235
15.34418,56377
15.35232,53544
15.36043,56171
15.36855,53684
15.37668,53104
15.38480,51579
15.39293,56679
15.40105,53452
15.40917,55863
15.41730,54352
15.42542,51193
15.43353,52213
15.44167,53730
15.44978,49837
15.45792,57835
15.46603,55367
15.47415,52332
15.48228,52419
15.49040,51250
15.49853,49935
15.50665,53990
15.51477,52978
15.52290,57610
15.53102,52148
15.53915,59342
15.54727,55527
15.55538,55723
15.56352,57146
15.57163,58336
15.57975,55533
15.58788,52848
15.59600,54217
15.60413,51238
15.61225,55060
15.62037,51938
15.62850,56269
15.63662,53890
15.64475,53587
15.65287,50056
15.66098,53381
15.66912,53825
15.67723,47469
15.68535,48065
15.69348,47764
15.70160,47650
15.70973,51301
15.71785,54630
15.72597,50201
15.73410,50864
15.74222,50633
15.75035,47975
15.75847,52723
15.76658,47308
15.77472,48035
15.78283,51827
15.79097,50688
15.79908,53964
15.80720,53334
15.81533,58053
15.82345,58478
15.83157,66976
15.83970,60060
15.84782,64582
15.85595,61615
15.86407,61706
15.87218,58531
15.88032,61684
15.88843,54627
15.89657,55747
15.90468,56785
15.91280,55563
15.92093,54655
15.92905,59703
15.93718,55095
15.94530,57185
15.95342,57490
15.96155,57119
15.96967,50448
15.97778,60265
15.98592,56418
15.99403,53050
16.00217,50055
16.01028,53514
16.01840,53215
16.02653,58024
16.03465,64773
16.04278,68497
16.05090,80588
16.05902,83130
16.06715,85962
16.07527,85679
16.08338,78693
16.09152,65224
16.09963,60124
16.10777,56505
16.11588,55304
16.12400,54064
16.13213,55116
16.14025,53135
16.14838,54920
16.15650,53131
16.16462,57419
16.17275,55729
16.18087,54468
16.18900,54569
16.19712,49547
16.20523,49555
16.21337,49380
16.22148,51538
16.22960,51855
16.23773,49207
16.24585,49632
16.25398,48180
16.26210,51513
16.27022,54862
16.27835,53508
16.28647,54500
16.29460,52005
16.30272,49383
16.31083,51245
16.31897,55222
16.32708,52147
16.33520,53451
16.34333,47230
16.35145,52158
16.35958,53841
16.36770,56804
16.37582,52773
16.38395,53413
16.39207,50914
16.40020,52171
16.40832,52559
16.41643,52608
16.42457,51142
16.43268,55242
16.44082,51677
16.44893,51850
16.45705,52701
16.46518,47199
16.47330,48143
16.48142,52117
16.48955,60557
16.49767,67380
16.50580,72880
16.51392,78822
16.52203,84247
16.53017,81217
16.53828,82287
16.54642,81890
16.55453,85272
16.56265,75141
16.57078,77057
16.57890,76206
16.58703,74461
16.59515,68492
16.60327,70846
16.61140,68965
16.61952,69184
16.62763,66817
16.63577,62479
16.64388,63225
16.65202,63606
16.66013,67745
16.66825,60636
16.67638,59563
16.68450,64177
16.69263,63679
16.70075,58800
16.70887,62602
16.71700,55427
16.72512,58344
16.73323,59445
16.74137,55109
16.74948,53790
16.75762,47779
16.76573,47591
16.77385,51727
16.78198,51562
16.79010,51635
16.79823,51775
16.80635,47851
16.81447,51373
16.82260,48381
16.83072,49423
16.83885,54127
16.84697,46784
16.85508,50152
16.86322,48165
16.87133,44499
16.87945,48315
16.88758,44671
16.89570,47779
16.90383,47053
16.91195,49823
16.92007,45795
16.92820,48811
16.93632,49287
16.94445,48516
16.95257,51203
16.96068,45933
16.96882,45704
16.97693,48269
16.98507,45767
16.99318,46555
17.00130,44180
17.00943,46028
17.01755,45830
17.02567,48697
17.03380,51158
17.04192,49854
17.05005,48365
17.05817,46715
17.06628,47282
17.07442,45754
17.08253,44207
17.09067,47621
17.09878,40585
17.10690,43196
17.11503,50762
17.12315,46938
17.13127,44324
17.13940,45031
17.14752,48389
17.15565,44988
17.16377,43263
17.17188,45805
17.18002,47081
17.18813,45602
17.19627,49230
17.20438,48164
17.21250,45125
17.22063,44741
17.22875,48256
17.23688,46497
17.24500,45991
17.25312,47918
17.26125,46723
17.26937,42595
17.27748,47750
17.28562,46406
17.29373,48191
17.30187,46662
17.30998,48214
17.31810,46185
17.32623,45255
17.33435,43987
17.34248,46636
17.35060,47997
17.35872,53490
17.36685,56059
17.37497,62799
17.38308,64200
17.39122,70750
17.39933,76548
17.40747,83260
17.41558,78324
17.42370,74627
17.43183,73204
17.43995,74148
17.44808,66644
17.45620,70229
17.46432,73015
17.47245,70861
17.48057,67421
17.48870,63364
17.49682,64836
17.50493,62604
17.51307,64201
17.52118,63584
17.52930,65056
17.53743,64029
17.54555,67879
17.55368,63719
17.56180,61144
17.56992,67713
17.57805,61665
17.58617,62107
17.59430,58839
17.60242,56215
17.61053,57758
17.61867,58493
17.62678,54902
17.63492,56399
17.64303,60455
17.65115,54957
17.65928,56728
17.66740,52764
17.67552,54793
17.68365,54251
17.69177,55494
17.69990,58911
17.70802,62954
17.71613,58993
17.72427,60304
17.73238,59922
17.74052,60162
17.74863,60346
17.75675,59444
17.76488,59466
17.77300,60396
17.78112,54042
17.78925,57388
17.79737,58064
17.80550,57690
17.81362,56027
17.82173,55455
17.82987,57225
17.83798,51128
17.84612,52943
17.85423,54485
17.86235,50238
17.87048,50866
17.87860,54962
17.88673,55533
17.89485,51000
17.90297,53792
17.91110,52841
17.91922,53223
17.92733,56251
17.93547,51439
17.94358,56227
17.95172,52059
17.95983,52398
17.96795,48112
17.97608,48817
17.98420,52061
17.99233,47823
18.00045,47423
18.00857,49442
18.01670,49160
18.02482,51402
18.03295,48146
18.04107,44837
18.04918,45810
18.05732,52415
18.06543,60161
18.07355,57266
18.08168,61189
18.08980,70094
18.09793,98512
18.10605,124977
18.11417,188253
18.12230,232911
18.13042,288535
18.13855,309645
18.14667,319890
18.15478,307048
18.16292,295424
18.17103,272879
18.17915,258133
18.18728,252128
18.19540,241084
18.20353,229492
18.21165,215979
18.21977,217639
18.22790,200301
18.23602,198861
18.24415,188295
18.25227,177621
18.26038,171233
18.26852,160324
18.27663,158687
18.28477,149329
18.29288,135499
18.30100,121845
18.30913,103353
18.31725,90193
18.32537,81935
18.33350,73880
18.34162,70022
18.34975,67631
18.35787,64022
18.36598,64934
18.37412,62908
18.38223,63412
18.39037,64662
18.39848,60194
18.40660,64752
18.41473,61945
18.42285,58893
18.43098,55389
18.43910,62740
18.44722,62025
18.45535,65176
18.46347,63974
18.47158,59648
18.47972,59185
18.48783,65528
18.49597,68373
18.50408,62561
18.51220,61335
18.52033,66979
18.52845,58633
18.53658,57421
18.54470,57954
18.55282,64544
18.56095,52753
18.56907,54065
18.57718,56784
18.58532,57201
18.59343,53997
18.60157,53427
18.60968,58593
18.61780,59843
18.62593,56760
18.63405,55478
18.64218,53018
18.65030,55422
18.65842,58093
18.66655,55507
18.67467,50724
18.68280,51385
18.69092,53971
18.69903,53126
18.70717,53223
18.71528,51744
18.72340,50842
18.73153,48064
18.73965,49835
18.74778,53672
18.75590,50925
18.76402,53277
18.77215,50958
18.78027,47909
18.78840,49671
18.79652,50962
18.80463,50249
18.81277,51935
18.82088,53975
18.82900,47292
18.83713,53366
18.84525,53746
18.85338,49116
18.86150,55041
18.86962,51150
18.87775,57728
18.88587,52553
18.89400,53889
18.90212,56088
18.91023,51766
18.91837,52693
18.92648,58793
18.93462,59934
18.94273,60772
18.95085,55696
18.95898,58314
18.96710,59489
18.97522,58230
18.98335,55973
18.99147,58693
18.99960,58855
19.00772,55593
19.01583,55175
19.02397,55767
19.03208,55764
19.04022,57249
19.04833,49911
19.05645,53268
19.06458,53068
19.07270,47371
19.08083,52046
19.08895,52485
19.09707,53035
19.10520,53520
19.11332,54175
19.12143,57154
19.12957,58898
19.13768,62586
19.14582,64717
19.15393,66291
19.16205,60631
19.17018,65840
19.17830,57967
19.18643,63606
19.19455,55101
19.20267,57009
19.21080,54305
19.21892,57348
19.22703,57646
19.23517,53997
19.24328,57636
19.25142,52119
19.25953,50769
19.26765,53285
19.27578,48397
19.28390,61869
19.29203,54687
19.30015,60296
19.30827,63670
19.31640,66907
19.32452,71457
19.33265,69379
19.34077,65284
19.34888,61427
19.35702,56605
19.36513,63723
19.37325,58441
19.38138,58498
19.38950,59777
19.39763,61499
19.40575,64671
19.41387,63013
19.42200,68859
19.43012,68964
19.43825,65717
19.44637,69878
19.45448,63805
19.46262,65848
19.47073,60868
19.47887,63473
19.48698,62476
19.49510,69473
19.50323,69301
19.51135,76519
19.51947,91466
19.52760,103291
19.53572,130897
19.54385,146300
19.55197,148808
19.56008,137767
19.56822,119993
19.57633,94227
19.58447,82348
19.59258,71331
19.60070,62887
19.60883,63202
19.61695,57895
19.62507,59649
19.63320,59576
19.64132,65296
19.64945,70588
19.65757,83683
19.66568,131521
19.67382,218454
19.68193,349778
19.69007,474975
19.69818,589231
19.70630,639791
19.71443,575081
19.72255,453741
19.73068,340492
19.73880,248055
19.74692,204153
19.75505,157802
19.76317,135999
19.77128,122300
19.77942,112858
19.78753,96478
19.79567,90748
19.80378,82887
19.81190,83004
19.82003,82618
19.82815,78956
19.83628,73790
19.84440,72842
19.85252,75659
19.86065,74432
19.86877,71686
19.87688,75130
19.88502,68058
19.89313,70499
19.90127,78424
19.90938,86841
19.91750,94451
19.92563,105204
19.93375,109781
19.94188,111792
19.95000,120174
19.95812,115171
19.96625,105548
19.97437,109999
19.98250,103261
19.99062,100996
19.99873,97381
20.00687,95433
20.01498,92602
20.02310,96249
20.03123,84793
20.03935,82939
20.04748,91996
20.05560,81950
20.06372,76776
20.07185,78198
20.07997,71284
20.08810,70067
20.09622,64479
20.10433,71774
20.11247,70609
20.12058,71438
20.12872,71035
20.13683,70992
20.14495,72494
20.15308,76896
20.16120,70704
20.16932,71949
20.17745,71951
20.18557,67369
20.19370,71200
20.20182,76915
20.20993,73816
20.21807,79478
20.22618,76769
20.23432,83495
20.24243,77483
20.25055,82561
20.25868,81822
20.26680,94342
20.27493,114464
20.28305,155359
20.29117,231630
20.29930,329716
20.30742,415975
20.31553,441840
20.32367,450497
20.33178,384546
20.33992,310877
20.34803,238081
20.35615,173835
20.36428,143178
20.37240,121016
20.38053,103771
20.38865,96544
20.39677,93287
20.40490,81548
20.41302,82746
20.42113,77955
20.42927,75532
20.43738,85481
20.44552,100575
20.45363,120031
20.46175,138129
20.46988,155204
20.47800,167398
20.48613,168320
20.49425,155689
20.50237,130066
20.51050,120636
20.51862,95280
20.52675,94162
20.53487,80533
20.54298,71032
20.55112,70666
20.55923,68275
20.56735,66053
20.57548,69672
20.58360,67049
20.59173,68012
20.59985,63372
20.60797,61853
20.61610,63846
20.62422,61196
20.63235,58687
20.64047,58378
20.64858,62981
20.65672,61034
20.66483,62337
20.67295,59621
20.68108,62194
20.68920,65506
20.69733,63986
20.70545,59245
20.71357,66660
20.72170,62631
20.72982,62122
20.73795,63710
20.74607,56892
20.75418,62777
20.76232,60239
20.77043,57899
20.77857,56559
20.78668,60023
20.79480,58544
20.80293,58224
20.81105,57906
20.81917,55831
20.82730,60583
20.83542,70969
20.84355,69834
20.85167,73226
20.85978,70929
20.86792,72468
20.87603,75695
20.88417,73520
20.89228,65962
20.90040,68070
20.90853,65346
20.91665,65970
20.92478,60130
20.93290,59954
20.94102,55309
20.94915,60852
20.95727,58882
20.96538,63240
20.97352,54905
20.98163,60646
20.98977,58657
20.99788,58945
21.00600,60857
21.01413,60074
21.02225,51970
21.03038,56401
21.03850,57856
21.04662,58244
21.05475,56952
21.06287,55605
21.07098,57691
21.07912,58427
21.08723,55302
21.09537,55774
21.10348,53687
21.11160,50739
21.11973,50939
21.12785,55300
21.13598,52302
21.14410,53869
21.15222,51827
21.16035,53626
21.16847,63302
21.17660,64566
21.18472,70270
21.19283,74530
21.20097,76857
21.20908,78781
21.21720,79368
21.22533,76188
21.23345,72332
21.24158,72874
21.24970,69778
21.25782,66656
21.26595,65193
21.27407,70738
21.28220,69085
21.29032,66804
21.29843,64172
21.30657,62225
21.31468,63712
21.32282,63971
21.33093,61804
21.33905,59975
21.34718,57589
21.35530,59637
21.36342,55435
21.37155,58430
21.37967,56936
21.38780,55853
21.39592,61294
21.40403,55370
21.41217,56571
21.42028,62487
21.42842,64248
21.43653,64475
21.44465,68240
21.45278,67695
21.46090,68386
21.46902,76861
21.47715,63885
21.48527,71266
21.49340,68844
21.50152,63272
21.50963,64833
21.51777,60840
21.52588,58427
21.53402,59775
21.54213,61644
21.55025,60002
21.55838,62132
21.56650,60492
21.57463,54898
21.58275,58054
21.59087,58965
21.59900,58380
21.60712,64135
21.61523,65453
21.62337,66336
21.63148,75845
21.63962,85400
21.64773,98980
21.65585,121321
21.66398,153450
21.67210,173278
21.68023,183887
21.68835,175428
21.69647,157219
21.70460,128310
21.71272,111790
21.72083,97746
21.72897,92962
21.73708,82186
21.74522,77473
21.75333,77558
21.76145,80291
21.76958,78697
21.77770,78024
21.78583,77065
21.79395,76541
21.80207,85627
21.81020,77062
21.81832,70114
21.82645,77066
21.83457,83316
21.84268,95251
21.85082,115309
21.85893,141045
21.86705,171665
21.87518,178900
21.88330,176920
21.89143,153677
21.89955,135738
21.90767,105219
21.91580,91310
21.92392,83013
21.93205,75261
21.94017,76039
21.94828,73621
21.95642,71462
21.96453,68310
21.97267,69001
21.98078,70929
21.98890,72201
21.99703,70641
22.00515,65501
22.01327,68009
22.02140,63502
22.02952,65349
22.03765,69658
22.04577,68403
22.05388,64641
22.06202,67474
22.07013,69690
22.07827,61931
22.08638,64898
22.09450,66808
22.10263,66409
22.11075,67123
22.11887,66310
22.12700,67224
22.13512,71681
22.14325,67984
22.15137,66053
22.15948,67386
22.16762,71287
22.17573,66932
22.18387,75758
22.19198,70560
22.20010,69276
22.20823,74394
22.21635,69165
22.22448,67032
22.23260,67006
22.24072,77278
22.24885,77674
22.25697,89689
22.26508,90977
22.27322,92751
22.28133,82272
22.28947,83864
22.29758,80328
22.30570,69230
22.31383,65382
22.32195,66601
22.33008,70275
22.33820,66371
22.34632,67549
22.35445,63083
22.36257,63912
22.37070,66371
22.37882,60859
22.38693,61279
22.39507,63226
22.40318,62483
22.41130,61584
22.41943,64041
22.42755,62665
22.43568,63617
22.44380,65152
22.45192,68793
22.46005,70701
22.46817,72790
22.47630,70392
22.48442,73193
22.49253,68590
22.50067,69551
22.50878,72488
22.51690,67448
22.52503,64143
22.53315,65824
22.54128,64634
22.54940,68860
22.55752,69288
22.56565,70075
22.57377,72271
22.58190,69984
22.59002,73695
22.59813,73110
22.60627,67251
22.61438,67313
22.62252,62514
22.63063,60173
22.63875,59633
22.64688,59561
22.65500,61006
22.66312,54990
22.67125,57050
22.67937,57800
22.68750,54932
22.69562,57698
22.70373,58160
22.71187,60034
22.71998,65024
22.72812,63368
22.73623,63114
22.74435,72390
22.75248,71656
22.76060,76834
22.76872,66938
22.77685,68198
22.78497,65055
22.79310,61168
22.80122,59456
22.80933,66140
22.81747,59877
22.82558,62714
22.83372,65787
22.84183,66479
22.84995,62952
22.85808,66618
22.86620,67250
22.87433,69057
22.88245,65524
22.89057,69489
22.89870,74453
22.90682,71244
22.91493,77216
22.92307,88487
22.93118,106597
22.93932,135251
22.94743,172384
22.95555,213039
22.96368,248218
22.97180,267595
22.97993,253422
22.98805,230968
22.99617,207017
23.00430,191143
23.01242,178777
23.02055,149536
23.02867,138443
23.03678,119680
23.04492,107043
23.05303,87885
23.06115,82555
23.06928,74987
23.07740,72974
23.08553,72443
23.09365,70906
23.10177,68846
23.10990,67580
23.11802,66409
23.12615,63524
23.13427,61767
23.14238,60098
23.15052,54936
23.15863,53238
23.16675,53333
23.17488,50611
23.18300,51756
23.19113,53323
23.19925,53607
23.20737,48419
23.21550,51344
23.22362,55798
23.23175,54695
23.23987,50692
23.24798,51730
23.25612,47237
23.26423,47144
23.27237,49130
23.28048,49346
23.28860,48262
23.29673,49629
23.30485,49571
23.31297,55187
23.32110,53817
23.32922,55417
23.33735,51572
23.34547,51202
23.35358,48609
23.36172,47415
23.36983,50364
23.37797,52472
23.38608,51178
23.39420,55206
23.40233,52375
23.41045,54656
23.41858,58633
23.42670,51672
23.43482,55839
23.44295,50687
23.45107,55367
23.45918,50614
23.46732,52118
23.47543,50927
23.48357,48635
23.49168,50043
23.49980,49932
23.50793,51434
23.51605,51210
23.52418,53434
23.53230,47566
23.54042,49649
23.54855,45989
23.55667,50695
23.56478,50389
23.57292,51062
23.58103,48044
23.58917,54054
23.59728,52237
23.60540,53670
23.61353,55250
23.62165,54923
23.62978,56667
23.63790,54962
23.64602,52835
23.65415,54183
23.66227,53361
23.67040,54673
23.67852,55609
23.68663,59089
23.69477,59667
23.70288,63244
23.71100,61421
23.71913,56276
23.72725,56518
23.73538,59528
23.74350,56936
23.75162,58336
23.75975,80044
23.76787,140960
23.77600,326213
23.78412,830591
23.79223,1820951
23.80037,3111065
23.80848,4179178
23.81662,4855181
23.82473,4585663
23.83285,3722807
23.84098,2721778
23.84910,1889510
23.85722,1327081
23.86535,940718
23.87347,740550
23.88160,584930
23.88972,493928
23.89783,427520
23.90597,380487
23.91408,347721
23.92222,311013
23.93033,278110
23.93845,264054
23.94658,251265
23.95470,229003
23.96282,220014
23.97095,208350
23.97907,203010
23.98720,190775
23.99532,187310
24.00343,181582
24.01157,168774
24.01968,167545
24.02782,159267
24.03593,148723
24.04405,160395
24.05218,148928
24.06030,148755
24.06843,145120
24.07655,134640
24.08467,134991
24.09280,134614
24.10092,124109
24.10903,128249
24.11717,124388
24.12528,118224
24.13342,119590
24.14153,121754
24.14965,118587
24.15778,126204
24.16590,133775
24.17403,144480
24.18215,143761
24.19027,143627
24.19840,137072
24.20652,133480
24.21463,128719
24.22277,128753
24.23088,129953
24.23902,139630
24.24713,137793
24.25525,145104
24.26338,142650
24.27150,134382
24.27963,127768
24.28775,118422
24.29587,109718
24.30400,104870
24.31212,98710
24.32025,99142
24.32837,94291
24.33648,93370
24.34462,96808
24.35273,96978
24.36085,94693
24.36898,94378
24.37710,98394
24.38523,98635
24.39335,94940
24.40147,94812
24.40960,100579
24.41772,112591
24.42585,125242
24.43397,133450
24.44208,139335
24.45022,129765
24.45833,117315
24.46647,99256
24.47458,92508
24.48270,81863
24.49083,89874
24.49895,93291
24.50707,89691
24.51520,94226
24.52332,101149
24.53145,109043
24.53957,126475
24.54768,129670
24.55582,132614
24.56393,128490
24.57207,120539
24.58018,112144
24.58830,109906
24.59643,101535
24.60455,100620
24.61267,101667
24.62080,98115
24.62892,94480
24.63705,95964
24.64517,88277
24.65328,91315
24.66142,92712
24.66953,90305
24.67767,87952
24.68578,92201
24.69390,98339
24.70203,98374
24.71015,92025
24.71828,84120
24.72640,80535
24.73452,81748
24.74265,80168
24.75077,72879
24.75888,82010
24.76702,75018
24.77513,73448
24.78327,74501
24.79138,74832
24.79950,74461
24.80763,78179
24.81575,80522
24.82388,69943
24.83200,72323
24.84012,68667
24.84825,74873
24.85637,67568
24.86450,76725
24.87262,75181
24.88073,81477
24.88887,84395
24.89698,85095
24.90510,76335
24.91323,84917
24.92135,84011
24.92948,87070
24.93760,78397
24.94572,79721
24.95385,75414
24.96197,75383
24.97010,73322
24.97822,68159
24.98633,62429
24.99447,63709
25.00258,67295
25.01070,68690
25.01883,66753
25.02695,65130
25.03508,69071
25.04320,68723
25.05132,70549
25.05945,73474
25.06757,72221
25.07570,75464
25.08382,73910
25.09193,66509
25.10007,63219
25.10818,65172
25.11632,67365
25.12443,73012
25.13255,81077
25.14068,103706
25.14880,134770
25.15692,200008
25.16505,274088
25.17317,344686
25.18130,370672
25.18942,374237
25.19753,322849
25.20567,261295
25.21378,210330
25.22192,158006
25.23003,122589
25.23815,106745
25.24628,94250
25.25440,87073
25.26252,75978
25.27065,72821
25.27877,75593
25.28690,76425
25.29502,80396
25.30313,76381
25.31127,77712
25.31938,81641
25.32752,83184
25.33563,86533
25.34375,92453
25.35188,79238
25.36000,76866
25.36813,77107
25.37625,71454
25.38437,67565
25.39250,68077
25.40062,63793
25.40873,66208
25.41687,62389
25.42498,62150
25.43312,54376
25.44123,64434
25.44935,57798
25.45748,62427
25.46560,61705
25.47373,62779
25.48185,62050
25.48997,62311
25.49810,66437
25.50622,70389
25.51435,74826
25.52247,75200
25.53058,75350
25.53872,74863
25.54683,61473
25.55495,65806
25.56308,65839
25.57120,63948
25.57933,61515
25.58745,60729
25.59557,64988
25.60370,60842
25.61182,59459
25.61995,56190
25.62807,62128
25.63618,56726
25.64432,61409
25.65243,60797
25.66055,54970
25.66868,59758
25.67680,56465
25.68493,55117
25.69305,53927
25.70117,56606
25.70930,57306
25.71742,61101
25.72555,61899
25.73367,63064
25.74178,63503
25.74992,61454
25.75803,62071
25.76617,62066
25.77428,62246
25.78240,62134
25.79053,57839
25.79865,61872
25.80677,60655
25.81490,62179
25.82302,65928
25.83115,64619
25.83927,61849
25.84738,63028
25.85552,57910
25.86363,61748
25.87177,57680
25.87988,61291
25.88800,56491
25.89613,58006
25.90425,56683
25.91238,56497
25.92050,52499
25.92862,55206
25.93675,55051
25.94487,55943
25.95298,51340
25.96112,55249
25.96923,56242
25.97737,62592
25.98548,61804
25.99360,63020
26.00173,63303
26.00985,56350
26.01798,54363
26.02610,56445
26.03422,55126
26.04235,56921
26.05047,51536
26.05858,52737
26.06672,51098
26.07483,54739
26.08297,58689
26.09108,58122
26.09920,56724
26.10733,62705
26.11545,57427
26.12358,60968
26.13170,61976
26.13982,66935
26.14795,65038
26.15607,69783
26.16420,72264
26.17232,80989
26.18043,73165
26.18857,78833
26.19668,78021
26.20480,79755
26.21293,69751
26.22105,73293
26.22918,63792
26.23730,61620
26.24542,64584
26.25355,61609
26.26167,57852
26.26980,61374
26.27792,60029
26.28603,61450
26.29417,63311
26.30228,55870
26.31040,59420
26.31853,58636
26.32665,61592
26.33478,57207
26.34290,57422
26.35102,52539
26.35915,53023
26.36727,57319
26.37540,58178
26.38352,72227
26.39163,98762
26.39977,137235
26.40788,196613
26.41602,237576
26.42413,296564
26.43225,319238
26.44038,323161
26.44850,291309
26.45662,245288
26.46475,192323
26.47287,155169
26.48100,126970
26.48912,97219
26.49723,86862
26.50537,72266
26.51348,68479
26.52162,59971
26.52973,62547
26.53785,62143
26.54598,58984
26.55410,58582
26.56223,58188
26.57035,55701
26.57847,55969
26.58660,53871
26.59472,53036
26.60283,54469
26.61097,54075
26.61908,56474
26.62722,53334
26.63533,55536
26.64345,52380
26.65158,52245
26.65970,52257
26.66783,53103
26.67595,56558
26.68407,53471
26.69220,54912
26.70032,53953
26.70845,56552
26.71657,53103
26.72468,52453
26.73282,55261
26.74093,57149
26.74905,58295
26.75718,51581
26.76530,54328
26.77343,54247
26.78155,54987
26.78967,57457
26.79780,51660
26.80592,58592
26.81405,54061
26.82217,57257
26.83028,58648
26.83842,57051
26.84653,58905
26.85465,56399
26.86278,60714
26.87090,59292
26.87903,57762
26.88715,66067
26.89527,58769
26.90340,66943
26.91152,65019
26.91965,57293
26.92777,56006
26.93588,51909
26.94402,62006
26.95213,53284
26.96027,57103
26.96838,63440
26.97650,62913
26.98463,91417
26.99275,165693
27.00087,329025
27.00900,665295
27.01712,1277059
27.02525,2113648
27.03337,3058630
27.04148,3427518
27.04962,3323515
27.05773,2760849
27.06587,2126443
27.07398,1542594
27.08210,1098162
27.09023,794817
27.09835,626741
27.10647,500848
27.11460,437050
27.12272,368630
27.13085,332843
27.13897,288436
27.14708,266706
27.15522,251041
27.16333,238585
27.17147,231184
27.17958,219413
27.18770,196601
27.19583,196024
27.20395,192124
27.21208,192781
27.22020,187817
27.22832,187168
27.23645,184353
27.24457,183942
27.25268,178519
27.26082,160171
27.26893,151906
27.27707,143364
27.28518,142269
27.29330,140565
27.30143,127389
27.30955,129791
27.31768,128768
27.32580,120462
27.33392,117455
27.34205,114698
27.35017,111702
27.35830,109122
27.36642,115479
27.37453,120149
27.38267,111887
27.39078,111137
27.39890,112276
27.40703,106632
27.41515,105504
27.42328,97216
27.43140,99240
27.43952,97952
27.44765,100752
27.45577,95576
27.46390,94451
27.47202,96370
27.48013,92943
27.48827,95732
27.49638,90317
27.50450,90464
27.51263,86064
27.52075,86913
27.52888,84134
27.53700,88194
27.54512,87537
27.55325,91147
27.56137,85190
27.56950,93777
27.57762,91604
27.58573,89650
27.59387,87849
27.60198,81427
27.61012,78959
27.61823,82187
27.62635,77082
27.63448,86924
27.64260,84356
27.65072,87967
27.65885,83504
27.66697,83198
27.67510,83862
27.68322,83175
27.69133,79108
27.69947,84394
27.70758,80053
27.71572,85498
27.72383,75222
27.73195,77597
27.74008,77202
27.74820,79954
27.75633,74821
27.76445,72975
27.77257,74630
27.78070,79379
27.78882,76198
27.79693,66993
27.80507,69771
27.81318,71915
27.82132,72200
27.82943,74194
27.83755,74261
27.84568,72670
27.85380,70943
27.86193,71401
27.87005,72255
27.87817,73142
27.88630,70341
27.89442,70611
27.90253,73031
27.91067,66291
27.91878,69586
27.92692,71294
27.93503,67756
27.94315,65576
27.95128,66932
27.95940,67063
27.96753,62282
27.97565,65746
27.98377,68152
27.99190,66794
28.00002,64954
28.00815,66609
28.01627,67682
28.02438,65929
28.03252,66554
28.04063,70424
28.04875,68783
28.05688,78369
28.06500,87163
28.07313,82013
28.08125,86328
28.08937,83849
28.09750,85305
28.10562,82973
28.11375,75604
28.12187,74860
28.12998,74770
28.13812,69165
28.14623,67941
28.15435,66302
28.16248,66579
28.17060,64000
28.17873,72622
28.18685,68870
28.19497,65995
28.20310,66630
28.21122,64360
28.21935,69275
28.22747,72401
28.23558,82026
28.24372,86944
28.25183,85894
28.25997,88992
28.26808,81027
28.27620,75689
28.28433,74082
28.29245,73205
28.30057,71784
28.30870,74143
28.31682,73223
28.32495,88298
28.33307,116461
28.34118,148389
28.34932,204819
28.35743,275720
28.36557,340455
28.37368,423423
28.38180,510109
28.38993,552616
28.39805,571179
28.40618,550587
28.41430,527861
28.42242,481338
28.43055,436374
28.43867,386238
28.44678,342702
28.45492,298245
28.46303,262056
28.47117,242964
28.47928,213091
28.48740,200879
28.49553,186404
28.50365,168587
28.51178,162175
28.51990,158387
28.52802,145054
28.53615,143646
28.54427,137240
28.55238,129502
28.56052,129834
28.56863,127536
28.57677,122493
28.58488,115854
28.59300,110604
28.60113,110395
28.60925,106996
28.61738,106983
28.62550,104088
28.63362,107489
28.64175,104509
28.64987,105331
28.65800,112359
28.66612,110344
28.67423,115462
28.68237,112409
28.69048,112539
28.69860,115627
28.70673,107157
28.71485,107551
28.72298,106655
28.73110,90316
28.73922,89821
28.74735,87172
28.75547,86986
28.76360,85977
28.77172,86052
28.77983,88697
28.78797,92467
28.79608,98970
28.80422,98977
28.81233,99723
28.82045,100742
28.82858,101362
28.83670,94904
28.84482,91193
28.85295,83846
28.86107,83861
28.86920,81556
28.87732,80991
28.88543,85331
28.89357,81935
28.90168,81906
28.90982,76494
28.91793,80184
28.92605,82776
28.93418,82652
28.94230,78484
28.95042,88203
28.95855,82686
28.96667,78348
28.97480,84006
28.98292,86553
28.99103,81470
28.99917,77578
29.00728,77957
29.01542,80841
29.02353,77164
29.03165,70615
29.03978,75961
29.04790,74759
29.05603,71193
29.06415,67780
29.07227,70161
29.08040,71243
29.08852,69614
29.09663,69359
29.10477,71290
29.11288,76042
29.12102,71402
29.12913,67665
29.13725,70231
29.14538,65812
29.15350,71393
29.16163,71174
29.16975,71550
29.17787,68821
29.18600,72923
29.19412,70078
29.20225,71093
29.21037,68656
29.21848,70309
29.22662,73498
29.23473,70109
29.24285,75196
29.25098,73888
29.25910,71184
29.26723,70410
29.27535,74420
29.28347,68739
29.29160,72920
29.29972,73607
29.30785,71288
29.31597,68784
29.32408,67573
29.33222,68131
29.34033,67192
29.34845,68295
29.35658,69652
29.36470,72058
29.37283,69233
29.38095,67543
29.38907,68096
29.39720,68985
29.40532,61528
29.41345,66238
29.42157,67056
29.42968,67712
29.43782,65277
29.44593,66509
29.45407,69999
29.46218,64590
29.47030,66617
29.47843,70069
29.48655,65528
29.49467,67058
29.50280,67671
29.51092,73618
29.51905,76167
29.52717,83408
29.53528,82671
29.54342,81258
29.55153,78803
29.55967,70980
29.56778,73913
29.57590,65962
29.58403,71052
29.59215,61855
29.60027,65821
29.60840,64610
29.61652,59213
29.62465,61145
29.63277,60744
29.64088,63639
29.64902,66273
29.65713,62976
29.66527,62760
29.67338,58873
29.68150,61458
29.68963,57165
29.69775,62815
29.70588,62300
29.71400,60164
29.72212,55254
29.73025,59229
29.73837,59488
29.74648,57774
29.75462,57077
29.76273,57506
29.77087,65338
29.77898,60398
29.78710,57556
29.79523,54450
29.80335,57391
29.81148,56846
29.81960,55351
29.82772,52755
29.83585,54322
29.84397,55551
29.85210,55035
29.86022,55717
29.86833,54170
29.87647,55263
29.88458,56514
29.89270,59518
29.90083,62859
29.90895,64919
29.91708,67336
29.92520,69259
29.93332,72882
29.94145,69302
29.94957,63057
29.95770,65460
29.96582,66504
29.97393,70588
29.98207,76998
29.99018,88845
29.99830,99700
30.00643,128213
30.01455,149240
30.02268,166593
30.03080,190336
30.03892,205376
30.04705,227135
30.05517,238457
30.06330,235664
30.07142,225209
30.07953,223440
30.08767,228663
30.09578,216000
30.10392,195835
30.11203,178764
30.12015,181493
30.12828,162575
30.13640,153613
30.14452,145511
30.15265,137338
30.16077,127177
30.16890,123685
30.17702,119665
30.18513,112460
30.19327,107488
30.20138,107614
30.20952,101524
30.21763,96946
30.22575,96310
30.23388,98691
30.24200,93895
30.25013,95163
30.25825,88003
30.26637,86665
30.27450,90131
30.28262,78253
30.29073,79367
30.29887,79171
30.30698,76528
30.31512,76278
30.32323,76269
30.33135,70111
30.33948,71515
30.34760,74467
30.35573,70791
30.36385,71936
30.37197,74439
30.38010,70847
30.38822,72368
30.39633,72164
30.40447,70136
30.41258,67217
30.42072,69137
30.42883,68602
30.43695,65043
30.44508,66722
30.45320,69186
30.46133,65706
30.46945,65050
30.47757,63096
30.48570,67150
30.49382,68475
30.50195,65971
30.51007,66469
30.51818,67553
30.52632,65812
30.53443,65372
30.54255,65655
30.55068,61746
30.55880,62345
30.56693,61534
30.57505,67198
30.58317,62491
30.59130,65377
30.59942,61349
30.60755,64201
30.61567,64034
30.62378,66199
30.63192,61910
30.64003,62076
30.64815,60763
30.65628,60772
30.66440,65691
30.67253,57559
30.68065,60190
30.68877,60549
30.69690,60439
30.70502,56320
30.71315,59153
30.72127,57087
30.72938,59644
30.73752,58054
30.74563,59800
30.75377,56964
30.76188,58498
30.77000,57475
30.77813,59567
30.78625,60356
30.79437,60060
30.80250,60816
30.81062,63508
30.81875,65469
30.82687,71643
30.83498,71717
30.84312,80055
30.85123,76575
30.85937,65233
30.86748,69124
30.87560,68334
30.88373,63417
30.89185,63307
30.89998,59580
30.90810,58496
30.91622,59081
30.92435,53677
30.93247,55576
30.94058,53621
30.94872,58385
30.95683,58884
30.96497,60456
30.97308,59262
30.98120,58814
30.98933,56180
30.99745,60233
31.00558,62991
31.01370,58615
31.02182,57559
31.02995,54735
31.03807,62806
31.04620,56421
31.05432,55832
31.06243,58281
31.07057,58381
31.07868,58992
31.08680,58823
31.09493,59742
31.10305,70071
31.11118,69760
31.11930,79675
31.12742,78344
31.13555,81210
31.14367,78118
31.15180,71523
31.15992,68662
31.16803,62777
31.17617,62213
31.18428,62809
31.19240,68848
31.20053,85029
31.20865,112694
31.21678,160827
31.22490,211962
31.23302,270749
31.24115,305046
31.24927,323063
31.25740,286674
31.26552,249495
31.27363,182644
31.28177,135101
31.28988,100762
31.29802,86207
31.30613,67983
31.31425,67786
31.32238,65979
31.33050,65312
31.33862,62839
31.34675,56518
31.35487,63887
31.36300,62285
31.37112,59015
31.37923,63095
31.38737,60055
31.39548,59522
31.40362,58944
31.41173,61236
31.41985,60584
31.42798,59252
31.43610,56551
31.44422,58923
31.45235,62481
31.46047,57230
31.46860,62812
31.47672,62599
31.48483,62014
31.49297,60014
31.50108,55170
31.50922,55962
31.51733,61032
31.52545,61167
31.53358,58146
31.54170,63829
31.54983,71250
31.55795,60688
31.56607,64359
31.57420,62836
31.58232,60260
31.59043,58383
31.59857,60479
31.60668,62151
31.61482,61299
31.62293,56000
31.63105,54791
31.63918,56551
31.64730,58704
31.65543,60028
31.66355,63446
31.67167,62787
31.67980,61854
31.68792,63721
31.69605,59995
31.70417,62187
31.71228,62841
31.72042,58979
31.72853,53896
31.73665,56125
31.74478,60216
31.75290,55532
31.76103,57908
31.76915,55670
31.77727,56597
31.78540,59938
31.79352,53385
31.80165,54565
31.80977,56312
31.81788,59585
31.82602,66901
31.83413,65659
31.84225,64081
31.85038,67276
31.85850,64622
31.86663,72143
31.87475,71938
31.88287,77626
31.89100,76487
31.89912,80150
31.90725,73894
31.91537,68127
31.92348,67295
31.93162,67885
31.93973,72947
31.94787,81487
31.95598,92253
31.96410,110251
31.97223,122349
31.98035,134423
31.98847,144434
31.99660,153720
32.00472,154694
32.01285,150393
32.02097,160708
32.02908,146998
32.03722,145940
32.04533,142274
32.05347,125703
32.06158,115896
32.06970,111747
32.07783,107434
32.08595,97493
32.09408,93906
32.10220,91204
32.11032,88867
32.11845,96410
32.12657,96192
32.13468,90092
32.14282,83048
32.15093,76943
32.15907,81821
32.16718,69724
32.17530,76051
32.18343,73167
32.19155,67681
32.19968,66962
32.20780,68416
32.21592,67834
32.22405,65727
32.23217,69140
32.24028,67008
32.24842,66489
32.25653,61697
32.26467,61482
32.27278,64048
32.28090,69246
32.28903,66390
32.29715,62417
32.30528,61896
32.31340,61719
32.32152,64673
32.32965,63632
32.33777,63142
32.34590,65602
32.35402,66288
32.36213,63865
32.37027,67288
32.37838,67156
32.38650,68615
32.39463,68733
32.40275,66814
32.41088,68388
32.41900,68499
32.42712,58396
32.43525,62360
32.44337,65549
32.45150,65701
32.45962,58000
32.46773,61904
32.47587,64871
32.48398,61029
32.49210,59048
32.50023,65600
32.50835,61529
32.51648,63193
32.52460,60890
32.53272,62518
32.54085,59171
32.54897,58628
32.55710,59444
32.56522,63538
32.57333,60533
32.58147,56716
32.58958,62607
32.59772,60285
32.60583,55009
32.61395,53693
32.62208,57061
32.63020,62560
32.63832,58237
32.64645,56821
32.65457,57682
32.66270,60271
32.67082,61790
32.67893,68289
32.68707,63542
32.69518,76626
32.70332,77308
32.71143,72745
32.71955,73940
32.72768,68743
32.73580,65583
32.74393,67572
32.75205,66119
32.76017,66409
32.76830,63314
32.77642,59358
32.78453,56184
32.79267,59361
32.80078,57014
32.80892,57142
32.81703,56894
32.82515,59125
32.83328,58157
32.84140,54303
32.84953,56160
32.85765,58420
32.86577,59117
32.87390,54231
32.88202,59019
32.89013,56196
32.89827,52630
32.90638,62973
32.91452,59710
32.92263,61625
32.93075,62176
32.93888,63333
32.94700,60366
32.95513,59770
32.96325,62154
32.97137,61127
32.97950,61672
32.98762,61147
32.99575,61430
33.00387,54837
33.01198,60897
33.02012,65883
33.02823,62734
33.03635,62090
33.04448,63790
33.05260,63321
33.06073,55307
33.06885,57903
33.07697,60087
33.08510,61321
33.09322,68878
33.10135,69626
33.10947,75629
33.11758,79799
33.12572,89698
33.13383,97715
33.14197,93876
33.15008,94410
33.15820,93770
33.16633,75777
33.17445,73344
33.18257,67714
33.19070,62231
33.19882,62097
33.20695,62359
33.21507,57317
33.22318,61479
33.23132,66245
33.23943,66443
33.24757,67467
33.25568,71588
33.26380,63686
33.27193,67956
33.28005,61726
33.28817,62348
33.29630,62832
33.30442,64702
33.31255,60162
33.32067,59800
33.32878,59683
33.33692,60284
33.34503,56972
33.35317,60307
33.36128,65675
33.36940,59952
33.37753,59351
33.38565,56336
33.39378,62040
33.40190,61491
33.41002,60770
33.41815,56339
33.42627,57644
33.43438,54585
33.44252,54977
33.45063,56909
33.45877,55431
33.46688,54870
33.47500,58145
33.48313,57920
33.49125,53967
33.49938,55225
33.50750,51691
33.51562,61743
33.52375,56244
33.53187,59698
33.53998,59477
33.54812,56751
33.55623,58227
33.56437,60046
33.57248,54351
33.58060,58862
33.58873,60679
33.59685,59210
33.60498,58795
33.61310,56329
33.62122,61236
33.62935,57820
33.63747,57306
33.64560,54974
33.65372,57447
33.66183,56451
33.66997,59376
33.67808,59883
33.68620,55844
33.69433,63358
33.70245,56313
33.71058,57683
33.71870,57404
33.72682,57652
33.73495,54801
33.74307,57295
33.75120,55690
33.75932,58531
33.76743,51804
33.77557,55294
33.78368,57674
33.79182,53387
33.79993,59257
33.80805,54502
33.81618,56692
33.82430,55415
33.83242,56312
33.84055,56241
33.84867,50940
33.85680,60288
33.86492,61024
33.87303,61422
33.88117,60423
33.88928,61491
33.89742,58525
33.90553,61251
33.91365,60078
33.92178,61959
33.92990,62590
33.93802,58898
33.94615,64106
33.95427,59301
33.96240,60472
33.97052,57680
33.97863,58999
33.98677,57202
33.99488,59753
34.00302,56772
34.01113,61764
34.01925,54125
34.02738,56823
34.03550,59665
34.04363,57637
34.05175,57687
34.05987,57818
34.06800,58138
34.07612,58924
34.08423,58933
34.09237,58974
34.10048,58069
34.10862,57929
34.11673,61967
34.12485,56186
34.13298,59919
34.14110,56764
34.14923,53040
34.15735,56549
34.16547,57584
34.17360,61171
34.18172,59235
34.18985,56123
34.19797,56293
34.20608,55055
34.21422,59300
34.22233,57026
34.23045,54706
34.23858,57024
34.24670,56722
34.25483,56556
34.26295,57610
34.27107,57309
34.27920,58993
34.28732,54016
34.29545,59989
34.30357,57239
34.31168,59228
34.31982,58114
34.32793,58694
34.33605,58364
34.34418,54886
34.35230,55797
34.36043,56731
34.36855,57197
34.37667,62220
34.38480,59948
34.39292,60123
34.40105,56186
34.40917,59682
34.41728,59182
34.42542,58704
34.43353,60044
34.44167,58315
34.44978,56665
34.45790,57139
34.46603,57286
34.47415,58248
34.48227,55199
34.49040,61405
34.49852,60754
34.50665,62834
34.51477,57849
34.52288,63832
34.53102,62128
34.53913,60885
34.54727,67069
34.55538,73442
34.56350,83374
34.57163,100260
34.57975,107214
34.58788,117427
34.59600,119584
34.60412,113075
34.61225,106837
34.62037,103318
34.62848,94141
34.63662,90199
34.64473,87841
34.65287,82591
34.66098,75549
34.66910,80048
34.67723,74095
34.68535,76257
34.69348,71881
34.70160,64277
34.70972,73097
34.71785,68848
34.72597,69363
34.73408,73145
34.74222,70857
34.75033,65358
34.75847,67631
34.76658,73019
34.77470,73005
34.78283,71621
34.79095,66865
34.79908,67660
34.80720,65457
34.81532,66438
34.82345,68467
34.83157,62926
34.83970,61660
34.84782,62150
34.85593,67051
34.86407,70221
34.87218,59597
34.88030,63367
34.88843,66262
34.89655,61891
34.90468,69428
34.91280,64436
34.92092,65845
34.92905,60434
34.93717,63051
34.94530,59682
34.95342,69092
34.96153,63157
34.96967,66902
34.97778,68663
34.98590,67549
34.99403,67957
35.00215,71271
35.01028,69942
35.01840,62272
35.02652,65566
35.03465,67232
35.04277,67471
35.05090,64708
35.05902,65522
35.06713,65229
35.07527,67652
35.08338,68052
35.09152,69500
35.09963,62496
35.10775,65346
35.11588,70735
35.12400,67606
35.13212,66043
35.14025,65633
35.14837,68127
35.15650,72038
35.16462,73241
35.17273,71418
35.18087,73168
35.18898,76312
35.19712,70240
35.20523,69368
35.21335,72080
35.22148,73196
35.22960,65106
35.23773,65889
35.24585,61687
35.25397,67201
35.26210,63149
35.27022,64656
35.27833,62291
35.28647,69110
35.29458,72638
35.30272,66499
35.31083,65306
35.31895,63819
35.32708,65690
35.33520,64234
35.34333,64344
35.35145,64642
35.35957,61254
35.36770,65084
35.37582,62522
35.38393,64940
35.39207,64014
35.40018,64810
35.40832,66717
35.41643,64170
35.42455,65336
35.43268,67707
35.44080,68556
35.44893,70497
35.45705,72774
35.46517,79316
35.47330,73493
35.48142,73513
35.48955,72678
35.49767,70216
35.50578,70317
35.51392,68798
35.52203,73099
35.53015,69284
35.53828,66084
35.54640,64521
35.55453,65642
35.56265,66786
35.57077,71643
35.57890,68138
35.58702,65260
35.59515,67565
35.60327,72161
35.61138,68363
35.61952,66608
35.62763,68145
35.63577,63388
35.64388,67844
35.65200,67101
35.66013,67944
35.66825,65194
35.67637,63210
35.68450,64690
35.69262,68190
35.70075,65880
35.70887,73646
35.71698,74732
35.72512,74831
35.73323,73477
35.74137,72588
35.74948,74369
35.75760,69484
35.76573,74019
35.77385,73861
35.78197,74890
35.79010,76378
35.79822,75557
35.80635,82708
35.81447,68957
35.82258,70139
35.83072,66226
35.83883,75380
35.84697,77662
35.85508,71722
35.86320,68945
35.87133,69812
35.87945,71938
35.88758,75410
35.89570,67639
35.90382,70818
35.91195,66934
35.92007,60564
35.92818,67357
35.93632,68543
35.94443,67897
35.95257,70226
35.96068,67713
35.96880,65135
35.97693,65529
35.98505,64931
35.99318,65652
36.00130,70482
36.00942,68572
36.01755,71210
36.02567,67937
36.03378,75343
36.04192,70652
36.05003,78488
36.05817,75463
36.06628,73507
36.07440,69720
36.08253,74654
36.09065,64745
36.09878,77115
36.10690,75012
36.11502,71270
36.12315,68657
36.13127,68807
36.13940,71559
36.14752,72239
36.15563,67975
36.16377,69722
36.17188,71244
36.18000,66993
36.18813,68881
36.19625,68060
36.20438,71211
36.21250,66202
36.22062,67113
36.22875,70958
36.23687,77772
36.24500,68368
36.25312,71641
36.26123,72742
36.26937,78001
36.27748,69223
36.28562,65349
36.29373,68757
36.30185,73485
36.30998,70721
36.31810,71086
36.32622,70919
36.33435,75961
36.34247,76975
36.35060,76014
36.35872,80297
36.36683,79913
36.37497,81216
36.38308,77037
36.39122,78293
36.39933,71743
36.40745,75116
36.41558,76947
36.42370,77478
36.43182,77217
36.43995,79678
36.44807,76241
36.45620,71598
36.46432,69416
36.47243,69855
36.48057,69510
36.48868,64238
36.49682,63538
36.50493,63067
36.51305,66505
36.52118,67123
36.52930,64526
36.53743,70634
36.54555,66590
36.55367,67082
36.56180,67388
36.56992,68931
36.57803,69365
36.58617,65806
36.59428,66344
36.60242,68046
36.61053,70486
36.61865,66253
36.62678,70079
36.63490,63473
36.64303,64366
36.65115,69618
36.65927,67579
36.66740,65313
36.67552,67108
36.68365,68228
36.69177,64743
36.69988,74134
36.70802,70366
36.71613,74663
36.72425,70756
36.73238,73641
36.74050,72945
36.74863,72269
36.75675,69352
36.76487,64829
36.77300,73630
36.78112,67687
36.78925,69448
36.79737,71011
36.80548,65669
36.81362,68286
36.82173,68666
36.82985,68444
36.83798,67731
36.84610,65661
36.85423,68267
36.86235,65168
36.87047,72556
36.87860,65033
36.88672,72172
36.89485,68848
36.90297,70743
36.91108,65511
36.91922,68042
36.92733,67376
36.93547,66682
36.94358,64401
36.95170,67428
36.95983,69856
36.96795,74240
36.97607,76348
36.98420,68913
36.99232,73441
37.00045,73795
37.00857,68886
37.01668,69637
37.02482,66646
37.03293,71568
37.04107,64247
37.04918,68420
37.05730,66725
37.06543,69775
37.07355,67634
37.08167,68875
37.08980,74475
37.09792,78717
37.10605,74829
37.11417,71887
37.12228,76840
37.13042,71186
37.13853,74597
37.14667,75858
37.15478,66247
37.16290,68330
37.17103,71148
37.17915,73908
37.18728,71112
37.19540,75169
37.20352,70174
37.21165,66333
37.21977,70961
37.22788,70442
37.23602,73324
37.24413,77003
37.25227,76819
37.26038,70088
37.26850,75302
37.27663,73566
37.28475,73095
37.29288,67999
37.30100,69506
37.30912,67899
37.31725,76996
37.32537,73490
37.33350,75916
37.34162,73545
37.34973,78700
37.35787,74209
37.36598,80851
37.37410,87148
37.38223,92614
37.39035,94361
37.39848,100340
37.40660,96323
37.41472,95803
37.42285,93627
37.43097,93077
37.43910,87636
37.44722,91152
37.45533,88445
37.46347,83901
37.47158,87372
37.47972,89734
37.48783,84569
