Z:\data\JTB-E02\BACandBLUE\JTB-E02-203-14.D Fri Mar 08 15:04:16 2019
Start of data points
2.09523,63785
2.10337,69752
2.11148,70617
2.11962,73316
2.12773,70989
2.13585,65889
2.14398,64928
2.15210,65352
2.16023,64710
2.16835,62516
2.17647,68577
2.18460,60195
2.19272,64913
2.20085,61825
2.20897,60780
2.21708,58032
2.22522,58844
2.23333,53296
2.24145,52868
2.24958,55693
2.25770,68725
2.26583,391422
2.27395,1778000
2.28207,1947418
2.29020,962921
2.29832,606586
2.30645,477232
2.31457,400207
2.32268,357481
2.33082,327883
2.33893,289359
2.34705,259013
2.35518,247715
2.36330,229951
2.37143,217061
2.37955,200186
2.38767,193175
2.39580,180235
2.40392,184048
2.41205,177972
2.42017,191191
2.42828,182110
2.43642,167267
2.44453,165668
2.45267,165846
2.46078,147761
2.46890,153110
2.47703,142127
2.48515,146119
2.49327,148733
2.50140,139583
2.50952,141104
2.51765,143179
2.52577,137995
2.53388,128689
2.54202,138806
2.55013,310047
2.55827,904051
2.56638,997916
2.57450,639322
2.58263,469042
2.59075,394291
2.59887,377146
2.60700,467141
2.61512,519660
2.62325,432002
2.63137,342723
2.63948,298788
2.64762,270057
2.65573,260803
2.66387,241947
2.67198,231732
2.68010,223207
2.68823,214205
2.69635,197869
2.70448,191965
2.71260,200864
2.72072,194108
2.72885,185417
2.73697,180728
2.74508,187163
2.75322,180913
2.76133,172765
2.76947,285584
2.77758,1371857
2.78570,3359271
2.79383,2930122
2.80195,1637933
2.81008,1116879
2.81820,926414
2.82632,810916
2.83445,681049
2.84257,588963
2.85070,507820
2.85882,443948
2.86693,413714
2.87507,377518
2.88318,340603
2.89130,323878
2.89943,301024
2.90755,273847
2.91568,265891
2.92380,252646
2.93192,246943
2.94005,231958
2.94817,221567
2.95630,223394
2.96442,215048
2.97253,213806
2.98067,206396
2.98878,207160
2.99690,213325
3.00503,224632
3.01315,215124
3.02128,202197
3.02940,184512
3.03752,175661
3.04565,177656
3.05377,184200
3.06190,189986
3.07002,190268
3.07813,326644
3.08627,1007391
3.09438,2228067
3.10252,4117617
3.11063,5891040
3.11875,4797504
3.12688,3053277
3.13500,2273260
3.14312,1825603
3.15125,1472405
3.15937,1269919
3.16750,1148044
3.17562,1113107
3.18373,1428727
3.19187,2282034
3.19998,2462381
3.20812,1833602
3.21623,1392570
3.22435,1171710
3.23248,1034832
3.24060,907576
3.24873,801682
3.25685,719375
3.26497,661015
3.27310,608253
3.28122,634650
3.28933,1098886
3.29747,3048752
3.30558,6435366
3.31372,8355609
3.32183,7274116
3.32995,5236940
3.33808,3741066
3.34620,2863801
3.35433,2330535
3.36245,2010717
3.37057,1715671
3.37870,1533940
3.38682,1379476
3.39493,1239005
3.40307,1132948
3.41118,1068257
3.41932,973264
3.42743,920493
3.43555,887201
3.44368,856054
3.45180,783962
3.45993,754496
3.46805,753827
3.47617,753536
3.48430,692451
3.49242,658834
3.50055,618181
3.50867,590402
3.51678,582508
3.52492,552682
3.53303,563752
3.54115,557629
3.54928,526806
3.55740,499327
3.56553,479966
3.57365,464630
3.58177,451593
3.58990,434199
3.59802,420538
3.60615,422482
3.61427,413271
3.62238,428533
3.63052,461306
3.63863,478773
3.64675,454585
3.65488,635244
3.66300,2595415
3.67113,1.038853E+07
3.67925,1.957636E+07
3.68737,1.996078E+07
3.69550,1.36142E+07
3.70362,8514694
3.71175,6318549
3.71987,5172963
3.72798,4370111
3.73612,3822500
3.74423,3404080
3.75237,3047496
3.76048,2777776
3.76860,2548785
3.77673,2369452
3.78485,2188049
3.79297,2139890
3.80110,2431414
3.80922,3678161
3.81735,4999413
3.82547,4709225
3.83358,3575721
3.84172,2779626
3.84983,2416155
3.85797,2154581
3.86608,1963269
3.87420,1831356
3.88233,1706813
3.89045,1625427
3.89858,1522693
3.90670,1459687
3.91482,1473618
3.92295,1638184
3.93107,1736958
3.93918,1686065
3.94732,1705289
3.95543,2441624
3.96357,3604552
3.97168,4000749
3.97980,3202869
3.98793,2267029
3.99605,2303615
4.00418,3790464
4.01230,6058947
4.02042,6628830
4.02855,5011664
4.03667,3155293
4.04478,2198300
4.05292,1746737
4.06103,1482887
4.06917,1322925
4.07728,1209694
4.08540,1124040
4.09353,1060925
4.10165,999150
4.10978,941641
4.11790,897070
4.12602,855976
4.13415,837421
4.14227,862342
4.15040,850668
4.15852,850415
4.16663,847873
4.17477,858962
4.18288,836988
4.19100,795333
4.19913,759866
4.20725,1077170
4.21538,3043260
4.22350,8499266
4.23162,1.524179E+07
4.23975,1.855692E+07
4.24787,1.692995E+07
4.25600,1.202801E+07
4.26412,8212482
4.27223,6024435
4.28037,4611841
4.28848,3649851
4.29662,2972840
4.30473,2521001
4.31285,2090080
4.32098,1849266
4.32910,1637194
4.33722,1483155
4.34535,1358142
4.35347,1340843
4.36160,1375539
4.36972,1381498
4.37783,1301392
4.38597,1125256
4.39408,979771
4.40222,904384
4.41033,834852
4.41845,783579
4.42658,753823
4.43470,700834
4.44282,684039
4.45095,658511
4.45907,632500
4.46720,609562
4.47532,593619
4.48343,582162
4.49157,560096
4.49968,562410
4.50782,537253
4.51593,525948
4.52405,521833
4.53218,531131
4.54030,514944
4.54843,541674
4.55655,537871
4.56467,505108
4.57280,491955
4.58092,465977
4.58903,443961
4.59717,439985
4.60528,443411
4.61342,454200
4.62153,527966
4.62965,725287
4.63778,1075924
4.64590,1253533
4.65403,1142492
4.66215,876511
4.67027,710237
4.67840,631137
4.68652,600021
4.69465,552199
4.70277,501839
4.71088,470500
4.71902,428826
4.72713,415635
4.73525,411776
4.74338,388318
4.75150,380411
4.75963,376696
4.76775,367953
4.77587,357940
4.78400,387134
4.79212,524581
4.80025,810369
4.80837,1075643
4.81648,1065534
4.82462,851466
4.83273,719898
4.84085,649794
4.84898,648092
4.85710,612588
4.86523,554292
4.87335,504998
4.88147,458138
4.88960,434412
4.89772,410499
4.90585,391851
4.91397,376127
4.92208,380142
4.93022,373229
4.93833,453780
4.94647,653763
4.95458,1139359
4.96270,1777117
4.97083,2214809
4.97895,2180104
4.98707,1912181
4.99520,1549733
5.00332,1250113
5.01145,1095138
5.01957,1003343
5.02768,971451
5.03582,1035068
5.04393,1115253
5.05207,1053913
5.06018,956397
5.06830,828583
5.07643,775497
5.08455,716015
5.09268,678810
5.10080,642428
5.10892,624537
5.11705,595783
5.12517,563146
5.13328,550682
5.14142,555365
5.14953,574938
5.15767,663951
5.16578,757601
5.17390,818178
5.18203,762243
5.19015,682902
5.19828,690726
5.20640,756649
5.21452,777395
5.22265,752625
5.23077,671195
5.23888,619355
5.24702,573234
5.25513,526710
5.26327,465493
5.27138,448878
5.27950,412030
5.28763,405283
5.29575,381984
5.30388,369822
5.31200,366381
5.32012,385103
5.32825,399925
5.33637,447675
5.34450,490700
5.35262,477884
5.36073,447545
5.36887,404368
5.37698,388497
5.38510,400890
5.39323,440424
5.40135,485196
5.40948,485534
5.41760,444329
5.42572,398761
5.43385,367797
5.44197,358541
5.45010,382626
5.45822,407563
5.46633,411569
5.47447,377555
5.48258,343420
5.49070,326306
5.49883,313526
5.50695,309855
5.51508,318113
5.52320,326620
5.53132,312969
5.53945,314865
5.54757,329916
5.55570,438861
5.56382,694342
5.57193,1015335
5.58007,1268639
5.58818,1262898
5.59632,1054273
5.60443,825893
5.61255,605620
5.62068,502236
5.62880,422471
5.63692,390112
5.64505,361084
5.65317,329630
5.66130,327148
5.66942,330868
5.67753,342356
5.68567,379615
5.69378,435335
5.70192,456476
5.71003,435080
5.71815,383268
5.72628,351509
5.73440,335240
5.74253,307838
5.75065,281725
5.75877,279386
5.76690,266864
5.77502,262419
5.78313,262118
5.79127,256522
5.79938,253052
5.80752,249223
5.81563,250177
5.82375,246827
5.83188,242880
5.84000,248205
5.84813,247953
5.85625,251679
5.86437,252279
5.87250,241799
5.88062,233940
5.88873,231154
5.89687,239801
5.90498,240687
5.91312,246289
5.92123,246189
5.92935,254873
5.93748,244876
5.94560,234435
5.95373,252843
5.96185,313615
5.96997,441563
5.97810,674804
5.98622,909693
5.99435,931172
6.00247,802971
6.01058,607290
6.01872,461119
6.02683,377097
6.03495,328200
6.04308,292801
6.05120,284397
6.05933,254513
6.06745,248024
6.07557,236671
6.08370,235540
6.09182,233743
6.09995,229736
6.10807,237560
6.11618,246831
6.12432,288134
6.13243,376033
6.14057,545709
6.14868,689568
6.15680,696783
6.16493,595101
6.17305,461219
6.18117,365811
6.18930,331204
6.19742,305873
6.20555,288206
6.21367,266804
6.22178,257438
6.22992,256782
6.23803,254768
6.24617,263397
6.25428,295523
6.26240,337928
6.27053,347338
6.27865,324590
6.28677,291183
6.29490,256569
6.30302,256739
6.31115,256774
6.31927,238940
6.32738,252532
6.33552,267722
6.34363,281149
6.35177,280525
6.35988,257681
6.36800,251578
6.37613,250917
6.38425,246323
6.39238,247921
6.40050,241532
6.40862,230295
6.41675,226923
6.42487,228591
6.43298,216563
6.44112,227807
6.44923,243838
6.45737,241756
6.46548,237146
6.47360,247440
6.48173,239530
6.48985,225780
6.49798,235157
6.50610,232152
6.51422,239885
6.52235,239722
6.53047,246985
6.53858,249807
6.54672,253041
6.55483,265037
6.56297,345459
6.57108,517566
6.57920,788011
6.58733,1012089
6.59545,935245
6.60358,721508
6.61170,500680
6.61982,354732
6.62795,339717
6.63607,334371
6.64420,551324
6.65232,1565221
6.66043,4335910
6.66857,8350485
6.67668,1.082404E+07
6.68480,9852880
6.69293,6715761
6.70105,3933174
6.70918,2480072
6.71730,1766174
6.72542,1437168
6.73355,1205029
6.74167,1059262
6.74980,996501
6.75792,950167
6.76603,810972
6.77417,760067
6.78228,680507
6.79042,629065
6.79853,594511
6.80665,557279
6.81478,508566
6.82290,487377
6.83102,466503
6.83915,453090
6.84727,441736
6.85540,431352
6.86352,418318
6.87163,401620
6.87977,357667
6.88788,323709
6.89602,310215
6.90413,296604
6.91225,280413
6.92038,268928
6.92850,252593
6.93662,249753
6.94475,234222
6.95287,232013
6.96100,239954
6.96912,272431
6.97723,299215
6.98537,311877
6.99348,306655
7.00162,251923
7.00973,214900
7.01785,193653
7.02598,228074
7.03410,281574
7.04223,327994
7.05035,370522
7.05847,428968
7.06660,463556
7.07472,464637
7.08283,407140
7.09097,357907
7.09908,327818
7.10722,281414
7.11533,261299
7.12345,255129
7.13158,245923
7.13970,239465
7.14783,266568
7.15595,298854
7.16407,337342
7.17220,353132
7.18032,338920
7.18845,291787
7.19657,252522
7.20468,241336
7.21282,324745
7.22093,652499
7.22905,1393592
7.23718,2378385
7.24530,3032041
7.25343,2765156
7.26155,2029157
7.26967,1276568
7.27780,820738
7.28592,575026
7.29405,420014
7.30217,313106
7.31028,246815
7.31842,239257
7.32653,232591
7.33465,229551
7.34278,223466
7.35090,206682
7.35903,200274
7.36715,181970
7.37527,188754
7.38340,174989
7.39152,175535
7.39965,163350
7.40777,166018
7.41588,155525
7.42402,154925
7.43213,152858
7.44027,157000
7.44838,151414
7.45650,161123
7.46463,159938
7.47275,153666
7.48087,153923
7.48900,149805
7.49712,147249
7.50525,180625
7.51337,274773
7.52148,534497
7.52962,1129340
7.53773,2139676
7.54587,3445798
7.55398,4690724
7.56210,5201048
7.57023,4834289
7.57835,3916760
7.58648,2752050
7.59460,1730934
7.60272,1073345
7.61085,707925
7.61897,527930
7.62708,416064
7.63522,348079
7.64333,310388
7.65147,260033
7.65958,229022
7.66770,206978
7.67583,189774
7.68395,180045
7.69208,169480
7.70020,167800
7.70832,166654
7.71645,168356
7.72457,160310
7.73268,151813
7.74082,136120
7.74893,137266
7.75707,144755
7.76518,156687
7.77330,176186
7.78143,203352
7.78955,215321
7.79768,229211
7.80580,250298
7.81392,251440
7.82205,256417
7.83017,232216
7.83830,197974
7.84642,185629
7.85453,186264
7.86267,195435
7.87078,203346
7.87890,220221
7.88703,242695
7.89515,238751
7.90328,217293
7.91140,193727
7.91952,193838
7.92765,228600
7.93577,338390
7.94390,477393
7.95202,609302
7.96013,561790
7.96827,491238
7.97638,334157
7.98450,251957
7.99263,192180
8.00075,161303
8.00888,145762
8.01700,133901
8.02512,132944
8.03325,125240
8.04137,120613
8.04950,129144
8.05762,125914
8.06573,128045
8.07387,122315
8.08198,115530
8.09012,119443
8.09823,113365
8.10635,106911
8.11448,110912
8.12260,111928
8.13072,129403
8.13885,149331
8.14697,158406
8.15510,178718
8.16322,177565
8.17133,163428
8.17947,146754
8.18758,139024
8.19572,122739
8.20383,106997
8.21195,113421
8.22008,109554
8.22820,114050
8.23633,107142
8.24445,102548
8.25257,101935
8.26070,98527
8.26882,97020
8.27693,98243
8.28507,98194
8.29318,95955
8.30132,107669
8.30943,118163
8.31755,120240
8.32568,128610
8.33380,123605
8.34193,122236
8.35005,106572
8.35817,102995
8.36630,103668
8.37442,104326
8.38253,105651
8.39067,112735
8.39878,103975
8.40692,97718
8.41503,91487
8.42315,81725
8.43128,84414
8.43940,85018
8.44753,80541
8.45565,90933
8.46377,93639
8.47190,94265
8.48002,98505
8.48815,92149
8.49627,89325
8.50438,86797
8.51252,89201
8.52063,99872
8.52875,148897
8.53688,278855
8.54500,546022
8.55313,806264
8.56125,974995
8.56937,887433
8.57750,628984
8.58562,411066
8.59375,254197
8.60187,188239
8.60998,158557
8.61812,151139
8.62623,142202
8.63437,132032
8.64248,123893
8.65060,110966
8.65873,108637
8.66685,110548
8.67497,100665
8.68310,103392
8.69122,103839
8.69935,106960
8.70747,103736
8.71558,108112
8.72372,99207
8.73183,100911
8.73997,97276
8.74808,90825
8.75620,100500
8.76433,132767
8.77245,225925
8.78057,371876
8.78870,552118
8.79682,707806
8.80495,704028
8.81307,612075
8.82118,461166
8.82932,334422
8.83743,270366
8.84557,242736
8.85368,249067
8.86180,231333
8.86993,230303
8.87805,226178
8.88618,213788
8.89430,194695
8.90242,195488
8.91055,188854
8.91867,176311
8.92678,184825
8.93492,194466
8.94303,203367
8.95117,221800
8.95928,232137
8.96740,226692
8.97553,225173
8.98365,227112
8.99178,230847
8.99990,224089
9.00802,198009
9.01615,180984
9.02427,160402
9.03238,151799
9.04052,137371
9.04863,146284
9.05677,130486
9.06488,136694
9.07300,125657
9.08113,138185
9.08925,141717
9.09738,166254
9.10550,199080
9.11362,241466
9.12175,276690
9.12987,273327
9.13800,247002
9.14612,209204
9.15423,177116
9.16237,156968
9.17048,139189
9.17860,135481
9.18673,118430
9.19485,130074
9.20298,118537
9.21110,121385
9.21922,122605
9.22735,128449
9.23547,124556
9.24360,128479
9.25172,143330
9.25983,134315
9.26797,133113
9.27608,134037
9.28422,131935
9.29233,124022
9.30045,126484
9.30858,121638
9.31670,110681
9.32482,111021
9.33295,108830
9.34107,107361
9.34920,111843
9.35732,108822
9.36543,112985
9.37357,119306
9.38168,127504
9.38982,139974
9.39793,152020
9.40605,169087
9.41418,199194
9.42230,258284
9.43043,317919
9.43855,360970
9.44667,361635
9.45480,331721
9.46292,268489
9.47103,209910
9.47917,167521
9.48728,138092
9.49542,123868
9.50353,130943
9.51165,145786
9.51978,163687
9.52790,203575
9.53603,207422
9.54415,198747
9.55227,171644
9.56040,150398
9.56852,130878
9.57663,120999
9.58477,120700
9.59288,101257
9.60102,101572
9.60913,99572
9.61725,94638
9.62538,88801
9.63350,84565
9.64163,81059
9.64975,83350
9.65787,85420
9.66600,88847
9.67412,84323
9.68225,88526
9.69037,82601
9.69848,75304
9.70662,75422
9.71473,75392
9.72285,72292
9.73098,69220
9.73910,69276
9.74723,73611
9.75535,70004
9.76347,68056
9.77160,69024
9.77972,65571
9.78785,65106
9.79597,66792
9.80408,68073
9.81222,67556
9.82033,68147
9.82845,67524
9.83658,66190
9.84470,70847
9.85283,64301
9.86095,72761
9.86907,67550
9.87720,72042
9.88532,76803
9.89345,72758
9.90157,67548
9.90968,72378
9.91782,81624
9.92593,104229
9.93407,148717
9.94218,198220
9.95030,257664
9.95843,276585
9.96655,266504
9.97467,218955
9.98280,173545
9.99092,128858
9.99905,106932
10.00717,100675
10.01528,97590
10.02342,98420
10.03153,92711
10.03967,90698
10.04778,88052
10.05590,80507
10.06403,81667
10.07215,87430
10.08028,89562
10.08840,95046
10.09652,93363
10.10465,103871
10.11277,98933
10.12088,91018
10.12902,87251
10.13713,82124
10.14527,77976
10.15338,77113
10.16150,76258
10.16963,79784
10.17775,73074
10.18588,71622
10.19400,77389
10.20212,72546
10.21025,68803
10.21837,78015
10.22648,73073
10.23462,81529
10.24273,90584
10.25087,93821
10.25898,125765
10.26710,209766
10.27523,480747
10.28335,1174032
10.29148,2483570
10.29960,4302777
10.30772,6337464
10.31585,8933142
10.32397,1.300376E+07
10.33210,1.89607E+07
10.34022,2.693357E+07
10.34833,3.303572E+07
10.35647,3.51963E+07
10.36458,3.046902E+07
10.37270,2.008397E+07
10.38083,1.111581E+07
10.38895,6224436
10.39708,3727926
10.40520,2459122
10.41332,1642615
10.42145,1216381
10.42957,961271
10.43770,877237
10.44582,838101
10.45393,829243
10.46207,834298
10.47018,845400
10.47832,788187
10.48643,696100
10.49455,618356
10.50268,580770
10.51080,528492
10.51892,494452
10.52705,474970
10.53517,463571
10.54330,467122
10.55142,437699
10.55953,435747
10.56767,391511
10.57578,367591
10.58392,356299
10.59203,321834
10.60015,306148
10.60828,287170
10.61640,291979
10.62452,274056
10.63265,257915
10.64077,252711
10.64890,242369
10.65702,226493
10.66513,228199
10.67327,220455
10.68138,219866
10.68952,216341
10.69763,225833
10.70575,225418
10.71388,224663
10.72200,217042
10.73013,205799
10.73825,193321
10.74637,181006
10.75450,187986
10.76262,175138
10.77073,177132
10.77887,166203
10.78698,161355
10.79512,178767
10.80323,180106
10.81135,190140
10.81948,200741
10.82760,196019
10.83573,177396
10.84385,158880
10.85197,147298
10.86010,138184
10.86822,141275
10.87633,124642
10.88447,123936
10.89258,138885
10.90072,131127
10.90883,129609
10.91695,124426
10.92508,115602
10.93320,113548
10.94133,117413
10.94945,121916
10.95757,119794
10.96570,127008
10.97382,121230
10.98195,121235
10.99007,129600
10.99818,137691
11.00632,146678
11.01443,149018
11.02255,143244
11.03068,133494
11.03880,125992
11.04693,119356
11.05505,110220
11.06317,115566
11.07130,115342
11.07942,140297
11.08755,149881
11.09567,158970
11.10378,147487
11.11192,146164
11.12003,137072
11.12817,128405
11.13628,107638
11.14440,99049
11.15253,98461
11.16065,93181
11.16877,95023
11.17690,95990
11.18502,102750
11.19315,100088
11.20127,99060
11.20938,89771
11.21752,89491
11.22563,85901
11.23377,81519
11.24188,80553
11.25000,76953
11.25813,78536
11.26625,70279
11.27437,72763
11.28250,69234
11.29062,85991
11.29875,129391
11.30687,250847
11.31498,571604
11.32312,1182593
11.33123,2140583
11.33937,3077948
11.34748,3665115
11.35560,3607046
11.36373,2944828
11.37185,2082547
11.37998,1327088
11.38810,839995
11.39622,604356
11.40435,526087
11.41247,480253
11.42058,472059
11.42872,445346
11.43683,384755
11.44497,356319
11.45308,324160
11.46120,293687
11.46933,266813
11.47745,268326
11.48558,278378
11.49370,318465
11.50182,353805
11.50995,375050
11.51807,349462
11.52620,313094
11.53432,271769
11.54243,240172
11.55057,224779
11.55868,215608
11.56680,215636
11.57493,207215
11.58305,203481
11.59118,185996
11.59930,182246
11.60742,198215
11.61555,223085
11.62367,259042
11.63180,259213
11.63992,249292
11.64803,209896
11.65617,174291
11.66428,154549
11.67240,143147
11.68053,144875
11.68865,156579
11.69678,148933
11.70490,160001
11.71302,156109
11.72115,150509
11.72927,135214
11.73740,122103
11.74552,115990
11.75363,110120
11.76177,101830
11.76988,98675
11.77802,96089
11.78613,97435
11.79425,97675
11.80238,89795
11.81050,95316
11.81862,89992
11.82675,86693
11.83487,85517
11.84300,83835
11.85112,90485
11.85923,86727
11.86737,81312
11.87548,82894
11.88362,77330
11.89173,77069
11.89985,75008
11.90798,77714
11.91610,83851
11.92423,79032
11.93235,80693
11.94047,80314
11.94860,82298
11.95672,77745
11.96483,76639
11.97297,83789
11.98108,73247
11.98922,72721
11.99733,83184
12.00545,91028
12.01358,106078
12.02170,110828
12.02983,112986
12.03795,104884
12.04607,88749
12.05420,82575
12.06232,79211
12.07043,82045
12.07857,91463
12.08668,106244
12.09482,147261
12.10293,232298
12.11105,404909
12.11918,728503
12.12730,1072652
12.13543,1357218
12.14355,1454749
12.15167,1250501
12.15980,927019
12.16792,599044
12.17605,345464
12.18417,227716
12.19228,199102
12.20042,204412
12.20853,216667
12.21665,208744
12.22478,200269
12.23290,192461
12.24103,174106
12.24915,169387
12.25727,161414
12.26540,157087
12.27352,141445
12.28165,146067
12.28977,137727
12.29788,120744
12.30602,119108
12.31413,116066
12.32225,111394
12.33038,109564
12.33850,111673
12.34663,113033
12.35475,116457
12.36287,128903
12.37100,144273
12.37912,136141
12.38725,128497
12.39537,121507
12.40348,111178
12.41162,118153
12.41973,134450
12.42787,161877
12.43598,177202
12.44410,183059
12.45223,171348
12.46035,153321
12.46847,129285
12.47660,122895
12.48472,117615
12.49285,118738
12.50097,106379
12.50908,107560
12.51722,97253
12.52533,98200
12.53347,109081
12.54158,119971
12.54970,146857
12.55783,201406
12.56595,254584
12.57408,300000
12.58220,303862
12.59032,284396
12.59845,214365
12.60657,160490
12.61468,129366
12.62282,120302
12.63093,117115
12.63907,110897
12.64718,103425
12.65530,95629
12.66343,94183
12.67155,83324
12.67968,83339
12.68780,84005
12.69592,82215
12.70405,79506
12.71217,81806
12.72028,78635
12.72842,90841
12.73653,89947
12.74467,89960
12.75278,89293
12.76090,87405
12.76903,78101
12.77715,77901
12.78528,76765
12.79340,67524
12.80152,69057
12.80965,65919
12.81777,73150
12.82590,67950
12.83402,63109
12.84213,61425
12.85027,57458
12.85838,55858
12.86650,55620
12.87463,55010
12.88275,51119
12.89088,53225
12.89900,54921
12.90712,55357
12.91525,54844
12.92337,53765
12.93150,52820
12.93962,48825
12.94773,54166
12.95587,49765
12.96398,51727
12.97212,53886
12.98023,60028
12.98835,55835
12.99648,57918
13.00460,67080
13.01272,55666
13.02085,56328
13.02897,54181
13.03710,56294
13.04522,55780
13.05333,55433
13.06147,53772
13.06958,52558
13.07772,52462
13.08583,50706
13.09395,52719
13.10208,54301
13.11020,54703
13.11832,52153
13.12645,55567
13.13457,50136
13.14270,50199
13.15082,48944
13.15893,52621
13.16707,54165
13.17518,55578
13.18332,55639
13.19143,55778
13.19955,63339
13.20768,61898
13.21580,61288
13.22393,66137
13.23205,70015
13.24017,72703
13.24830,65821
13.25642,58958
13.26453,54182
13.27267,52797
13.28078,53343
13.28892,52972
13.29703,48624
13.30515,49675
13.31328,47812
13.32140,49260
13.32953,51614
13.33765,52672
13.34577,52211
13.35390,51047
13.36202,46237
13.37013,42377
13.37827,47781
13.38638,51477
13.39452,47061
13.40263,47092
13.41075,48728
13.41888,47320
13.42700,45204
13.43513,53310
13.44325,47109
13.45137,50676
13.45950,50299
13.46762,56384
13.47575,58660
13.48387,54098
13.49198,58883
13.50012,53765
13.50823,51673
13.51635,50750
13.52448,49899
13.53260,52226
13.54073,53350
13.54885,53781
13.55697,58553
13.56510,60250
13.57322,66734
13.58135,70871
13.58947,73428
13.59758,81715
13.60572,76582
13.61383,72980
13.62197,78384
13.63008,73449
13.63820,71230
13.64633,64376
13.65445,60154
13.66257,57703
13.67070,53679
13.67882,50454
13.68695,50751
13.69507,45430
13.70318,45719
13.71132,45994
13.71943,49310
13.72757,54803
13.73568,52890
13.74380,58734
13.75193,62946
13.76005,82811
13.76817,119815
13.77630,155587
13.78442,208548
13.79255,246633
13.80067,280016
13.80878,325856
13.81692,378593
13.82503,452692
13.83317,536726
13.84128,590741
13.84940,601715
13.85753,519044
13.86565,426629
13.87378,334730
13.88190,265146
13.89002,206382
13.89815,166856
13.90627,136445
13.91438,118041
13.92252,117096
13.93063,103838
13.93877,103526
13.94688,90033
13.95500,94980
13.96313,108505
13.97125,124269
13.97938,156662
13.98750,191631
13.99562,211814
14.00375,205306
14.01187,172729
14.02000,143755
14.02812,123695
14.03623,104979
14.04437,91954
14.05248,100731
14.06060,87563
14.06873,82602
14.07685,76933
14.08498,81256
14.09310,80308
14.10122,76828
14.10935,67876
14.11747,67386
14.12560,69866
14.13372,68804
14.14183,71372
14.14997,85774
14.15808,93579
14.16620,105072
14.17433,105100
14.18245,94484
14.19058,100124
14.19870,118640
14.20682,156589
14.21495,188836
14.22307,229285
14.23120,246211
14.23932,263155
14.24743,247865
14.25557,230197
14.26368,231086
14.27182,200788
14.27993,179524
14.28805,154192
14.29618,144455
14.30430,125805
14.31242,117886
14.32055,115965
14.32867,106235
14.33680,107527
14.34492,96348
14.35303,99362
14.36117,88641
14.36928,78356
14.37742,75193
14.38553,71959
14.39365,70875
14.40178,67855
14.40990,68838
14.41802,79380
14.42615,87349
14.43427,92058
14.44240,88316
14.45052,83605
14.45863,74871
14.46677,73272
14.47488,68094
14.48302,69034
14.49113,68674
14.49925,72561
14.50738,66517
14.51550,65463
14.52363,70154
14.53175,65522
14.53987,71118
14.54800,67974
14.55612,69391
14.56423,65772
14.57237,65422
14.58048,61233
14.58862,60543
14.59673,55049
14.60485,54095
14.61298,48556
14.62110,49848
14.62923,51224
14.63735,52272
14.64547,52457
14.65360,50809
14.66172,48000
14.66985,43814
14.67797,47640
14.68608,47582
14.69422,48941
14.70233,48257
14.71045,45276
14.71858,54427
14.72670,50641
14.73483,55071
14.74295,54565
14.75107,52887
14.75920,60658
14.76732,58629
14.77545,57060
14.78357,62771
14.79168,86453
14.79982,160565
14.80793,403215
14.81607,1004840
14.82418,2218126
14.83230,3752068
14.84043,4980996
14.84855,5307370
14.85667,4655354
14.86480,3366502
14.87292,2086057
14.88105,1241507
14.88917,797599
14.89728,580779
14.90542,478302
14.91353,415848
14.92167,363613
14.92978,333455
14.93790,313969
14.94603,287149
14.95415,273617
14.96227,253717
14.97040,238727
14.97852,232709
14.98665,208393
14.99477,197022
15.00288,187992
15.01102,178468
15.01913,181840
15.02727,169419
15.03538,178562
15.04350,164989
15.05163,155912
15.05975,149545
15.06788,147958
15.07600,133296
15.08412,129403
15.09225,135552
15.10037,126218
15.10848,120715
15.11662,115578
15.12473,113255
15.13287,125789
15.14098,126972
15.14910,136527
15.15723,135356
15.16535,129620
15.17348,119686
15.18160,96074
15.18972,81809
15.19785,77692
15.20597,76171
15.21408,74764
15.22222,70284
15.23033,69633
15.23847,64021
15.24658,65752
15.25470,62210
15.26283,63507
15.27095,58376
15.27908,57482
15.28720,58246
15.29532,52272
15.30345,56666
15.31157,56458
15.31970,53514
15.32782,54502
15.33593,53198
15.34407,53348
15.35218,49682
15.36030,54284
15.36843,55043
15.37655,51945
15.38468,55424
15.39280,59723
15.40092,54542
15.40905,56078
15.41717,56085
15.42530,58885
15.43342,57976
15.44153,53763
15.44967,52647
15.45778,61187
15.46592,75761
15.47403,122135
15.48215,189630
15.49028,296187
15.49840,396310
15.50652,495011
15.51465,525973
15.52277,490181
15.53090,438416
15.53902,394919
15.54713,371647
15.55527,337468
15.56338,304888
15.57152,246207
15.57963,192216
15.58775,149815
15.59588,127350
15.60400,109151
15.61212,101220
15.62025,91956
15.62837,90973
15.63650,85509
15.64462,84759
15.65273,84743
15.66087,79092
15.66898,78287
15.67712,75193
15.68523,71223
15.69335,69976
15.70148,67028
15.70960,67989
15.71773,61111
15.72585,65924
15.73397,71108
15.74210,67162
15.75022,65130
15.75833,79340
15.76647,100330
15.77458,144085
15.78272,219142
15.79083,310964
15.79895,376222
15.80708,382745
15.81520,316396
15.82333,240547
15.83145,173031
15.83957,136823
15.84770,112363
15.85582,101132
15.86395,91111
15.87207,90778
15.88018,90498
15.88832,89302
15.89643,94274
15.90455,91317
15.91268,91523
15.92080,83034
15.92893,75339
15.93705,78250
15.94517,74705
15.95330,77606
15.96142,74260
15.96955,77078
15.97767,88260
15.98578,97247
15.99392,105305
16.00203,100650
16.01015,101576
16.01828,105631
16.02640,112835
16.03453,114228
16.04265,99742
16.05077,100414
16.05890,94073
16.06702,85108
16.07515,73403
16.08327,73521
16.09138,67268
16.09952,69456
16.10763,68492
16.11577,69694
16.12388,66947
16.13200,70541
16.14013,75197
16.14825,82772
16.15637,90193
16.16450,86847
16.17262,82817
16.18075,75644
16.18887,70494
16.19698,68684
16.20512,64801
16.21323,63572
16.22137,66182
16.22948,68714
16.23760,65397
16.24573,61782
16.25385,61297
16.26197,61650
16.27010,57072
16.27822,63974
16.28635,69477
16.29447,74737
16.30258,86501
16.31072,86310
16.31883,89669
16.32697,81912
16.33508,82552
16.34320,78668
16.35133,74517
16.35945,80362
16.36758,91943
16.37570,100907
16.38382,116949
16.39195,117303
16.40007,120342
16.40818,102393
16.41632,88815
16.42443,75275
16.43257,69155
16.44068,80160
16.44880,88061
16.45693,117943
16.46505,214575
16.47318,396644
16.48130,657916
16.48942,868945
16.49755,954807
16.50567,836295
16.51380,629633
16.52192,426474
16.53003,265922
16.53817,188147
16.54628,145880
16.55440,131804
16.56253,121255
16.57065,108611
16.57878,105760
16.58690,95794
16.59502,104950
16.60315,105503
16.61127,114594
16.61940,114642
16.62752,109762
16.63563,106848
16.64377,104154
16.65188,91167
16.66000,84887
16.66813,81344
16.67625,75116
16.68438,74148
16.69250,72395
16.70062,69034
16.70875,68587
16.71687,67399
16.72500,63328
16.73312,61577
16.74123,60163
16.74937,59892
16.75748,65493
16.76562,77513
16.77373,72607
16.78185,69183
16.78998,66729
16.79810,61295
16.80622,61101
16.81435,58563
16.82247,58276
16.83060,50824
16.83872,52440
16.84683,55118
16.85497,54164
16.86308,49389
16.87122,49492
16.87933,51172
16.88745,54694
16.89558,46918
16.90370,47772
16.91183,46934
16.91995,44285
16.92807,46279
16.93620,51485
16.94432,53414
16.95243,49291
16.96057,45739
16.96868,45029
16.97682,47345
16.98493,49185
16.99305,51411
17.00118,48437
17.00930,54394
17.01743,52079
17.02555,52666
17.03367,55257
17.04180,49040
17.04992,57543
17.05803,58287
17.06617,62391
17.07428,65457
17.08242,64473
17.09053,63098
17.09865,56265
17.10678,56251
17.11490,60361
17.12303,63492
17.13115,63386
17.13927,69348
17.14740,68060
17.15552,71203
17.16365,63898
17.17177,60626
17.17988,64152
17.18802,55398
17.19613,55836
17.20425,52040
17.21238,45586
17.22050,48604
17.22863,47308
17.23675,50947
17.24487,49360
17.25300,50910
17.26112,48761
17.26925,49652
17.27737,51669
17.28548,52459
17.29362,50215
17.30173,47570
17.30987,51585
17.31798,53405
17.32610,55547
17.33423,69352
17.34235,67398
17.35047,76413
17.35860,78955
17.36672,79258
17.37485,78563
17.38297,78339
17.39108,75456
17.39922,74962
17.40733,80315
17.41547,85940
17.42358,82885
17.43170,86045
17.43983,79281
17.44795,78681
17.45607,80948
17.46420,65196
17.47232,73597
17.48045,67985
17.48857,68129
17.49668,62025
17.50482,52222
17.51293,53570
17.52107,60649
17.52918,57444
17.53730,56569
17.54543,60857
17.55355,61238
17.56168,71620
17.56980,81546
17.57792,119761
17.58605,193596
17.59417,304694
17.60228,444419
17.61042,607445
17.61853,652982
17.62667,645836
17.63478,544025
17.64290,417939
17.65103,355836
17.65915,328957
17.66728,346138
17.67540,359313
17.68352,344217
17.69165,325962
17.69977,266778
17.70788,223291
17.71602,183430
17.72413,160313
17.73227,141102
17.74038,137736
17.74850,130362
17.75663,113607
17.76475,116353
17.77288,105260
17.78100,96673
17.78912,91192
17.79725,84389
17.80537,84770
17.81350,84518
17.82162,81168
17.82973,85461
17.83787,85942
17.84598,98824
17.85410,104293
17.86223,108928
17.87035,117594
17.87848,120001
17.88660,117055
17.89472,98604
17.90285,88530
17.91097,75740
17.91910,72051
17.92722,65571
17.93533,64191
17.94347,61288
17.95158,61880
17.95972,62023
17.96783,61995
17.97595,59279
17.98408,56480
17.99220,59373
18.00032,65473
18.00845,55545
18.01657,61226
18.02470,73916
18.03282,88513
18.04093,109739
18.04907,122329
18.05718,125398
18.06532,118165
18.07343,105547
18.08155,106220
18.08968,102284
18.09780,112223
18.10592,124131
18.11405,149134
18.12217,168445
18.13030,184312
18.13842,186975
18.14653,181832
18.15467,151689
18.16278,135143
18.17092,127060
18.17903,118179
18.18715,116697
18.19528,106066
18.20340,99548
18.21153,93812
18.21965,87686
18.22777,79202
18.23590,77111
18.24402,80875
18.25213,75533
18.26027,71212
18.26838,69754
18.27652,70297
18.28463,66947
18.29275,63682
18.30088,60137
18.30900,57409
18.31713,56258
18.32525,51702
18.33337,52192
18.34150,51537
18.34962,51649
18.35775,53346
18.36587,56658
18.37398,49403
18.38212,52408
18.39023,51489
18.39835,54853
18.40648,53671
18.41460,66417
18.42273,76814
18.43085,90396
18.43897,112712
18.44710,130156
18.45522,148720
18.46335,165513
18.47147,194489
18.47958,219541
18.48772,238167
18.49583,249123
18.50395,231779
18.51208,200873
18.52020,160546
18.52833,130445
18.53645,99331
18.54457,94223
18.55270,77991
18.56082,73588
18.56895,68661
18.57707,68146
18.58518,71856
18.59332,70922
18.60143,73096
18.60957,81914
18.61768,91277
18.62580,99043
18.63393,98134
18.64205,97351
18.65017,93275
18.65830,88025
18.66642,83200
18.67455,74979
18.68267,75208
18.69078,65725
18.69892,64038
18.70703,62720
18.71517,59626
18.72328,62300
18.73140,60697
18.73953,57319
18.74765,59549
18.75577,54729
18.76390,52637
18.77202,51199
18.78015,55439
18.78827,51835
18.79638,52800
18.80452,55715
18.81263,54778
18.82077,52644
18.82888,62053
18.83700,53340
18.84513,47883
18.85325,53660
18.86138,50373
18.86950,61872
18.87762,71148
18.88575,73569
18.89387,79527
18.90198,70283
18.91012,69438
18.91823,69806
18.92637,64148
18.93448,62766
18.94260,67424
18.95073,66179
18.95885,75759
18.96698,78220
18.97510,79433
18.98322,75554
18.99135,72763
18.99947,68919
19.00760,63475
19.01572,59825
19.02383,57178
19.03197,59081
19.04008,65613
19.04820,78735
19.05633,103342
19.06445,125886
19.07258,141406
19.08070,153592
19.08882,170315
19.09695,209781
19.10507,241614
19.11320,271837
19.12132,282584
19.12943,280400
19.13757,266644
19.14568,255858
19.15380,240465
19.16193,228245
19.17005,225390
19.17818,227481
19.18630,237040
19.19442,233726
19.20255,232358
19.21067,231262
19.21880,223732
19.22692,211296
19.23503,195078
19.24317,194891
19.25128,184710
19.25942,182347
19.26753,180672
19.27565,187649
19.28378,187583
19.29190,195877
19.30002,204628
19.30815,211232
19.31627,211413
19.32440,204768
19.33252,191685
19.34063,188037
19.34877,193810
19.35688,205834
19.36502,208875
19.37313,224884
19.38125,242890
19.38938,250129
19.39750,231641
19.40563,224500
19.41375,204028
19.42187,192079
19.43000,183751
19.43812,175561
19.44623,167667
19.45437,166608
19.46248,162039
19.47062,161611
19.47873,163517
19.48685,168080
19.49498,172767
19.50310,191805
19.51123,215657
19.51935,252425
19.52747,278098
19.53560,295816
19.54372,294051
19.55183,267580
19.55997,233948
19.56808,211913
19.57622,197931
19.58433,167995
19.59245,166443
19.60058,164346
19.60870,151268
19.61683,156510
19.62495,153689
19.63307,163529
19.64120,193168
19.64932,257160
19.65745,383101
19.66557,555113
19.67368,743092
19.68182,912238
19.68993,980663
19.69805,884174
19.70618,750039
19.71430,591262
19.72243,484932
19.73055,383218
19.73867,330657
19.74680,277252
19.75492,262417
19.76305,233134
19.77117,223620
19.77928,224171
19.78742,233891
19.79553,256651
19.80365,271507
19.81178,289503
19.81990,283235
19.82803,256605
19.83615,235098
19.84427,215621
19.85240,188446
19.86052,183042
19.86865,195723
19.87677,235686
19.88488,339427
19.89302,494262
19.90113,734229
19.90927,986653
19.91738,1202384
19.92550,1344347
19.93363,1327710
19.94175,1320515
19.94987,1302956
19.95800,1223292
19.96612,1167374
19.97425,1056588
19.98237,1029906
19.99048,966990
19.99862,908970
20.00673,889522
20.01487,848535
20.02298,809630
20.03110,775598
20.03923,751421
20.04735,681142
20.05548,626888
20.06360,546844
20.07172,510192
20.07985,483930
20.08797,474840
20.09608,469978
20.10422,441665
20.11233,398986
20.12047,361004
20.12858,322397
20.13670,304890
20.14483,313515
20.15295,380983
20.16108,532304
20.16920,782813
20.17732,1148173
20.18545,1611999
20.19357,1924865
20.20170,2103219
20.20982,2108823
20.21793,1962969
20.22607,1641534
20.23418,1389279
20.24230,1196175
20.25043,1158158
20.25855,1245316
20.26668,1416845
20.27480,1633529
20.28292,1798905
20.29105,1854183
20.29917,1730479
20.30730,1570297
20.31542,1261554
20.32353,994530
20.33167,749305
20.33978,554700
20.34790,469371
20.35603,370138
20.36415,302942
20.37228,263887
20.38040,222825
20.38852,200710
20.39665,190166
20.40477,174031
20.41290,164283
20.42102,175636
20.42913,168976
20.43727,183867
20.44538,206551
20.45352,222817
20.46163,227772
20.46975,230333
20.47788,213271
20.48600,190485
20.49412,177466
20.50225,157037
20.51037,145797
20.51850,134614
20.52662,127799
20.53473,120278
20.54287,123123
20.55098,116629
20.55912,114300
20.56723,113753
20.57535,110402
20.58348,113219
20.59160,107773
20.59972,105699
20.60785,105438
20.61597,106928
20.62410,109601
20.63222,108782
20.64033,110722
20.64847,109553
20.65658,112539
20.66472,113720
20.67283,107412
20.68095,112247
20.68908,107106
20.69720,102803
20.70533,96339
20.71345,92831
20.72157,93828
20.72970,89242
20.73782,92282
20.74593,91905
20.75407,99764
20.76218,99067
20.77032,95046
20.77843,110552
20.78655,127811
20.79468,160211
20.80280,241312
20.81093,350784
20.81905,468534
20.82717,564935
20.83530,602759
20.84342,513573
20.85155,396427
20.85967,287317
20.86778,207818
20.87592,160490
20.88403,130600
20.89215,122812
20.90028,122944
20.90840,124131
20.91653,131644
20.92465,136682
20.93277,143907
20.94090,145244
20.94902,152240
20.95715,135730
20.96527,125450
20.97338,122951
20.98152,116024
20.98963,109573
20.99775,100287
21.00588,97168
21.01400,94120
21.02213,99380
21.03025,99523
21.03837,97029
21.04650,95038
21.05462,96311
21.06275,93839
21.07087,92516
21.07898,84793
21.08712,88068
21.09523,86870
21.10337,79416
21.11148,82264
21.11960,86116
21.12773,86094
21.13585,97125
21.14397,118430
21.15210,148747
21.16022,177796
21.16835,222810
21.17647,247035
21.18458,226815
21.19272,190700
21.20083,156951
21.20897,128040
21.21708,114518
21.22520,101805
21.23333,100613
21.24145,94971
21.24958,96274
21.25770,94687
21.26582,93289
21.27395,87931
21.28207,91301
21.29018,87129
21.29832,83779
21.30643,83246
21.31457,82827
21.32268,82251
21.33080,86590
21.33893,89635
21.34705,78278
21.35518,79149
21.36330,82199
21.37142,77760
21.37955,81315
21.38767,87286
21.39578,84861
21.40392,91402
21.41203,102742
21.42017,130901
21.42828,153521
21.43640,169830
21.44453,164716
21.45265,160184
21.46078,139678
21.46890,120275
21.47702,111025
21.48515,103296
21.49327,98835
21.50140,95031
21.50952,89471
21.51763,93560
21.52577,82652
21.53388,81651
21.54200,82678
21.55013,81901
21.55825,76979
21.56638,79126
21.57450,78608
21.58262,82130
21.59075,91903
21.59887,95226
21.60700,89200
21.61512,97373
21.62323,93745
21.63137,101176
21.63948,116873
21.64760,133291
21.65573,151235
21.66385,164614
21.67198,170798
21.68010,154745
21.68822,152852
21.69635,147310
21.70447,131861
21.71260,115413
21.72072,105675
21.72883,92441
21.73697,89158
21.74508,82007
21.75322,83905
21.76133,84966
21.76945,82268
21.77758,79976
21.78570,77308
21.79382,84005
21.80195,77175
21.81007,83752
21.81820,89340
21.82632,96325
21.83443,102130
21.84257,116357
21.85068,131314
21.85882,143308
21.86693,143576
21.87505,131395
21.88318,127648
21.89130,103110
21.89943,93503
21.90755,83448
21.91567,76192
21.92380,77167
21.93192,76116
21.94003,71469
21.94817,68459
21.95628,66006
21.96442,66835
21.97253,60308
21.98065,65098
21.98878,62628
21.99690,57385
22.00503,59260
22.01315,62408
22.02127,55337
22.02940,56727
22.03752,58739
22.04563,62641
22.05377,59114
22.06188,63376
22.07002,65684
22.07813,60437
22.08625,65072
22.09438,67748
22.10250,65859
22.11063,61133
22.11875,65778
22.12687,66346
22.13500,64322
22.14312,63808
22.15125,63886
22.15937,59264
22.16748,64342
22.17562,62494
22.18373,63343
22.19185,60018
22.19998,58015
22.20810,55732
22.21623,65609
22.22435,61251
22.23247,70751
22.24060,66749
22.24872,68178
22.25685,78119
22.26497,71140
22.27308,67177
22.28122,71129
22.28933,75817
22.29747,80546
22.30558,92232
22.31370,112173
22.32183,153208
22.32995,193793
22.33807,237028
22.34620,256264
22.35432,265288
22.36245,237781
22.37057,184271
22.37868,158944
22.38682,129204
22.39493,126417
22.40307,130317
22.41118,147053
22.41930,173515
22.42743,194766
22.43555,196413
22.44367,179402
22.45180,158445
22.45992,132425
22.46805,109022
22.47617,89824
22.48428,86768
22.49242,93291
22.50053,97462
22.50867,105785
22.51678,109946
22.52490,122268
22.53303,121493
22.54115,116172
22.54928,118120
22.55740,122376
22.56552,110971
22.57365,108275
22.58177,110983
22.58988,102600
22.59802,97908
22.60613,100237
22.61427,95211
22.62238,93220
22.63050,97842
22.63863,97416
22.64675,104371
22.65488,100572
22.66300,106148
22.67112,112675
22.67925,118168
22.68737,121787
22.69548,128229
22.70362,132413
22.71173,136066
22.71987,131360
22.72798,130741
22.73610,119972
22.74423,117887
22.75235,109769
22.76048,106163
22.76860,103560
22.77672,107201
22.78485,106844
22.79297,103594
22.80110,109195
22.80922,108862
22.81733,113859
22.82547,117164
22.83358,110594
22.84170,106408
22.84983,110034
22.85795,116702
22.86608,119439
22.87420,134506
22.88232,152099
22.89045,171521
22.89857,198785
22.90670,211106
22.91482,211903
22.92293,215839
22.93107,229327
22.93918,237037
22.94732,237469
22.95543,227152
22.96355,219576
22.97168,188940
22.97980,180256
22.98792,153313
22.99605,140703
23.00417,128716
23.01230,114623
23.02042,109103
23.02853,100743
23.03667,94937
23.04478,84141
23.05292,90669
23.06103,81292
23.06915,81255
23.07728,87160
23.08540,77065
23.09352,79068
23.10165,82855
23.10977,79813
23.11790,73267
23.12602,70579
23.13413,62471
23.14227,61084
23.15038,65072
23.15852,65722
23.16663,65648
23.17475,61803
23.18288,64778
23.19100,63039
23.19913,56082
23.20725,68633
23.21537,60422
23.22350,61271
23.23162,60332
23.23973,72426
23.24787,99147
23.25598,127188
23.26412,141773
23.27223,150894
23.28035,157669
23.28848,163456
23.29660,145810
23.30473,145397
23.31285,141284
23.32097,135829
23.32910,137577
23.33722,139084
23.34535,161856
23.35347,179478
23.36158,209250
23.36972,230366
23.37783,243626
23.38595,230936
23.39408,228594
23.40220,207678
23.41033,184266
23.41845,168760
23.42657,157772
23.43470,147809
23.44282,152484
23.45095,138149
23.45907,134420
23.46718,127929
23.47532,132305
23.48343,132076
23.49155,127290
23.49968,126336
23.50780,127432
23.51593,131482
23.52405,125110
23.53217,129758
23.54030,132770
23.54842,129054
23.55655,129999
23.56467,140248
23.57278,153798
23.58092,183784
23.58903,228219
23.59717,270687
23.60528,316484
23.61340,356609
23.62153,335858
23.62965,324504
23.63777,322659
23.64590,356790
23.65402,467689
23.66215,645861
23.67027,773309
23.67838,867750
23.68652,825913
23.69463,701451
23.70277,542963
23.71088,397868
23.71900,283940
23.72713,229939
23.73525,202247
23.74338,178335
23.75150,177919
23.75962,239712
23.76775,445249
23.77587,862044
23.78398,1736169
23.79212,2803772
23.80023,3617848
23.80837,3892845
23.81648,3742353
23.82460,3039070
23.83273,2305192
23.84085,1690790
23.84898,1241114
23.85710,952877
23.86522,749198
23.87335,623988
23.88147,530532
23.88958,468515
23.89772,434058
23.90583,411953
23.91397,372263
23.92208,361659
23.93020,335269
23.93833,321870
23.94645,289566
23.95458,275349
23.96270,259406
23.97082,254535
23.97895,241229
23.98707,235203
23.99520,223135
24.00332,217065
24.01143,227439
24.01957,248894
24.02768,285644
24.03580,349302
24.04393,396472
24.05205,415752
24.06018,389664
24.06830,329591
24.07642,283303
24.08455,241757
24.09267,203402
24.10080,190024
24.10892,177158
24.11703,164973
24.12517,158413
24.13328,165128
24.14140,174003
24.14953,187262
24.15765,199689
24.16578,203855
24.17390,197311
24.18202,205612
24.19015,189305
24.19827,194668
24.20640,187132
24.21452,185934
24.22263,178216
24.23077,173964
24.23888,167130
24.24702,157642
24.25513,147511
24.26325,140693
24.27138,133324
24.27950,131721
24.28762,127678
24.29575,120347
24.30387,124233
24.31200,126535
24.32012,121747
24.32823,125559
24.33637,128245
24.34448,124838
24.35262,120496
24.36073,122027
24.36885,114663
24.37698,114619
24.38510,114888
24.39323,115478
24.40135,131752
24.40947,140932
24.41760,158839
24.42572,161286
24.43383,158405
24.44197,142580
24.45008,127335
24.45822,118606
24.46633,101420
24.47445,103707
24.48258,96051
24.49070,100565
24.49883,98397
24.50695,104001
24.51507,114139
24.52320,119654
24.53132,132096
24.53943,138804
24.54757,150385
24.55568,154606
24.56382,164295
24.57193,156680
24.58005,149812
24.58818,138965
24.59630,125690
24.60443,112372
24.61255,117416
24.62067,103931
24.62880,106478
24.63692,98713
24.64505,102367
24.65317,96809
24.66128,100493
24.66942,103692
24.67753,102477
24.68565,95747
24.69378,87517
24.70190,91585
24.71003,93138
24.71815,83787
24.72627,78312
24.73440,80946
24.74252,77949
24.75065,78879
24.75877,76394
24.76688,76058
24.77502,81437
24.78313,87039
24.79127,79621
24.79938,85382
24.80750,82593
24.81563,83554
24.82375,90135
24.83187,96898
24.84000,104369
24.84812,110020
24.85625,137991
24.86437,174089
24.87248,217405
24.88062,300506
24.88873,398126
24.89687,464509
24.90498,536836
24.91310,525948
24.92123,446218
24.92935,347716
24.93747,246330
24.94560,174220
24.95372,141435
24.96185,109459
24.96997,88583
24.97808,87956
24.98622,89033
24.99433,99259
25.00247,122437
25.01058,136335
25.01870,151414
25.02683,154825
25.03495,161271
25.04308,167826
25.05120,158930
25.05932,166064
25.06745,167641
25.07557,166861
25.08368,187995
25.09182,192141
25.09993,203837
25.10807,246541
25.11618,379988
25.12430,682659
25.13243,1193467
25.14055,1952113
25.14868,2770389
25.15680,3237907
25.16492,3241484
25.17305,2748991
25.18117,2040207
25.18928,1393521
25.19742,916027
25.20553,604094
25.21367,444968
25.22178,353711
25.22990,304676
25.23803,282079
25.24615,278790
25.25428,298780
25.26240,323769
25.27052,362583
25.27865,378767
25.28677,366433
25.29490,349207
25.30302,321531
25.31113,291894
25.31927,265332
25.32738,250251
25.33550,231545
25.34363,217700
25.35175,209404
25.35988,206216
25.36800,192724
25.37612,184257
25.38425,188851
25.39237,178844
25.40050,191157
25.40862,181429
25.41673,187718
25.42487,180760
25.43298,180447
25.44112,172636
25.44923,166875
25.45735,170422
25.46548,163052
25.47360,159763
25.48172,162419
25.48985,170405
25.49797,148166
25.50610,142718
25.51422,131172
25.52233,118642
25.53047,102652
25.53858,95068
25.54672,91792
25.55483,86432
25.56295,82447
25.57108,83930
25.57920,82390
25.58732,79182
25.59545,82202
25.60357,75225
25.61170,78384
25.61982,77585
25.62793,81279
25.63607,87874
25.64418,88014
25.65232,94831
25.66043,100017
25.66855,100473
25.67668,100734
25.68480,91798
25.69293,88040
25.70105,81483
25.70917,82300
25.71730,75524
25.72542,75905
25.73353,76705
25.74167,78886
25.74978,82107
25.75792,80901
25.76603,82798
25.77415,74706
25.78228,74822
25.79040,75480
25.79853,72261
25.80665,79579
25.81477,76058
25.82290,72840
25.83102,81234
25.83915,80918
25.84727,81695
25.85538,81656
25.86352,77603
25.87163,78818
25.87975,76674
25.88788,81105
25.89600,107862
25.90413,139383
25.91225,180757
25.92037,221092
25.92850,242824
25.93662,248861
25.94475,263555
25.95287,264371
25.96098,262547
25.96912,265321
25.97723,261114
25.98535,263518
25.99348,262019
26.00160,264828
26.00973,255839
26.01785,265159
26.02597,254190
26.03410,253695
26.04222,254729
26.05035,244527
26.05847,254014
26.06658,253923
26.07472,249439
26.08283,259324
26.09097,260198
26.09908,261476
26.10720,257360
26.11533,264783
26.12345,246788
26.13157,252312
26.13970,249774
26.14782,254598
26.15595,268726
26.16407,259024
26.17218,270171
26.18032,260531
26.18843,255863
26.19657,251761
26.20468,252532
26.21280,228227
26.22093,232554
26.22905,225496
26.23717,224659
26.24530,221802
26.25342,217662
26.26155,211820
26.26967,209671
26.27778,203440
26.28592,213562
26.29403,200669
26.30217,202994
26.31028,198041
26.31840,196359
26.32653,197933
26.33465,191942
26.34278,193704
26.35090,213512
26.35902,220569
26.36715,267914
26.37527,335663
26.38338,429570
26.39152,552269
26.39963,657323
26.40777,711285
26.41588,702886
26.42400,631156
26.43213,536111
26.44025,421204
26.44838,323324
26.45650,259473
26.46462,227469
26.47275,204598
26.48087,191759
26.48900,187705
26.49712,183342
26.50523,176883
26.51337,169166
26.52148,165234
26.52960,158606
26.53773,166988
26.54585,150069
26.55398,152501
26.56210,155265
26.57022,151610
26.57835,149858
26.58647,145222
26.59460,145985
26.60272,145286
26.61083,150563
26.61897,142225
26.62708,144798
26.63522,135898
26.64333,143978
26.65145,139877
26.65958,149817
26.66770,151519
26.67582,148647
26.68395,154323
26.69207,157688
26.70020,152325
26.70832,157469
26.71643,144223
26.72457,141097
26.73268,134233
26.74082,135452
26.74893,133248
26.75705,123570
26.76518,125459
26.77330,129991
26.78142,123991
26.78955,126689
26.79767,137249
26.80580,127618
26.81392,130912
26.82203,135323
26.83017,131627
26.83828,128284
26.84642,130629
26.85453,127874
26.86265,124261
26.87078,118859
26.87890,115357
26.88703,118137
26.89515,114143
26.90327,114568
26.91140,110447
26.91952,112975
26.92763,104877
26.93577,108529
26.94388,104620
26.95202,106483
26.96013,111979
26.96825,123085
26.97638,131006
26.98450,186272
26.99263,298583
27.00075,498330
27.00887,836755
27.01700,1286666
27.02512,1698338
27.03323,2051174
27.04137,2131157
27.04948,1903384
27.05762,1526000
27.06573,1154720
27.07385,872855
27.08198,680792
27.09010,542859
27.09823,448280
27.10635,388401
27.11447,358049
27.12260,316671
27.13072,280248
27.13885,266721
27.14697,241886
27.15508,249795
27.16322,233975
27.17133,237970
27.17945,243248
27.18758,248314
27.19570,249058
27.20383,236701
27.21195,222502
27.22007,211411
27.22820,186876
27.23632,173074
27.24445,167937
27.25257,160050
27.26068,150517
27.26882,148523
27.27693,134791
27.28507,139522
27.29318,137487
27.30130,130602
27.30943,129743
27.31755,132165
27.32567,126676
27.33380,126626
27.34192,123158
27.35005,124873
27.35817,120609
27.36628,119466
27.37442,119418
27.38253,125027
27.39067,122563
27.39878,126760
27.40690,116047
27.41503,121115
27.42315,118911
27.43127,113423
27.43940,111441
27.44752,106310
27.45565,110596
27.46377,107768
27.47188,100863
27.48002,96112
27.48813,102042
27.49627,88816
27.50438,94724
27.51250,97890
27.52063,99274
27.52875,98275
27.53688,101542
27.54500,98174
27.55312,103199
27.56125,98577
27.56937,102164
27.57748,99366
27.58562,108801
27.59373,113857
27.60187,123158
27.60998,126695
27.61810,129032
27.62623,116030
27.63435,109356
27.64248,98837
27.65060,103344
27.65872,95904
27.66685,90314
27.67497,89642
27.68310,89445
27.69122,91731
27.69933,95403
27.70747,92553
27.71558,94338
27.72370,88263
27.73183,90245
27.73995,78715
27.74808,79990
27.75620,77736
27.76432,80344
27.77245,80717
27.78057,83315
27.78870,79966
27.79682,87477
27.80493,83190
27.81307,83600
27.82118,87758
27.82930,88803
27.83743,83713
27.84555,87075
27.85368,82125
27.86180,80658
27.86992,77114
27.87805,77656
27.88617,77387
27.89430,71288
27.90242,74510
27.91053,77355
27.91867,71058
27.92678,73645
27.93492,68790
27.94303,75236
27.95115,71828
27.95928,69461
27.96740,70057
27.97552,66757
27.98365,70556
27.99177,72459
27.99990,73777
28.00802,74976
28.01613,79712
28.02427,81539
28.03238,88261
28.04052,106641
28.04863,112708
28.05675,117503
28.06488,123202
28.07300,118276
28.08112,103218
28.08925,95800
28.09737,87369
28.10550,83430
28.11362,73254
28.12173,74301
28.12987,72611
28.13798,76220
28.14612,75708
28.15423,74135
28.16235,72108
28.17048,65309
28.17860,66500
28.18673,71628
28.19485,77221
28.20297,84664
28.21110,91250
28.21922,103854
28.22733,112260
28.23547,112696
28.24358,116069
28.25172,103364
28.25983,94602
28.26795,90089
28.27608,84890
28.28420,76283
28.29233,70341
28.30045,70072
28.30857,76114
28.31670,85158
28.32482,98729
28.33295,110223
28.34107,125095
28.34918,163494
28.35732,185536
28.36543,207951
28.37355,246714
28.38168,259430
28.38980,278274
28.39793,280929
28.40605,267608
28.41417,249377
28.42230,227218
28.43042,217329
28.43855,195331
28.44667,178395
28.45478,167136
28.46292,154352
28.47103,143284
28.47915,132993
28.48728,137248
28.49540,140554
28.50353,129414
28.51165,127246
28.51977,123353
28.52790,123714
28.53602,115141
28.54415,105951
28.55227,103826
28.56038,95869
28.56852,97818
28.57663,86758
28.58477,88385
28.59288,88878
28.60100,80936
28.60913,84109
28.61725,87010
28.62537,92748
28.63350,90735
28.64162,95677
28.64975,97783
28.65787,100071
28.66598,97137
28.67412,99945
28.68223,96966
28.69037,93696
28.69848,89838
28.70660,90386
28.71473,82880
28.72285,80320
28.73098,75683
28.73910,73069
28.74722,71965
28.75535,74083
28.76347,72065
28.77158,79184
28.77972,85455
28.78783,85311
28.79597,96602
28.80408,99832
28.81220,92179
28.82033,93436
28.82845,80931
28.83658,87342
28.84470,80001
28.85282,73557
28.86095,66755
28.86907,72692
28.87718,73163
28.88532,72991
28.89343,83441
28.90157,83411
28.90968,87581
28.91780,85747
28.92593,81517
28.93405,85889
28.94218,83074
28.95030,87309
28.95842,84484
28.96655,88125
28.97467,83161
28.98280,90439
28.99092,85443
28.99903,76554
29.00717,72507
29.01528,71716
29.02340,74874
29.03153,64475
29.03965,67894
29.04778,67992
29.05590,64849
29.06402,66859
29.07215,68159
29.08027,70668
29.08840,68383
29.09652,73856
29.10463,76961
29.11277,69495
29.12088,68808
29.12902,68835
29.13713,68664
29.14525,70106
29.15338,63824
29.16150,67478
29.16962,69591
29.17775,71732
29.18587,74209
29.19400,81999
29.20212,84621
29.21023,95223
29.21837,104389
29.22648,110673
29.23462,115244
29.24273,116665
29.25085,102458
29.25898,101465
29.26710,101634
29.27522,96124
29.28335,96617
29.29147,89455
29.29960,73697
29.30772,72254
29.31583,70775
29.32397,69941
29.33208,69164
29.34022,70175
29.34833,61212
29.35645,68966
29.36458,64709
29.37270,57635
29.38083,63655
29.38895,64607
29.39707,65546
29.40520,66969
29.41332,60857
29.42143,62668
29.42957,71415
29.43768,69009
29.44582,70591
29.45393,65661
29.46205,68168
29.47018,62213
29.47830,61636
29.48643,64750
29.49455,67347
29.50267,67121
29.51080,77127
29.51892,71398
29.52703,72446
29.53517,75515
29.54328,68311
29.55142,70571
29.55953,67668
29.56765,64767
29.57578,60624
29.58390,60510
29.59203,57467
29.60015,61299
29.60827,60368
29.61640,61966
29.62452,60566
29.63265,57162
29.64077,62359
29.64888,60817
29.65702,62933
29.66513,56460
29.67325,56500
29.68138,61931
29.68950,59597
29.69763,56648
29.70575,64232
29.71387,62797
29.72200,64479
29.73012,59748
29.73825,64390
29.74637,62401
29.75448,65982
29.76262,61992
29.77073,57915
29.77887,60996
29.78698,61080
29.79510,55828
29.80323,50631
29.81135,55677
29.81947,53025
29.82760,54093
29.83572,53408
29.84385,52758
29.85197,56844
29.86008,60669
29.86822,83758
29.87633,151740
29.88447,259450
29.89258,454406
29.90070,691205
29.90883,912301
29.91695,943762
29.92507,815191
29.93320,607493
29.94132,402538
29.94945,241867
29.95757,152201
29.96568,111645
29.97382,99042
29.98193,104703
29.99007,117517
29.99818,131129
30.00630,145701
30.01443,162425
30.02255,164960
30.03068,162868
30.03880,161082
30.04692,157089
30.05505,156287
30.06317,150368
30.07128,144075
30.07942,140822
30.08753,131512
30.09567,123918
30.10378,121664
30.11190,117494
30.12003,116240
30.12815,105748
30.13628,102974
30.14440,96187
30.15252,99086
30.16065,96363
30.16877,95786
30.17690,88907
30.18502,92544
30.19313,93048
30.20127,95300
30.20938,107330
30.21750,94865
30.22563,87143
30.23375,93593
30.24188,82169
30.25000,75393
30.25812,78193
30.26625,74719
30.27437,71779
30.28250,71158
30.29062,70858
30.29873,69508
30.30687,71119
30.31498,64992
30.32310,61439
30.33123,65864
30.33935,67370
30.34748,71687
30.35560,73618
30.36372,71268
30.37185,71463
30.37997,67079
30.38810,67441
30.39622,71542
30.40433,62270
30.41247,57114
30.42058,63978
30.42872,61153
30.43683,68211
30.44495,59365
30.45308,60371
30.46120,55864
30.46932,56508
30.47745,56517
30.48557,58365
30.49370,66580
30.50182,60125
30.50993,59937
30.51807,56875
30.52618,57544
30.53432,56954
30.54243,57317
30.55055,59256
30.55868,53307
30.56680,53601
30.57492,57552
30.58305,57896
30.59117,62087
30.59930,60429
30.60742,57602
30.61553,61100
30.62367,63275
30.63178,58390
30.63992,61300
30.64803,61213
30.65615,57292
30.66428,58885
30.67240,58704
30.68053,61782
30.68865,58857
30.69677,59415
30.70490,58836
30.71302,57483
30.72113,62625
30.72927,61757
30.73738,57209
30.74552,61982
30.75363,63985
30.76175,63189
30.76988,61996
30.77800,63718
30.78613,65157
30.79425,82961
30.80237,100571
30.81050,120261
30.81862,133511
30.82675,134741
30.83487,128081
30.84298,108824
30.85112,92736
30.85923,81313
30.86735,77027
30.87548,71488
30.88360,68957
30.89173,70471
30.89985,75039
30.90797,70969
30.91610,64018
30.92422,64788
30.93235,59262
30.94047,63277
30.94858,61703
30.95672,66574
30.96483,68241
30.97297,66718
30.98108,59918
30.98920,59374
30.99733,62999
31.00545,65951
31.01357,69443
31.02170,75982
31.02982,79205
31.03795,92572
31.04607,94632
31.05418,96843
31.06232,94816
31.07043,91637
31.07857,80394
31.08668,92742
31.09480,122354
31.10293,156357
31.11105,207561
31.11917,221967
31.12730,228060
31.13542,202193
31.14355,158876
31.15167,118775
31.15978,96140
31.16792,80595
31.17603,76832
31.18417,75637
31.19228,78785
31.20040,81303
31.20853,93528
31.21665,104599
31.22478,124607
31.23290,127797
31.24102,130246
31.24915,115962
31.25727,97843
31.26538,88408
31.27352,79143
31.28163,67410
31.28977,62392
31.29788,56764
31.30600,58179
31.31413,56800
31.32225,58984
31.33038,63209
31.33850,67136
31.34662,58463
31.35475,64404
31.36287,63717
31.37098,67400
31.37912,67983
31.38723,71350
31.39537,77589
31.40348,81787
31.41160,73406
31.41973,70435
31.42785,66587
31.43598,67033
31.44410,66700
31.45222,61676
31.46035,58649
31.46847,57961
31.47660,60599
31.48472,55314
31.49283,56524
31.50097,58043
31.50908,60383
31.51720,60278
31.52533,64263
31.53345,65562
31.54158,66290
31.54970,63784
31.55782,61159
31.56595,67806
31.57407,67236
31.58220,75124
31.59032,72201
31.59843,71448
31.60657,68779
31.61468,73332
31.62280,73263
31.63093,72091
31.63905,68405
31.64718,80534
31.65530,76491
31.66342,78956
31.67155,75900
31.67967,81623
31.68780,82700
31.69592,84120
31.70403,78575
31.71217,81942
31.72028,73425
31.72842,72850
31.73653,74174
31.74465,72714
31.75278,72111
31.76090,76564
31.76902,75648
31.77715,74787
31.78527,73297
31.79340,76266
31.80152,74246
31.80963,77961
31.81777,79609
31.82588,76020
31.83402,80738
31.84213,75457
31.85025,73358
31.85838,75221
31.86650,84983
31.87463,83081
31.88275,86466
31.89087,80701
31.89900,85813
31.90712,80377
31.91523,82367
31.92337,91175
31.93148,98603
31.93962,94844
31.94773,108173
31.95585,103740
31.96398,100070
31.97210,109136
31.98023,114107
31.98835,117908
31.99647,115852
32.00460,113185
32.01272,118104
32.02085,124223
32.02897,110388
32.03708,105464
32.04522,101896
32.05333,97099
32.06145,97922
32.06958,93440
32.07770,95406
32.08583,85104
32.09395,83732
32.10207,93170
32.11020,82371
32.11832,80027
32.12645,76299
32.13457,77011
32.14268,71597
32.15082,73153
32.15893,63361
32.16705,72544
32.17518,68825
32.18330,71006
32.19143,67453
32.19955,65962
32.20767,66480
32.21580,62670
32.22392,67966
32.23205,62382
32.24017,66589
32.24828,66022
32.25642,65728
32.26453,63140
32.27267,66365
32.28078,68355
32.28890,75512
32.29703,69087
32.30515,62303
32.31327,63167
32.32140,68655
32.32952,65983
32.33765,63921
32.34577,64047
32.35388,67032
32.36202,67851
32.37013,66825
32.37827,69057
32.38638,68412
32.39450,62660
32.40263,60392
32.41075,62070
32.41887,56585
32.42700,59672
32.43512,59441
32.44325,57478
32.45137,56747
32.45948,58820
32.46762,54148
32.47573,60483
32.48387,57136
32.49198,54976
32.50010,54206
32.50823,53076
32.51635,57138
32.52448,60046
32.53260,54823
32.54072,53384
32.54885,54026
32.55697,55688
32.56508,58543
32.57322,61837
32.58133,58986
32.58947,57841
32.59758,56684
32.60570,51932
32.61383,52520
32.62195,54400
32.63008,53847
32.63820,54134
32.64632,55797
32.65445,57067
32.66257,57197
32.67070,63632
32.67882,65137
32.68693,69264
32.69507,65827
32.70318,74335
32.71130,65240
32.71943,63316
32.72755,65063
32.73568,58922
32.74380,57512
32.75192,59821
32.76005,58685
32.76817,56499
32.77630,53544
32.78442,52055
32.79253,51602
32.80067,53288
32.80878,48690
32.81690,49914
32.82503,52861
32.83315,48732
32.84128,52578
32.84940,50809
32.85752,57029
32.86565,50935
32.87377,53634
32.88190,52797
32.89002,54125
32.89813,57817
32.90627,59573
32.91438,59357
32.92252,57982
32.93063,58307
32.93875,53539
32.94688,61104
32.95500,53561
32.96312,59016
32.97125,55130
32.97937,55842
32.98750,57975
32.99562,59441
33.00373,66811
33.01187,74180
33.01998,74360
33.02812,71964
33.03623,67052
33.04435,66114
33.05248,62603
33.06060,61737
33.06873,65733
33.07685,66264
33.08497,74205
33.09310,86186
33.10122,96029
33.10933,106391
33.11747,124013
33.12558,127715
33.13372,128153
33.14183,122792
33.14995,103692
33.15808,84966
33.16620,76902
33.17433,67493
33.18245,64038
33.19057,58995
33.19870,58697
33.20682,58892
33.21493,58938
33.22307,58503
33.23118,63083
33.23932,59202
33.24743,62516
33.25555,62946
33.26368,58764
33.27180,57860
33.27993,57888
33.28805,56369
33.29617,57113
33.30430,59017
33.31242,59131
33.32055,58327
33.32867,57479
33.33678,56643
33.34492,56423
33.35303,65596
33.36115,61025
33.36928,61249
33.37740,63273
33.38553,61869
33.39365,62285
33.40177,61887
33.40990,54461
33.41802,54396
33.42615,58822
33.43427,55604
33.44238,55865
33.45052,54982
33.45863,53210
33.46675,52250
33.47488,49513
33.48300,57015
33.49113,50910
33.49925,52818
33.50737,58001
33.51550,55110
33.52362,55983
33.53175,51711
33.53987,52969
33.54798,57114
33.55612,57941
33.56423,60756
33.57237,61162
33.58048,58409
33.58860,57338
33.59673,55227
33.60485,54126
33.61297,55375
33.62110,53086
33.62922,50469
33.63735,54269
33.64547,54362
33.65358,58050
33.66172,66225
33.66983,60446
33.67797,61021
33.68608,60149
33.69420,62352
33.70233,56337
33.71045,55804
33.71858,50213
33.72670,56652
33.73482,52190
33.74295,53339
33.75107,54474
33.75918,51423
33.76732,47684
33.77543,54702
33.78357,50392
33.79168,49345
33.79980,51257
33.80793,52535
33.81605,50819
33.82418,54737
33.83230,51103
33.84042,53939
33.84855,53833
33.85667,60780
33.86478,58603
33.87292,58920
33.88103,59189
33.88917,53983
33.89728,57902
33.90540,59384
33.91353,56623
33.92165,54103
33.92978,53949
33.93790,57777
33.94602,54069
33.95415,54256
33.96227,50640
33.97040,55897
33.97852,52278
33.98663,56484
33.99477,49218
34.00288,52066
34.01100,52060
34.01913,53590
34.02725,55322
34.03538,56558
34.04350,56367
34.05162,53206
34.05975,51315
34.06787,52138
34.07600,51241
34.08412,55287
34.09223,56682
34.10037,56722
34.10848,56186
34.11662,56592
34.12473,60261
34.13285,62447
34.14098,54886
34.14910,55845
34.15722,55649
34.16535,54484
34.17347,52081
34.18160,49768
34.18972,55292
34.19783,53843
34.20597,54772
34.21408,54557
34.22222,50229
34.23033,52146
34.23845,54497
34.24658,55721
34.25470,48834
34.26282,50717
34.27095,47785
34.27907,54973
34.28720,54722
34.29532,54231
34.30343,53451
34.31157,53405
34.31968,55642
34.32782,48663
34.33593,50660
34.34405,52107
34.35218,54599
34.36030,52207
34.36843,54168
34.37655,52909
34.38467,51851
34.39280,55292
34.40092,54636
34.40903,49748
34.41717,55473
34.42528,48512
34.43342,49948
34.44153,51632
34.44965,51013
34.45778,51162
34.46590,50861
34.47403,57732
34.48215,50047
34.49027,48764
34.49840,57318
34.50652,56400
34.51465,52999
34.52277,60155
34.53088,59122
34.53902,64306
34.54713,69768
34.55525,73438
34.56338,77158
34.57150,79648
34.57963,81168
34.58775,80717
34.59587,80009
34.60400,76989
34.61212,76305
34.62025,67508
34.62837,68418
34.63648,68176
34.64462,61367
34.65273,61872
34.66085,61846
34.66898,63472
34.67710,62428
34.68523,54782
34.69335,57854
34.70147,55395
34.70960,54402
34.71772,55842
34.72585,56102
34.73397,56269
34.74208,61069
34.75022,59050
34.75833,57288
34.76647,62241
34.77458,61410
34.78270,60360
34.79083,57622
34.79895,59619
34.80707,59388
34.81520,57533
34.82332,58026
34.83145,57425
34.83957,57279
34.84768,55101
34.85582,58304
34.86393,54993
34.87207,56880
34.88018,57381
34.88830,58829
34.89643,54090
34.90455,55031
34.91267,60528
34.92080,60821
34.92892,57572
34.93705,63315
34.94517,73341
34.95328,93374
34.96142,128623
34.96953,196495
34.97767,276738
34.98578,344482
34.99390,368239
35.00203,335722
35.01015,267645
35.01828,181916
35.02640,123127
35.03452,95535
35.04265,80466
35.05077,74189
35.05888,66599
35.06702,67157
35.07513,68741
35.08327,70281
35.09138,67460
35.09950,64561
35.10763,65716
35.11575,62713
35.12388,64788
35.13200,60105
35.14012,61477
35.14825,61929
35.15637,62975
35.16450,61832
35.17262,63402
35.18073,61992
35.18887,66675
35.19698,61502
35.20510,63934
35.21323,59411
35.22135,57922
35.22948,55603
35.23760,58107
35.24572,58076
35.25385,66022
35.26197,58332
35.27010,61433
35.27822,67753
35.28633,67845
35.29447,64529
35.30258,67093
35.31070,60181
35.31883,59194
35.32695,59174
35.33508,59531
35.34320,61917
35.35132,56530
35.35945,53088
35.36757,56144
35.37570,59181
35.38382,54445
35.39193,53648
35.40007,60064
35.40818,66040
35.41632,59159
35.42443,62287
35.43255,66472
35.44068,65087
35.44880,62897
35.45692,70051
35.46505,72945
35.47317,68183
35.48130,67506
35.48942,66851
35.49753,70774
35.50567,66215
35.51378,62910
35.52192,60049
35.53003,62759
35.53815,68626
35.54628,62620
35.55440,58467
35.56253,59466
35.57065,58466
35.57877,61916
35.58690,62909
35.59502,65362
35.60313,60369
35.61127,57137
35.61938,59136
35.62752,59671
35.63563,57841
35.64375,59869
35.65188,60308
35.66000,56262
35.66813,55189
35.67625,55994
35.68437,61028
35.69250,66492
35.70062,65811
35.70873,67391
35.71687,61182
35.72498,57589
35.73312,58333
35.74123,59053
35.74935,61816
35.75748,70792
35.76560,71855
35.77373,68106
35.78185,70132
35.78997,66854
35.79810,71698
35.80622,67841
35.81435,63172
35.82247,59838
35.83058,60943
35.83872,65297
35.84683,55932
35.85495,58393
35.86308,58901
35.87120,67428
35.87933,59624
35.88745,61930
35.89557,58545
35.90370,59246
35.91182,61289
35.91995,59538
35.92807,59085
35.93618,59063
35.94432,61731
35.95243,58576
35.96055,56959
35.96868,63803
35.97680,60234
35.98493,57249
35.99305,56869
36.00117,58231
36.00930,59541
36.01742,63781
36.02555,66545
36.03367,60738
36.04178,67776
36.04992,66259
36.05803,61169
36.06617,63849
36.07428,59812
36.08240,59173
36.09053,62767
36.09865,62112
36.10677,60039
36.11490,57201
36.12302,65444
36.13115,60695
36.13927,65492
36.14738,69898
36.15552,69977
36.16363,77578
36.17177,66983
36.17988,69898
36.18800,64292
36.19613,60172
36.20425,57898
36.21238,57165
36.22050,58345
36.22862,56790
36.23675,59086
36.24487,59589
36.25298,57417
36.26112,59345
36.26923,57275
36.27737,60478
36.28548,56642
36.29360,58451
36.30173,59266
36.30985,64154
36.31798,62176
36.32610,67957
36.33422,75116
36.34235,69081
36.35047,68734
36.35858,62544
36.36672,65673
36.37483,63595
36.38297,63543
36.39108,60641
36.39920,63066
36.40733,60223
36.41545,61655
36.42358,62524
36.43170,66304
36.43982,70144
36.44795,62419
36.45607,61693
36.46420,58571
36.47232,58170
36.48043,55804
36.48857,54091
36.49668,58573
36.50480,58470
36.51293,60362
36.52105,61035
36.52918,61202
36.53730,59056
36.54542,55076
36.55355,58930
36.56167,58502
36.56980,58804
36.57792,57784
36.58603,57985
36.59417,57839
36.60228,58237
36.61042,59262
36.61853,61470
36.62665,59014
36.63478,58498
36.64290,57311
36.65102,59059
36.65915,61083
36.66727,58054
36.67540,57854
36.68352,64176
36.69163,60779
36.69977,63825
36.70788,60518
36.71602,61239
36.72413,58539
36.73225,63345
36.74038,59232
36.74850,64507
36.75662,57534
36.76475,56533
36.77287,59512
36.78100,62315
36.78912,67716
36.79723,62582
36.80537,62292
36.81348,62262
36.82162,59747
36.82973,57961
36.83785,66077
36.84598,58771
36.85410,60522
36.86223,56316
36.87035,56871
36.87847,65408
36.88660,68017
36.89472,59254
36.90283,57467
36.91097,63920
36.91908,66801
36.92722,59361
36.93533,61685
36.94345,58749
36.95158,64470
36.95970,72764
36.96783,76126
36.97595,73738
36.98407,76506
36.99220,78215
37.00032,76923
37.00843,77134
37.01657,69495
37.02468,74032
37.03282,73636
37.04093,71049
37.04905,79857
37.05718,75478
37.06530,75331
37.07343,76693
37.08155,82211
37.08967,76519
37.09780,78997
37.10592,78077
37.11405,74954
37.12217,77485
37.13028,74510
37.13842,77607
37.14653,77966
37.15465,82801
37.16278,81978
37.17090,80925
37.17903,83108
37.18715,81809
37.19527,84476
37.20340,80266
37.21152,79728
37.21965,82580
37.22777,82001
37.23588,82968
37.24402,78007
37.25213,75449
37.26027,76745
37.26838,74789
37.27650,76311
37.28463,71289
37.29275,76851
37.30087,75816
37.30900,70714
37.31712,67668
37.32525,76328
37.33337,85763
37.34148,79403
37.34962,81499
37.35773,77990
37.36587,86896
37.37398,86933
37.38210,85614
37.39023,86240
37.39835,86060
37.40648,81412
37.41460,83137
37.42272,78925
37.43085,79997
37.43897,80198
37.44708,80982
37.45522,75734
37.46333,82072
37.47147,83416
37.47958,73656
37.48770,81131
