C:\MassHunter\GCMS\1\data\JTB-E02\BACandBLUE\JTB-E18-014-12.D Tue Jun 25 16:29:07 2019
Start of data points
2.09532	65763
2.10343	67165
2.11157	68893
2.11968	65195
2.12782	68981
2.13593	68220
2.14405	64088
2.15218	66074
2.16030	69924
2.16843	66758
2.17655	64265
2.18467	64114
2.19280	66789
2.20092	61298
2.20903	57369
2.21717	63511
2.22528	60201
2.23342	60005
2.24153	58562
2.24965	57670
2.25778	57541
2.26590	67250
2.27403	281021
2.28215	1410838
2.29027	1523173
2.29840	602225
2.30652	334491
2.31465	254876
2.32277	227574
2.33088	212499
2.33902	278987
2.34713	309847
2.35525	205901
2.36338	178914
2.37150	165769
2.37963	148862
2.38775	142306
2.39587	141467
2.40400	130103
2.41212	131355
2.42025	126206
2.42837	128084
2.43648	124715
2.44462	121915
2.45273	118605
2.46085	120083
2.46898	111944
2.47710	113456
2.48523	114192
2.49335	132631
2.50147	174042
2.50960	144697
2.51772	123718
2.52585	122308
2.53397	114780
2.54208	111859
2.55022	114711
2.55833	151158
2.56647	274074
2.57458	262240
2.58270	185068
2.59083	157330
2.59895	146173
2.60707	155081
2.61520	243196
2.62332	314968
2.63145	257853
2.63957	191435
2.64768	163557
2.65582	143766
2.66393	131178
2.67207	133988
2.68018	124852
2.68830	124752
2.69643	119348
2.70455	119581
2.71267	114907
2.72080	113252
2.72892	117160
2.73705	110581
2.74517	109800
2.75328	109012
2.76142	103976
2.76953	106964
2.77767	107510
2.78578	154683
2.79390	247161
2.80203	214860
2.81015	151227
2.81828	161939
2.82640	191929
2.83452	200112
2.84265	198078
2.85077	167479
2.85888	138865
2.86702	126469
2.87513	122907
2.88327	114507
2.89138	113887
2.89950	113583
2.90763	107523
2.91575	101932
2.92388	100544
2.93200	106055
2.94012	100032
2.94825	101765
2.95637	96974
2.96450	99896
2.97262	97782
2.98073	98422
2.98887	101070
2.99698	115807
3.00510	128182
3.01323	134810
3.02135	119475
3.02948	108023
3.03760	104705
3.04572	105484
3.05385	95629
3.06197	107020
3.07010	118374
3.07822	116969
3.08633	123511
3.09447	199141
3.10258	702611
3.11070	2580715
3.11883	4205474
3.12695	3107167
3.13508	1895188
3.14320	1385171
3.15132	1078242
3.15945	864652
3.16757	740750
3.17570	705753
3.18382	732120
3.19193	1169610
3.20007	2040226
3.20818	2008510
3.21632	1381071
3.22443	1032261
3.23255	849638
3.24068	715514
3.24880	626452
3.25692	544057
3.26505	491544
3.27317	439947
3.28130	413032
3.28942	486644
3.29753	1094796
3.30567	3060920
3.31378	5652149
3.32192	6420975
3.33003	5102249
3.33815	3527756
3.34628	2543215
3.35440	1974645
3.36253	1606007
3.37065	1346175
3.37877	1156994
3.38690	990652
3.39502	890956
3.40313	805476
3.41127	730854
3.41938	666497
3.42752	629074
3.43563	602618
3.44375	568315
3.45188	538738
3.46000	515531
3.46813	505262
3.47625	530121
3.48437	514217
3.49250	499807
3.50062	483288
3.50873	451030
3.51687	423845
3.52498	412912
3.53312	408481
3.54123	425213
3.54935	425419
3.55748	398917
3.56560	369613
3.57373	357119
3.58185	360636
3.58997	343650
3.59810	328421
3.60622	333970
3.61435	326729
3.62247	324657
3.63058	360235
3.63872	385275
3.64683	408565
3.65495	389968
3.66308	488729
3.67120	1736038
3.67933	5770956
3.68745	9443203
3.69557	8054941
3.70370	4685504
3.71182	2996454
3.71995	2325051
3.72807	1946383
3.73618	1684810
3.74432	1514165
3.75243	1340097
3.76057	1214039
3.76868	1124524
3.77680	1044362
3.78493	986346
3.79305	913615
3.80117	930817
3.80930	1296080
3.81742	2227214
3.82555	2742485
3.83367	2256833
3.84178	1590470
3.84992	1260558
3.85803	1086184
3.86617	964622
3.87428	892763
3.88240	820570
3.89053	779490
3.89865	728512
3.90677	693605
3.91490	709128
3.92302	819203
3.93115	1023988
3.93927	1119480
3.94738	982118
3.95552	830851
3.96363	839185
3.97177	922614
3.97988	860111
3.98800	736713
3.99613	624734
4.00425	719749
4.01238	1088285
4.02050	1435462
4.02862	1367200
4.03675	980300
4.04487	701771
4.05298	569596
4.06112	504676
4.06923	457918
4.07737	438535
4.08548	440213
4.09360	435223
4.10173	425658
4.10985	404652
4.11798	386378
4.12610	380242
4.13422	397342
4.14235	597147
4.15047	1083905
4.15858	1580185
4.16672	1495381
4.17483	1134651
4.18297	856994
4.19108	719780
4.19920	596662
4.20733	645386
4.21545	1540040
4.22358	5156314
4.23170	1.175956E+07
4.23982	1.694431E+07
4.24795	1.716905E+07
4.25607	1.227285E+07
4.26420	7355705
4.27232	4757797
4.28043	3378388
4.28857	2552786
4.29668	2071842
4.30480	1682038
4.31293	1428315
4.32105	1284205
4.32918	1176996
4.33730	1108408
4.34542	1045482
4.35355	1003727
4.36167	1010603
4.36980	1007834
4.37792	945128
4.38603	841675
4.39417	747850
4.40228	683967
4.41042	638153
4.41853	591709
4.42665	567046
4.43478	546187
4.44290	536059
4.45102	523272
4.45915	500054
4.46727	478042
4.47540	475385
4.48352	459580
4.49163	445715
4.49977	441017
4.50788	434433
4.51602	426365
4.52413	416868
4.53225	398011
4.54038	395764
4.54850	395237
4.55662	411677
4.56475	391190
4.57287	376535
4.58100	355376
4.58912	354078
4.59723	356323
4.60537	339461
4.61348	337935
4.62162	374339
4.62973	536694
4.63785	898074
4.64598	1292782
4.65410	1372892
4.66223	1079910
4.67035	762788
4.67847	580322
4.68660	509830
4.69472	448722
4.70283	415025
4.71097	375343
4.71908	354529
4.72722	334755
4.73533	321678
4.74345	313942
4.75158	302747
4.75970	302915
4.76783	291324
4.77595	284314
4.78407	282671
4.79220	286697
4.80032	322383
4.80845	349760
4.81657	362954
4.82468	342352
4.83282	322009
4.84093	342206
4.84905	366444
4.85718	371588
4.86530	338552
4.87343	310807
4.88155	301463
4.88967	292838
4.89780	286478
4.90592	270724
4.91405	266586
4.92217	268805
4.93028	295374
4.93842	414238
4.94653	826947
4.95465	1654252
4.96278	2751632
4.97090	3309772
4.97903	3171340
4.98715	2538956
4.99527	1882287
5.00340	1436056
5.01152	1117330
5.01965	939915
5.02777	954858
5.03588	1210453
5.04402	1565953
5.05213	1691679
5.06027	1437125
5.06838	1147526
5.07650	946440
5.08463	838978
5.09275	754505
5.10087	700529
5.10900	634051
5.11712	611782
5.12525	588535
5.13337	557383
5.14148	538683
5.14962	535186
5.15773	573554
5.16587	650601
5.17398	710617
5.18210	682313
5.19023	619263
5.19835	611826
5.20647	661040
5.21460	713257
5.22272	703677
5.23085	650719
5.23897	583227
5.24708	527383
5.25522	480760
5.26333	441747
5.27147	399152
5.27958	368785
5.28770	361995
5.29583	352034
5.30395	340925
5.31208	340428
5.32020	332882
5.32832	357657
5.33645	388925
5.34457	434689
5.35268	432162
5.36082	411406
5.36893	360931
5.37707	330179
5.38518	329536
5.39330	356779
5.40143	371194
5.40955	385679
5.41768	378131
5.42580	346488
5.43392	316974
5.44205	308011
5.45017	318354
5.45830	331550
5.46642	343673
5.47453	320630
5.48267	295893
5.49078	291037
5.49890	270896
5.50703	274631
5.51515	276630
5.52328	282569
5.53140	288259
5.53952	278002
5.54765	272864
5.55577	285181
5.56390	345294
5.57202	426710
5.58013	495220
5.58827	485795
5.59638	410273
5.60452	338308
5.61263	292204
5.62075	281066
5.62888	278588
5.63700	291325
5.64512	301369
5.65325	297962
5.66137	286816
5.66950	277957
5.67762	269472
5.68573	304289
5.69387	344239
5.70198	358709
5.71012	334461
5.71823	310260
5.72635	272705
5.73448	268104
5.74260	253432
5.75072	248320
5.75885	233949
5.76697	240939
5.77510	229125
5.78322	219756
5.79133	224621
5.79947	228094
5.80758	219247
5.81572	224994
5.82383	220493
5.83195	217626
5.84008	223085
5.84820	223417
5.85633	222810
5.86445	217959
5.87257	224798
5.88070	214654
5.88882	205326
5.89693	212343
5.90507	207472
5.91318	188265
5.92132	169727
5.92943	165584
5.93755	170903
5.94568	162909
5.95380	190399
5.96193	212867
5.97005	236776
5.97817	275589
5.98630	328210
5.99442	369674
6.00253	351174
6.01067	301118
6.01878	236115
6.02692	203734
6.03503	192458
6.04315	166090
6.05128	168012
6.05940	160559
6.06753	153358
6.07565	153205
6.08377	153389
6.09190	154074
6.10002	148681
6.10815	144239
6.11627	150184
6.12438	189386
6.13252	273390
6.14063	442455
6.14875	635398
6.15688	718145
6.16500	612021
6.17313	457163
6.18125	346577
6.18937	282986
6.19750	251839
6.20562	230514
6.21375	225026
6.22187	228593
6.22998	212463
6.23812	213284
6.24623	213464
6.25437	224144
6.26248	243534
6.27060	260655
6.27873	248565
6.28685	221421
6.29497	213179
6.30310	214746
6.31122	200388
6.31935	200222
6.32747	204558
6.33558	207400
6.34372	200226
6.35183	198933
6.35997	193329
6.36808	193681
6.37620	200294
6.38433	201599
6.39245	207140
6.40057	199494
6.40870	199541
6.41682	192760
6.42495	200084
6.43307	192546
6.44118	190780
6.44932	203903
6.45743	196959
6.46557	206150
6.47368	194725
6.48180	200395
6.48993	198933
6.49805	203598
6.50618	203490
6.51430	212862
6.52242	211660
6.53055	222747
6.53867	219563
6.54678	218309
6.55492	219971
6.56303	236569
6.57117	284074
6.57928	373698
6.58740	458648
6.59553	458838
6.60365	381515
6.61178	306485
6.61990	269680
6.62802	255595
6.63615	261232
6.64427	323745
6.65240	743624
6.66052	2035757
6.66863	4296772
6.67677	6252523
6.68488	6241716
6.69300	4554795
6.70113	3341489
6.70925	2039657
6.71738	1390188
6.72550	1080892
6.73362	888053
6.74175	754527
6.74987	674340
6.75800	605688
6.76612	545824
6.77423	499533
6.78237	468582
6.79048	431864
6.79860	404361
6.80673	373466
6.81485	354734
6.82298	327621
6.83110	317175
6.83922	308381
6.84735	296631
6.85547	278768
6.86360	263281
6.87172	242544
6.87983	225688
6.88797	210356
6.89608	197845
6.90422	176549
6.91233	176714
6.92045	167819
6.92858	154645
6.93670	142265
6.94482	131483
6.95295	128342
6.96107	130663
6.96920	150865
6.97732	195030
6.98543	230481
6.99357	260272
7.00168	253132
7.00982	229534
7.01793	209382
7.02605	197433
7.03418	187650
7.04230	180883
7.05042	180359
7.05855	177317
7.06667	188193
7.07480	192111
7.08292	189306
7.09103	187720
7.09917	178436
7.10728	164441
7.11542	147396
7.12353	146338
7.13165	144672
7.13978	145900
7.14790	175753
7.15603	230723
7.16415	289710
7.17227	323128
7.18040	291490
7.18852	248994
7.19663	266153
7.20477	450160
7.21288	932435
7.22102	1509063
7.22913	1797640
7.23725	1586451
7.24538	1074571
7.25350	638995
7.26163	406170
7.26975	283980
7.27787	200444
7.28600	159053
7.29412	145571
7.30225	136999
7.31037	137995
7.31848	137799
7.32662	140203
7.33473	147131
7.34285	152819
7.35098	158573
7.35910	149498
7.36723	137822
7.37535	130025
7.38347	132772
7.39160	129913
7.39972	134490
7.40785	131548
7.41597	134927
7.42408	131567
7.43222	122733
7.44033	120189
7.44845	113580
7.45658	111152
7.46470	115689
7.47283	114768
7.48095	111424
7.48907	113803
7.49720	106792
7.50532	96143
7.51345	111454
7.52157	131045
7.52968	200805
7.53782	350775
7.54593	636147
7.55407	1070340
7.56218	1531352
7.57030	1880620
7.57843	1909602
7.58655	1656157
7.59467	1226730
7.60280	791105
7.61092	496134
7.61905	312505
7.62717	216688
7.63528	166912
7.64342	141268
7.65153	128870
7.65967	118298
7.66778	114405
7.67590	102250
7.68403	99269
7.69215	96098
7.70028	100947
7.70840	95129
7.71652	95551
7.72465	104895
7.73277	103659
7.74088	103801
7.74902	107907
7.75713	111116
7.76527	113849
7.77338	117354
7.78150	119203
7.78963	121123
7.79775	123676
7.80588	128559
7.81400	142767
7.82212	136014
7.83025	130575
7.83837	116937
7.84648	110130
7.85462	107888
7.86273	114846
7.87087	129302
7.87898	149320
7.88710	171365
7.89523	187848
7.90335	191648
7.91148	171078
7.91960	156794
7.92772	138794
7.93585	152338
7.94397	179187
7.95210	203927
7.96022	203785
7.96833	165154
7.97647	139130
7.98458	119055
7.99270	98228
8.00083	89080
8.00895	86923
8.01708	89447
8.02520	82942
8.03332	81794
8.04145	80205
8.04957	79995
8.05770	81769
8.06582	82941
8.07393	87247
8.08207	84918
8.09018	80611
8.09832	79691
8.10643	76280
8.11455	74687
8.12268	77698
8.13080	82529
8.13892	95566
8.14705	118209
8.15517	136115
8.16330	138416
8.17142	124944
8.17953	109937
8.18767	96201
8.19578	85478
8.20392	83242
8.21203	82576
8.22015	78307
8.22828	81327
8.23640	87831
8.24452	84734
8.25265	85464
8.26077	78539
8.26890	74398
8.27702	78642
8.28513	73080
8.29327	71059
8.30138	69948
8.30952	72224
8.31763	75836
8.32575	81347
8.33388	77600
8.34200	81867
8.35013	79011
8.35825	73112
8.36637	77193
8.37450	76687
8.38262	79569
8.39073	77597
8.39887	76840
8.40698	69754
8.41512	66908
8.42323	64656
8.43135	65522
8.43948	64035
8.44760	67757
8.45573	65527
8.46385	68630
8.47197	71039
8.48010	67748
8.48822	64103
8.49633	61985
8.50447	61426
8.51258	79892
8.52072	102277
8.52883	171589
8.53695	273909
8.54508	359252
8.55320	372635
8.56133	300519
8.56945	202107
8.57757	131092
8.58570	97087
8.59382	87261
8.60195	89918
8.61007	88876
8.61818	90338
8.62632	96199
8.63443	86237
8.64255	74988
8.65068	75935
8.65880	71342
8.66693	74956
8.67505	74481
8.68317	79144
8.69130	84991
8.69942	92006
8.70755	98528
8.71567	101557
8.72378	97272
8.73192	85839
8.74003	79680
8.74817	87927
8.75628	135760
8.76440	265801
8.77253	527542
8.78065	888641
8.78877	1180761
8.79690	1224537
8.80502	1005465
8.81315	687700
8.82127	454253
8.82938	310238
8.83752	259441
8.84563	236128
8.85377	223469
8.86188	217670
8.87000	204429
8.87813	190140
8.88625	174037
8.89437	163471
8.90250	159404
8.91062	151374
8.91875	152957
8.92687	154561
8.93498	160944
8.94312	167514
8.95123	174429
8.95937	159765
8.96748	149619
8.97560	155732
8.98373	159929
8.99185	156720
8.99998	164182
9.00810	147432
9.01622	138126
9.02435	133379
9.03247	121500
9.04058	119682
9.04872	115984
9.05683	108522
9.06497	107958
9.07308	111518
9.08120	112441
9.08933	115960
9.09745	128366
9.10558	151617
9.11370	185131
9.12182	211578
9.12995	218420
9.13807	206251
9.14620	170254
9.15432	145801
9.16243	127982
9.17057	117910
9.17868	105920
9.18680	111409
9.19493	106066
9.20305	101460
9.21118	101309
9.21930	94222
9.22742	102792
9.23555	95722
9.24367	97452
9.25180	97248
9.25992	99791
9.26803	98773
9.27617	95103
9.28428	96574
9.29240	94895
9.30053	89928
9.30865	96782
9.31678	85213
9.32490	87979
9.33302	92295
9.34115	83888
9.34927	89453
9.35740	89419
9.36552	89364
9.37363	83336
9.38177	77252
9.38988	86964
9.39802	90323
9.40613	107432
9.41425	121640
9.42238	162579
9.43050	219749
9.43862	278349
9.44675	320984
9.45487	315099
9.46300	282194
9.47112	221967
9.47923	168725
9.48737	128486
9.49548	113686
9.50362	109067
9.51173	116024
9.51985	134818
9.52798	151234
9.53610	152135
9.54422	141218
9.55235	123116
9.56047	100449
9.56860	86115
9.57672	71350
9.58483	68716
9.59297	67098
9.60108	62411
9.60922	61376
9.61733	59681
9.62545	58703
9.63358	60608
9.64170	54649
9.64983	53807
9.65795	53798
9.66607	56885
9.67420	58974
9.68232	61217
9.69043	58766
9.69857	54519
9.70668	51427
9.71482	53991
9.72293	56423
9.73105	49617
9.73918	52579
9.74730	50820
9.75543	48974
9.76355	50892
9.77167	44724
9.77980	51871
9.78792	47348
9.79605	47123
9.80417	47313
9.81228	48011
9.82042	45121
9.82853	44827
9.83665	49321
9.84478	49524
9.85290	51690
9.86103	49696
9.86915	48674
9.87727	55584
9.88540	51136
9.89352	46535
9.90165	48418
9.90977	48517
9.91788	49327
9.92602	57560
9.93413	64428
9.94227	86956
9.95038	108106
9.95850	132461
9.96663	144586
9.97475	140670
9.98287	122969
9.99100	106123
9.99912	88056
10.00725	80489
10.01537	70202
10.02348	66649
10.03162	67563
10.03973	61401
10.04787	59791
10.05598	56821
10.06410	59146
10.07223	62170
10.08035	59049
10.08847	65519
10.09660	62605
10.10472	65320
10.11285	62803
10.12097	57779
10.12908	59227
10.13722	56776
10.14533	57280
10.15347	59300
10.16158	57255
10.16970	54586
10.17783	54804
10.18595	51079
10.19408	49376
10.20220	48310
10.21032	48395
10.21845	50460
10.22657	56854
10.23468	59764
10.24282	65329
10.25093	86728
10.25907	126032
10.26718	265615
10.27530	625731
10.28343	1263943
10.29155	2164479
10.29968	3216968
10.30780	4563033
10.31592	6640412
10.32405	9403325
10.33217	1.205059E+07
10.34028	1.284775E+07
10.34842	1.097405E+07
10.35653	7801656
10.36467	5436647
10.37278	4344444
10.38090	3859720
10.38903	3268810
10.39715	2466659
10.40528	1670237
10.41340	1054324
10.42152	705430
10.42965	541046
10.43777	482896
10.44590	470475
10.45402	459729
10.46213	438666
10.47027	375877
10.47838	347457
10.48650	292640
10.49463	261343
10.50275	239451
10.51088	222126
10.51900	208198
10.52712	205006
10.53525	205105
10.54337	199575
10.55150	199313
10.55962	193940
10.56773	178361
10.57587	166541
10.58398	174291
10.59212	155936
10.60023	150897
10.60835	143551
10.61648	135833
10.62460	128659
10.63272	122618
10.64085	122793
10.64897	114314
10.65710	117502
10.66522	106530
10.67333	105855
10.68147	103927
10.68958	106979
10.69772	111221
10.70583	111320
10.71395	111040
10.72208	114113
10.73020	109541
10.73832	109516
10.74645	105587
10.75457	100828
10.76270	95976
10.77082	92978
10.77893	92985
10.78707	89936
10.79518	95038
10.80332	94586
10.81143	107651
10.81955	109192
10.82768	114221
10.83580	103422
10.84393	92097
10.85205	86921
10.86017	78183
10.86830	82950
10.87642	74553
10.88453	72855
10.89267	73837
10.90078	76278
10.90892	71532
10.91703	67259
10.92515	73418
10.93328	75511
10.94140	70626
10.94953	66065
10.95765	63831
10.96577	70960
10.97390	65589
10.98202	70509
10.99015	75308
10.99827	76360
11.00638	80690
11.01452	81180
11.02263	88440
11.03075	86478
11.03888	80632
11.04700	76201
11.05513	71050
11.06325	70654
11.07137	74856
11.07950	78676
11.08762	87696
11.09575	93530
11.10387	98172
11.11198	90880
11.12012	87271
11.12823	78716
11.13635	73889
11.14448	69750
11.15260	62336
11.16073	60759
11.16885	64420
11.17697	66213
11.18510	72579
11.19322	69236
11.20135	72427
11.20947	69010
11.21758	63579
11.22572	58138
11.23383	57294
11.24197	52221
11.25008	47031
11.25820	51818
11.26633	45822
11.27445	48425
11.28257	49196
11.29070	57922
11.29882	80902
11.30695	157608
11.31507	364620
11.32318	785670
11.33132	1506633
11.33943	2416584
11.34757	3084106
11.35568	3269286
11.36380	2891088
11.37193	2210757
11.38005	1510901
11.38817	1014340
11.39630	710548
11.40442	569930
11.41255	458700
11.42067	387193
11.42878	316027
11.43692	258427
11.44503	212133
11.45317	191642
11.46128	163254
11.46940	155289
11.47753	161019
11.48565	199387
11.49378	239075
11.50190	267503
11.51002	276202
11.51815	245157
11.52627	206410
11.53438	170737
11.54252	143625
11.55063	137896
11.55877	133193
11.56688	134887
11.57500	138356
11.58313	131130
11.59125	137251
11.59938	145568
11.60750	155894
11.61562	184103
11.62375	179162
11.63187	171329
11.64000	139324
11.64812	114100
11.65623	96931
11.66437	86525
11.67248	80474
11.68060	82296
11.68873	88869
11.69685	92631
11.70498	100258
11.71310	105457
11.72122	91386
11.72935	87211
11.73747	82326
11.74560	75184
11.75372	68739
11.76183	66604
11.76997	65085
11.77808	62559
11.78620	61206
11.79433	61472
11.80245	57112
11.81058	58360
11.81870	58623
11.82682	55219
11.83495	59628
11.84307	53125
11.85120	58933
11.85932	54035
11.86743	56652
11.87557	50894
11.88368	48929
11.89182	49135
11.89993	54526
11.90805	55178
11.91618	54362
11.92430	60299
11.93242	62857
11.94055	63226
11.94867	59276
11.95680	58889
11.96492	53641
11.97303	55230
11.98117	67188
11.98928	99517
11.99742	129121
12.00553	180283
12.01365	216025
12.02178	202746
12.02990	176412
12.03803	135375
12.04615	101301
12.05427	80436
12.06240	76886
12.07052	78761
12.07863	82251
12.08677	95604
12.09488	105082
12.10302	105253
12.11113	109963
12.11925	115337
12.12738	127887
12.13550	145316
12.14363	159661
12.15175	153022
12.15987	139522
12.16800	116183
12.17612	91277
12.18423	82306
12.19237	73860
12.20048	74114
12.20862	72432
12.21673	73928
12.22485	66977
12.23298	65679
12.24110	67076
12.24923	63161
12.25735	64811
12.26547	71787
12.27360	66926
12.28172	63165
12.28985	58023
12.29797	60359
12.30608	54920
12.31422	53792
12.32233	54086
12.33045	55082
12.33858	48958
12.34670	57411
12.35483	55858
12.36295	47849
12.37107	51057
12.37920	50930
12.38732	53148
12.39545	64121
12.40357	67956
12.41168	82882
12.41982	98952
12.42793	110335
12.43605	111104
12.44418	97252
12.45230	91894
12.46043	78672
12.46855	70378
12.47667	72574
12.48480	66148
12.49292	68055
12.50105	66236
12.50917	61132
12.51728	59629
12.52542	59629
12.53353	72977
12.54167	81501
12.54978	111293
12.55790	139518
12.56603	156543
12.57415	160290
12.58227	141413
12.59040	128863
12.59852	105866
12.60665	93536
12.61477	82557
12.62288	81583
12.63102	74254
12.63913	69770
12.64727	66741
12.65538	58256
12.66350	63000
12.67163	56960
12.67975	52924
12.68788	51886
12.69600	54304
12.70412	51423
12.71225	48708
12.72037	49117
12.72848	47177
12.73662	53248
12.74473	52439
12.75287	53942
12.76098	51000
12.76910	48718
12.77723	42853
12.78535	45475
12.79348	41269
12.80160	43154
12.80972	47173
12.81785	42958
12.82597	43858
12.83408	41095
12.84222	40841
12.85033	40532
12.85847	38550
12.86658	39684
12.87470	39371
12.88283	37468
12.89095	37650
12.89908	39987
12.90720	41794
12.91532	37305
12.92345	35831
12.93157	35652
12.93970	39565
12.94782	43213
12.95593	50702
12.96407	58346
12.97218	78126
12.98030	98098
12.98843	99871
12.99655	89862
13.00468	83352
13.01280	66773
13.02092	63721
13.02905	58919
13.03717	57632
13.04530	54347
13.05342	49474
13.06153	48983
13.06967	47076
13.07778	47446
13.08592	45909
13.09403	46584
13.10215	50369
13.11028	48594
13.11840	41322
13.12652	41764
13.13465	44969
13.14277	39850
13.15090	39619
13.15902	42139
13.16713	44556
13.17527	48923
13.18338	49298
13.19152	50420
13.19963	53335
13.20775	54192
13.21588	53828
13.22400	55431
13.23212	52069
13.24025	54919
13.24837	46809
13.25650	46316
13.26462	48305
13.27273	42785
13.28087	44232
13.28898	38820
13.29712	38692
13.30523	38811
13.31335	38233
13.32148	37486
13.32960	39019
13.33773	37619
13.34585	39749
13.35397	36533
13.36210	43821
13.37022	39050
13.37833	35910
13.38647	39319
13.39458	36922
13.40272	38756
13.41083	34599
13.41895	36823
13.42708	37213
13.43520	38199
13.44333	35058
13.45145	39596
13.45957	38764
13.46770	44840
13.47582	46324
13.48395	49565
13.49207	44701
13.50018	45512
13.50832	43944
13.51643	44988
13.52455	39361
13.53268	43351
13.54080	41259
13.54893	38810
13.55705	39888
13.56517	40332
13.57330	43779
13.58142	48985
13.58955	54603
13.59767	74041
13.60578	101814
13.61392	124494
13.62203	154604
13.63015	154931
13.63828	147540
13.64640	116535
13.65453	85436
13.66265	69242
13.67077	57519
13.67890	51723
13.68702	48626
13.69515	41420
13.70327	43328
13.71138	39084
13.71952	42130
13.72763	46398
13.73577	68931
13.74388	149127
13.75200	320864
13.76013	648941
13.76825	1144623
13.77637	1580768
13.78450	1755861
13.79262	1612107
13.80075	1314057
13.80887	1004998
13.81698	840916
13.82512	825120
13.83323	917401
13.84137	951171
13.84948	920657
13.85760	776156
13.86573	630694
13.87385	483481
13.88197	364446
13.89010	280825
13.89822	224902
13.90635	194883
13.91447	182365
13.92258	164855
13.93072	144266
13.93883	143361
13.94697	137770
13.95508	128456
13.96320	129486
13.97133	137093
13.97945	146923
13.98758	137570
13.99570	145537
14.00382	138830
14.01195	133516
14.02007	116538
14.02818	118513
14.03632	109131
14.04443	108048
14.05257	104328
14.06068	105826
14.06880	101323
14.07693	99938
14.08505	97864
14.09318	92122
14.10130	93915
14.10942	99486
14.11755	93396
14.12567	98440
14.13380	94095
14.14192	104004
14.15003	109334
14.15817	111271
14.16628	115536
14.17440	152491
14.18253	201996
14.19065	284028
14.19878	387107
14.20690	467850
14.21502	478573
14.22315	411992
14.23127	328902
14.23940	269121
14.24752	230120
14.25563	225900
14.26377	203273
14.27188	179377
14.28000	149360
14.28813	139432
14.29625	124484
14.30438	110129
14.31250	112561
14.32062	107532
14.32875	107250
14.33687	101261
14.34500	93327
14.35312	88087
14.36123	86176
14.36937	71975
14.37748	68004
14.38562	76624
14.39373	95483
14.40185	156662
14.40998	253784
14.41810	364727
14.42622	457046
14.43435	429906
14.44247	344012
14.45060	255037
14.45872	175551
14.46683	126828
14.47497	108262
14.48308	94215
14.49122	87586
14.49933	89072
14.50745	83643
14.51558	78964
14.52370	81240
14.53183	81252
14.53995	79382
14.54807	73004
14.55620	68909
14.56432	68166
14.57243	62595
14.58057	60003
14.58868	60642
14.59682	56658
14.60493	57400
14.61305	56695
14.62118	54172
14.62930	52291
14.63743	54541
14.64555	51331
14.65367	53235
14.66180	47747
14.66992	50425
14.67803	51216
14.68617	49053
14.69428	50239
14.70242	48936
14.71053	52324
14.71865	51201
14.72678	52341
14.73490	60820
14.74303	61072
14.75115	65459
14.75927	67738
14.76740	60124
14.77552	64389
14.78365	76500
14.79177	114145
14.79988	240110
14.80802	573893
14.81613	1227269
14.82425	2107312
14.83238	2869252
14.84050	3151881
14.84863	2708359
14.85675	1956170
14.86487	1295507
14.87300	799665
14.88112	522882
14.88925	374937
14.89737	297611
14.90548	258155
14.91362	219690
14.92173	204393
14.92985	191981
14.93798	175123
14.94610	163216
14.95423	159372
14.96235	143687
14.97047	136559
14.97860	128839
14.98672	125499
14.99485	118487
15.00297	111973
15.01108	117642
15.01922	108224
15.02733	105570
15.03547	107019
15.04358	108565
15.05170	102737
15.05983	97529
15.06795	96084
15.07607	90172
15.08420	81699
15.09232	79841
15.10045	80485
15.10857	75720
15.11668	72717
15.12482	78155
15.13293	82533
15.14107	91750
15.14918	90842
15.15730	91000
15.16543	91239
15.17355	69719
15.18168	68119
15.18980	62249
15.19792	57467
15.20605	59924
15.21417	57096
15.22228	56921
15.23042	54959
15.23853	57445
15.24667	49725
15.25478	49586
15.26290	52997
15.27103	49719
15.27915	48500
15.28728	47492
15.29540	44368
15.30352	46579
15.31165	41282
15.31977	39836
15.32790	44370
15.33602	36679
15.34413	43216
15.35227	42013
15.36038	45448
15.36850	44088
15.37663	44194
15.38475	45050
15.39288	48854
15.40100	47331
15.40912	47683
15.41725	45930
15.42537	46052
15.43350	43066
15.44162	50974
15.44973	48281
15.45787	53623
15.46598	73586
15.47410	117989
15.48223	196206
15.49035	318921
15.49848	470827
15.50660	599419
15.51472	636426
15.52285	648148
15.53097	658555
15.53910	688843
15.54722	743852
15.55533	804883
15.56347	767038
15.57158	625889
15.57972	470255
15.58783	324189
15.59595	226835
15.60408	158639
15.61220	126920
15.62032	101603
15.62845	91160
15.63657	86152
15.64470	77839
15.65282	73820
15.66093	68205
15.66907	67592
15.67718	65505
15.68532	60491
15.69343	56724
15.70155	52819
15.70968	51322
15.71780	57775
15.72592	49667
15.73405	54457
15.74217	51240
15.75030	61188
15.75842	83271
15.76653	124274
15.77467	187147
15.78278	262459
15.79092	320383
15.79903	325070
15.80715	288454
15.81528	225705
15.82340	160679
15.83153	117395
15.83965	101737
15.84777	85841
15.85590	82601
15.86402	72177
15.87213	74564
15.88027	75249
15.88838	69368
15.89652	69627
15.90463	69067
15.91275	67837
15.92088	59656
15.92900	65503
15.93713	61582
15.94525	66767
15.95337	71232
15.96150	91432
15.96962	103926
15.97775	111390
15.98587	125216
15.99398	114946
16.00212	100592
16.01023	89942
16.01835	81860
16.02648	74151
16.03460	71695
16.04273	72630
16.05085	68504
16.05897	66264
16.06710	58262
16.07522	59760
16.08335	58574
16.09147	55940
16.09958	54926
16.10772	56616
16.11583	59662
16.12395	68102
16.13208	68463
16.14020	75232
16.14833	81010
16.15645	80612
16.16457	79534
16.17270	72783
16.18082	68869
16.18895	60537
16.19707	62093
16.20518	59315
16.21332	54724
16.22143	53453
16.22957	55918
16.23768	50725
16.24580	53614
16.25393	54809
16.26205	53447
16.27017	53777
16.27830	58758
16.28642	62932
16.29455	71221
16.30267	71892
16.31078	80011
16.31892	77709
16.32703	70442
16.33517	67435
16.34328	69176
16.35140	68441
16.35953	78617
16.36765	96155
16.37578	115086
16.38390	124462
16.39202	121905
16.40015	97469
16.40827	82520
16.41638	70740
16.42452	69744
16.43263	63994
16.44077	60333
16.44888	63290
16.45700	74114
16.46513	95512
16.47325	128548
16.48138	157630
16.48950	172859
16.49762	153833
16.50575	136794
16.51387	104836
16.52198	80810
16.53012	73102
16.53823	67863
16.54637	59827
16.55448	62011
16.56260	61236
16.57073	59862
16.57885	61914
16.58698	73183
16.59510	82830
16.60322	93277
16.61135	101717
16.61947	117103
16.62760	120320
16.63572	103785
16.64383	90903
16.65197	77760
16.66008	70415
16.66820	65322
16.67633	58988
16.68445	58880
16.69258	53194
16.70070	52447
16.70882	51649
16.71695	58998
16.72507	48812
16.73320	46730
16.74132	49178
16.74943	50637
16.75757	51807
16.76568	54243
16.77380	53664
16.78193	55093
16.79005	47263
16.79818	48955
16.80630	44154
16.81442	44696
16.82255	48667
16.83067	45444
16.83880	44363
16.84692	43890
16.85503	43926
16.86317	40523
16.87128	42001
16.87942	43933
16.88753	45638
16.89565	40587
16.90378	39666
16.91190	38449
16.92002	41157
16.92815	44205
16.93627	44724
16.94440	39913
16.95252	40558
16.96063	40378
16.96877	43786
16.97688	40354
16.98502	40839
16.99313	42566
17.00125	45307
17.00938	43460
17.01750	48203
17.02563	51193
17.03375	51153
17.04187	53691
17.05000	54953
17.05812	55205
17.06623	60328
17.07437	60409
17.08248	52785
17.09062	52992
17.09873	50957
17.10685	52009
17.11498	54613
17.12310	56223
17.13123	52528
17.13935	55038
17.14747	53876
17.15560	58386
17.16372	58349
17.17183	55103
17.17997	56044
17.18808	49461
17.19622	48525
17.20433	45810
17.21245	45229
17.22058	43267
17.22870	45531
17.23683	44754
17.24495	44856
17.25307	43770
17.26120	45019
17.26932	44756
17.27745	44774
17.28557	40503
17.29368	40915
17.30182	41121
17.30993	41531
17.31805	42833
17.32618	55478
17.33430	56987
17.34243	71901
17.35055	75099
17.35867	82337
17.36680	83777
17.37492	75571
17.38305	72251
17.39117	67487
17.39928	67835
17.40742	69137
17.41553	72335
17.42367	74696
17.43178	75558
17.43990	77354
17.44803	74864
17.45615	67793
17.46427	70057
17.47240	64098
17.48052	55789
17.48865	48127
17.49677	51671
17.50488	49115
17.51302	50386
17.52113	47960
17.52927	45605
17.53738	45118
17.54550	51082
17.55363	59895
17.56175	76462
17.56987	127284
17.57800	219342
17.58612	399139
17.59425	663260
17.60237	974730
17.61048	1181293
17.61862	1154991
17.62673	978097
17.63487	705244
17.64298	477375
17.65110	327184
17.65923	238381
17.66735	189849
17.67548	161857
17.68360	147003
17.69172	133665
17.69985	120375
17.70797	115121
17.71608	105301
17.72422	103837
17.73233	97307
17.74047	93950
17.74858	93106
17.75670	89534
17.76483	86119
17.77295	80620
17.78108	78415
17.78920	71632
17.79732	71326
17.80545	69630
17.81357	69938
17.82168	69752
17.82982	73233
17.83793	75790
17.84607	85733
17.85418	95746
17.86230	102497
17.87043	103447
17.87855	102545
17.88668	90711
17.89480	82131
17.90292	72019
17.91105	66331
17.91917	59072
17.92730	53830
17.93542	59872
17.94353	53281
17.95167	59467
17.95978	52337
17.96790	51654
17.97603	49890
17.98415	49528
17.99228	50765
18.00040	49918
18.00852	52852
18.01665	62668
18.02477	76448
18.03290	96406
18.04102	102318
18.04913	109052
18.05727	98082
18.06538	90688
18.07352	88275
18.08163	85812
18.08975	96615
18.09788	111169
18.10600	119467
18.11412	123294
18.12225	126481
18.13037	126809
18.13850	125028
18.14662	124366
18.15473	111197
18.16287	110521
18.17098	101054
18.17912	94422
18.18723	90072
18.19535	88076
18.20348	87710
18.21160	79058
18.21972	77353
18.22785	72312
18.23597	74033
18.24410	69482
18.25222	64713
18.26033	67781
18.26847	63937
18.27658	60137
18.28472	55132
18.29283	54246
18.30095	49434
18.30908	48337
18.31720	48347
18.32533	45369
18.33345	46763
18.34157	48148
18.34970	48204
18.35782	51539
18.36593	49227
18.37407	46455
18.38218	50576
18.39032	50165
18.39843	50009
18.40655	55428
18.41468	65906
18.42280	78107
18.43093	97302
18.43905	119178
18.44717	145064
18.45530	178933
18.46342	221429
18.47155	272424
18.47967	325779
18.48778	342734
18.49592	330889
18.50403	284473
18.51215	219747
18.52028	162175
18.52840	126785
18.53653	101553
18.54465	81890
18.55277	75108
18.56090	72514
18.56902	70674
18.57715	68339
18.58527	66688
18.59338	76820
18.60152	99863
18.60963	135789
18.61775	178775
18.62588	205392
18.63400	222734
18.64213	231767
18.65025	238058
18.65837	226896
18.66650	215767
18.67462	216195
18.68275	204605
18.69087	196758
18.69898	196530
18.70712	203544
18.71523	208716
18.72337	195042
18.73148	199473
18.73960	199736
18.74773	196106
18.75585	197433
18.76397	189740
18.77210	191151
18.78022	183176
18.78835	191097
18.79647	184004
18.80458	183664
18.81272	184178
18.82083	185257
18.82897	184056
18.83708	185983
18.84520	173214
18.85333	177465
18.86145	179185
18.86958	178525
18.87770	181595
18.88582	179435
18.89395	180590
18.90207	182333
18.91018	182952
18.91832	183060
18.92643	170471
18.93457	173866
18.94268	174220
18.95080	175475
18.95893	177523
18.96705	178242
18.97518	170595
18.98330	176566
18.99142	171583
18.99955	161599
19.00767	157028
19.01578	151515
19.02392	154522
19.03203	157803
19.04017	149700
19.04828	152916
19.05640	178033
19.06453	207087
19.07265	350788
19.08078	606945
19.08890	1065944
19.09702	1695168
19.10515	2178509
19.11327	2418942
19.12140	2191113
19.12952	1711472
19.13763	1176457
19.14577	751239
19.15388	508890
19.16200	361772
19.17013	275183
19.17825	244300
19.18638	215796
19.19450	195476
19.20262	182915
19.21075	180442
19.21887	166356
19.22700	162140
19.23512	156962
19.24323	149148
19.25137	144504
19.25948	144823
19.26760	136412
19.27573	144371
19.28385	138996
19.29198	150070
19.30010	143825
19.30822	148360
19.31635	139730
19.32447	139202
19.33260	137671
19.34072	141671
19.34883	143660
19.35697	159212
19.36508	180769
19.37322	209093
19.38133	219891
19.38945	212283
19.39758	189781
19.40570	183681
19.41382	155926
19.42195	141565
19.43007	139564
19.43820	138080
19.44632	122911
19.45443	122517
19.46257	126979
19.47068	130712
19.47882	151087
19.48693	182731
19.49505	246593
19.50318	315379
19.51130	360892
19.51943	357185
19.52755	315715
19.53567	260399
19.54380	222991
19.55192	183560
19.56003	161895
19.56817	144888
19.57628	131891
19.58442	119505
19.59253	113662
19.60065	111833
19.60878	103616
19.61690	105782
19.62503	107374
19.63315	105285
19.64127	123727
19.64940	154773
19.65752	194482
19.66563	239082
19.67377	295461
19.68188	318128
19.69002	345231
19.69813	313136
19.70625	281180
19.71438	248875
19.72250	224930
19.73063	199071
19.73875	173871
19.74687	160530
19.75500	157192
19.76312	156890
19.77125	163425
19.77937	177008
19.78748	211565
19.79562	235588
19.80373	278517
19.81185	286954
19.81998	271401
19.82810	234044
19.83623	199114
19.84435	164568
19.85247	134618
19.86060	124984
19.86872	131120
19.87685	165866
19.88497	216430
19.89308	290647
19.90122	398309
19.90933	481614
19.91747	525467
19.92558	532120
19.93370	531043
19.94183	492752
19.94995	455559
19.95807	446754
19.96620	419833
19.97432	402256
19.98245	384953
19.99057	372644
19.99868	347387
20.00682	350048
20.01493	338859
20.02307	332397
20.03118	316839
20.03930	301427
20.04743	293131
20.05555	265465
20.06367	273731
20.07180	297986
20.07992	329914
20.08805	357759
20.09617	370675
20.10428	349482
20.11242	302565
20.12053	258864
20.12867	209456
20.13678	181754
20.14490	172262
20.15303	211254
20.16115	285897
20.16928	419861
20.17740	587661
20.18552	798452
20.19365	966828
20.20177	1093918
20.20988	1050413
20.21802	911707
20.22613	728821
20.23427	581622
20.24238	475075
20.25050	462646
20.25863	516828
20.26675	617229
20.27488	744153
20.28300	799892
20.29112	758096
20.29925	691418
20.30737	552429
20.31548	427609
20.32362	324304
20.33173	239338
20.33987	186208
20.34798	151257
20.35610	123723
20.36423	108170
20.37235	97835
20.38048	97555
20.38860	94928
20.39672	90189
20.40485	96020
20.41297	92524
20.42110	86107
20.42922	99347
20.43733	105285
20.44547	103132
20.45358	113176
20.46170	104435
20.46983	102936
20.47795	98818
20.48608	86231
20.49420	87810
20.50232	84169
20.51045	72438
20.51857	73311
20.52670	80197
20.53482	75895
20.54293	73918
20.55107	72591
20.55918	69772
20.56732	69737
20.57543	67021
20.58355	70937
20.59168	70908
20.59980	71927
20.60792	70886
20.61605	70698
20.62417	73449
20.63230	75711
20.64042	75300
20.64853	79837
20.65667	85307
20.66478	82623
20.67292	80602
20.68103	79158
20.68915	72089
20.69728	65485
20.70540	64049
20.71352	64273
20.72165	66834
20.72977	67266
20.73790	69574
20.74602	64728
20.75413	75799
20.76227	79470
20.77038	84783
20.77852	110246
20.78663	148588
20.79475	252693
20.80288	407528
20.81100	630095
20.81913	809578
20.82725	880912
20.83537	777245
20.84350	591790
20.85162	377417
20.85973	244146
20.86787	164930
20.87598	125292
20.88412	98942
20.89223	98802
20.90035	100501
20.90848	101896
20.91660	105764
20.92473	111509
20.93285	116292
20.94097	114451
20.94910	114863
20.95722	110786
20.96535	101104
20.97347	88864
20.98158	85301
20.98972	82737
20.99783	76487
21.00595	72234
21.01408	74290
21.02220	78250
21.03033	85158
21.03845	82550
21.04657	82085
21.05470	77128
21.06282	77435
21.07095	75719
21.07907	69762
21.08718	66653
21.09532	69404
21.10343	66697
21.11155	60664
21.11968	62330
21.12780	69891
21.13593	81214
21.14405	110515
21.15217	140313
21.16030	161655
21.16842	177618
21.17655	185177
21.18467	161562
21.19278	134974
21.20092	113638
21.20903	93862
21.21717	81373
21.22528	80806
21.23340	75067
21.24153	69213
21.24965	73905
21.25777	69977
21.26590	76132
21.27402	65982
21.28215	63181
21.29027	60230
21.29838	62214
21.30652	61173
21.31463	62001
21.32277	55407
21.33088	57501
21.33900	54126
21.34713	54985
21.35525	56168
21.36337	56259
21.37150	58686
21.37962	55633
21.38775	55641
21.39587	59450
21.40398	59403
21.41212	62802
21.42023	62395
21.42837	62053
21.43648	68195
21.44460	60051
21.45273	61488
21.46085	57762
21.46898	60386
21.47710	55380
21.48522	58581
21.49335	59340
21.50147	56783
21.50958	57450
21.51772	52779
21.52583	57952
21.53397	56433
21.54208	54373
21.55020	50731
21.55833	53131
21.56645	61782
21.57458	61657
21.58270	64622
21.59082	71223
21.59895	76916
21.60707	79065
21.61520	82453
21.62332	88952
21.63143	86500
21.63957	97433
21.64768	97154
21.65580	99762
21.66393	107950
21.67205	111064
21.68018	110026
21.68830	114022
21.69642	104959
21.70455	94381
21.71267	84724
21.72080	75560
21.72892	68418
21.73703	63719
21.74517	61455
21.75328	59137
21.76142	63645
21.76953	62544
21.77765	64700
21.78578	63120
21.79390	70981
21.80202	61466
21.81015	68127
21.81827	71722
21.82640	76673
21.83452	79314
21.84263	86666
21.85077	79403
21.85888	80982
21.86702	75803
21.87513	67274
21.88325	70868
21.89138	64533
21.89950	64174
21.90762	60433
21.91575	63175
21.92387	61111
21.93200	57322
21.94012	56793
21.94823	51966
21.95637	59648
21.96448	50337
21.97262	46655
21.98073	50827
21.98885	52896
21.99698	49264
22.00510	51636
22.01323	59546
22.02135	66992
22.02947	73870
22.03760	78525
22.04572	85948
22.05383	87082
22.06197	81579
22.07008	86492
22.07822	89265
22.08633	90921
22.09445	87379
22.10258	87544
22.11070	86537
22.11883	82959
22.12695	84109
22.13507	86202
22.14320	88122
22.15132	89732
22.15943	88365
22.16757	83860
22.17568	85028
22.18382	82929
22.19193	81950
22.20005	81806
22.20818	81631
22.21630	81696
22.22443	81995
22.23255	74572
22.24067	71965
22.24880	67123
22.25692	72467
22.26505	68202
22.27317	71839
22.28128	79371
22.28942	87554
22.29753	90165
22.30565	89608
22.31378	86123
22.32190	87856
22.33003	85614
22.33815	82251
22.34627	85370
22.35440	72783
22.36252	68210
22.37065	64774
22.37877	73432
22.38688	81151
22.39502	101234
22.40313	134099
22.41127	185852
22.41938	221055
22.42750	229885
22.43563	220803
22.44375	192545
22.45187	163045
22.46000	119028
22.46812	98950
22.47625	96552
22.48437	105502
22.49248	119893
22.50062	137121
22.50873	157572
22.51687	157891
22.52498	171308
22.53310	171041
22.54123	167993
22.54935	170099
22.55747	172391
22.56560	163996
22.57372	159006
22.58185	160641
22.58997	156589
22.59808	151345
22.60622	147257
22.61433	146883
22.62247	158016
22.63058	159418
22.63870	152887
22.64683	150917
22.65495	155587
22.66308	161879
22.67120	156391
22.67932	161934
22.68745	166778
22.69557	163604
22.70368	159624
22.71182	166144
22.71993	169564
22.72807	166536
22.73618	167437
22.74430	155413
22.75243	153040
22.76055	157192
22.76868	147703
22.77680	143656
22.78492	153388
22.79305	155821
22.80117	168183
22.80930	176825
22.81742	176999
22.82553	166087
22.83367	168794
22.84178	165460
22.84990	157635
22.85803	159706
22.86615	168936
22.87428	194176
22.88240	210631
22.89052	239930
22.89865	260840
22.90677	276706
22.91490	295683
22.92302	297290
22.93113	313038
22.93927	290890
22.94738	262015
22.95550	225851
22.96363	200092
22.97175	179208
22.97988	153958
22.98800	145329
22.99612	137208
23.00425	136023
23.01237	124581
23.02050	124401
23.02862	126436
23.03673	120762
23.04487	117144
23.05298	121244
23.06112	120582
23.06923	122654
23.07735	112032
23.08548	120203
23.09360	117228
23.10172	109343
23.10985	106709
23.11797	106957
23.12610	99430
23.13422	100523
23.14233	96958
23.15047	94176
23.15858	98627
23.16672	100886
23.17483	96572
23.18295	93778
23.19108	92368
23.19920	94205
23.20732	89860
23.21545	86097
23.22357	92668
23.23170	89620
23.23982	91295
23.24793	101386
23.25607	102354
23.26418	112589
23.27232	114060
23.28043	107962
23.28855	102187
23.29668	98551
23.30480	92980
23.31293	97655
23.32105	97559
23.32917	102402
23.33730	116307
23.34542	133314
23.35353	166522
23.36167	197468
23.36978	209012
23.37792	211847
23.38603	192748
23.39415	168868
23.40228	143037
23.41040	122584
23.41853	110870
23.42665	106117
23.43477	94567
23.44290	93600
23.45102	85075
23.45915	87618
23.46727	86182
23.47538	83836
23.48352	81537
23.49163	88428
23.49975	84478
23.50788	81781
23.51600	81622
23.52413	81593
23.53225	88953
23.54037	91079
23.54850	87767
23.55662	99617
23.56475	114824
23.57287	147263
23.58098	198682
23.58912	283765
23.59723	359301
23.60535	435410
23.61348	459200
23.62160	402609
23.62973	329110
23.63785	265436
23.64597	225742
23.65410	215870
23.66222	223484
23.67035	225136
23.67847	205023
23.68658	190314
23.69472	157993
23.70283	131083
23.71097	114840
23.71908	98307
23.72720	90928
23.73533	89911
23.74345	97725
23.75157	143945
23.75970	269796
23.76782	528600
23.77595	961558
23.78407	1585197
23.79218	2109857
23.80032	2331706
23.80843	2250070
23.81657	1934307
23.82468	1558330
23.83280	1186786
23.84093	914093
23.84905	737505
23.85718	590443
23.86530	490094
23.87342	425337
23.88155	358349
23.88967	335193
23.89778	314398
23.90592	287906
23.91403	273359
23.92217	266582
23.93028	266844
23.93840	227398
23.94653	211623
23.95465	194187
23.96278	180916
23.97090	172931
23.97902	161834
23.98715	156610
23.99527	150264
24.00338	165574
24.01152	195574
24.01963	259399
24.02777	330450
24.03588	399142
24.04400	413714
24.05213	386957
24.06025	298457
24.06838	217441
24.07650	164522
24.08462	136630
24.09275	123166
24.10087	113674
24.10900	108153
24.11712	111252
24.12523	106900
24.13337	116382
24.14148	127185
24.14960	135963
24.15773	138341
24.16585	141124
24.17398	135379
24.18210	135899
24.19022	134603
24.19835	134356
24.20647	141611
24.21460	133326
24.22272	126604
24.23083	113838
24.23897	101328
24.24708	93351
24.25522	94714
24.26333	85992
24.27145	79857
24.27958	81545
24.28770	82210
24.29582	79024
24.30395	77614
24.31207	83516
24.32020	98321
24.32832	118872
24.33643	134969
24.34457	154894
24.35268	166164
24.36082	179194
24.36893	192145
24.37705	212175
24.38518	249145
24.39330	281093
24.40142	293222
24.40955	290392
24.41767	266044
24.42580	246965
24.43392	227286
24.44203	202693
24.45017	198739
24.45828	206892
24.46642	201668
24.47453	201871
24.48265	204119
24.49078	209322
24.49890	230565
24.50703	228231
24.51515	238447
24.52327	250664
24.53140	277579
24.53952	320743
24.54763	377783
24.55577	408218
24.56388	431510
24.57202	431406
24.58013	401526
24.58825	346732
24.59638	288116
24.60450	252487
24.61263	234858
24.62075	230870
24.62887	215761
24.63700	204070
24.64512	200958
24.65323	198509
24.66137	205675
24.66948	205635
24.67762	210475
24.68573	211258
24.69385	208269
24.70198	208412
24.71010	205871
24.71823	208591
24.72635	202716
24.73447	204396
24.74260	202640
24.75072	202584
24.75885	195427
24.76697	204373
24.77508	211456
24.78322	211647
24.79133	205853
24.79945	208596
24.80758	203574
24.81570	210587
24.82383	218241
24.83195	232601
24.84007	259079
24.84820	304187
24.85632	365745
24.86445	444955
24.87257	557822
24.88068	686229
24.88882	827115
24.89693	901459
24.90507	839499
24.91318	730527
24.92130	550748
24.92943	409549
24.93755	304316
24.94567	239743
24.95380	204012
24.96192	179381
24.97005	164608
24.97817	160921
24.98628	160539
24.99442	151574
25.00253	146677
25.01067	142242
25.01878	134585
25.02690	128459
25.03503	118051
25.04315	112495
25.05127	102252
25.05940	99703
25.06752	94946
25.07565	94339
25.08377	96983
25.09188	108890
25.10002	174018
25.10813	341618
25.11627	716969
25.12438	1461487
25.13250	2547874
25.14063	3755902
25.14875	4291358
25.15688	4267712
25.16500	3503483
25.17312	2530061
25.18125	1598597
25.18937	897550
25.19748	491128
25.20562	295575
25.21373	204112
25.22187	157777
25.22998	144094
25.23810	163491
25.24623	191354
25.25435	250700
25.26248	314016
25.27060	370544
25.27872	386059
25.28685	376207
25.29497	314653
25.30310	248698
25.31122	192320
25.31933	152813
25.32747	126952
25.33558	108260
25.34370	94259
25.35183	94514
25.35995	87146
25.36808	84335
25.37620	78976
25.38432	79165
25.39245	71839
25.40057	66391
25.40870	68535
25.41682	67529
25.42493	67526
25.43307	70214
25.44118	78728
25.44930	92483
25.45743	119359
25.46555	150648
25.47368	195225
25.48180	222151
25.48992	228280
25.49805	244712
25.50617	245413
25.51430	244015
25.52242	248116
25.53053	254882
25.53867	251046
25.54678	250792
25.55492	256579
25.56303	259205
25.57115	271886
25.57928	261502
25.58740	265513
25.59552	254607
25.60365	268339
25.61177	259341
25.61990	252892
25.62802	245925
25.63613	258272
25.64427	248918
25.65238	245790
25.66052	246117
25.66863	238764
25.67675	237831
25.68488	232783
25.69300	234351
25.70112	230336
25.70925	218561
25.71737	219026
25.72550	230736
25.73362	231265
25.74173	224888
25.74987	214888
25.75798	212195
25.76612	205019
25.77423	212301
25.78235	222194
25.79048	218966
25.79860	218692
25.80673	216753
25.81485	201530
25.82297	199921
25.83110	203386
25.83922	198902
25.84733	203204
25.85547	197419
25.86358	200585
25.87172	197634
25.87983	187368
25.88795	181804
25.89608	184941
25.90420	176403
25.91233	178869
25.92045	173179
25.92857	176512
25.93670	167124
25.94482	169940
25.95295	173310
25.96107	159128
25.96918	161487
25.97732	161677
25.98543	153633
25.99355	151883
26.00168	146588
26.00980	145448
26.01793	146804
26.02605	145483
26.03417	141861
26.04230	139775
26.05042	137887
26.05855	135565
26.06667	138411
26.07478	136795
26.08292	144558
26.09103	141481
26.09915	149736
26.10728	138002
26.11540	135920
26.12353	139192
26.13165	138711
26.13977	137628
26.14790	142316
26.15602	135504
26.16415	138435
26.17227	143233
26.18038	130300
26.18852	132159
26.19663	126725
26.20477	124087
26.21288	118907
26.22100	113584
26.22913	113848
26.23725	112685
26.24537	114330
26.25350	110126
26.26162	106488
26.26975	110927
26.27787	105273
26.28598	102364
26.29412	104956
26.30223	97621
26.31037	99850
26.31848	98090
26.32660	98473
26.33473	94037
26.34285	96025
26.35098	101445
26.35910	116530
26.36722	139123
26.37535	182123
26.38347	233862
26.39158	293523
26.39972	359235
26.40783	366658
26.41597	350931
26.42408	303020
26.43220	241896
26.44033	188283
26.44845	150503
26.45658	124472
26.46470	109608
26.47282	106578
26.48095	94847
26.48907	92249
26.49718	90721
26.50532	90866
26.51343	87156
26.52157	81068
26.52968	80223
26.53780	76729
26.54593	75737
26.55405	72584
26.56218	78586
26.57030	71368
26.57842	72971
26.58655	75249
26.59467	75307
26.60280	76585
26.61092	68787
26.61903	68320
26.62717	69441
26.63528	68549
26.64340	72793
26.65153	69536
26.65965	79435
26.66778	82541
26.67590	74495
26.68402	74545
26.69215	78982
26.70027	80303
26.70840	73632
26.71652	68741
26.72463	66697
26.73277	72735
26.74088	73947
26.74900	72478
26.75713	67102
26.76525	69346
26.77338	69734
26.78150	75117
26.78962	72382
26.79775	83454
26.80587	79235
26.81400	79363
26.82212	79755
26.83023	75210
26.83837	70648
26.84648	69883
26.85462	67912
26.86273	67178
26.87085	66336
26.87898	64182
26.88710	62390
26.89522	62361
26.90335	59536
26.91147	58501
26.91960	56514
26.92772	59441
26.93583	57648
26.94397	57421
26.95208	60246
26.96022	59518
26.96833	75213
26.97645	89251
26.98458	116071
26.99270	171963
27.00083	250277
27.00895	349888
27.01707	456094
27.02520	519011
27.03332	567640
27.04143	569040
27.04957	523147
27.05768	449556
27.06582	381803
27.07393	315892
27.08205	270319
27.09018	229482
27.09830	199576
27.10643	185824
27.11455	173519
27.12267	159333
27.13080	151542
27.13892	144165
27.14705	142194
27.15517	139692
27.16328	136116
27.17142	135951
27.17953	146897
27.18765	151542
27.19578	155206
27.20390	145969
27.21203	130382
27.22015	121578
27.22827	120059
27.23640	109132
27.24452	105080
27.25265	97622
27.26077	95193
27.26888	89265
27.27702	84995
27.28513	88241
27.29325	87278
27.30138	85001
27.30950	84730
27.31763	87084
27.32575	85564
27.33387	83878
27.34200	82182
27.35012	87256
27.35825	81514
27.36637	80416
27.37448	85667
27.38262	84321
27.39073	81340
27.39887	79096
27.40698	73989
27.41510	73446
27.42323	73446
27.43135	75245
27.43947	72566
27.44760	68422
27.45572	70550
27.46385	64641
27.47197	66018
27.48008	67142
27.48822	61505
27.49633	65909
27.50447	63476
27.51258	70394
27.52070	75112
27.52883	76703
27.53695	79461
27.54507	78657
27.55320	70861
27.56132	71069
27.56945	74235
27.57757	79619
27.58568	89880
27.59382	97482
27.60193	109701
27.61007	111258
27.61818	98835
27.62630	92480
27.63443	85022
27.64255	77599
27.65068	75999
27.65880	80209
27.66692	80999
27.67505	93295
27.68317	105587
27.69128	114950
27.69942	123661
27.70753	110390
27.71567	104176
27.72378	91805
27.73190	80126
27.74003	68975
27.74815	61839
27.75628	62088
27.76440	61500
27.77252	58904
27.78065	64776
27.78877	61447
27.79690	65553
27.80502	64620
27.81313	60483
27.82127	60591
27.82938	59856
27.83750	63550
27.84563	59181
27.85375	56925
27.86188	57319
27.87000	57136
27.87812	61237
27.88625	56088
27.89437	52372
27.90250	56209
27.91062	56601
27.91873	58617
27.92687	55459
27.93498	52182
27.94310	55008
27.95123	56275
27.95935	51118
27.96748	50667
27.97560	53514
27.98372	50608
27.99185	57644
27.99997	62466
28.00810	71898
28.01622	94469
28.02433	122005
28.03247	165177
28.04058	217803
28.04872	246848
28.05683	263891
28.06495	259586
28.07308	216379
28.08120	169717
28.08932	129280
28.09745	100892
28.10557	82362
28.11370	74885
28.12182	63538
28.12993	64722
28.13807	62394
28.14618	59285
28.15432	58845
28.16243	57973
28.17055	59350
28.17868	60162
28.18680	68337
28.19493	81982
28.20305	89385
28.21117	96344
28.21930	101954
28.22742	106276
28.23553	101566
28.24367	93547
28.25178	79015
28.25992	78906
28.26803	61438
28.27615	63565
28.28428	65289
28.29240	65229
28.30053	71832
28.30865	85585
28.31677	97369
28.32490	111713
28.33302	125038
28.34113	143544
28.34927	158614
28.35738	167995
28.36552	182526
28.37363	210073
28.38175	216959
28.38988	224916
28.39800	213001
28.40613	223765
28.41425	216998
28.42237	210206
28.43050	190850
28.43862	177977
28.44675	172505
28.45487	153237
28.46298	151065
28.47112	141059
28.47923	137775
28.48735	135360
28.49548	133769
28.50360	132681
28.51173	124383
28.51985	123434
28.52797	112125
28.53610	108011
28.54422	102666
28.55235	93425
28.56047	81856
28.56858	81509
28.57672	84752
28.58483	81257
28.59295	76500
28.60108	80337
28.60920	80367
28.61733	79803
28.62545	83533
28.63357	82730
28.64170	85801
28.64982	86897
28.65795	88045
28.66607	91468
28.67418	77028
28.68232	82052
28.69043	76096
28.69857	81017
28.70668	70451
28.71480	71483
28.72293	69573
28.73105	67708
28.73917	70552
28.74730	74763
28.75542	79671
28.76355	95813
28.77167	97305
28.77978	100953
28.78792	96282
28.79603	89221
28.80417	86145
28.81228	86199
28.82040	81321
28.82853	78603
28.83665	71705
28.84478	70256
28.85290	69666
28.86102	69429
28.86915	75499
28.87727	78410
28.88538	82806
28.89352	88841
28.90163	92384
28.90977	91969
28.91788	89172
28.92600	83276
28.93413	80967
28.94225	82058
28.95038	79357
28.95850	82613
28.96662	76753
28.97475	73437
28.98287	71986
28.99098	65232
28.99912	60967
29.00723	62167
29.01537	62922
29.02348	58205
29.03160	60329
29.03973	56370
29.04785	58224
29.05598	55247
29.06410	60263
29.07222	61687
29.08035	64032
29.08847	61423
29.09660	65214
29.10472	61903
29.11283	65022
29.12097	53351
29.12908	54636
29.13720	53982
29.14533	53581
29.15345	57129
29.16158	56340
29.16970	58844
29.17782	63442
29.18595	74136
29.19407	77748
29.20220	95502
29.21032	108972
29.21843	127006
29.22657	130785
29.23468	131061
29.24282	141495
29.25093	163419
29.25905	188472
29.26718	208283
29.27530	195900
29.28342	192091
29.29155	160653
29.29967	117349
29.30780	89304
29.31592	77150
29.32403	63786
29.33217	60127
29.34028	59753
29.34842	58440
29.35653	56034
29.36465	56140
29.37278	52561
29.38090	56044
29.38902	54864
29.39715	56178
29.40527	58657
29.41340	57197
29.42152	59136
29.42963	62321
29.43777	60055
29.44588	60799
29.45402	59008
29.46213	57036
29.47025	54115
29.47838	54429
29.48650	59466
29.49463	63899
29.50275	57563
29.51087	63767
29.51900	61743
29.52712	57045
29.53523	54575
29.54337	57120
29.55148	53668
29.55962	53160
29.56773	51156
29.57585	50375
29.58398	49446
29.59210	46074
29.60023	49689
29.60835	54874
29.61647	47749
29.62460	52738
29.63272	50180
29.64085	47469
29.64897	47170
29.65708	48106
29.66522	51525
29.67333	52795
29.68145	54533
29.68958	57474
29.69770	62694
29.70583	66989
29.71395	62520
29.72207	60013
29.73020	58700
29.73832	56641
29.74645	53781
29.75457	56183
29.76268	49281
29.77082	52554
29.77893	52738
29.78705	50280
29.79518	45976
29.80330	48104
29.81143	47362
29.81955	41486
29.82767	45600
29.83580	46267
29.84392	46112
29.85205	51111
29.86017	50830
29.86828	60808
29.87642	78910
29.88453	105961
29.89267	138389
29.90078	166109
29.90890	177604
29.91703	156162
29.92515	130673
29.93327	106707
29.94140	78489
29.94952	68577
29.95765	74874
29.96577	77598
29.97388	80843
29.98202	97383
29.99013	111795
29.99827	117300
30.00638	128698
30.01450	139416
30.02263	142065
30.03075	138442
30.03887	131360
30.04700	132263
30.05512	133951
30.06325	129814
30.07137	125225
30.07948	127405
30.08762	122788
30.09573	116908
30.10387	123229
30.11198	115855
30.12010	115309
30.12823	105795
30.13635	103049
30.14448	98255
30.15260	95608
30.16072	93371
30.16885	96277
30.17697	95391
30.18508	98414
30.19322	101913
30.20133	105758
30.20947	103487
30.21758	99274
30.22570	93715
30.23383	85731
30.24195	76428
30.25008	74249
30.25820	67645
30.26632	61102
30.27445	63977
30.28257	66146
30.29070	68202
30.29882	67116
30.30693	62117
30.31507	65949
30.32318	64168
30.33130	61967
30.33943	64242
30.34755	63373
30.35568	64965
30.36380	65836
30.37192	64891
30.38005	60485
30.38817	59385
30.39630	55014
30.40442	57147
30.41253	53549
30.42067	60073
30.42878	55779
30.43690	52479
30.44503	51533
30.45315	54288
30.46128	52274
30.46940	57389
30.47752	54131
30.48565	50200
30.49377	55794
30.50190	56209
30.51002	54919
30.51813	51379
30.52627	52240
30.53438	50520
30.54252	50624
30.55063	55515
30.55875	52605
30.56688	50814
30.57500	55606
30.58312	57568
30.59125	55731
30.59937	56778
30.60750	55546
30.61562	54232
30.62373	50696
30.63187	53361
30.63998	49812
30.64812	48930
30.65623	50649
30.66435	47987
30.67248	46505
30.68060	48150
30.68873	45659
30.69685	49195
30.70497	44141
30.71310	47335
30.72122	54516
30.72933	50753
30.73747	52105
30.74558	48721
30.75372	49729
30.76183	49078
30.76995	48378
30.77808	60130
30.78620	67966
30.79433	88126
30.80245	103101
30.81057	110856
30.81870	116926
30.82682	109506
30.83493	94331
30.84307	83745
30.85118	77175
30.85932	72394
30.86743	67036
30.87555	73220
30.88368	74994
30.89180	75529
30.89993	81946
30.90805	78999
30.91617	73994
30.92430	72661
30.93242	72688
30.94055	73496
30.94867	69835
30.95678	67387
30.96492	71472
30.97303	69270
30.98115	67431
30.98928	71988
30.99740	71025
31.00553	70402
31.01365	71451
31.02177	71017
31.02990	70173
31.03802	79658
31.04615	76297
31.05427	75296
31.06238	70628
31.07052	74857
31.07863	80759
31.08675	83713
31.09488	91341
31.10300	96799
31.11113	103821
31.11925	97009
31.12737	89437
31.13550	88608
31.14362	80408
31.15175	83694
31.15987	81106
31.16798	82644
31.17612	82023
31.18423	90938
31.19237	107277
31.20048	119142
31.20860	143798
31.21673	165986
31.22485	185273
31.23297	186780
31.24110	165222
31.24922	133472
31.25735	117384
31.26547	101973
31.27358	81361
31.28172	78432
31.28983	71668
31.29797	73622
31.30608	70473
31.31420	66852
31.32233	65650
31.33045	66406
31.33858	68153
31.34670	67053
31.35482	69399
31.36295	71635
31.37107	70221
31.37918	71415
31.38732	73469
31.39543	71915
31.40357	69303
31.41168	69831
31.41980	70499
31.42793	68358
31.43605	63212
31.44418	65932
31.45230	58160
31.46042	57532
31.46855	60416
31.47667	64133
31.48478	62893
31.49292	67830
31.50103	63280
31.50917	68683
31.51728	71828
31.52540	79486
31.53353	80347
31.54165	78948
31.54978	78548
31.55790	78997
31.56602	77623
31.57415	71006
31.58227	73118
31.59040	60739
31.59852	66339
31.60663	63603
31.61477	58964
31.62288	62711
31.63100	59302
31.63913	61506
31.64725	57479
31.65538	63254
31.66350	64013
31.67162	63213
31.67975	70227
31.68787	68631
31.69600	60887
31.70412	62713
31.71223	58649
31.72037	60251
31.72848	62922
31.73662	58747
31.74473	55595
31.75285	60253
31.76098	57474
31.76910	55927
31.77722	55296
31.78535	52346
31.79347	55160
31.80160	55620
31.80972	59536
31.81783	57965
31.82597	54126
31.83408	54087
31.84222	56890
31.85033	54110
31.85845	58891
31.86658	58689
31.87470	55011
31.88282	62733
31.89095	63663
31.89907	70588
31.90720	77404
31.91532	81104
31.92343	90271
31.93157	97596
31.93968	103206
31.94782	106334
31.95593	105728
31.96405	107681
31.97218	112788
31.98030	115144
31.98843	122811
31.99655	112875
32.00467	119988
32.01280	119278
32.02092	114252
32.02903	116462
32.03717	111852
32.04528	106274
32.05342	96045
32.06153	95742
32.06965	97833
32.07778	88417
32.08590	93951
32.09403	89569
32.10215	79052
32.11027	74191
32.11840	75792
32.12652	74081
32.13463	73523
32.14277	68360
32.15088	71408
32.15902	68247
32.16713	65684
32.17525	66642
32.18338	66035
32.19150	68844
32.19963	65046
32.20775	67858
32.21587	65010
32.22400	62509
32.23212	60975
32.24025	62705
32.24837	62716
32.25648	63783
32.26462	61157
32.27273	64113
32.28085	61273
32.28898	64195
32.29710	65533
32.30523	58668
32.31335	63016
32.32147	62226
32.32960	54872
32.33772	59347
32.34585	59996
32.35397	58973
32.36208	58739
32.37022	61089
32.37833	65418
32.38647	58123
32.39458	58630
32.40270	56762
32.41083	59592
32.41895	56537
32.42707	49897
32.43520	53597
32.44332	54893
32.45145	50191
32.45957	48867
32.46768	47685
32.47582	53321
32.48393	50279
32.49207	53820
32.50018	50004
32.50830	52433
32.51643	54219
32.52455	52028
32.53268	49316
32.54080	53524
32.54892	51686
32.55705	53855
32.56517	55390
32.57328	57305
32.58142	52510
32.58953	53713
32.59767	51244
32.60578	50415
32.61390	47949
32.62203	47468
32.63015	51936
32.63828	58001
32.64640	65547
32.65452	66717
32.66265	76427
32.67077	67546
32.67888	72181
32.68702	66432
32.69513	66196
32.70327	60378
32.71138	62874
32.71950	58208
32.72763	60059
32.73575	53344
32.74388	53920
32.75200	57334
32.76012	54646
32.76825	55554
32.77637	52592
32.78450	50855
32.79262	55142
32.80073	51116
32.80887	45639
32.81698	52646
32.82510	54844
32.83323	51885
32.84135	54442
32.84948	49234
32.85760	49418
32.86572	54608
32.87385	52927
32.88197	54925
32.89010	66124
32.89822	73869
32.90633	77613
32.91447	72527
32.92258	75477
32.93070	69400
32.93883	65780
32.94695	54964
32.95508	55600
32.96320	57287
32.97132	55024
32.97945	64293
32.98757	68772
32.99570	77216
33.00382	78080
33.01193	80505
33.02007	77177
33.02818	70114
33.03632	65665
33.04443	61199
33.05255	63604
33.06068	66669
33.06880	77937
33.07692	76032
33.08505	87360
33.09317	94960
33.10130	107321
33.10942	106739
33.11753	108722
33.12567	101710
33.13378	92463
33.14192	89949
33.15003	81612
33.15815	71115
33.16628	65728
33.17440	60244
33.18253	59933
33.19065	64189
33.19877	61962
33.20690	57816
33.21502	60208
33.22313	60854
33.23127	59184
33.23938	57853
33.24752	57396
33.25563	53166
33.26375	53357
33.27188	57145
33.28000	58282
33.28813	56392
33.29625	59309
33.30437	58525
33.31250	60743
33.32062	60902
33.32873	55312
33.33687	59377
33.34498	59101
33.35312	63249
33.36123	64019
33.36935	66456
33.37748	67757
33.38560	62679
33.39373	59720
33.40185	58631
33.40997	57728
33.41810	52273
33.42622	54933
33.43435	58030
33.44247	51982
33.45058	53106
33.45872	50021
33.46683	47926
33.47495	49321
33.48308	54106
33.49120	52296
33.49933	53015
33.50745	52290
33.51557	54581
33.52370	57073
33.53182	59913
33.53995	63108
33.54807	60686
33.55618	60913
33.56432	63557
33.57243	57425
33.58057	59644
33.58868	57094
33.59680	55226
33.60493	52700
33.61305	55544
33.62117	53031
33.62930	52212
33.63742	50881
33.64555	58166
33.65367	59606
33.66178	61068
33.66992	58812
33.67803	59059
33.68617	55452
33.69428	53811
33.70240	47351
33.71053	50610
33.71865	49059
33.72677	48723
33.73490	56538
33.74302	51090
33.75115	51923
33.75927	49623
33.76738	51470
33.77552	45680
33.78363	47742
33.79177	48648
33.79988	51603
33.80800	46606
33.81613	49372
33.82425	51929
33.83238	49783
33.84050	51545
33.84862	53309
33.85675	51121
33.86487	55147
33.87298	54618
33.88112	60977
33.88923	65531
33.89737	61175
33.90548	65187
33.91360	64975
33.92173	63582
33.92985	64313
33.93798	55689
33.94610	56725
33.95422	55954
33.96235	53887
33.97047	52925
33.97858	49530
33.98672	54648
33.99483	50873
34.00297	51573
34.01108	49643
34.01920	54098
34.02733	50356
34.03545	53550
34.04358	55491
34.05170	51522
34.05982	54969
34.06795	56064
34.07607	54784
34.08420	52049
34.09232	51810
34.10043	55926
34.10857	54777
34.11668	56113
34.12480	54162
34.13293	53010
34.14105	52559
34.14918	52222
34.15730	52096
34.16542	57856
34.17355	56785
34.18167	51544
34.18980	54005
34.19792	53117
34.20603	55029
34.21417	54376
34.22228	53434
34.23042	55024
34.23853	54946
34.24665	57249
34.25478	55293
34.26290	55181
34.27102	51660
34.27915	52494
34.28727	55253
34.29540	55816
34.30352	51572
34.31163	54905
34.31977	57345
34.32788	54733
34.33602	50287
34.34413	50115
34.35225	52910
34.36038	55211
34.36850	56024
34.37662	54834
34.38475	53420
34.39287	51302
34.40100	53587
34.40912	57621
34.41723	51420
34.42537	56971
34.43348	51965
34.44162	51490
34.44973	51140
34.45785	52249
34.46598	51530
34.47410	51730
34.48223	49102
34.49035	52281
34.49847	51713
34.50660	63787
34.51472	68125
34.52283	76001
34.53097	88754
34.53908	100951
34.54722	106681
34.55533	109077
34.56345	108379
34.57158	105885
34.57970	98024
34.58783	97704
34.59595	93321
34.60407	87171
34.61220	85034
34.62032	79821
34.62845	77197
34.63657	73535
34.64468	71139
34.65282	71339
34.66093	67590
34.66905	67501
34.67718	69494
34.68530	59070
34.69343	65111
34.70155	60141
34.70967	61879
34.71780	61413
34.72592	62500
34.73405	59927
34.74217	60017
34.75028	62104
34.75842	65504
34.76653	63904
34.77465	65473
34.78278	66380
34.79090	62074
34.79903	64245
34.80715	62227
34.81527	62894
34.82340	63186
34.83152	61178
34.83965	57090
34.84777	60945
34.85588	61879
34.86402	59009
34.87213	57729
34.88027	64054
34.88838	57103
34.89650	58396
34.90463	58873
34.91275	57934
34.92087	61729
34.92900	62781
34.93712	67814
34.94525	64465
34.95337	66050
34.96148	66870
34.96962	72841
34.97773	73091
34.98587	70429
34.99398	67650
35.00210	63421
35.01023	62868
35.01835	59122
35.02648	60004
35.03460	57673
35.04272	56844
35.05085	57090
35.05897	56967
35.06708	55594
35.07522	55960
35.08333	57337
35.09147	56381
35.09958	57992
35.10770	53147
35.11583	56866
35.12395	56211
35.13208	54170
35.14020	53873
35.14832	60499
35.15645	57920
35.16457	59650
35.17268	56775
35.18082	56699
35.18893	61073
35.19707	57263
35.20518	57250
35.21330	54111
35.22143	52545
35.22955	51981
35.23768	51906
35.24580	54352
35.25392	55018
35.26205	55699
35.27017	57107
35.27830	59448
35.28642	57496
35.29453	59955
35.30267	58826
35.31078	55592
35.31890	54480
35.32703	47605
35.33515	53693
35.34328	54058
35.35140	53968
35.35952	52878
35.36765	52459
35.37577	58262
35.38390	64869
35.39202	73884
35.40013	83212
35.40827	99775
35.41638	116871
35.42450	136000
35.43263	148979
35.44075	136737
35.44888	123775
35.45700	110243
35.46512	100794
35.47325	79937
35.48137	74332
35.48950	70983
35.49762	69845
35.50573	71062
35.51387	68177
35.52198	68642
35.53012	66773
35.53823	61805
35.54635	63908
35.55448	64589
35.56260	61925
35.57072	57105
35.57885	60123
35.58697	60210
35.59510	62898
35.60322	60925
35.61133	57851
35.61947	56282
35.62758	54772
35.63572	57244
35.64383	58964
35.65195	57313
35.66008	61253
35.66820	61332
35.67633	62944
35.68445	61595
35.69257	63041
35.70070	60724
35.70882	59810
35.71693	60372
35.72507	62116
35.73318	64721
35.74132	69038
35.74943	68473
35.75755	70823
35.76568	77224
35.77380	72939
35.78193	72360
35.79005	67293
35.79817	69529
35.80630	66992
35.81442	65968
35.82253	59472
35.83067	60193
35.83878	59382
35.84692	55808
35.85503	56404
35.86315	58315
35.87128	60833
35.87940	60010
35.88753	56447
35.89565	60183
35.90377	56338
35.91190	53578
35.92002	55473
35.92815	58284
35.93627	56365
35.94438	55099
35.95252	57748
35.96063	56729
35.96875	54884
35.97688	57405
35.98500	53301
35.99313	58557
36.00125	62912
36.00937	59993
36.01750	61196
36.02562	62003
36.03375	60377
36.04187	60866
36.04998	57956
36.05812	61274
36.06623	56427
36.07437	59136
36.08248	56231
36.09060	63110
36.09873	60612
36.10685	56732
36.11497	56927
36.12310	69825
36.13122	63272
36.13935	61692
36.14747	64159
36.15558	62445
36.16372	63216
36.17183	63815
36.17997	60960
36.18808	61733
36.19620	60613
36.20433	60074
36.21245	60634
36.22057	56848
36.22870	61122
36.23682	59722
36.24495	59231
36.25307	54260
36.26118	58200
36.26932	58895
36.27743	61569
36.28557	65405
36.29368	67316
36.30180	75736
36.30993	79362
36.31805	75111
36.32618	72823
36.33430	72722
36.34242	75013
36.35055	67718
36.35867	64297
36.36678	65598
36.37492	59529
36.38303	60257
36.39117	62581
36.39928	63090
36.40740	69414
36.41553	65308
36.42365	70814
36.43178	69058
36.43990	68914
36.44802	68888
36.45615	67308
36.46427	72263
36.47238	70098
36.48052	65600
36.48863	69527
36.49677	69782
36.50488	65089
36.51300	72205
36.52113	67779
36.52925	68288
36.53738	68761
36.54550	69895
36.55362	66064
36.56175	70185
36.56987	64953
36.57800	63332
36.58612	65378
36.59423	68478
36.60237	67839
36.61048	64389
36.61860	64208
36.62673	69843
36.63485	66691
36.64298	64606
36.65110	60667
36.65922	67390
36.66735	69836
36.67547	68703
36.68360	71229
36.69172	66896
36.69983	66785
36.70797	66093
36.71608	69142
36.72422	69863
36.73233	67861
36.74045	67679
36.74858	71215
36.75670	67135
36.76482	71069
36.77295	66476
36.78107	66556
36.78920	72282
36.79732	67890
36.80543	67922
36.81357	64981
36.82168	68566
36.82982	65028
36.83793	65496
36.84605	65613
36.85418	66745
36.86230	64623
36.87042	65366
36.87855	67487
36.88667	66939
36.89480	63224
36.90292	61708
36.91103	69011
36.91917	61404
36.92728	69034
36.93542	69193
36.94353	73272
36.95165	79359
36.95978	79684
36.96790	82728
36.97603	83933
36.98415	91754
36.99227	81180
37.00040	74615
37.00852	70734
37.01663	72492
37.02477	70927
37.03288	68318
37.04102	66726
37.04913	67962
37.05725	70321
37.06538	68513
37.07350	70855
37.08163	70073
37.08975	67967
37.09787	68883
37.10600	67901
37.11412	74187
37.12225	65064
37.13037	67404
37.13848	65064
37.14662	67862
37.15473	65367
37.16285	66606
37.17098	68224
37.17910	67348
37.18723	66217
37.19535	70477
37.20347	69981
37.21160	71904
37.21972	70160
37.22785	67330
37.23597	63461
37.24408	67222
37.25222	69890
37.26033	66062
37.26845	62696
37.27658	66229
37.28470	63450
37.29283	66806
37.30095	67260
37.30907	68525
37.31720	75317
37.32532	81469
37.33345	94754
37.34157	103844
37.34968	106063
37.35782	106591
37.36593	110234
37.37407	102372
37.38218	100067
37.39030	96040
37.39843	97573
37.40655	91797
37.41467	88375
37.42280	89797
37.43092	85757
37.43905	87384
37.44717	85925
37.45528	82800
37.46342	83663
37.47153	84126
37.47967	82810
37.48778	83314
