C:\MassHunter\GCMS\1\data\JTB-E02\BACandBLUE\JTB-E18-020-04.D Tue Jul 09 07:48:00 2019
Start of data points
2.09527,41817
2.10338,44383
2.11150,46408
2.11963,50995
2.12775,55697
2.13588,57812
2.14400,63538
2.15212,69035
2.16025,70173
2.16837,70980
2.17648,71009
2.18462,70141
2.19273,71828
2.20087,66418
2.20898,72500
2.21710,66950
2.22523,59418
2.23335,61901
2.24148,59269
2.24960,60519
2.25772,58713
2.26585,57119
2.27397,313115
2.28208,2493317
2.29022,4040312
2.29833,2032791
2.30647,925650
2.31458,619452
2.32270,484409
2.33083,445749
2.33895,463279
2.34708,630486
2.35520,443892
2.36332,349750
2.37145,300384
2.37957,267437
2.38770,257480
2.39582,248217
2.40393,219151
2.41207,211953
2.42018,210643
2.42830,210703
2.43643,214858
2.44455,196957
2.45268,196748
2.46080,202675
2.46892,179070
2.47705,164747
2.48517,154238
2.49330,176600
2.50142,290591
2.50953,269636
2.51767,203640
2.52578,190422
2.53392,175190
2.54203,155031
2.55015,157868
2.55828,162545
2.56640,163458
2.57452,153745
2.58265,137270
2.59077,131129
2.59890,126660
2.60702,121933
2.61513,134130
2.62327,147528
2.63138,136158
2.63952,130164
2.64763,125619
2.65575,119198
2.66388,116176
2.67200,112700
2.68012,108688
2.68825,111921
2.69637,104872
2.70450,104396
2.71262,105649
2.72073,99759
2.72887,103466
2.73698,96988
2.74512,102918
2.75323,94435
2.76135,93751
2.76948,93193
2.77760,94516
2.78573,90025
2.79385,91795
2.80197,91070
2.81010,96555
2.81822,95104
2.82633,89729
2.83447,94098
2.84258,89127
2.85072,89499
2.85883,88657
2.86695,86646
2.87508,90076
2.88320,82830
2.89133,85722
2.89945,86678
2.90757,85633
2.91570,82487
2.92382,80453
2.93193,81216
2.94007,80570
2.94818,81811
2.95632,81690
2.96443,79638
2.97255,79412
2.98068,81338
2.98880,81035
2.99693,78216
3.00505,76522
3.01317,78028
3.02130,79002
3.02942,78129
3.03755,83216
3.04567,73669
3.05378,77946
3.06192,77402
3.07003,78580
3.07815,75606
3.08628,72246
3.09440,79304
3.10253,82080
3.11065,108229
3.11877,160745
3.12690,143756
3.13502,124993
3.14315,116155
3.15127,106141
3.15938,97880
3.16752,93383
3.17563,86644
3.18377,84884
3.19188,84916
3.20000,80721
3.20813,85477
3.21625,80909
3.22437,77830
3.23250,77160
3.24062,77280
3.24875,75838
3.25687,70822
3.26498,74413
3.27312,74016
3.28123,107108
3.28937,579393
3.29748,4256202
3.30560,1.769887E+07
3.31373,3.293251E+07
3.32185,3.807205E+07
3.32997,3.325896E+07
3.33810,2.490762E+07
3.34622,1.799236E+07
3.35435,1.328821E+07
3.36247,1.020284E+07
3.37058,8184343
3.37872,6756445
3.38683,5738568
3.39497,4947555
3.40308,4284144
3.41120,3849562
3.41933,3477472
3.42745,3168851
3.43558,2927282
3.44370,2708517
3.45182,2525207
3.45995,2342804
3.46807,2226445
3.47618,2117868
3.48432,1993461
3.49243,1899033
3.50057,1808076
3.50868,1717017
3.51680,1624191
3.52493,1564629
3.53305,1493151
3.54118,1435557
3.54930,1379040
3.55742,1327751
3.56555,1287048
3.57367,1239945
3.58180,1225675
3.58992,1159375
3.59803,1151421
3.60617,1118686
3.61428,1093377
3.62240,1081364
3.63053,1061924
3.63865,1017341
3.64678,994335
3.65490,967358
3.66302,944139
3.67115,916576
3.67927,893985
3.68740,885720
3.69552,848025
3.70363,843337
3.71177,818924
3.71988,804820
3.72800,789072
3.73613,771703
3.74425,770051
3.75238,762406
3.76050,749274
3.76862,729975
3.77675,720327
3.78487,721109
3.79300,700236
3.80112,702223
3.80923,682715
3.81737,684380
3.82548,658893
3.83362,671175
3.84173,640447
3.84985,640702
3.85798,643792
3.86610,629531
3.87422,622450
3.88235,613989
3.89047,594074
3.89860,596284
3.90672,590309
3.91483,585082
3.92297,568748
3.93108,559261
3.93922,561295
3.94733,544513
3.95545,551679
3.96358,530933
3.97170,550499
3.97983,527532
3.98795,513086
3.99607,516464
4.00420,521642
4.01232,520215
4.02043,534433
4.02857,536386
4.03668,529537
4.04482,521926
4.05293,506492
4.06105,499783
4.06918,491100
4.07730,484973
4.08543,474713
4.09355,474958
4.10167,479637
4.10980,460937
4.11792,452996
4.12603,461418
4.13417,458223
4.14228,508724
4.15042,584797
4.15853,661532
4.16665,612038
4.17478,543297
4.18290,505050
4.19103,478507
4.19915,454293
4.20727,450270
4.21540,433240
4.22352,441814
4.23165,439889
4.23977,443947
4.24788,441437
4.25602,431550
4.26413,422595
4.27225,409898
4.28038,400443
4.28850,387964
4.29663,394804
4.30475,386805
4.31287,383179
4.32100,388062
4.32912,376907
4.33725,397124
4.34537,386205
4.35348,385561
4.36162,377511
4.36973,393856
4.37785,390354
4.38598,382207
4.39410,372922
4.40223,381917
4.41035,369723
4.41847,357041
4.42660,361926
4.43472,353462
4.44285,352161
4.45097,337538
4.45908,343742
4.46722,349987
4.47533,339986
4.48347,338418
4.49158,337846
4.49970,328630
4.50783,335458
4.51595,329128
4.52407,325549
4.53220,323785
4.54032,322108
4.54845,322255
4.55657,316334
4.56468,305569
4.57282,316752
4.58093,312571
4.58907,315462
4.59718,310629
4.60530,306179
4.61343,311746
4.62155,307124
4.62968,296635
4.63780,299843
4.64592,297496
4.65405,294869
4.66217,293810
4.67028,294927
4.67842,286338
4.68653,285189
4.69467,285774
4.70278,284901
4.71090,284487
4.71903,290790
4.72715,279161
4.73528,275711
4.74340,278648
4.75152,280844
4.75965,278728
4.76777,277779
4.77588,266656
4.78402,262038
4.79213,268852
4.80027,265400
4.80838,262621
4.81650,262525
4.82463,268352
4.83275,261925
4.84088,250956
4.84900,262284
4.85712,265495
4.86525,265829
4.87337,258705
4.88150,258879
4.88962,258457
4.89773,255147
4.90587,256034
4.91398,255968
4.92210,304345
4.93023,600767
4.93835,2093846
4.94648,6700298
4.95460,1.534913E+07
4.96272,2.342921E+07
4.97085,2.604342E+07
4.97897,2.338074E+07
4.98710,1.74697E+07
4.99522,1.195837E+07
5.00333,8178505
5.01147,5967778
5.01958,4502911
5.02772,3619210
5.03583,3082652
5.04395,2712410
5.05208,2358722
5.06020,2149129
5.06832,1965004
5.07645,1806532
5.08457,1686765
5.09270,1529740
5.10082,1464231
5.10893,1355100
5.11707,1296469
5.12518,1240908
5.13332,1194423
5.14143,1138242
5.14955,1111495
5.15768,1049345
5.16580,1029943
5.17392,996223
5.18205,965677
5.19017,933125
5.19830,892658
5.20642,890102
5.21453,863245
5.22267,851077
5.23078,829859
5.23892,847176
5.24703,867658
5.25515,866031
5.26328,822011
5.27140,784138
5.27953,742669
5.28765,714482
5.29577,698140
5.30390,687343
5.31202,670329
5.32013,648932
5.32827,646178
5.33638,629700
5.34452,625875
5.35263,612158
5.36075,604424
5.36888,602196
5.37700,587371
5.38513,575280
5.39325,555831
5.40137,558887
5.40950,543967
5.41762,541967
5.42573,535909
5.43387,530066
5.44198,531986
5.45012,514674
5.45823,505021
5.46635,493041
5.47448,498351
5.48260,479578
5.49073,484984
5.49885,476899
5.50697,476364
5.51510,483483
5.52322,461890
5.53135,462923
5.53947,463148
5.54758,449215
5.55572,448072
5.56383,442920
5.57195,432250
5.58008,425882
5.58820,431568
5.59633,426823
5.60445,441289
5.61257,427022
5.62070,424635
5.62882,440475
5.63695,443786
5.64507,455698
5.65318,453373
5.66132,450345
5.66943,448365
5.67757,485953
5.68568,534539
5.69380,577239
5.70193,570831
5.71005,546457
5.71817,493816
5.72630,440787
5.73442,410398
5.74255,410650
5.75067,393071
5.75878,383618
5.76692,391329
5.77503,370335
5.78317,364244
5.79128,362245
5.79940,360612
5.80753,360117
5.81565,351228
5.82377,349617
5.83190,348548
5.84002,362053
5.84815,333888
5.85627,338849
5.86438,331036
5.87252,348258
5.88063,328127
5.88877,318723
5.89688,332207
5.90500,312971
5.91313,283079
5.92125,250149
5.92938,234378
5.93750,222313
5.94562,215962
5.95375,219407
5.96187,229298
5.96998,219711
5.97812,231005
5.98623,233318
5.99437,233586
6.00248,230858
6.01060,229360
6.01873,221929
6.02685,217656
6.03498,212395
6.04310,209862
6.05122,208419
6.05935,212270
6.06747,205816
6.07560,194909
6.08372,211901
6.09183,193613
6.09997,207566
6.10808,187408
6.11620,198827
6.12433,200312
6.13245,197850
6.14058,206208
6.14870,202348
6.15682,201115
6.16495,198683
6.17307,205674
6.18120,197613
6.18932,205726
6.19743,196644
6.20557,204030
6.21368,199939
6.22180,203953
6.22993,202811
6.23805,196858
6.24618,199369
6.25430,200955
6.26242,203233
6.27055,204607
6.27867,204453
6.28680,199848
6.29492,205433
6.30303,201008
6.31117,207345
6.31928,210973
6.32742,203455
6.33553,207764
6.34365,202573
6.35178,208402
6.35990,205772
6.36802,203468
6.37615,199360
6.38427,208286
6.39240,212388
6.40052,204112
6.40863,216623
6.41677,212585
6.42488,212978
6.43302,213364
6.44113,213815
6.44925,218912
6.45738,224958
6.46550,219114
6.47362,215224
6.48175,219134
6.48987,217096
6.49800,217241
6.50612,222473
6.51423,212865
6.52237,214453
6.53048,218037
6.53862,206595
6.54673,198988
6.55485,195842
6.56298,185516
6.57110,177881
6.57923,177000
6.58735,168159
6.59547,174865
6.60360,172312
6.61172,176283
6.61983,168420
6.62797,165393
6.63608,169755
6.64422,165769
6.65233,161491
6.66045,167394
6.66858,160784
6.67670,162200
6.68483,163579
6.69295,160054
6.70107,154118
6.70920,155409
6.71732,156874
6.72545,157102
6.73357,146895
6.74168,158124
6.74982,148786
6.75793,151067
6.76605,156353
6.77418,145314
6.78230,143639
6.79043,150051
6.79855,144861
6.80667,148628
6.81480,145801
6.82292,145544
6.83105,144852
6.83917,141134
6.84728,138420
6.85542,129889
6.86353,108419
6.87167,88187
6.87978,84540
6.88790,80981
6.89603,80205
6.90415,80712
6.91227,77737
6.92040,73677
6.92852,79294
6.93665,76850
6.94477,75899
6.95288,78697
6.96102,78550
6.96913,77050
6.97727,75596
6.98538,75183
6.99350,77655
7.00163,76046
7.00975,76304
7.01787,74050
7.02600,72488
7.03412,76888
7.04225,76465
7.05037,75719
7.05848,75942
7.06662,72915
7.07473,73035
7.08287,76091
7.09098,74622
7.09910,72891
7.10723,72797
7.11535,71270
7.12348,72426
7.13160,70280
7.13972,73062
7.14785,74721
7.15597,73636
7.16408,72328
7.17222,76599
7.18033,75100
7.18847,73173
7.19658,81018
7.20470,71051
7.21283,72152
7.22095,73099
7.22908,72476
7.23720,74000
7.24532,68999
7.25345,72241
7.26157,68932
7.26968,67192
7.27782,67363
7.28593,70804
7.29407,70480
7.30218,70103
7.31030,71448
7.31843,68834
7.32655,77050
7.33468,71270
7.34280,70741
7.35092,71652
7.35905,71590
7.36717,72126
7.37530,71604
7.38342,71925
7.39153,73126
7.39967,72895
7.40778,69911
7.41590,69262
7.42403,73633
7.43215,76316
7.44028,78270
7.44840,85156
7.45652,95893
7.46465,92832
7.47277,92695
7.48090,84089
7.48902,78931
7.49713,74632
7.50527,68508
7.51338,72266
7.52152,69879
7.52963,69570
7.53775,67621
7.54588,70560
7.55400,70147
7.56212,67767
7.57025,68962
7.57837,68675
7.58650,68178
7.59462,66836
7.60273,67372
7.61087,65041
7.61898,70707
7.62712,65601
7.63523,66581
7.64335,66011
7.65148,68331
7.65960,69050
7.66772,66994
7.67585,66579
7.68397,66941
7.69210,64016
7.70022,71064
7.70833,65931
7.71647,67961
7.72458,65372
7.73272,65910
7.74083,65258
7.74895,62729
7.75708,65000
7.76520,67830
7.77333,66299
7.78145,67268
7.78957,62620
7.79770,64828
7.80582,66751
7.81393,66905
7.82207,66910
7.83018,64913
7.83832,60576
7.84643,63691
7.85455,62008
7.86268,64408
7.87080,60736
7.87893,55769
7.88705,58596
7.89517,59065
7.90330,60953
7.91142,60000
7.91955,59429
7.92767,63051
7.93578,65762
7.94392,61507
7.95203,58772
7.96015,60930
7.96828,62588
7.97640,58952
7.98453,61076
7.99265,64182
8.00077,62988
8.00890,63340
8.01702,56313
8.02515,58808
8.03327,57322
8.04138,58058
8.04952,58897
8.05763,57628
8.06575,58339
8.07388,60963
8.08200,58826
8.09013,62084
8.09825,64091
8.10637,59750
8.11450,59983
8.12262,60064
8.13075,60040
8.13887,54820
8.14698,60050
8.15512,57590
8.16323,52499
8.17137,58354
8.17948,63011
8.18760,61216
8.19573,60882
8.20385,59451
8.21197,60487
8.22010,59386
8.22822,58603
8.23635,57537
8.24447,58919
8.25258,60089
8.26072,58802
8.26883,57948
8.27697,62708
8.28508,55720
8.29320,57389
8.30133,59106
8.30945,55528
8.31757,60608
8.32570,61475
8.33382,59159
8.34195,57434
8.35007,64017
8.35818,64642
8.36632,64956
8.37443,64605
8.38257,62917
8.39068,63238
8.39880,60916
8.40693,59198
8.41505,59478
8.42318,58357
8.43130,59933
8.43942,60800
8.44755,59900
8.45567,60736
8.46378,59386
8.47192,55360
8.48003,56359
8.48817,56530
8.49628,61007
8.50440,62680
8.51253,65262
8.52065,71643
8.52878,74701
8.53690,83997
8.54502,264957
8.55315,665385
8.56127,581701
8.56940,273757
8.57752,151206
8.58563,130398
8.59377,135682
8.60188,117233
8.61000,106580
8.61813,97838
8.62625,90847
8.63438,95694
8.64250,96547
8.65062,90573
8.65875,86787
8.66687,85070
8.67500,97882
8.68312,95078
8.69123,88392
8.69937,83739
8.70748,87632
8.71560,81528
8.72373,82872
8.73185,85935
8.73998,94080
8.74810,186592
8.75622,505855
8.76435,1450340
8.77247,3395897
8.78060,5978923
8.78872,7744233
8.79683,7638729
8.80497,5997758
8.81308,4065991
8.82122,2660838
8.82933,1875418
8.83745,1422220
8.84558,1156840
8.85370,943118
8.86182,796565
8.86995,689235
8.87807,636886
8.88620,565764
8.89432,519390
8.90243,479217
8.91057,452156
8.91868,431655
8.92682,408210
8.93493,389440
8.94305,645440
8.95118,4466835
8.95930,1.302726E+07
8.96743,1.228843E+07
8.97555,6018705
8.98367,3236675
8.99180,2161909
8.99992,1592971
9.00803,1264797
9.01617,1056268
9.02428,882720
9.03242,780509
9.04053,689887
9.04865,640656
9.05678,579852
9.06490,543628
9.07303,513860
9.08115,475052
9.08927,449351
9.09740,428366
9.10552,412399
9.11363,387646
9.12177,363941
9.12988,356759
9.13802,351849
9.14613,331181
9.15425,332368
9.16238,307436
9.17050,315596
9.17863,318346
9.18675,303242
9.19487,291616
9.20300,278747
9.21112,271459
9.21925,275132
9.22737,258427
9.23548,245419
9.24362,241769
9.25173,235837
9.25985,241156
9.26798,230360
9.27610,221205
9.28423,226093
9.29235,207635
9.30047,214920
9.30860,202816
9.31672,201963
9.32485,212117
9.33297,226425
9.34108,231449
9.34922,211611
9.35733,213676
9.36547,203259
9.37358,203484
9.38170,198429
9.38983,199694
9.39795,185655
9.40607,175424
9.41420,173638
9.42232,177190
9.43045,177735
9.43857,450731
9.44668,2456787
9.45482,6939702
9.46293,8296702
9.47107,5300868
9.47918,2849678
9.48730,1776384
9.49543,1241176
9.50355,961432
9.51167,782220
9.51980,650422
9.52792,568128
9.53605,495875
9.54417,434279
9.55228,395539
9.56042,350205
9.56853,304313
9.57667,285830
9.58478,256107
9.59290,244084
9.60103,225945
9.60915,217497
9.61728,207229
9.62540,194321
9.63352,190299
9.64165,189467
9.64977,178392
9.65788,163449
9.66602,168013
9.67413,153505
9.68227,155033
9.69038,158434
9.69850,141574
9.70663,143612
9.71475,140238
9.72288,138975
9.73100,131974
9.73912,128259
9.74725,131126
9.75537,128247
9.76348,127280
9.77162,125469
9.77973,122847
9.78787,121494
9.79598,113551
9.80410,121124
9.81223,113618
9.82035,114409
9.82848,117940
9.83660,116087
9.84472,115081
9.85285,117369
9.86097,112148
9.86910,112088
9.87722,115618
9.88533,119736
9.89347,125399
9.90158,122374
9.90970,113532
9.91783,110928
9.92595,113471
9.93408,105887
9.94220,107881
9.95032,107432
9.95845,129303
9.96657,139123
9.97470,125534
9.98282,113657
9.99093,123738
9.99907,137517
10.00718,146708
10.01532,161302
10.02343,167823
10.03155,164405
10.03968,160464
10.04780,151743
10.05592,141808
10.06405,130055
10.07217,127898
10.08030,120549
10.08842,111256
10.09653,115037
10.10467,111781
10.11278,110154
10.12092,117381
10.12903,119172
10.13715,120855
10.14528,114480
10.15340,116206
10.16152,122098
10.16965,136967
10.17777,135181
10.18590,131513
10.19402,136720
10.20213,146882
10.21027,153594
10.21838,142508
10.22652,152880
10.23463,158189
10.24275,163834
10.25088,155201
10.25900,145957
10.26713,131393
10.27525,123094
10.28337,119408
10.29150,122208
10.29962,116792
10.30773,115718
10.31587,117198
10.32398,118935
10.33212,116705
10.34023,116337
10.34835,112763
10.35648,110884
10.36460,110310
10.37273,113715
10.38085,108509
10.38897,109658
10.39710,102116
10.40522,103422
10.41335,106328
10.42147,108713
10.42958,107257
10.43772,98343
10.44583,99473
10.45395,101839
10.46208,93424
10.47020,98308
10.47833,90561
10.48645,98169
10.49457,91742
10.50270,94769
10.51082,93600
10.51895,96737
10.52707,92505
10.53518,101726
10.54332,94313
10.55143,96286
10.55955,91974
10.56768,105941
10.57580,94120
10.58393,90095
10.59205,92936
10.60017,93908
10.60830,91506
10.61642,94113
10.62455,93383
10.63267,89717
10.64078,88382
10.64892,83560
10.65703,88755
10.66517,88582
10.67328,86453
10.68140,84108
10.68953,87511
10.69765,89056
10.70577,89811
10.71390,84460
10.72202,86615
10.73015,88362
10.73827,84419
10.74638,84001
10.75452,82863
10.76263,86240
10.77077,88469
10.77888,88655
10.78700,88334
10.79513,87581
10.80325,83412
10.81137,86985
10.81950,84351
10.82762,86481
10.83575,81851
10.84387,82433
10.85198,80312
10.86012,83893
10.86823,78359
10.87637,81751
10.88448,83699
10.89260,81719
10.90073,80364
10.90885,81835
10.91698,78441
10.92510,81651
10.93322,82387
10.94135,87121
10.94947,84177
10.95758,82754
10.96572,83855
10.97383,79853
10.98197,83849
10.99008,83255
10.99820,79590
11.00633,81141
11.01445,84175
11.02258,94930
11.03070,194130
11.03882,546545
11.04695,1253735
11.05507,1871173
11.06320,1886733
11.07132,1383906
11.07943,852797
11.08757,565150
11.09568,408604
11.10380,317240
11.11193,256950
11.12005,221759
11.12818,200520
11.13630,174592
11.14442,163471
11.15255,154679
11.16067,154101
11.16880,164294
11.17692,193017
11.18503,211371
11.19317,221523
11.20128,219495
11.20942,206548
11.21753,183795
11.22565,157741
11.23378,135218
11.24190,121932
11.25002,120214
11.25815,109418
11.26627,108234
11.27440,107049
11.28252,96252
11.29063,99393
11.29877,98213
11.30688,96548
11.31502,93270
11.32313,93505
11.33125,93921
11.33938,95605
11.34750,91357
11.35562,90134
11.36375,87256
11.37187,89772
11.38000,87464
11.38812,87994
11.39623,83945
11.40437,90116
11.41248,87115
11.42062,89064
11.42873,86395
11.43685,85142
11.44498,86307
11.45310,84131
11.46123,82541
11.46935,86707
11.47747,82753
11.48560,87299
11.49372,80324
11.50183,83545
11.50997,80206
11.51808,84090
11.52622,80449
11.53433,80617
11.54245,80713
11.55058,82504
11.55870,85408
11.56683,84332
11.57495,79209
11.58307,81031
11.59120,80983
11.59932,76001
11.60743,80321
11.61557,78361
11.62368,80821
11.63182,77345
11.63993,79524
11.64805,79870
11.65618,78262
11.66430,81931
11.67243,80807
11.68055,80382
11.68867,82430
11.69680,84916
11.70492,85491
11.71305,85662
11.72117,87866
11.72928,96396
11.73742,95248
11.74553,102580
11.75365,100951
11.76178,100069
11.76990,97588
11.77803,94486
11.78615,91621
11.79427,87433
11.80240,85981
11.81052,86202
11.81865,79804
11.82677,84756
11.83488,80825
11.84302,84416
11.85113,85460
11.85927,81800
11.86738,84330
11.87550,83259
11.88363,83164
11.89175,83209
11.89987,78645
11.90800,81350
11.91612,78822
11.92425,76477
11.93237,79087
11.94048,81303
11.94862,79849
11.95673,82583
11.96487,87191
11.97298,89194
11.98110,92166
11.98923,85042
11.99735,84143
12.00547,85837
12.01360,91068
12.02172,87310
12.02985,82358
12.03797,83564
12.04608,82310
12.05422,82426
12.06233,82403
12.07047,82087
12.07858,82557
12.08670,89815
12.09483,78169
12.10295,80910
12.11108,82493
12.11920,84759
12.12732,85169
12.13545,86226
12.14357,82117
12.15168,80962
12.15982,81528
12.16793,84954
12.17607,80778
12.18418,84248
12.19230,76350
12.20043,81893
12.20855,80931
12.21668,79915
12.22480,83355
12.23292,81704
12.24105,74048
12.24917,86689
12.25730,84568
12.26542,85732
12.27353,88582
12.28167,85066
12.28978,84432
12.29790,82415
12.30603,80408
12.31415,80486
12.32228,81995
12.33040,85147
12.33852,82023
12.34665,74957
12.35477,82243
12.36290,81685
12.37102,79868
12.37913,78944
12.38727,84314
12.39538,87441
12.40350,89029
12.41163,84524
12.41975,85262
12.42788,85792
12.43600,81144
12.44412,80940
12.45225,82372
12.46037,86852
12.46850,88754
12.47662,83174
12.48473,86565
12.49287,81708
12.50098,80895
12.50912,83248
12.51723,86084
12.52535,83045
12.53348,84745
12.54160,84156
12.54972,83883
12.55785,82946
12.56597,82258
12.57410,83813
12.58222,83340
12.59033,77707
12.59847,80692
12.60658,82758
12.61472,79411
12.62283,75482
12.63095,78494
12.63908,86909
12.64720,80331
12.65532,80176
12.66345,77707
12.67157,78858
12.67970,81167
12.68782,77588
12.69593,78985
12.70407,80472
12.71218,75937
12.72032,80091
12.72843,80609
12.73655,80592
12.74468,83858
12.75280,91776
12.76093,94718
12.76905,98196
12.77717,100554
12.78530,96790
12.79342,88160
12.80153,87144
12.80967,82189
12.81778,77696
12.82592,80146
12.83403,79272
12.84215,81356
12.85028,77235
12.85840,82376
12.86653,83139
12.87465,78668
12.88277,78612
12.89090,74576
12.89902,77177
12.90715,76937
12.91527,76064
12.92338,75124
12.93152,79567
12.93963,75842
12.94775,77784
12.95588,81004
12.96400,79145
12.97213,79229
12.98025,78863
12.98837,74263
12.99650,70890
13.00462,75465
13.01275,79117
13.02087,79403
13.02898,77062
13.03712,77536
13.04523,78459
13.05335,82325
13.06148,79073
13.06960,81387
13.07773,80441
13.08585,77133
13.09397,77065
13.10210,79863
13.11022,78446
13.11835,79574
13.12647,78411
13.13458,79155
13.14272,82896
13.15083,81972
13.15897,85872
13.16708,85400
13.17520,97139
13.18333,110327
13.19145,111414
13.19957,121782
13.20770,119962
13.21582,114179
13.22395,105395
13.23207,97564
13.24018,88480
13.24832,79695
13.25643,83759
13.26457,86431
13.27268,85563
13.28080,84019
13.28893,83561
13.29705,76321
13.30518,79671
13.31330,79000
13.32142,77831
13.32955,77096
13.33767,85290
13.34578,81983
13.35392,78990
13.36203,75715
13.37017,81497
13.37828,74956
13.38640,79807
13.39453,83744
13.40265,79084
13.41078,77550
13.41890,77927
13.42702,77893
13.43515,83753
13.44327,75971
13.45138,78363
13.45952,80571
13.46763,82257
13.47577,83287
13.48388,84014
13.49200,82458
13.50013,83352
13.50825,79490
13.51638,81010
13.52450,77709
13.53262,79016
13.54075,78629
13.54887,82346
13.55700,85780
13.56512,81649
13.57323,88203
13.58137,84410
13.58948,83947
13.59760,84251
13.60573,82498
13.61385,80858
13.62198,81158
13.63010,84187
13.63822,86323
13.64635,86784
13.65447,78675
13.66260,80121
13.67072,81650
13.67883,84725
13.68697,86593
13.69508,83327
13.70322,82555
13.71133,85739
13.71945,79776
13.72758,79657
13.73570,83306
13.74382,92147
13.75195,91706
13.76007,95456
13.76820,102665
13.77632,111742
13.78443,110956
13.79257,122162
13.80068,122037
13.80882,125827
13.81693,119545
13.82505,128658
13.83318,129314
13.84130,122171
13.84942,127287
13.85755,121537
13.86567,119593
13.87380,130851
13.88192,125554
13.89003,125125
13.89817,123136
13.90628,128384
13.91442,131441
13.92253,129620
13.93065,129008
13.93878,134137
13.94690,133380
13.95503,123909
13.96315,130334
13.97127,117680
13.97940,119305
13.98752,116350
13.99563,115601
14.00377,118840
14.01188,122387
14.02002,122181
14.02813,125343
14.03625,124817
14.04438,128707
14.05250,130593
14.06063,133261
14.06875,135144
14.07687,129917
14.08500,123024
14.09312,122989
14.10123,119990
14.10937,114651
14.11748,119510
14.12562,115833
14.13373,123327
14.14185,124618
14.14998,132865
14.15810,185596
14.16623,323250
14.17435,659765
14.18247,1294743
14.19060,2007138
14.19872,2414768
14.20685,2328465
14.21497,1767434
14.22308,1202904
14.23122,804106
14.23933,540221
14.24745,436611
14.25558,379383
14.26370,333104
14.27183,291845
14.27995,272506
14.28807,253051
14.29620,242083
14.30432,220477
14.31245,216568
14.32057,206165
14.32868,189849
14.33682,181855
14.34493,160343
14.35307,151406
14.36118,130467
14.36930,120785
14.37743,115352
14.38555,114140
14.39367,116598
14.40180,114089
14.40992,113312
14.41805,111749
14.42617,109386
14.43428,111898
14.44242,110040
14.45053,109399
14.45867,108687
14.46678,104426
14.47490,106669
14.48303,105055
14.49115,107131
14.49927,109467
14.50740,106612
14.51552,105080
14.52365,111289
14.53177,111532
14.53988,111094
14.54802,107130
14.55613,106315
14.56427,105387
14.57238,101651
14.58050,98762
14.58863,106155
14.59675,103822
14.60488,96478
14.61300,96701
14.62112,96677
14.62925,104997
14.63737,98088
14.64548,103197
14.65362,97953
14.66173,102136
14.66987,98359
14.67798,97619
14.68610,93637
14.69423,98754
14.70235,98916
14.71048,104657
14.71860,341633
14.72672,814763
14.73485,511033
14.74297,241169
14.75110,224363
14.75922,222671
14.76733,270662
14.77547,401291
14.78358,565574
14.79170,674263
14.79983,652593
14.80795,513137
14.81608,373697
14.82420,267213
14.83232,208329
14.84045,181297
14.84857,161428
14.85670,153636
14.86482,146873
14.87293,142241
14.88107,140868
14.88918,133187
14.89730,143376
14.90543,1967195
14.91355,1.591844E+07
14.92168,1.341891E+07
14.92980,5413628
14.93792,2973172
14.94605,1996804
14.95417,1473903
14.96230,1142970
14.97042,938489
14.97853,785146
14.98667,696984
14.99478,613253
15.00292,535618
15.01103,499253
15.01915,466541
15.02728,423488
15.03540,388568
15.04352,381095
15.05165,371393
15.05977,1168614
15.06790,9129377
15.07602,1.212133E+07
15.08413,5482797
15.09227,2857296
15.10038,1845788
15.10852,1355422
15.11663,1043175
15.12475,863345
15.13288,739113
15.14100,652230
15.14912,565081
15.15725,510147
15.16537,480679
15.17350,433170
15.18162,412079
15.18973,383888
15.19787,362004
15.20598,339344
15.21412,330987
15.22223,323694
15.23035,306389
15.23848,295026
15.24660,286569
15.25473,273331
15.26285,273790
15.27097,255889
15.27910,246337
15.28722,242687
15.29533,238266
15.30347,232370
15.31158,237036
15.31972,225856
15.32783,217442
15.33595,239145
15.34408,262308
15.35220,235721
15.36033,215448
15.36845,204735
15.37657,212880
15.38470,210479
15.39282,210395
15.40095,202737
15.40907,213363
15.41718,228253
15.42532,226540
15.43343,220622
15.44155,224375
15.44968,235326
15.45780,219484
15.46593,209635
15.47405,212220
15.48217,210847
15.49030,213784
15.49842,214528
15.50655,214850
15.51467,203955
15.52278,201811
15.53092,193810
15.53903,188438
15.54715,182897
15.55528,209527
15.56340,638910
15.57153,2294798
15.57965,3439862
15.58777,2418474
15.59590,1373159
15.60402,861959
15.61215,618887
15.62027,480797
15.62838,396812
15.63652,337671
15.64463,301614
15.65277,269752
15.66088,250613
15.66900,232582
15.67713,227323
15.68525,209484
15.69337,203719
15.70150,205111
15.70962,195622
15.71775,185816
15.72587,188411
15.73398,182330
15.74212,181147
15.75023,175599
15.75837,177510
15.76648,175425
15.77460,163815
15.78273,164926
15.79085,166962
15.79898,158846
15.80710,168638
15.81522,165196
15.82335,154541
15.83147,157864
15.83958,153820
15.84772,156668
15.85583,156021
15.86397,149683
15.87208,147606
15.88020,146758
15.88833,150086
15.89645,147229
15.90458,148450
15.91270,148667
15.92082,144470
15.92895,142367
15.93707,143221
15.94518,142470
15.95332,145877
15.96143,136312
15.96957,145611
15.97768,141567
15.98580,144387
15.99393,157843
16.00205,153586
16.01018,161662
16.01830,159477
16.02642,155347
16.03455,159219
16.04267,163820
16.05080,166575
16.05892,163834
16.06703,159160
16.07517,152877
16.08328,146660
16.09140,142897
16.09953,151640
16.10765,147223
16.11578,144163
16.12390,141564
16.13202,139373
16.14015,135823
16.14827,132117
16.15640,137123
16.16452,138826
16.17263,136900
16.18077,139307
16.18888,136953
16.19700,135337
16.20513,133905
16.21325,130432
16.22138,132887
16.22950,133409
16.23762,134020
16.24575,131427
16.25387,134026
16.26200,139867
16.27012,141300
16.27823,140248
16.28637,137246
16.29448,127590
16.30262,129379
16.31073,127781
16.31885,130181
16.32698,130698
16.33510,133667
16.34322,128422
16.35135,132041
16.35947,128464
16.36760,133079
16.37572,126747
16.38383,126010
16.39197,129794
16.40008,124442
16.40822,128969
16.41633,130131
16.42445,140137
16.43258,140702
16.44070,137540
16.44883,140710
16.45695,131716
16.46507,128299
16.47320,125733
16.48132,127926
16.48943,126724
16.49757,126974
16.50568,125636
16.51382,129891
16.52193,122629
16.53005,131124
16.53818,117123
16.54630,126339
16.55443,124098
16.56255,125242
16.57067,125505
16.57880,123948
16.58692,120401
16.59505,120076
16.60317,123666
16.61128,124025
16.61942,122765
16.62753,119585
16.63565,118681
16.64378,126215
16.65190,119897
16.66003,124186
16.66815,118841
16.67627,122470
16.68440,120921
16.69252,121388
16.70065,114868
16.70877,115891
16.71688,122268
16.72502,119170
16.73313,110459
16.74125,118367
16.74938,116673
16.75750,112027
16.76563,119115
16.77375,121268
16.78187,115310
16.79000,114546
16.79812,114711
16.80625,120487
16.81437,118402
16.82248,115016
16.83062,117446
16.83873,118837
16.84687,113998
16.85498,119228
16.86310,120590
16.87123,118822
16.87935,113606
16.88747,112535
16.89560,119216
16.90372,112613
16.91185,116023
16.91997,120425
16.92808,114532
16.93622,117610
16.94433,115872
16.95247,119747
16.96058,118584
16.96870,116258
16.97683,110134
16.98495,118818
16.99307,112509
17.00120,115696
17.00932,113252
17.01745,117334
17.02557,117120
17.03368,118040
17.04182,110804
17.04993,112126
17.05807,114901
17.06618,113710
17.07430,117430
17.08243,107883
17.09055,105387
17.09868,110720
17.10680,112091
17.11492,116323
17.12305,110718
17.13117,114181
17.13928,122836
17.14742,174152
17.15553,344134
17.16367,626087
17.17178,822929
17.17990,698976
17.18803,474668
17.19615,308816
17.20428,232436
17.21240,191112
17.22052,165396
17.22865,160874
17.23677,145590
17.24490,132736
17.25302,135725
17.26113,129743
17.26927,127698
17.27738,124213
17.28550,124049
17.29363,118912
17.30175,114861
17.30988,115079
17.31800,113690
17.32612,113941
17.33425,117134
17.34237,119932
17.35050,132115
17.35862,136466
17.36673,136889
17.37487,141761
17.38298,138443
17.39110,136479
17.39923,128055
17.40735,122959
17.41548,118689
17.42360,114198
17.43172,112228
17.43985,109668
17.44797,108930
17.45610,113886
17.46422,105883
17.47233,106659
17.48047,109802
17.48858,108481
17.49672,104227
17.50483,102455
17.51295,103405
17.52108,106001
17.52920,103772
17.53732,99717
17.54545,103126
17.55357,107436
17.56170,105153
17.56982,105642
17.57793,103732
17.58607,104010
17.59418,102217
17.60232,103680
17.61043,98664
17.61855,96765
17.62668,98338
17.63480,94510
17.64293,92708
17.65105,90782
17.65917,95911
17.66730,99289
17.67542,98746
17.68353,111697
17.69167,115174
17.69978,117656
17.70792,113970
17.71603,112987
17.72415,107158
17.73228,103684
17.74040,97038
17.74853,100640
17.75665,93714
17.76477,97193
17.77290,98817
17.78102,93692
17.78913,95260
17.79727,94027
17.80538,90218
17.81352,100578
17.82163,95752
17.82975,98423
17.83788,94939
17.84600,92727
17.85413,93334
17.86225,95301
17.87037,92529
17.87850,93037
17.88662,91250
17.89475,90025
17.90287,89993
17.91098,87932
17.91912,88409
17.92723,87038
17.93535,89076
17.94348,84254
17.95160,86879
17.95973,84188
17.96785,86036
17.97597,86591
17.98410,82459
17.99222,85148
18.00035,85235
18.00847,81825
18.01658,83801
18.02472,84892
18.03283,88436
18.04095,89291
18.04908,93308
18.05720,97429
18.06533,96329
18.07345,106364
18.08157,114596
18.08970,113464
18.09782,127694
18.10595,133242
18.11407,130589
18.12218,126937
18.13032,138187
18.13843,133446
18.14657,125141
18.15468,125215
18.16280,120252
18.17093,122120
18.17905,115739
18.18717,116552
18.19530,118432
18.20342,110955
18.21155,111202
18.21967,106438
18.22778,108010
18.23592,110335
18.24403,107070
18.25217,104173
18.26028,105034
18.26840,109143
18.27653,104122
18.28465,93844
18.29278,97494
18.30090,90656
18.30902,95656
18.31715,89278
18.32527,83673
18.33338,91708
18.34152,90913
18.34963,86066
18.35777,90002
18.36588,90795
18.37400,90372
18.38213,89557
18.39025,90375
18.39838,90974
18.40650,91606
18.41462,87522
18.42275,85893
18.43087,87090
18.43898,90098
18.44712,86243
18.45523,86427
18.46337,86905
18.47148,85281
18.47960,84605
18.48773,81541
18.49585,90100
18.50398,85678
18.51210,80377
18.52022,81711
18.52835,87359
18.53647,85150
18.54460,82800
18.55272,83443
18.56083,83936
18.56897,83931
18.57708,84702
18.58520,87051
18.59333,84442
18.60145,87039
18.60958,94162
18.61770,88891
18.62582,92942
18.63395,88011
18.64207,90736
18.65020,86712
18.65832,87331
18.66643,84840
18.67457,83173
18.68268,82618
18.69082,91368
18.69893,84690
18.70705,85941
18.71518,89759
18.72330,79267
18.73142,92322
18.73955,85096
18.74767,87830
18.75580,85881
18.76392,83849
18.77203,80725
18.78017,79411
18.78828,82798
18.79642,89340
18.80453,79484
18.81265,86145
18.82078,86667
18.82890,76074
18.83702,79603
18.84515,78259
18.85327,78115
18.86140,85545
18.86952,77054
18.87763,86536
18.88577,85360
18.89388,94606
18.90202,100724
18.91013,110286
18.91825,120138
18.92638,125592
18.93450,123741
18.94263,131001
18.95075,130683
18.95887,133937
18.96700,136198
18.97512,143988
18.98323,145020
18.99137,146568
18.99948,145218
19.00762,143803
19.01573,149036
19.02385,153077
19.03198,145035
19.04010,148424
19.04823,146569
19.05635,143964
19.06447,140115
19.07260,144807
19.08072,151936
19.08885,148271
19.09697,160843
19.10508,164932
19.11322,163282
19.12133,162008
19.12945,159393
19.13758,149274
19.14570,149553
19.15383,152088
19.16195,142314
19.17007,153700
19.17820,150561
19.18632,150885
19.19445,142469
19.20257,143630
19.21068,147319
19.21882,138537
19.22693,144968
19.23505,145790
19.24318,140210
19.25130,143101
19.25943,141498
19.26755,142125
19.27567,149467
19.28380,149312
19.29192,158853
19.30005,162737
19.30817,165476
19.31628,164169
19.32442,159505
19.33253,156727
19.34067,157347
19.34878,153326
19.35690,150899
19.36503,140577
19.37315,142824
19.38127,142844
19.38940,146726
19.39752,133197
19.40565,139054
19.41377,139968
19.42188,134587
19.43002,135820
19.43813,130028
19.44627,134352
19.45438,143409
19.46250,184204
19.47063,279536
19.47875,471611
19.48687,749499
19.49500,1055642
19.50312,1157140
19.51125,1002347
19.51937,724262
19.52748,476289
19.53562,300852
19.54373,227406
19.55187,183101
19.55998,175817
19.56810,166911
19.57623,178691
19.58435,201951
19.59248,249830
19.60060,317095
19.60872,377888
19.61685,389852
19.62497,383637
19.63308,364972
19.64122,447322
19.64933,602021
19.65747,863142
19.66558,1113968
19.67370,1238774
19.68183,1241855
19.68995,1051631
19.69808,815904
19.70620,611838
19.71432,473602
19.72245,376211
19.73057,314808
19.73870,281149
19.74682,258666
19.75493,228721
19.76307,217330
19.77118,206008
19.77930,195616
19.78743,187423
19.79555,185938
19.80368,180586
19.81180,174883
19.81992,170644
19.82805,164744
19.83617,157549
19.84430,155586
19.85242,158239
19.86053,155880
19.86867,169337
19.87678,185414
19.88490,215493
19.89303,265739
19.90115,335551
19.90928,388060
19.91740,435455
19.92552,489695
19.93365,522317
19.94177,510594
19.94990,487780
19.95802,459039
19.96613,436864
19.97427,409488
19.98238,368899
19.99052,356329
19.99863,334085
20.00675,325640
20.01488,309126
20.02300,301510
20.03112,293537
20.03925,271419
20.04737,248562
20.05550,221558
20.06362,204406
20.07173,181854
20.07987,172403
20.08798,170036
20.09612,157957
20.10423,163057
20.11235,161487
20.12048,154467
20.12860,152850
20.13673,150892
20.14485,149400
20.15297,144793
20.16110,140693
20.16922,140459
20.17733,147709
20.18547,141030
20.19358,141052
20.20172,134751
20.20983,140115
20.21795,134740
20.22608,146086
20.23420,172201
20.24233,234107
20.25045,335852
20.25857,517749
20.26670,705549
20.27482,892955
20.28293,969633
20.29107,929017
20.29918,793797
20.30732,612665
20.31543,470777
20.32355,354476
20.33168,281468
20.33980,242261
20.34793,220045
20.35605,210950
20.36417,246871
20.37230,303033
20.38042,365148
20.38855,383527
20.39667,361236
20.40478,306597
20.41292,293316
20.42103,302188
20.42915,332593
20.43728,389271
20.44540,408962
20.45353,404720
20.46165,380081
20.46977,330800
20.47790,293141
20.48602,250370
20.49415,214773
20.50227,192264
20.51038,170965
20.51852,173028
20.52663,163817
20.53475,155212
20.54288,152532
20.55100,158828
20.55913,147787
20.56725,142635
20.57537,138487
20.58350,151918
20.59162,144627
20.59975,150555
20.60787,149309
20.61598,142950
20.62412,149780
20.63223,141584
20.64037,136438
20.64848,134979
20.65660,130426
20.66473,132113
20.67285,130050
20.68097,134475
20.68910,127103
20.69722,123150
20.70535,122160
20.71347,122476
20.72158,120282
20.72972,116812
20.73783,116994
20.74597,118500
20.75408,116068
20.76220,116910
20.77033,115598
20.77845,116413
20.78658,115003
20.79470,111980
20.80282,115967
20.81095,118323
20.81907,116860
20.82718,113902
20.83532,117836
20.84343,112253
20.85157,114892
20.85968,112965
20.86780,107894
20.87593,113406
20.88405,109907
20.89218,110783
20.90030,108618
20.90842,110731
20.91655,104463
20.92467,107099
20.93278,107831
20.94092,104507
20.94903,106303
20.95717,103271
20.96528,101074
20.97340,106121
20.98153,101888
20.98965,104475
20.99778,97420
21.00590,98157
21.01402,99584
21.02215,104789
21.03027,117568
21.03840,136428
21.04652,143289
21.05463,167584
21.06277,157514
21.07088,143961
21.07900,135299
21.08713,121252
21.09525,110579
21.10338,111236
21.11150,106994
21.11962,102159
21.12775,100682
21.13587,101045
21.14400,98957
21.15212,97335
21.16023,96843
21.16837,104799
21.17648,106480
21.18462,99264
21.19273,100064
21.20085,105109
21.20898,100916
21.21710,103100
21.22522,97334
21.23335,99167
21.24147,100122
21.24960,96732
21.25772,99292
21.26583,101812
21.27397,102522
21.28208,101942
21.29022,104031
21.29833,99181
21.30645,99656
21.31458,106751
21.32270,121858
21.33082,128743
21.33895,135725
21.34707,138164
21.35520,123999
21.36332,122329
21.37143,114902
21.37957,112451
21.38768,103840
21.39582,102838
21.40393,101742
21.41205,103215
21.42018,103837
21.42830,105304
21.43643,101114
21.44455,103352
21.45267,109939
21.46080,106424
21.46892,106384
21.47703,110830
21.48517,110793
21.49328,118295
21.50142,108464
21.50953,111067
21.51765,114310
21.52578,108163
21.53390,111681
21.54203,110576
21.55015,114903
21.55827,110545
21.56640,106022
21.57452,105884
21.58265,107095
21.59077,120548
21.59888,146319
21.60702,187808
21.61513,245260
21.62325,306182
21.63138,327915
21.63950,353841
21.64763,324051
21.65575,277720
21.66387,233660
21.67200,184729
21.68012,164024
21.68825,150703
21.69637,143071
21.70448,149684
21.71262,142984
21.72073,147328
21.72885,145965
21.73698,138885
21.74510,135538
21.75323,120879
21.76135,125242
21.76947,119567
21.77760,125157
21.78572,128559
21.79385,144868
21.80197,163099
21.81008,204059
21.81822,241488
21.82633,262848
21.83447,269113
21.84258,247682
21.85070,224280
21.85883,195163
21.86695,160038
21.87507,152235
21.88320,131500
21.89132,126385
21.89945,130615
21.90757,128964
21.91568,134080
21.92382,129807
21.93193,130860
21.94007,126119
21.94818,119997
21.95630,113711
21.96443,108663
21.97255,108783
21.98068,105950
21.98880,98646
21.99692,99186
22.00505,101683
22.01317,96537
22.02128,95406
22.02942,103602
22.03753,93538
22.04567,91914
22.05378,94947
22.06190,96828
22.07003,96042
22.07815,94382
22.08628,85287
22.09440,92529
22.10252,97103
22.11065,98390
22.11877,102256
22.12688,103775
22.13502,104511
22.14313,101240
22.15127,105693
22.15938,99077
22.16750,103748
22.17563,97358
22.18375,93823
22.19188,106861
22.20000,110774
22.20812,124708
22.21625,117061
22.22437,123097
22.23250,118150
22.24062,110725
22.24873,104606
22.25687,99524
22.26498,92331
22.27310,96297
22.28123,96122
22.28935,100659
22.29748,107722
22.30560,110144
22.31372,108521
22.32185,100022
22.32997,94747
22.33810,100799
22.34622,91696
22.35433,88200
22.36247,92497
22.37058,90264
22.37870,91271
22.38683,85372
22.39495,83998
22.40308,86825
22.41120,83344
22.41932,85393
22.42745,86375
22.43557,85969
22.44370,85002
22.45182,86349
22.45993,84968
22.46807,89998
22.47618,90944
22.48432,90613
22.49243,92805
22.50055,89574
22.50868,88368
22.51680,87025
22.52492,85781
22.53305,86508
22.54117,84971
22.54930,82919
22.55742,80314
22.56553,79044
22.57367,84286
22.58178,79794
22.58992,81864
22.59803,79051
22.60615,75557
22.61428,79907
22.62240,76112
22.63053,76028
22.63865,72203
22.64677,70319
22.65490,80964
22.66302,76002
22.67113,75156
22.67927,75489
22.68738,78349
22.69552,75000
22.70363,77114
22.71175,74500
22.71988,73476
22.72800,76569
22.73613,79095
22.74425,72080
22.75237,71101
22.76050,75850
22.76862,78832
22.77673,72454
22.78487,69722
22.79298,68975
22.80112,71809
22.80923,82210
22.81735,78410
22.82548,78993
22.83360,85768
22.84173,79631
22.84985,81691
22.85797,84630
22.86610,82396
22.87422,85563
22.88235,87050
22.89047,85407
22.89858,85881
22.90672,92882
22.91483,105782
22.92295,113250
22.93108,122479
22.93920,125584
22.94733,122166
22.95545,119385
22.96357,113706
22.97170,108205
22.97982,103388
22.98795,103215
22.99607,91991
23.00418,92532
23.01232,86455
23.02043,79523
23.02857,77445
23.03668,79002
23.04480,84501
23.05293,78319
23.06105,82562
23.06917,79798
23.07730,78312
23.08542,73253
23.09355,74967
23.10167,73408
23.10978,73760
23.11792,76170
23.12603,73173
23.13417,76742
23.14228,75131
23.15040,72799
23.15853,82004
23.16665,81206
23.17477,77235
23.18290,82168
23.19102,82548
23.19915,80966
23.20727,81800
23.21538,81399
23.22352,78413
23.23163,77571
23.23977,73507
23.24788,74564
23.25600,71219
23.26413,70026
23.27225,74442
23.28038,75497
23.28850,74448
23.29662,71644
23.30475,74322
23.31287,72536
23.32098,79064
23.32912,75923
23.33723,76698
23.34537,74966
23.35348,72809
23.36160,74706
23.36973,71953
23.37785,81399
23.38598,85682
23.39410,79347
23.40222,82404
23.41035,88788
23.41847,87164
23.42658,85392
23.43472,90669
23.44283,88153
23.45097,87671
23.45908,88912
23.46720,87799
23.47533,87516
23.48345,88501
23.49158,81941
23.49970,81978
23.50782,85004
23.51595,82513
23.52407,78767
23.53220,85976
23.54032,80359
23.54843,88401
23.55657,89607
23.56468,85991
23.57280,86773
23.58093,87918
23.58905,85442
23.59718,85068
23.60530,86646
23.61342,87324
23.62155,83385
23.62967,86476
23.63780,90534
23.64592,88084
23.65403,92274
23.66217,91809
23.67028,97828
23.67842,98062
23.68653,96522
23.69465,98162
23.70278,93378
23.71090,93438
23.71902,93593
23.72715,130080
23.73527,234843
23.74340,569208
23.75152,1505358
23.75963,3739812
23.76777,6690376
23.77588,9204970
23.78402,1.036104E+07
23.79213,1.001219E+07
23.80025,8669859
23.80838,6738289
23.81650,4787476
23.82462,3424931
23.83275,2472005
23.84087,1827949
23.84900,1506259
23.85712,1281978
23.86523,1259751
23.87337,1436957
23.88148,1743192
23.88962,1985478
23.89773,2061525
23.90585,1973824
23.91398,1736738
23.92210,1443804
23.93023,1173859
23.93835,956900
23.94647,798185
23.95460,669400
23.96272,573935
23.97083,497616
23.97897,469640
23.98708,422742
23.99522,387355
24.00333,380449
24.01145,350194
24.01958,342091
24.02770,318161
24.03583,317837
24.04395,303714
24.05207,290577
24.06020,285711
24.06832,268260
24.07645,268649
24.08457,257751
24.09268,260096
24.10082,262035
24.10893,271454
24.11705,284523
24.12518,290972
24.13330,279384
24.14143,277169
24.14955,259856
24.15767,247241
24.16580,246575
24.17392,233185
24.18205,234501
24.19017,241448
24.19828,251333
24.20642,256842
24.21453,248140
24.22265,242735
24.23078,226655
24.23890,215305
24.24703,203033
24.25515,191263
24.26327,186350
24.27140,179622
24.27952,175170
24.28765,176297
24.29577,173235
24.30388,165694
24.31202,166295
24.32013,168101
24.32827,161987
24.33638,159637
24.34450,166532
24.35263,187310
24.36075,242647
24.36887,351918
24.37700,532064
24.38512,826335
24.39325,1242044
24.40137,1722689
24.40948,2144131
24.41762,2310049
24.42573,2237903
24.43387,1958293
24.44198,1584486
24.45010,1224499
24.45823,991650
24.46635,797046
24.47448,649879
24.48260,577973
24.49072,542213
24.49885,530913
24.50697,489974
24.51508,441455
24.52322,382167
24.53133,360142
24.53947,317737
24.54758,285885
24.55570,268696
24.56383,266906
24.57195,260602
24.58008,275620
24.58820,306283
24.59632,319891
24.60445,312334
24.61257,306308
24.62068,256708
24.62882,231642
24.63693,211017
24.64507,201411
24.65318,209246
24.66130,196395
24.66943,201667
24.67755,193189
24.68568,189020
24.69380,176074
24.70192,170187
24.71005,160169
24.71817,158554
24.72630,161825
24.73442,151831
24.74253,149430
24.75067,157497
24.75878,158278
24.76690,153850
24.77503,150336
24.78315,146685
24.79128,150253
24.79940,149347
24.80752,142174
24.81565,144830
24.82377,138225
24.83190,136282
24.84002,134161
24.84813,138958
24.85627,131282
24.86438,135547
24.87250,135432
24.88063,132522
24.88875,136430
24.89688,134043
24.90500,134680
24.91312,129503
24.92125,124854
24.92937,129031
24.93750,128101
24.94562,120954
24.95373,122714
24.96187,124846
24.96998,116749
24.97812,118925
24.98623,115663
24.99435,119328
25.00248,120882
25.01060,120060
25.01872,120105
25.02685,119122
25.03497,114011
25.04310,116346
25.05122,121098
25.05933,119612
25.06747,115298
25.07558,113637
25.08372,119588
25.09183,122935
25.09995,121532
25.10808,118838
25.11620,117194
25.12433,132909
25.13245,137844
25.14057,158699
25.14870,164267
25.15682,164014
25.16493,169096
25.17307,164383
25.18118,152089
25.18932,138924
25.19743,135043
25.20555,124061
25.21368,124203
25.22180,119747
25.22993,121657
25.23805,118339
25.24617,114877
25.25430,111668
25.26242,115496
25.27053,114134
25.27867,113637
25.28678,120910
25.29492,132710
25.30303,132050
25.31115,136079
25.31928,143379
25.32740,136104
25.33553,134791
25.34365,117932
25.35177,115432
25.35990,109984
25.36802,111335
25.37615,107159
25.38427,103360
25.39238,104350
25.40052,105578
25.40863,98126
25.41675,97316
25.42488,99588
25.43300,110028
25.44113,112676
25.44925,117867
25.45737,111304
25.46550,122115
25.47362,124213
25.48175,120132
25.48987,120060
25.49798,112405
25.50612,111992
25.51423,107901
25.52237,105935
25.53048,102861
25.53860,103592
25.54673,96048
25.55485,93793
25.56297,94956
25.57110,96159
25.57922,92284
25.58735,89193
25.59547,93230
25.60358,89509
25.61172,95611
25.61983,91122
25.62797,91370
25.63608,91047
25.64420,90794
25.65233,89368
25.66045,87379
25.66857,84483
25.67670,89646
25.68482,89259
25.69295,93585
25.70107,93113
25.70918,88191
25.71732,85295
25.72543,87632
25.73357,84361
25.74168,83217
25.74980,88235
25.75793,88016
25.76605,84397
25.77418,86635
25.78230,89528
25.79042,86892
25.79855,88353
25.80667,91321
25.81478,86598
25.82292,86496
25.83103,87687
25.83917,94969
25.84728,95098
25.85540,86589
25.86353,88808
25.87165,84248
25.87978,81254
25.88790,87753
25.89602,84749
25.90415,87498
25.91227,87478
25.92038,84057
25.92852,77889
25.93663,82522
25.94477,81120
25.95288,77759
25.96100,83105
25.96913,83702
25.97725,78733
25.98538,80499
25.99350,79608
26.00162,77857
26.00975,82696
26.01787,80949
26.02600,78205
26.03412,83751
26.04223,82250
26.05037,78029
26.05848,76963
26.06660,79351
26.07473,82273
26.08285,90007
26.09098,86250
26.09910,86229
26.10722,91828
26.11535,95409
26.12347,107683
26.13160,110703
26.13972,109355
26.14783,112158
26.15597,111972
26.16408,109433
26.17222,104893
26.18033,99005
26.18845,95262
26.19658,97851
26.20470,90002
26.21282,90924
26.22095,94108
26.22907,97436
26.23720,100002
26.24532,101563
26.25343,100887
26.26157,102804
26.26968,98262
26.27782,95629
26.28593,94708
26.29405,98877
26.30218,96958
26.31030,91821
26.31843,94647
26.32655,90409
26.33467,90773
26.34280,88111
26.35092,87046
26.35903,84981
26.36717,92297
26.37528,89454
26.38342,89995
26.39153,83300
26.39965,88398
26.40778,87320
26.41590,83113
26.42403,82493
26.43215,80374
26.44027,85196
26.44840,85668
26.45652,82185
26.46463,82916
26.47277,83313
26.48088,85822
26.48902,78865
26.49713,85630
26.50525,81154
26.51338,80107
26.52150,80262
26.52963,84394
26.53775,81194
26.54587,78757
26.55400,83265
26.56212,82006
26.57025,87110
26.57837,79529
26.58648,74480
26.59462,79475
26.60273,83112
26.61085,82047
26.61898,78854
26.62710,83746
26.63523,83520
26.64335,80207
26.65147,81256
26.65960,84172
26.66772,82903
26.67585,83330
26.68397,88948
26.69208,81422
26.70022,83641
26.70833,89731
26.71645,88306
26.72458,88291
26.73270,90326
26.74083,82404
26.74895,88656
26.75707,86055
26.76520,86952
26.77332,85228
26.78145,88014
26.78957,89127
26.79768,91070
26.80582,90466
26.81393,95989
26.82207,95270
26.83018,94547
26.83830,104541
26.84643,109264
26.85455,106174
26.86267,100915
26.87080,108909
26.87892,110603
26.88705,105527
26.89517,108411
26.90328,117824
26.91142,121278
26.91953,147145
26.92767,190688
26.93578,290000
26.94390,587368
26.95203,1462489
26.96015,4102440
26.96828,1.07063E+07
26.97640,2.138482E+07
26.98452,3.023251E+07
26.99265,3.406044E+07
27.00077,3.531997E+07
27.00888,3.463766E+07
27.01702,3.177555E+07
27.02513,2.687068E+07
27.03327,2.240955E+07
27.04138,1.862498E+07
27.04950,1.553541E+07
27.05763,1.219192E+07
27.06575,9278349
27.07388,7059157
27.08200,5392761
27.09012,4035039
27.09825,3144628
27.10637,2562228
27.11448,2136459
27.12262,1781000
27.13073,1564937
27.13887,1438825
27.14698,1322171
27.15510,1178174
27.16323,1072955
27.17135,1003531
27.17948,919632
27.18760,879489
27.19572,870175
27.20385,916297
27.21197,1072838
27.22010,1413343
27.22822,2051355
27.23633,2892977
27.24447,3885027
27.25258,4762247
27.26070,5197576
27.26883,4985758
27.27695,4625100
27.28508,4116598
27.29320,3432510
27.30132,2900801
27.30945,2376977
27.31757,1861343
27.32570,1522975
27.33382,1258164
27.34193,1104321
27.35007,962087
27.35818,864749
27.36632,772238
27.37443,704978
27.38255,657055
27.39068,615239
27.39880,582488
27.40692,547820
27.41505,529508
27.42317,500401
27.43130,470345
27.43942,449120
27.44753,439494
27.45567,435623
27.46378,410804
27.47192,404352
27.48003,395888
27.48815,391621
27.49628,392681
27.50440,395688
27.51252,390303
27.52065,378466
27.52877,374052
27.53690,347663
27.54502,341724
27.55313,325812
27.56127,322871
27.56938,311905
27.57752,320759
27.58563,320755
27.59375,312817
27.60188,314121
27.61000,306263
27.61813,299500
27.62625,295755
27.63437,280037
27.64250,275360
27.65062,273007
27.65873,258106
27.66687,253023
27.67498,270045
27.68312,242672
27.69123,247788
27.69935,241059
27.70748,240474
27.71560,235201
27.72373,243651
27.73185,231555
27.73997,225176
27.74810,230642
27.75622,230647
27.76433,221077
27.77247,213934
27.78058,204761
27.78872,214988
27.79683,218928
27.80495,221384
27.81308,214200
27.82120,210105
27.82933,209011
27.83745,206313
27.84557,208339
27.85370,202524
27.86182,196396
27.86995,183306
27.87807,184812
27.88618,187546
27.89432,180700
27.90243,181036
27.91055,177269
27.91868,173626
27.92680,168442
27.93493,168593
27.94305,166595
27.95117,168974
27.95930,171573
27.96742,169022
27.97555,169597
27.98367,162743
27.99178,165849
27.99992,160473
28.00803,163507
28.01617,157864
28.02428,159362
28.03240,158479
28.04053,152722
28.04865,158483
28.05677,156566
28.06490,162221
28.07302,149847
28.08115,149163
28.08927,152720
28.09738,150297
28.10552,144285
28.11363,142201
28.12177,144784
28.12988,143281
28.13800,139168
28.14613,137817
28.15425,147093
28.16237,156209
28.17050,170857
28.17862,182287
28.18675,201175
28.19487,205792
28.20298,205186
28.21112,192508
28.21923,182480
28.22737,171436
28.23548,177095
28.24360,178787
28.25173,212629
28.25985,315993
28.26798,540919
28.27610,1045633
28.28422,1927396
28.29235,3453932
28.30047,5704262
28.30858,8427230
28.31672,1.127984E+07
28.32483,1.362519E+07
28.33297,1.625188E+07
28.34108,1.643597E+07
28.34920,1.671203E+07
28.35733,1.578594E+07
28.36545,1.431899E+07
28.37358,1.311066E+07
28.38170,1.204678E+07
28.38982,1.078072E+07
28.39795,9463238
28.40607,8070600
28.41420,6946815
28.42232,5916619
28.43043,5064036
28.43857,4331561
28.44668,3746809
28.45480,3161492
28.46293,2863706
28.47105,2770908
28.47918,2705762
28.48730,2675301
28.49542,2642491
28.50355,2674595
28.51167,2680983
28.51980,2636399
28.52792,2569158
28.53603,2529698
28.54417,2396091
28.55228,2298163
28.56040,2237910
28.56853,2022788
28.57665,1847130
28.58478,1706108
28.59290,1573405
28.60102,1462101
28.60915,1352549
28.61727,1227768
28.62540,1138521
28.63352,1025706
28.64163,964067
28.64977,900561
28.65788,879985
28.66602,805441
28.67413,736979
28.68225,696334
28.69038,665534
28.69850,635335
28.70662,587068
28.71475,585895
28.72287,560176
28.73100,585004
28.73912,620405
28.74723,690773
28.75537,772301
28.76348,810711
28.77162,790877
28.77973,694750
28.78785,617451
28.79598,544579
28.80410,503990
28.81222,494050
28.82035,450392
28.82847,426044
28.83660,399936
28.84472,366578
28.85283,364622
28.86097,344236
28.86908,344407
28.87722,342451
28.88533,326433
28.89345,334817
28.90158,329662
28.90970,307324
28.91783,316580
28.92595,301301
28.93407,311588
28.94220,291682
28.95032,304797
28.95843,300022
28.96657,298778
28.97468,288657
28.98282,277395
28.99093,278316
28.99905,283732
29.00718,266042
29.01530,258052
29.02343,269442
29.03155,263386
29.03967,259127
29.04780,258760
29.05592,250712
29.06405,252334
29.07217,257221
29.08028,248682
29.08842,244748
29.09653,242182
29.10465,246697
29.11278,243852
29.12090,244709
29.12903,242350
29.13715,236883
29.14527,233153
29.15340,236860
29.16152,226468
29.16965,227308
29.17777,232336
29.18588,229906
29.19402,225289
29.20213,219643
29.21025,229469
29.21838,227718
29.22650,220564
29.23463,224761
29.24275,227426
29.25087,223138
29.25900,225036
29.26712,234385
29.27525,231038
29.28337,232104
29.29148,233183
29.29962,233247
29.30773,227253
29.31587,222002
29.32398,220294
29.33210,213084
29.34023,217204
29.34835,208485
29.35647,208262
29.36460,208700
29.37272,208006
29.38085,213747
29.38897,199311
29.39708,204827
29.40522,205272
29.41333,203340
29.42147,196956
29.42958,204451
29.43770,197522
29.44583,200545
29.45395,203609
29.46208,203110
29.47020,195169
29.47832,200068
29.48645,196466
29.49457,196859
29.50268,193380
29.51082,192258
29.51893,187652
29.52707,175149
29.53518,176569
29.54330,174675
29.55143,166972
29.55955,162554
29.56768,163990
29.57580,161453
29.58392,162770
29.59205,156124
29.60017,157577
29.60828,151169
29.61642,159992
29.62453,153686
29.63267,150278
29.64078,144302
29.64890,145424
29.65703,151826
29.66515,141431
29.67328,150821
29.68140,136121
29.68952,141682
29.69765,143501
29.70577,137181
29.71390,134304
29.72202,134084
29.73013,140288
29.73827,135506
29.74638,137777
29.75450,133029
29.76263,135244
29.77075,135165
29.77888,132178
29.78700,128685
29.79512,122948
29.80325,127183
29.81137,130843
29.81950,131051
29.82762,127299
29.83573,131892
29.84387,132313
29.85198,125440
29.86012,125896
29.86823,138305
29.87635,138108
29.88448,149857
29.89260,168355
29.90072,204939
29.90885,259496
29.91697,368639
29.92510,522209
29.93322,767462
29.94133,1045254
29.94947,1401597
29.95758,1856751
29.96572,2535679
29.97383,3169902
29.98195,3805537
29.99008,4327853
29.99820,4843555
30.00632,5181817
30.01445,5436942
30.02257,5632329
30.03070,5589926
30.03882,5409160
30.04693,5265240
30.05507,5142670
30.06318,4862654
30.07132,4512184
30.07943,4276379
30.08755,3901157
30.09568,3659127
30.10380,3366857
30.11193,3070556
30.12005,2856170
30.12817,2624466
30.13630,2355151
30.14442,2168749
30.15253,1913611
30.16067,1770790
30.16878,1644406
30.17692,1493485
30.18503,1366092
30.19315,1251097
30.20128,1156512
30.20940,1055379
30.21753,950795
30.22565,885473
30.23377,804981
30.24190,750936
30.25002,710637
30.25813,644545
30.26627,618765
30.27438,575217
30.28252,552390
30.29063,510718
30.29875,488976
30.30688,466186
30.31500,434278
30.32313,419566
30.33125,398045
30.33937,384721
30.34750,357890
30.35562,359111
30.36375,342838
30.37187,332061
30.37998,321207
30.38812,305473
30.39623,298890
30.40435,289991
30.41248,290059
30.42060,281791
30.42873,276593
30.43685,273080
30.44497,260152
30.45310,257024
30.46122,253808
30.46935,246537
30.47747,240642
30.48558,247357
30.49372,241138
30.50183,237215
30.50997,222818
30.51808,219055
30.52620,215771
30.53433,210414
30.54245,212533
30.55057,206629
30.55870,202396
30.56682,202533
30.57495,198709
30.58307,193084
30.59118,198095
30.59932,195465
30.60743,191928
30.61557,191385
30.62368,184617
30.63180,193352
30.63993,185385
30.64805,179635
30.65617,175320
30.66430,178904
30.67242,174745
30.68055,169710
30.68867,174897
30.69678,175562
30.70492,171859
30.71303,169027
30.72117,170039
30.72928,159903
30.73740,157786
30.74553,168898
30.75365,162303
30.76178,163609
30.76990,165800
30.77802,165450
30.78615,166868
30.79427,173178
30.80238,172943
30.81052,164931
30.81863,169002
30.82677,167391
30.83488,158108
30.84300,154924
30.85113,147193
30.85925,149729
30.86738,150588
30.87550,147753
30.88362,146747
30.89175,147390
30.89987,148651
30.90800,145346
30.91612,141354
30.92423,145887
30.93237,140901
30.94048,139850
30.94860,143395
30.95673,145788
30.96485,136798
30.97298,139442
30.98110,139807
30.98922,138329
30.99735,141440
31.00547,141547
31.01360,139493
31.02172,136617
31.02983,136431
31.03797,140297
31.04608,137598
31.05420,146225
31.06233,139184
31.07045,147534
31.07858,141235
31.08670,152199
31.09482,164337
31.10295,160627
31.11107,164062
31.11920,152901
31.12732,150756
31.13543,151858
31.14357,159936
31.15168,160605
31.15982,150928
31.16793,160367
31.17605,161265
31.18418,164311
31.19230,186877
31.20042,209603
31.20855,235021
31.21667,247400
31.22480,269468
31.23292,281571
31.24103,258760
31.24917,226957
31.25728,202788
31.26542,183034
31.27353,158844
31.28165,150550
31.28978,139867
31.29790,134163
31.30602,136182
31.31415,128797
31.32227,126762
31.33040,127179
31.33852,130976
31.34663,135584
31.35477,125630
31.36288,135859
31.37102,146066
31.37913,137782
31.38725,150981
31.39538,146676
31.40350,146265
31.41163,151032
31.41975,140811
31.42787,136680
31.43600,130163
31.44412,128501
31.45223,124779
31.46037,120791
31.46848,120143
31.47662,122441
31.48473,116511
31.49285,109892
31.50098,112665
31.50910,114065
31.51723,109529
31.52535,111228
31.53347,108304
31.54160,110241
31.54972,110037
31.55785,109071
31.56597,112807
31.57408,103533
31.58222,106697
31.59033,104859
31.59845,103885
31.60658,110712
31.61470,104250
31.62283,107322
31.63095,101333
31.63907,103973
31.64720,105830
31.65532,107512
31.66345,107832
31.67157,108535
31.67968,105734
31.68782,102672
31.69593,100631
31.70407,102171
31.71218,97100
31.72030,98843
31.72843,99981
31.73655,93352
31.74467,96908
31.75280,101010
31.76092,97543
31.76905,93492
31.77717,100571
31.78528,101719
31.79342,100437
31.80153,102784
31.80967,100742
31.81778,105796
31.82590,105565
31.83403,102832
31.84215,105421
31.85027,115977
31.85840,141724
31.86652,178809
31.87465,249448
31.88277,328177
31.89088,465867
31.89902,626129
31.90713,856265
31.91527,1063916
31.92338,1323293
31.93150,1585844
31.93963,1818630
31.94775,2001246
31.95588,2194312
31.96400,2395166
31.97212,2445987
31.98025,2474640
31.98837,2428650
31.99648,2366255
32.00462,2241513
32.01273,2131024
32.02087,2016755
32.02898,1882540
32.03710,1696580
32.04523,1523814
32.05335,1410876
32.06148,1303997
32.06960,1213229
32.07772,1080794
32.08585,967728
32.09397,865086
32.10208,762555
32.11022,705140
32.11833,641134
32.12647,578145
32.13458,527151
32.14270,488540
32.15083,462299
32.15895,422091
32.16708,396120
32.17520,377879
32.18332,352513
32.19145,349571
32.19957,311734
32.20770,298888
32.21582,293742
32.22393,278288
32.23207,263067
32.24018,255419
32.24830,254165
32.25643,238281
32.26455,233017
32.27268,224253
32.28080,219062
32.28892,214520
32.29705,208657
32.30517,207560
32.31330,204156
32.32142,197013
32.32953,198564
32.33767,192111
32.34578,187123
32.35392,192369
32.36203,188632
32.37015,181409
32.37828,179516
32.38640,175438
32.39452,170130
32.40265,167121
32.41077,159392
32.41890,159248
32.42702,158352
32.43513,159419
32.44327,156267
32.45138,154397
32.45952,162779
32.46763,155961
32.47575,149399
32.48388,149613
32.49200,143925
32.50012,146849
32.50825,142690
32.51637,136561
32.52450,143032
32.53262,135910
32.54073,144945
32.54887,138388
32.55698,140829
32.56512,138783
32.57323,130092
32.58135,139572
32.58948,130995
32.59760,132499
32.60573,134921
32.61385,143724
32.62197,165397
32.63010,203223
32.63822,257103
32.64633,296346
32.65447,329682
32.66258,321126
32.67072,287320
32.67883,250966
32.68695,204761
32.69508,175565
32.70320,163128
32.71133,150477
32.71945,145184
32.72757,141639
32.73570,137912
32.74382,133169
32.75195,130052
32.76007,129589
32.76818,122562
32.77632,129364
32.78443,124748
32.79255,124684
32.80068,122279
32.80880,116055
32.81693,122107
32.82505,122227
32.83317,115813
32.84130,118453
32.84942,114302
32.85755,114518
32.86567,111895
32.87378,110773
32.88192,115883
32.89003,114244
32.89815,108343
32.90628,111324
32.91440,116778
32.92253,113699
32.93065,110576
32.93877,109622
32.94690,115368
32.95502,106702
32.96315,105506
32.97127,105304
32.97938,109462
32.98752,114809
32.99563,106035
33.00377,104597
33.01188,106372
33.02000,103079
33.02813,103919
33.03625,97972
33.04437,106786
33.05250,104557
33.06062,102218
33.06875,101642
33.07687,104352
33.08498,106597
33.09312,104524
33.10123,113732
33.10937,126973
33.11748,119399
33.12560,127615
33.13373,117279
33.14185,115991
33.14997,115832
33.15810,113094
33.16622,115070
33.17435,115409
33.18247,118271
33.19058,119000
33.19872,120618
33.20683,116717
33.21497,110041
33.22308,109722
33.23120,103841
33.23933,101403
33.24745,103796
33.25558,100542
33.26370,99681
33.27182,98698
33.27995,99807
33.28807,104957
33.29618,101801
33.30432,101971
33.31243,100442
33.32057,100610
33.32868,95603
33.33680,97378
33.34493,101259
33.35305,95315
33.36118,94967
33.36930,97407
33.37742,94549
33.38555,95598
33.39367,97745
33.40180,95556
33.40992,102300
33.41803,97014
33.42617,95062
33.43428,94944
33.44240,93166
33.45053,90942
33.45865,93646
33.46678,97455
33.47490,88934
33.48302,93725
33.49115,94496
33.49927,91207
33.50740,95717
33.51552,89701
33.52363,87934
33.53177,94850
33.53988,91249
33.54800,89321
33.55613,88951
33.56425,94233
33.57238,91267
33.58050,93287
33.58862,93774
33.59675,93332
33.60487,94454
33.61300,91647
33.62112,93421
33.62923,89089
33.63737,92775
33.64548,95410
33.65362,92456
33.66173,88922
33.66985,87354
33.67798,85898
33.68610,88621
33.69422,86377
33.70235,89640
33.71047,84853
33.71860,93797
33.72672,90015
33.73483,82662
33.74297,82836
33.75108,85705
33.75922,84545
33.76733,81821
33.77545,84755
33.78358,85527
33.79170,82930
33.79983,90943
33.80795,93252
33.81607,94412
33.82420,93266
33.83232,92043
33.84043,91959
33.84857,91995
33.85668,94382
33.86482,84318
33.87293,88429
33.88105,91894
33.88918,95678
33.89730,92075
33.90543,90596
33.91355,95020
33.92167,94891
33.92980,98328
33.93792,96127
33.94603,93183
33.95417,92042
33.96228,91544
33.97042,89220
33.97853,91869
33.98665,94143
33.99478,86069
34.00290,84824
34.01103,83362
34.01915,85628
34.02727,83864
34.03540,88494
34.04352,83135
34.05165,85992
34.05977,88759
34.06788,89492
34.07602,83103
34.08413,85705
34.09225,87194
34.10038,84605
34.10850,86214
34.11663,83980
34.12475,87125
34.13287,83417
34.14100,85482
34.14912,79567
34.15725,83350
34.16537,88352
34.17348,82342
34.18162,84764
34.18973,79243
34.19785,81492
34.20598,77051
34.21410,78242
34.22223,83388
34.23035,81965
34.23847,87817
34.24660,83194
34.25472,77144
34.26285,80220
34.27097,78517
34.27908,80695
34.28722,79311
34.29533,79608
34.30347,80897
34.31158,80639
34.31970,81820
34.32783,83287
34.33595,83825
34.34407,78947
34.35220,79254
34.36032,78699
34.36845,79243
34.37657,83399
34.38468,83577
34.39282,84020
34.40093,82469
34.40907,78271
34.41718,80585
34.42530,80169
34.43343,70367
34.44155,80475
34.44968,77763
34.45780,84819
34.46592,95751
34.47405,135496
34.48217,185987
34.49028,300208
34.49842,484134
34.50653,702942
34.51467,955164
34.52278,1237056
34.53090,1509289
34.53903,1683493
34.54715,1757731
34.55528,1780222
34.56340,1698452
34.57152,1528952
34.57965,1349885
34.58777,1166502
34.59588,1001983
34.60402,858495
34.61213,741162
34.62027,639349
34.62838,576888
34.63650,504540
34.64463,443772
34.65275,399881
34.66088,374369
34.66900,344186
34.67712,332782
34.68525,306910
34.69337,297079
34.70150,282682
34.70962,275071
34.71773,262071
34.72587,259463
34.73398,237641
34.74210,237764
34.75023,226468
34.75835,217347
34.76648,206205
34.77460,207452
34.78272,202564
34.79085,198075
34.79897,197942
34.80710,184897
34.81522,183515
34.82333,180808
34.83147,177257
34.83958,166098
34.84772,171732
34.85583,174200
34.86395,164991
34.87208,155505
34.88020,157274
34.88832,155662
34.89645,149619
34.90457,156784
34.91270,152549
34.92082,151542
34.92893,153704
34.93707,154301
34.94518,148148
34.95332,151894
34.96143,148496
34.96955,143013
34.97768,139839
34.98580,137760
34.99392,137272
35.00205,132717
35.01017,135509
35.01830,130601
35.02642,130672
35.03453,133323
35.04267,134491
35.05078,130433
35.05892,131872
35.06703,126901
35.07515,126262
35.08328,122197
35.09140,132788
35.09953,128458
35.10765,125450
35.11577,124053
35.12390,131106
35.13202,130494
35.14013,139482
35.14827,139923
35.15638,138128
35.16452,131304
35.17263,130887
35.18075,127898
35.18888,119822
35.19700,122114
35.20513,114692
35.21325,117911
35.22137,111778
35.22950,117551
35.23762,113678
35.24575,116943
35.25387,114445
35.26198,117035
35.27012,119055
35.27823,118260
35.28635,110448
35.29448,112385
35.30260,111016
35.31073,114950
35.31885,113400
35.32697,110874
35.33510,104253
35.34322,108642
35.35135,110066
35.35947,107222
35.36758,106966
35.37572,108406
35.38383,108194
35.39195,104667
35.40008,106033
35.40820,112843
35.41633,105439
35.42445,104280
35.43257,103515
35.44070,107338
35.44882,109862
35.45695,112675
35.46507,119287
35.47318,113398
35.48132,112957
35.48943,110973
35.49757,112023
35.50568,105314
35.51380,105824
35.52193,105889
35.53005,110005
35.53817,108522
35.54630,110558
35.55442,113264
35.56255,105561
35.57067,110960
35.57878,104662
35.58692,110825
35.59503,108200
35.60317,106005
35.61128,109917
35.61940,108263
35.62753,114480
35.63565,115589
35.64377,122091
35.65190,133874
35.66002,137780
35.66815,139792
35.67627,131646
35.68438,119974
35.69252,119483
35.70063,110226
35.70877,110008
35.71688,107091
35.72500,102579
35.73313,102376
35.74125,106856
35.74938,103182
35.75750,105144
35.76562,102617
35.77375,107695
35.78187,104646
35.78998,102879
35.79812,103276
35.80623,100291
35.81437,101718
35.82248,112459
35.83060,108643
35.83873,101677
35.84685,105181
35.85498,105661
35.86310,106423
35.87122,106904
35.87935,98618
35.88747,96071
35.89560,100580
35.90372,101915
35.91183,100711
35.91997,96336
35.92808,96849
35.93620,95256
35.94433,97414
35.95245,93540
35.96058,90057
35.96870,94757
35.97682,95755
35.98495,99253
35.99307,102757
36.00120,104115
36.00932,100959
36.01743,109419
36.02557,107507
36.03368,110653
36.04180,109296
36.04993,102010
36.05805,101796
36.06618,101310
36.07430,100649
36.08242,97185
36.09055,104968
36.09867,98547
36.10680,97663
36.11492,97335
36.12303,97702
36.13117,98640
36.13928,97606
36.14742,96383
36.15553,96316
36.16365,94162
36.17178,104075
36.17990,96334
36.18802,93980
36.19615,98203
36.20427,97830
36.21240,96284
36.22052,96503
36.22863,90196
36.23677,95362
36.24488,102444
36.25302,97662
36.26113,106137
36.26925,133041
36.27738,158986
36.28550,202731
36.29363,236698
36.30175,253997
36.30987,243373
36.31800,217732
36.32612,183446
36.33423,152445
36.34237,127309
36.35048,119805
36.35862,109406
36.36673,107656
36.37485,102893
36.38298,104394
36.39110,100327
36.39923,96793
36.40735,100489
36.41547,102190
36.42360,99211
36.43172,93658
36.43983,98155
36.44797,88549
36.45608,91930
36.46422,95349
36.47233,89675
36.48045,93019
36.48858,87012
36.49670,89228
36.50483,87667
36.51295,95754
36.52107,91715
36.52920,91192
36.53732,93068
36.54545,92046
36.55357,93083
36.56168,93049
36.56982,100110
36.57793,87748
36.58605,95312
36.59418,90730
36.60230,90946
36.61043,96445
36.61855,98252
36.62667,98931
36.63480,103229
36.64292,108582
36.65105,104689
36.65917,101082
36.66728,97177
36.67542,95847
36.68353,100802
36.69165,94742
36.69978,91494
36.70790,99671
36.71603,93104
36.72415,91976
36.73227,93618
36.74040,92308
36.74852,90376
36.75665,94930
36.76477,93860
36.77288,94460
36.78102,92015
36.78913,87851
36.79727,92569
36.80538,94624
36.81350,87149
36.82163,93174
36.82975,91319
36.83787,91675
36.84600,88600
36.85412,90093
36.86225,88624
36.87037,91960
36.87848,86782
36.88662,85722
36.89473,84277
36.90287,87681
36.91098,87061
36.91910,91101
36.92723,90115
36.93535,84024
36.94348,84501
36.95160,88359
36.95972,89030
36.96785,88543
36.97597,93298
36.98408,86550
36.99222,87139
37.00033,85219
37.00847,88752
37.01658,85073
37.02470,87788
37.03283,89059
37.04095,87255
37.04908,86497
37.05720,88341
37.06532,84319
37.07345,92381
37.08157,90107
37.08970,90502
37.09782,84290
37.10593,86580
37.11407,86543
37.12218,83872
37.13030,91014
37.13843,88325
37.14655,92584
37.15468,94467
37.16280,92230
37.17092,95187
37.17905,92105
37.18717,91733
37.19530,93301
37.20342,90438
37.21153,93565
37.21967,91347
37.22778,85787
37.23590,89663
37.24403,90673
37.25215,90635
37.26028,89869
37.26840,97134
37.27652,115894
37.28465,155951
37.29277,237508
37.30090,396965
37.30902,584957
37.31713,793678
37.32527,1024418
37.33338,1117564
37.34152,1136020
37.34963,1053282
37.35775,929869
37.36588,814130
37.37400,710799
37.38212,600931
37.39025,513850
37.39837,461629
37.40650,398752
37.41462,377746
37.42273,336770
37.43087,320559
37.43898,300144
37.44712,285595
37.45523,277280
37.46335,259042
37.47148,241755
37.47960,235123
37.48772,231727
