C:\MassHunter\GCMS\1\data\JTB-E18\JTB-E18-026-13.D Tue Sep 17 08:59:00 2019
Start of data points
2.09527	49288
2.10338	55576
2.11150	54775
2.11963	60070
2.12775	66748
2.13588	75502
2.14400	84242
2.15212	84555
2.16025	92966
2.16837	89776
2.17650	95057
2.18462	98149
2.19273	88957
2.20087	87886
2.20898	88740
2.21710	87667
2.22523	81651
2.23335	74896
2.24148	76488
2.24960	74722
2.25772	73802
2.26585	163942
2.27397	1505075
2.28210	3869060
2.29022	2743921
2.29833	1284367
2.30647	813891
2.31458	633405
2.32270	572228
2.33083	482767
2.33895	472457
2.34708	414587
2.35520	351511
2.36332	306832
2.37145	284037
2.37957	273829
2.38770	288910
2.39582	262312
2.40393	393117
2.41207	601035
2.42018	907766
2.42832	1659614
2.43643	1099545
2.44455	731135
2.45268	615793
2.46080	515949
2.46892	449139
2.47705	378425
2.48517	364872
2.49330	395443
2.50142	393899
2.50953	328971
2.51767	313881
2.52578	293346
2.53392	265359
2.54203	267907
2.55015	267419
2.55828	346800
2.56640	518986
2.57452	447779
2.58265	329399
2.59077	274240
2.59890	246552
2.60702	232164
2.61513	228474
2.62327	224974
2.63138	213620
2.63952	188282
2.64763	185768
2.65575	183905
2.66388	168844
2.67200	177281
2.68013	167421
2.68825	159554
2.69637	161990
2.70450	159391
2.71262	150592
2.72073	149879
2.72887	149152
2.73698	140661
2.74512	139957
2.75323	131872
2.76135	138351
2.76948	134730
2.77760	133761
2.78573	136978
2.79385	130805
2.80197	131283
2.81010	134157
2.81822	128043
2.82635	127537
2.83447	130704
2.84258	128601
2.85072	118912
2.85883	117486
2.86695	121206
2.87508	121142
2.88320	116972
2.89133	121630
2.89945	117658
2.90757	119821
2.91570	115426
2.92382	111877
2.93195	115368
2.94007	109200
2.94818	109489
2.95632	107722
2.96443	108502
2.97255	109748
2.98068	106459
2.98880	103466
2.99693	100180
3.00505	105076
3.01317	104109
3.02130	103865
3.02942	101860
3.03755	95953
3.04567	105803
3.05378	102621
3.06192	110201
3.07003	100057
3.07817	94661
3.08628	98961
3.09440	98784
3.10253	116920
3.11065	160574
3.11877	180279
3.12690	158746
3.13502	143583
3.14315	139011
3.15127	129198
3.15938	119140
3.16752	118508
3.17563	118130
3.18377	116267
3.19188	108374
3.20000	108152
3.20813	104788
3.21625	104054
3.22438	101795
3.23250	98039
3.24062	104924
3.24875	99598
3.25687	95116
3.26498	98902
3.27312	142128
3.28123	822267
3.28937	6749482
3.29748	2.819774E+07
3.30560	5.184552E+07
3.31373	5.955843E+07
3.32185	5.097095E+07
3.32998	3.66106E+07
3.33810	2.530719E+07
3.34622	1.784643E+07
3.35435	1.316221E+07
3.36247	1.003659E+07
3.37058	7907144
3.37872	6408406
3.38683	5293739
3.39497	4472337
3.40308	3891126
3.41120	3410721
3.41933	3069499
3.42745	2755270
3.43558	2498868
3.44370	2288556
3.45182	2107715
3.45995	2003906
3.46807	1877747
3.47620	1744400
3.48432	1664591
3.49243	1590304
3.50057	1495578
3.50868	1429784
3.51680	1373231
3.52493	1311126
3.53305	1231901
3.54118	1181945
3.54930	1142123
3.55742	1088515
3.56555	1037266
3.57367	1009453
3.58180	969253
3.58992	932774
3.59803	902042
3.60617	902570
3.61428	865596
3.62240	876146
3.63053	847058
3.63865	819521
3.64678	788199
3.65490	757234
3.66302	757517
3.67115	730052
3.67927	726312
3.68740	716989
3.69552	680359
3.70363	681406
3.71177	665614
3.71988	660188
3.72802	623896
3.73613	608221
3.74425	616362
3.75238	595353
3.76050	588729
3.76862	592494
3.77675	571532
3.78487	571957
3.79300	554714
3.80112	547352
3.80923	552378
3.81737	543036
3.82548	529354
3.83362	528990
3.84173	519966
3.84985	519055
3.85798	498341
3.86610	502292
3.87423	484641
3.88235	485008
3.89047	475102
3.89860	466564
3.90672	461432
3.91483	460938
3.92297	445204
3.93108	448066
3.93922	446614
3.94733	448725
3.95545	431530
3.96358	438910
3.97170	423385
3.97983	428679
3.98795	419031
3.99607	418477
4.00420	409402
4.01232	419875
4.02045	426281
4.02857	419963
4.03668	408794
4.04482	405307
4.05293	409919
4.06105	391671
4.06918	392634
4.07730	390442
4.08543	385341
4.09355	378618
4.10167	381442
4.10980	369252
4.11792	374453
4.12605	370702
4.13417	383381
4.14228	445950
4.15042	582086
4.15853	666890
4.16665	633235
4.17478	550717
4.18290	487329
4.19103	456394
4.19915	428420
4.20727	411628
4.21540	391287
4.22352	385054
4.23165	386114
4.23977	383266
4.24788	376401
4.25602	367927
4.26413	359074
4.27227	354355
4.28038	345985
4.28850	333258
4.29663	327655
4.30475	332264
4.31287	322902
4.32100	320857
4.32912	335492
4.33725	328108
4.34537	327431
4.35348	325348
4.36162	342556
4.36973	342802
4.37787	344512
4.38598	332317
4.39410	325333
4.40223	321829
4.41035	319178
4.41847	302575
4.42660	297975
4.43472	303999
4.44285	287916
4.45097	295026
4.45908	283123
4.46722	287752
4.47533	285677
4.48347	285058
4.49158	275970
4.49970	278629
4.50783	278214
4.51595	274049
4.52408	274662
4.53220	276491
4.54032	264900
4.54845	271706
4.55657	268336
4.56468	265083
4.57282	263516
4.58093	267928
4.58907	249658
4.59718	262575
4.60530	259824
4.61343	257801
4.62155	256843
4.62968	251204
4.63780	253978
4.64592	251911
4.65405	252195
4.66217	252804
4.67030	249560
4.67842	246057
4.68653	245638
4.69467	244195
4.70278	250036
4.71090	234450
4.71903	235135
4.72715	236937
4.73528	229922
4.74340	232493
4.75152	232071
4.75965	240222
4.76777	237718
4.77590	237523
4.78402	228749
4.79213	234417
4.80027	227689
4.80838	228885
4.81650	233989
4.82463	228684
4.83275	230533
4.84088	236641
4.84900	233832
4.85712	236460
4.86525	229269
4.87337	229960
4.88150	226354
4.88962	225091
4.89773	235369
4.90587	246880
4.91398	445957
4.92212	1517918
4.93023	6006254
4.93835	1.699479E+07
4.94648	3.120887E+07
4.95460	3.89761E+07
4.96272	3.732218E+07
4.97085	2.96255E+07
4.97897	2.017979E+07
4.98710	1.264014E+07
4.99522	8099095
5.00333	5513172
5.01147	4210833
5.01958	3286231
5.02772	2684359
5.03583	2282683
5.04395	1975698
5.05208	1769618
5.06020	1618835
5.06833	1475697
5.07645	1359645
5.08457	1265863
5.09270	1182623
5.10082	1092850
5.10893	1042061
5.11707	948877
5.12518	917077
5.13332	881145
5.14143	847476
5.14955	824366
5.15768	786752
5.16580	761162
5.17393	744932
5.18205	732209
5.19017	712147
5.19830	685182
5.20642	675400
5.21453	658813
5.22267	654207
5.23078	660555
5.23892	679087
5.24703	687224
5.25515	666784
5.26328	651502
5.27140	610214
5.27953	570613
5.28765	559441
5.29577	555492
5.30390	539235
5.31202	525521
5.32015	513607
5.32827	500792
5.33638	493545
5.34452	496386
5.35263	490089
5.36075	485973
5.36888	472358
5.37700	460216
5.38513	469067
5.39325	450821
5.40137	448051
5.40950	440885
5.41762	429474
5.42575	431528
5.43387	428135
5.44198	431596
5.45012	418350
5.45823	420871
5.46635	409318
5.47448	405670
5.48260	396778
5.49073	402185
5.49885	398404
5.50697	399270
5.51510	386536
5.52322	384619
5.53135	377473
5.53947	388321
5.54758	375009
5.55572	386695
5.56383	362583
5.57197	354731
5.58008	366376
5.58820	370689
5.59633	364957
5.60445	365647
5.61257	362182
5.62070	388197
5.62882	402001
5.63695	427542
5.64507	422703
5.65318	404679
5.66132	385510
5.66943	394629
5.67757	424708
5.68568	508488
5.69380	549378
5.70193	560029
5.71005	504501
5.71818	442979
5.72630	393048
5.73442	365775
5.74255	344615
5.75067	333662
5.75878	345872
5.76692	324750
5.77503	333574
5.78317	318358
5.79128	318252
5.79940	318683
5.80753	313476
5.81565	312786
5.82378	313466
5.83190	297695
5.84002	308106
5.84815	299948
5.85627	292312
5.86438	299912
5.87252	296490
5.88063	297118
5.88877	294481
5.89688	296429
5.90500	262192
5.91313	251863
5.92125	231670
5.92938	215387
5.93750	214313
5.94562	216214
5.95375	213036
5.96187	215963
5.97000	220511
5.97812	231300
5.98623	236308
5.99437	228282
6.00248	230656
6.01060	219482
6.01873	214843
6.02685	212167
6.03498	212353
6.04310	203180
6.05122	205036
6.05935	205584
6.06747	197251
6.07560	196847
6.08372	197783
6.09183	196214
6.09997	190447
6.10808	188245
6.11622	192262
6.12433	186961
6.13245	197684
6.14058	190781
6.14870	188065
6.15682	196246
6.16495	194406
6.17307	195502
6.18120	196343
6.18932	198558
6.19743	203060
6.20557	199957
6.21368	200289
6.22182	207508
6.22993	207474
6.23805	208335
6.24618	209949
6.25430	212286
6.26242	213230
6.27055	219477
6.27867	220880
6.28680	222172
6.29492	222846
6.30303	224288
6.31117	226113
6.31928	231544
6.32742	235792
6.33553	228964
6.34365	243666
6.35178	237396
6.35990	246971
6.36803	246143
6.37615	246827
6.38427	251560
6.39240	248138
6.40052	252990
6.40863	254364
6.41677	254844
6.42488	262898
6.43302	277850
6.44113	286938
6.44925	294276
6.45738	278483
6.46550	276596
6.47363	281420
6.48175	273883
6.48987	283172
6.49800	284683
6.50612	276894
6.51423	277799
6.52237	276853
6.53048	282873
6.53862	283977
6.54673	273402
6.55485	282743
6.56298	286938
6.57110	278983
6.57923	279020
6.58735	227675
6.59547	214820
6.60360	204912
6.61172	196951
6.61985	194183
6.62797	188357
6.63608	190016
6.64422	180656
6.65233	182186
6.66045	177350
6.66858	174446
6.67670	180279
6.68483	180467
6.69295	174690
6.70107	175239
6.70920	171070
6.71732	169677
6.72545	170652
6.73357	174375
6.74168	175091
6.74982	163489
6.75793	167737
6.76607	169927
6.77418	169151
6.78230	164346
6.79043	169431
6.79855	159393
6.80667	169555
6.81480	163058
6.82292	158734
6.83105	157409
6.83917	161636
6.84728	155999
6.85542	134468
6.86353	123960
6.87167	118882
6.87978	114855
6.88790	113203
6.89603	116948
6.90415	109835
6.91227	109587
6.92040	102547
6.92852	109667
6.93665	98577
6.94477	102753
6.95288	101349
6.96102	99198
6.96913	99479
6.97727	99526
6.98538	100868
6.99350	96129
7.00163	99809
7.00975	100165
7.01788	94957
7.02600	103946
7.03412	102164
7.04225	93280
7.05037	98793
7.05848	94948
7.06662	91734
7.07473	97754
7.08287	92613
7.09098	98932
7.09910	92924
7.10723	94866
7.11535	95795
7.12348	93131
7.13160	91459
7.13972	93723
7.14785	94981
7.15597	87860
7.16410	91700
7.17222	96523
7.18033	91694
7.18847	100312
7.19658	96139
7.20470	99873
7.21283	92674
7.22095	91307
7.22908	91224
7.23720	87621
7.24532	90508
7.25345	96110
7.26157	91068
7.26970	89323
7.27782	91377
7.28593	89636
7.29407	94074
7.30218	93127
7.31030	90176
7.31843	89636
7.32655	91317
7.33468	89742
7.34280	89890
7.35092	93638
7.35905	88617
7.36717	90648
7.37530	93722
7.38342	89714
7.39153	92132
7.39967	96344
7.40778	102715
7.41592	105576
7.42403	117901
7.43215	122714
7.44028	132123
7.44840	126870
7.45652	121815
7.46465	108774
7.47277	100830
7.48090	96025
7.48902	95915
7.49713	86546
7.50527	92633
7.51338	90418
7.52152	90378
7.52963	89795
7.53775	91336
7.54588	87873
7.55400	91544
7.56213	89201
7.57025	88785
7.57837	88606
7.58650	90295
7.59462	87492
7.60273	83685
7.61087	88783
7.61898	84266
7.62712	91305
7.63523	85416
7.64335	82986
7.65148	85205
7.65960	81170
7.66773	83171
7.67585	84861
7.68397	90359
7.69210	90555
7.70022	81124
7.70833	84657
7.71647	87560
7.72458	80555
7.73272	83265
7.74083	77246
7.74895	77813
7.75708	80952
7.76520	82030
7.77333	83618
7.78145	80044
7.78957	80038
7.79770	84671
7.80582	82708
7.81395	79882
7.82207	76946
7.83018	78093
7.83832	80330
7.84643	73341
7.85455	75546
7.86268	76728
7.87080	80866
7.87893	72747
7.88705	76071
7.89517	78292
7.90330	79732
7.91142	72878
7.91955	73921
7.92767	78719
7.93578	74495
7.94392	74911
7.95203	76435
7.96015	81298
7.96828	75393
7.97640	89129
7.98453	83537
7.99265	76789
8.00077	81588
8.00890	77503
8.01702	75190
8.02515	71467
8.03327	76276
8.04138	69247
8.04952	75869
8.05763	76490
8.06577	75159
8.07388	73651
8.08200	81178
8.09013	78376
8.09825	73270
8.10637	75700
8.11450	73602
8.12262	75713
8.13075	71413
8.13887	72915
8.14698	76810
8.15512	77858
8.16323	78467
8.17137	82660
8.17948	80265
8.18760	76892
8.19573	78995
8.20385	72582
8.21198	72194
8.22010	72604
8.22822	76128
8.23635	74108
8.24447	75732
8.25258	75988
8.26072	69954
8.26883	71060
8.27697	74899
8.28508	72982
8.29320	72358
8.30133	70585
8.30945	73527
8.31758	75552
8.32570	83680
8.33382	77716
8.34195	82867
8.35007	86703
8.35818	86489
8.36632	85204
8.37443	79370
8.38257	76687
8.39068	74643
8.39880	73310
8.40693	75099
8.41505	71967
8.42318	73444
8.43130	72277
8.43942	71457
8.44755	71259
8.45567	74009
8.46380	73571
8.47192	82072
8.48003	247904
8.48817	650897
8.49628	515011
8.50440	235883
8.51253	160206
8.52065	141296
8.52878	134100
8.53690	131106
8.54502	117258
8.55315	117192
8.56127	143065
8.56940	238946
8.57752	263341
8.58563	199071
8.59377	164444
8.60188	146862
8.61002	141402
8.61813	136207
8.62625	129950
8.63438	121999
8.64250	142534
8.65062	153965
8.65875	130717
8.66687	117202
8.67500	113927
8.68312	100604
8.69123	98542
8.69937	94201
8.70748	96563
8.71562	104725
8.72373	156889
8.73185	397828
8.73998	1205583
8.74810	3175568
8.75622	6536226
8.76435	9796953
8.77247	1.07143E+07
8.78060	9012621
8.78872	6071533
8.79683	3667906
8.80497	2171626
8.81308	1503951
8.82122	1133431
8.82933	926714
8.83745	782064
8.84558	657177
8.85370	577172
8.86183	509790
8.86995	463162
8.87807	581979
8.88620	4378573
8.89432	1.898757E+07
8.90243	2.098255E+07
8.91057	1.000732E+07
8.91868	4657699
8.92682	2806962
8.93493	1922676
8.94305	1421074
8.95118	1160282
8.95930	950310
8.96743	821140
8.97555	710999
8.98367	656901
8.99180	588282
8.99992	551458
9.00803	507610
9.01617	469578
9.02428	441953
9.03242	406853
9.04053	396332
9.04865	376352
9.05678	353024
9.06490	339504
9.07303	329379
9.08115	322462
9.08927	300189
9.09740	296891
9.10552	300005
9.11365	280903
9.12177	279846
9.12988	265071
9.13802	256273
9.14613	262188
9.15425	262730
9.16238	261781
9.17050	257676
9.17863	246572
9.18675	243188
9.19487	229641
9.20300	222791
9.21112	225393
9.21925	209249
9.22737	215014
9.23548	214676
9.24362	196052
9.25173	206906
9.25987	201118
9.26798	220846
9.27610	247236
9.28423	230002
9.29235	209335
9.30047	200042
9.30860	192497
9.31672	193313
9.32485	186568
9.33297	184423
9.34108	170993
9.34922	169204
9.35733	168175
9.36547	161680
9.37358	203820
9.38170	925410
9.38983	5175158
9.39795	1.208681E+07
9.40608	1.16228E+07
9.41420	6382682
9.42232	3197540
9.43045	1938356
9.43857	1347529
9.44668	1013152
9.45482	796779
9.46293	652712
9.47107	557810
9.47918	483547
9.48730	426193
9.49543	395857
9.50355	362372
9.51168	341228
9.51980	326327
9.52792	294586
9.53605	287111
9.54417	266781
9.55228	242424
9.56042	222999
9.56853	211300
9.57667	197469
9.58478	202159
9.59290	189155
9.60103	185663
9.60915	180208
9.61728	175677
9.62540	172619
9.63352	167039
9.64165	162164
9.64977	160006
9.65790	154534
9.66602	148588
9.67413	153725
9.68227	143881
9.69038	142434
9.69850	139753
9.70663	135723
9.71475	132941
9.72288	131228
9.73100	128210
9.73912	130105
9.74725	130528
9.75537	135389
9.76350	128129
9.77162	124574
9.77973	126447
9.78787	119071
9.79598	122415
9.80410	125313
9.81223	121972
9.82035	130826
9.82848	123849
9.83660	130480
9.84472	133732
9.85285	132377
9.86097	130403
9.86910	120967
9.87722	120602
9.88533	114721
9.89347	124117
9.90158	135300
9.90972	142051
9.91783	133714
9.92595	116424
9.93408	118742
9.94220	112288
9.95032	116087
9.95845	118005
9.96657	128294
9.97470	145885
9.98282	162672
9.99093	189558
9.99907	189722
10.00718	194545
10.01532	178737
10.02343	160739
10.03155	150336
10.03968	144378
10.04780	132626
10.05593	132830
10.06405	129919
10.07217	131398
10.08030	124559
10.08842	126173
10.09653	121899
10.10467	120383
10.11278	132000
10.12092	138155
10.12903	147323
10.13715	151895
10.14528	158015
10.15340	168227
10.16153	158661
10.16965	134045
10.17777	122702
10.18590	122191
10.19402	117427
10.20213	123598
10.21027	132254
10.21838	157048
10.22652	171542
10.23463	183237
10.24275	184912
10.25088	167860
10.25900	148020
10.26713	131377
10.27525	120767
10.28337	114982
10.29150	109358
10.29962	106034
10.30775	107306
10.31587	107820
10.32398	102903
10.33212	104701
10.34023	110129
10.34835	101874
10.35648	104653
10.36460	103257
10.37273	98182
10.38085	100230
10.38897	96942
10.39710	95582
10.40522	98467
10.41335	98882
10.42147	92080
10.42958	97963
10.43772	96839
10.44583	95181
10.45397	96103
10.46208	90273
10.47020	87852
10.47833	89885
10.48645	88108
10.49457	95051
10.50270	88527
10.51082	86731
10.51895	84287
10.52707	90391
10.53518	96778
10.54332	96821
10.55143	92335
10.55957	85802
10.56768	87320
10.57580	87340
10.58393	87672
10.59205	85513
10.60017	85411
10.60830	89705
10.61642	87290
10.62455	89926
10.63267	85076
10.64078	85767
10.64892	86081
10.65703	82808
10.66517	84493
10.67328	85490
10.68140	88528
10.68953	88027
10.69765	84781
10.70578	87680
10.71390	84646
10.72202	83748
10.73015	80028
10.73827	80247
10.74638	83016
10.75452	89676
10.76263	81797
10.77077	86811
10.77888	81689
10.78700	85843
10.79513	79270
10.80325	81549
10.81138	79238
10.81950	83016
10.82762	79534
10.83575	83145
10.84387	76680
10.85198	77499
10.86012	77931
10.86823	75611
10.87637	76287
10.88448	84122
10.89260	80699
10.90073	83855
10.90885	82897
10.91698	85065
10.92510	87351
10.93322	87168
10.94135	80706
10.94947	81709
10.95760	76786
10.96572	76463
10.97383	96177
10.98197	206696
10.99008	645425
10.99820	1547343
11.00633	2498161
11.01445	2533847
11.02258	1864417
11.03070	1168495
11.03882	711939
11.04695	481334
11.05507	351885
11.06320	270850
11.07132	236724
11.07943	205484
11.08757	190217
11.09568	178649
11.10382	170282
11.11193	164727
11.12005	159337
11.12818	165737
11.13630	163675
11.14442	185376
11.15255	208850
11.16067	231455
11.16880	261996
11.17692	261357
11.18503	241791
11.19317	223258
11.20128	196053
11.20942	168552
11.21753	157055
11.22565	146258
11.23378	137132
11.24190	133259
11.25002	123947
11.25815	126798
11.26627	125079
11.27440	126528
11.28252	122725
11.29063	120697
11.29877	118975
11.30688	123056
11.31502	120856
11.32313	114999
11.33125	122547
11.33938	120264
11.34750	118279
11.35563	117257
11.36375	115178
11.37187	115526
11.38000	119958
11.38812	116341
11.39623	116094
11.40437	115946
11.41248	109466
11.42062	112200
11.42873	109151
11.43685	111539
11.44498	111185
11.45310	112120
11.46123	109278
11.46935	108558
11.47747	104659
11.48560	104610
11.49372	106348
11.50185	113262
11.50997	107139
11.51808	108239
11.52622	106140
11.53433	99947
11.54245	105882
11.55058	111777
11.55870	102401
11.56683	105257
11.57495	108197
11.58307	101887
11.59120	97827
11.59932	106980
11.60745	105717
11.61557	99527
11.62368	104648
11.63182	101047
11.63993	104813
11.64805	102548
11.65618	98181
11.66430	105130
11.67243	103521
11.68055	101748
11.68867	103298
11.69680	100861
11.70492	109937
11.71305	118756
11.72117	113661
11.72928	122622
11.73742	130270
11.74553	124216
11.75367	123036
11.76178	127070
11.76990	115719
11.77803	113573
11.78615	112632
11.79427	108318
11.80240	111401
11.81052	104370
11.81865	107751
11.82677	101721
11.83488	99670
11.84302	101319
11.85113	99561
11.85927	94798
11.86738	100068
11.87550	93145
11.88363	92113
11.89175	90071
11.89988	94393
11.90800	90991
11.91612	93977
11.92425	92905
11.93237	101310
11.94048	98902
11.94862	95589
11.95673	89701
11.96487	91528
11.97298	88540
11.98110	85728
11.98923	88081
11.99735	81605
12.00548	80425
12.01360	88190
12.02172	88368
12.02985	86979
12.03797	87395
12.04608	85492
12.05422	89519
12.06233	85351
12.07047	83079
12.07858	86737
12.08670	87185
12.09483	86848
12.10295	84464
12.11108	81254
12.11920	91733
12.12732	84178
12.13545	87025
12.14357	89233
12.15170	84620
12.15982	86479
12.16793	87407
12.17607	84380
12.18418	84266
12.19230	83505
12.20043	84279
12.20855	87541
12.21668	91916
12.22480	93586
12.23292	91108
12.24105	94498
12.24917	95694
12.25730	84511
12.26542	90393
12.27353	94148
12.28167	92196
12.28978	88342
12.29790	93109
12.30603	95397
12.31415	96473
12.32228	94279
12.33040	93797
12.33852	94280
12.34665	90976
12.35477	95297
12.36290	91988
12.37102	93069
12.37913	94719
12.38727	92038
12.39538	89457
12.40352	92431
12.41163	91470
12.41975	93130
12.42788	90453
12.43600	93360
12.44412	93941
12.45225	87068
12.46037	94045
12.46850	92175
12.47662	92566
12.48473	92320
12.49287	93047
12.50098	88736
12.50912	89784
12.51723	84259
12.52535	86152
12.53348	87249
12.54160	86709
12.54973	84698
12.55785	85383
12.56597	78683
12.57410	87037
12.58222	82100
12.59033	87089
12.59847	84390
12.60658	83272
12.61472	84831
12.62283	81690
12.63095	84337
12.63908	82909
12.64720	84134
12.65533	84810
12.66345	84487
12.67157	85853
12.67970	85395
12.68782	81624
12.69593	89100
12.70407	85190
12.71218	95873
12.72032	99436
12.72843	109859
12.73655	122440
12.74468	112306
12.75280	111158
12.76093	105155
12.76905	98568
12.77717	93456
12.78530	89425
12.79342	91608
12.80155	85230
12.80967	97888
12.81778	88985
12.82592	85821
12.83403	89829
12.84215	83745
12.85028	87416
12.85840	84446
12.86653	81552
12.87465	79624
12.88277	76643
12.89090	78245
12.89902	78097
12.90715	77928
12.91527	79702
12.92338	78838
12.93152	78275
12.93963	79901
12.94777	77386
12.95588	79142
12.96400	74710
12.97213	78732
12.98025	79596
12.98837	81690
12.99650	79183
13.00462	80637
13.01275	80430
13.02087	74038
13.02898	74789
13.03712	73629
13.04523	77846
13.05337	80251
13.06148	76583
13.06960	75784
13.07773	76787
13.08585	82330
13.09397	75149
13.10210	74568
13.11022	77942
13.11835	75915
13.12647	77182
13.13458	79698
13.14272	90571
13.15083	94438
13.15897	111221
13.16708	124685
13.17520	128419
13.18333	122913
13.19145	110509
13.19958	97223
13.20770	94873
13.21582	84375
13.22395	81542
13.23207	78392
13.24018	75518
13.24832	74909
13.25643	75705
13.26457	74251
13.27268	79214
13.28080	78379
13.28893	79608
13.29705	72806
13.30518	74828
13.31330	77156
13.32142	76552
13.32955	77809
13.33767	73739
13.34578	73573
13.35392	78831
13.36203	75714
13.37017	73941
13.37828	71998
13.38640	76320
13.39453	75818
13.40265	77704
13.41078	76935
13.41890	79461
13.42702	77989
13.43515	70034
13.44327	74535
13.45140	72244
13.45952	70344
13.46763	71884
13.47577	75638
13.48388	73645
13.49200	73289
13.50013	74638
13.50825	72174
13.51638	74129
13.52450	77848
13.53262	77298
13.54075	70708
13.54887	71603
13.55700	76446
13.56512	76293
13.57323	77581
13.58137	75008
13.58948	71135
13.59762	74464
13.60573	76193
13.61385	74053
13.62198	73601
13.63010	74458
13.63822	77693
13.64635	78272
13.65447	76295
13.66260	74687
13.67072	72382
13.67883	73645
13.68697	72911
13.69508	77323
13.70322	73866
13.71133	77238
13.71945	76533
13.72758	78891
13.73570	75292
13.74383	73730
13.75195	77536
13.76007	78112
13.76820	77702
13.77632	81051
13.78443	84968
13.79257	82752
13.80068	83797
13.80882	82860
13.81693	83011
13.82505	80135
13.83318	82545
13.84130	78686
13.84943	78724
13.85755	86794
13.86567	79149
13.87380	87192
13.88192	93390
13.89003	99995
13.89817	108705
13.90628	100151
13.91442	95365
13.92253	90381
13.93065	91949
13.93878	82293
13.94690	90012
13.95503	84254
13.96315	82488
13.97127	83197
13.97940	85237
13.98752	83918
13.99565	86677
14.00377	84965
14.01188	92207
14.02002	99111
14.02813	108465
14.03625	105259
14.04438	104367
14.05250	93861
14.06063	90270
14.06875	86090
14.07687	79780
14.08500	81159
14.09312	79248
14.10125	77139
14.10937	79225
14.11748	82581
14.12562	100781
14.13373	162993
14.14185	348611
14.14998	784652
14.15810	1504830
14.16623	2341172
14.17435	2910171
14.18247	2713868
14.19060	1994821
14.19872	1303178
14.20685	799232
14.21497	528908
14.22308	396268
14.23122	325839
14.23933	292157
14.24747	253571
14.25558	233359
14.26370	216279
14.27183	201358
14.27995	195436
14.28807	177129
14.29620	173863
14.30432	156421
14.31245	152091
14.32057	135461
14.32868	123452
14.33682	107742
14.34493	103223
14.35307	93396
14.36118	95781
14.36930	91407
14.37743	88439
14.38555	92073
14.39368	89532
14.40180	94329
14.40992	86435
14.41805	85113
14.42617	85828
14.43428	84609
14.44242	84908
14.45053	90271
14.45867	83301
14.46678	88078
14.47490	84037
14.48303	89132
14.49115	85363
14.49928	93769
14.50740	89731
14.51552	91248
14.52365	85142
14.53177	82950
14.53988	86955
14.54802	82607
14.55613	84895
14.56427	80447
14.57238	85477
14.58050	81895
14.58863	84421
14.59675	78533
14.60488	85890
14.61300	120059
14.62112	391975
14.62925	595439
14.63737	384817
14.64550	211850
14.65362	168196
14.66173	145308
14.66987	172357
14.67798	303934
14.68610	299899
14.69423	239847
14.70235	199662
14.71048	176083
14.71860	194198
14.72672	254182
14.73485	335799
14.74297	509453
14.75110	735337
14.75922	865635
14.76733	770527
14.77547	580742
14.78358	386986
14.79172	256844
14.79983	237246
14.80795	3701373
14.81608	1.882248E+07
14.82420	1.941988E+07
14.83232	8360680
14.84045	4291964
14.84857	2712649
14.85670	1911966
14.86482	1445876
14.87293	1133765
14.88107	938984
14.88918	799489
14.89732	707249
14.90543	631447
14.91355	567434
14.92168	506045
14.92980	469878
14.93792	437311
14.94605	406913
14.95417	388888
14.96230	980780
14.97042	7369714
14.97853	1.528564E+07
14.98667	9517650
14.99478	4550121
15.00292	2728032
15.01103	1869367
15.01915	1405427
15.02728	1101668
15.03540	902560
15.04353	773944
15.05165	659057
15.05977	588158
15.06790	527307
15.07602	486891
15.08413	440234
15.09227	424250
15.10038	396452
15.10852	370804
15.11663	355750
15.12475	338250
15.13288	330720
15.14100	314753
15.14913	295660
15.15725	289146
15.16537	279025
15.17350	269447
15.18162	263711
15.18973	259317
15.19787	244364
15.20598	241238
15.21412	236020
15.22223	238816
15.23035	221778
15.23848	240979
15.24660	261079
15.25473	238913
15.26285	221421
15.27097	213962
15.27910	207710
15.28722	210491
15.29535	203511
15.30347	200954
15.31158	190157
15.31972	195521
15.32783	219528
15.33595	254164
15.34408	268102
15.35220	264937
15.36033	227787
15.36845	213935
15.37657	196965
15.38470	187662
15.39282	183417
15.40095	189771
15.40907	186677
15.41718	183187
15.42532	180365
15.43343	176001
15.44157	167811
15.44968	165995
15.45780	166263
15.46593	202975
15.47405	578425
15.48217	2086609
15.49030	3501130
15.49842	2873383
15.50655	1631683
15.51467	1001231
15.52278	698428
15.53092	519447
15.53903	425691
15.54717	352764
15.55528	300417
15.56340	272640
15.57153	240662
15.57965	233099
15.58777	215895
15.59590	207995
15.60402	195516
15.61215	192618
15.62027	181646
15.62838	173718
15.63652	171638
15.64463	166999
15.65277	165912
15.66088	163594
15.66900	156511
15.67713	159033
15.68525	155195
15.69338	154653
15.70150	142888
15.70962	144063
15.71775	148208
15.72587	142400
15.73398	142238
15.74212	140462
15.75023	141608
15.75837	134819
15.76648	136784
15.77460	135163
15.78273	129957
15.79085	131364
15.79898	129513
15.80710	131006
15.81522	132578
15.82335	128197
15.83147	130799
15.83960	131579
15.84772	128680
15.85583	128729
15.86397	119712
15.87208	130280
15.88020	122381
15.88833	121981
15.89645	126366
15.90458	127643
15.91270	127435
15.92082	127877
15.92895	122302
15.93707	121150
15.94520	121507
15.95332	126082
15.96143	135168
15.96957	133415
15.97768	133681
15.98580	134402
15.99393	131318
16.00205	137754
16.01018	151292
16.01830	159359
16.02642	169871
16.03455	171040
16.04267	164293
16.05080	164522
16.05892	153217
16.06703	150004
16.07517	143882
16.08328	133412
16.09142	134931
16.09953	129193
16.10765	124912
16.11578	123966
16.12390	127864
16.13202	121343
16.14015	128291
16.14827	127204
16.15640	118827
16.16452	121463
16.17263	117413
16.18077	125341
16.18888	131759
16.19702	122258
16.20513	117900
16.21325	119813
16.22138	121722
16.22950	120532
16.23762	116399
16.24575	120078
16.25387	118766
16.26200	126281
16.27012	118607
16.27823	113524
16.28637	117933
16.29448	118529
16.30262	113058
16.31073	120591
16.31885	110214
16.32698	116708
16.33510	116681
16.34323	125913
16.35135	130509
16.35947	124562
16.36760	118162
16.37572	122248
16.38383	108722
16.39197	112539
16.40008	113421
16.40822	109675
16.41633	115563
16.42445	108114
16.43258	111547
16.44070	110139
16.44883	105702
16.45695	109130
16.46507	105980
16.47320	108396
16.48132	115826
16.48945	109063
16.49757	102490
16.50568	104559
16.51382	101927
16.52193	103254
16.53005	110265
16.53818	104324
16.54630	107866
16.55443	106675
16.56255	105276
16.57067	103998
16.57880	99555
16.58692	111651
16.59505	105646
16.60317	105841
16.61128	108512
16.61942	109505
16.62753	103991
16.63565	102269
16.64378	108112
16.65190	107139
16.66003	105041
16.66815	106289
16.67627	107038
16.68440	104435
16.69252	96398
16.70065	106647
16.70877	102444
16.71688	103284
16.72502	107632
16.73313	106235
16.74127	106870
16.74938	106155
16.75750	103547
16.76563	105645
16.77375	104726
16.78187	108503
16.79000	112672
16.79812	111083
16.80625	111826
16.81437	108494
16.82248	106631
16.83062	109913
16.83873	108519
16.84687	111011
16.85498	107580
16.86310	111348
16.87123	107530
16.87935	110992
16.88748	115391
16.89560	116157
16.90372	109440
16.91185	114630
16.91997	112035
16.92808	113195
16.93622	111055
16.94433	109093
16.95247	112890
16.96058	110882
16.96870	109034
16.97683	108085
16.98495	113900
16.99308	112844
17.00120	112827
17.00932	113432
17.01745	108014
17.02557	110984
17.03368	106851
17.04182	112319
17.04993	109189
17.05807	107312
17.06618	117965
17.07430	141466
17.08243	250247
17.09055	516417
17.09868	800825
17.10680	829587
17.11492	623486
17.12305	400744
17.13117	291878
17.13930	233059
17.14742	190235
17.15553	168566
17.16367	156045
17.17178	150596
17.17990	140215
17.18803	130893
17.19615	128227
17.20428	127702
17.21240	125367
17.22052	115697
17.22865	112209
17.23677	118879
17.24490	112569
17.25302	112138
17.26113	110439
17.26927	111537
17.27738	108593
17.28552	108590
17.29363	110082
17.30175	114132
17.30988	117315
17.31800	118508
17.32612	125217
17.33425	129807
17.34237	124567
17.35050	127455
17.35862	120843
17.36673	120927
17.37487	118791
17.38298	117339
17.39112	114868
17.39923	110234
17.40735	110170
17.41548	112974
17.42360	111324
17.43172	111286
17.43985	110591
17.44797	108453
17.45610	111592
17.46422	103869
17.47233	104922
17.48047	102085
17.48858	105896
17.49672	107198
17.50483	109429
17.51295	104952
17.52108	111079
17.52920	107195
17.53733	105859
17.54545	113761
17.55357	107299
17.56170	110600
17.56982	104409
17.57793	105931
17.58607	99259
17.59418	96076
17.60232	101506
17.61043	97839
17.61855	96600
17.62668	91987
17.63480	97637
17.64293	102418
17.65105	96662
17.65917	102679
17.66730	107753
17.67542	107398
17.68353	118257
17.69167	112458
17.69978	112235
17.70792	112557
17.71603	107004
17.72415	101312
17.73228	101563
17.74040	97317
17.74853	97930
17.75665	96167
17.76477	99001
17.77290	97017
17.78102	99080
17.78915	96862
17.79727	94157
17.80538	101227
17.81352	97383
17.82163	98996
17.82975	102156
17.83788	101828
17.84600	100559
17.85413	100771
17.86225	104455
17.87037	97292
17.87850	100422
17.88662	100058
17.89475	94924
17.90287	93494
17.91098	92694
17.91912	87700
17.92723	88550
17.93537	91717
17.94348	83864
17.95160	87226
17.95973	88197
17.96785	85905
17.97597	87486
17.98410	94538
17.99222	90108
18.00035	91784
18.00847	93107
18.01658	95104
18.02472	98838
18.03283	102591
18.04097	104621
18.04908	109738
18.05720	110626
18.06533	138657
18.07345	163293
18.08157	204518
18.08970	236872
18.09782	268569
18.10595	281636
18.11407	293836
18.12218	288045
18.13032	279412
18.13843	284722
18.14657	278747
18.15468	282739
18.16280	272358
18.17093	272797
18.17905	265879
18.18718	257153
18.19530	267433
18.20342	259496
18.21155	255416
18.21967	247382
18.22778	243412
18.23592	235595
18.24403	234728
18.25217	232821
18.26028	235873
18.26840	232371
18.27653	226565
18.28465	223587
18.29278	215462
18.30090	202498
18.30902	207973
18.31715	208432
18.32527	195270
18.33340	193840
18.34152	191976
18.34963	186241
18.35777	182669
18.36588	183616
18.37400	176263
18.38213	172367
18.39025	168406
18.39838	174751
18.40650	170826
18.41462	167380
18.42275	164349
18.43087	155063
18.43900	163165
18.44712	149451
18.45523	156523
18.46337	151228
18.47148	148193
18.47960	153026
18.48773	143220
18.49585	136585
18.50398	140008
18.51210	135102
18.52022	137642
18.52835	136251
18.53647	133018
18.54460	129619
18.55272	125188
18.56083	133786
18.56897	128577
18.57708	137313
18.58522	129502
18.59333	134472
18.60145	134215
18.60958	134902
18.61770	134071
18.62582	133338
18.63395	124941
18.64207	131168
18.65020	119603
18.65832	124939
18.66643	122969
18.67457	113582
18.68268	117424
18.69082	113314
18.69893	108799
18.70705	114531
18.71518	110909
18.72330	108452
18.73142	113716
18.73955	110621
18.74767	111526
18.75580	103446
18.76392	106992
18.77203	105152
18.78017	104411
18.78828	103369
18.79642	106914
18.80453	109559
18.81265	113734
18.82078	108663
18.82890	103833
18.83703	104300
18.84515	103386
18.85327	104055
18.86140	105442
18.86952	104733
18.87763	104821
18.88577	101135
18.89388	103466
18.90202	105385
18.91013	104821
18.91825	106550
18.92638	105520
18.93450	112217
18.94263	112245
18.95075	104115
18.95887	108200
18.96700	108504
18.97512	104747
18.98325	107903
18.99137	106122
18.99948	102882
19.00762	104670
19.01573	99383
19.02385	101583
19.03198	97889
19.04010	99864
19.04823	100990
19.05635	103133
19.06447	98957
19.07260	101634
19.08072	113812
19.08885	127734
19.09697	134233
19.10508	141123
19.11322	139945
19.12133	135767
19.12947	131804
19.13758	119420
19.14570	121332
19.15383	110757
19.16195	113085
19.17007	108425
19.17820	109016
19.18632	105091
19.19445	104580
19.20257	103999
19.21068	100224
19.21882	97472
19.22693	93204
19.23507	95525
19.24318	98535
19.25130	102318
19.25943	107789
19.26755	126912
19.27567	137392
19.28380	155432
19.29192	167392
19.30005	172982
19.30817	169184
19.31628	153820
19.32442	141066
19.33253	128215
19.34067	120566
19.34878	111412
19.35690	111435
19.36503	105978
19.37315	102920
19.38128	107080
19.38940	97439
19.39752	97864
19.40565	98676
19.41377	99762
19.42188	105736
19.43002	122278
19.43813	196774
19.44627	345404
19.45438	616533
19.46250	978264
19.47063	1223991
19.47875	1217065
19.48688	945283
19.49500	644001
19.50312	373574
19.51125	225612
19.51937	155969
19.52748	125257
19.53562	121630
19.54373	121637
19.55187	137048
19.55998	180797
19.56810	239352
19.57623	304039
19.58435	333677
19.59248	335395
19.60060	264674
19.60872	203776
19.61685	205046
19.62497	248973
19.63310	394518
19.64122	640553
19.64933	975825
19.65747	1333743
19.66558	1465433
19.67370	1377653
19.68183	1072624
19.68995	760645
19.69808	516781
19.70620	373487
19.71432	285961
19.72245	235178
19.73057	195767
19.73870	185978
19.74682	162591
19.75493	152198
19.76307	149289
19.77118	131274
19.77932	129633
19.78743	128855
19.79555	123955
19.80368	120502
19.81180	118334
19.81992	110907
19.82805	112000
19.83617	108254
19.84430	110787
19.85242	112311
19.86053	113702
19.86867	121528
19.87678	137518
19.88492	164706
19.89303	212298
19.90115	256906
19.90928	317305
19.91740	359765
19.92552	373046
19.93365	367270
19.94177	357771
19.94990	334699
19.95802	293893
19.96613	277697
19.97427	261650
19.98238	259646
19.99052	245401
19.99863	233592
20.00675	232541
20.01488	219704
20.02300	210386
20.03113	203351
20.03925	187940
20.04737	171178
20.05550	157649
20.06362	148885
20.07173	134511
20.07987	123320
20.08798	125148
20.09612	120222
20.10423	114239
20.11235	116055
20.12048	110590
20.12860	113343
20.13673	114125
20.14485	110488
20.15297	110729
20.16110	108049
20.16922	106367
20.17735	109621
20.18547	107730
20.19358	108893
20.20172	113624
20.20983	119168
20.21795	153449
20.22608	214685
20.23420	331335
20.24233	512457
20.25045	750441
20.25857	938306
20.26670	997427
20.27482	947599
20.28295	782899
20.29107	586781
20.29918	420838
20.30732	335879
20.31543	310423
20.32355	335305
20.33168	389222
20.33980	410582
20.34793	390730
20.35605	303552
20.36417	249817
20.37230	202329
20.38042	181502
20.38855	189546
20.39667	210458
20.40478	253235
20.41292	308489
20.42103	350899
20.42917	383521
20.43728	369933
20.44540	352668
20.45353	282777
20.46165	249281
20.46977	206261
20.47790	180968
20.48602	160420
20.49415	149109
20.50227	141904
20.51038	143567
20.51852	136338
20.52663	141785
20.53477	128552
20.54288	126112
20.55100	130377
20.55913	120356
20.56725	130629
20.57537	130573
20.58350	126598
20.59162	130901
20.59975	127434
20.60787	130802
20.61598	123138
20.62412	117771
20.63223	120465
20.64037	117963
20.64848	113906
20.65660	118477
20.66473	115043
20.67285	109195
20.68098	115435
20.68910	107381
20.69722	107311
20.70535	105141
20.71347	106628
20.72158	100363
20.72972	106948
20.73783	106777
20.74597	106393
20.75408	102256
20.76220	98332
20.77033	104352
20.77845	104494
20.78658	98617
20.79470	109651
20.80282	101730
20.81095	103958
20.81907	96014
20.82720	94649
20.83532	97989
20.84343	93985
20.85157	92073
20.85968	93707
20.86780	93273
20.87593	98688
20.88405	92568
20.89218	89964
20.90030	90099
20.90842	89699
20.91655	87844
20.92467	83078
20.93280	89887
20.94092	84823
20.94903	88085
20.95717	87916
20.96528	89768
20.97340	89840
20.98153	93793
20.98965	109746
20.99778	118822
21.00590	141688
21.01402	161361
21.02215	168143
21.03027	159406
21.03840	135562
21.04652	125707
21.05463	112481
21.06277	111068
21.07088	105861
21.07902	100298
21.08713	98291
21.09525	100080
21.10338	96229
21.11150	93093
21.11962	91349
21.12775	92573
21.13587	98878
21.14400	91839
21.15212	99652
21.16023	95297
21.16837	102016
21.17648	98178
21.18462	95787
21.19273	90814
21.20085	93580
21.20898	95613
21.21710	93083
21.22523	87583
21.23335	89128
21.24147	96916
21.24960	98158
21.25772	104555
21.26583	99431
21.27397	106516
21.28208	110931
21.29022	132727
21.29833	138129
21.30645	140322
21.31458	135293
21.32270	124677
21.33083	113017
21.33895	107084
21.34707	103262
21.35520	104961
21.36332	100090
21.37143	96764
21.37957	95526
21.38768	91100
21.39582	91710
21.40393	95907
21.41205	94509
21.42018	99445
21.42830	98554
21.43643	98414
21.44455	101307
21.45267	99265
21.46080	97581
21.46892	94754
21.47705	87689
21.48517	98003
21.49328	92999
21.50142	92522
21.50953	98100
21.51765	97975
21.52578	96179
21.53390	92665
21.54203	90729
21.55015	86919
21.55827	94702
21.56640	105764
21.57452	131745
21.58265	178760
21.59077	247403
21.59888	316692
21.60702	382798
21.61513	386502
21.62325	368141
21.63138	308214
21.63950	255072
21.64763	203367
21.65575	173454
21.66387	153930
21.67200	148707
21.68012	137499
21.68825	140227
21.69637	148451
21.70448	139873
21.71262	137035
21.72073	123926
21.72887	124718
21.73698	117313
21.74510	110941
21.75323	114752
21.76135	121865
21.76947	127931
21.77760	156627
21.78572	196949
21.79385	238345
21.80197	264420
21.81008	273152
21.81822	242290
21.82633	219424
21.83447	182149
21.84258	156451
21.85070	134996
21.85883	118874
21.86695	120799
21.87508	119283
21.88320	121502
21.89132	121827
21.89945	133313
21.90757	129682
21.91568	124986
21.92382	111511
21.93193	113082
21.94007	105847
21.94818	103540
21.95630	100869
21.96443	95939
21.97255	101608
21.98068	92509
21.98880	94628
21.99692	95188
22.00505	94708
22.01317	91792
22.02128	93884
22.02942	93088
22.03753	92313
22.04567	85991
22.05378	84382
22.06190	84903
22.07003	85822
22.07815	91394
22.08628	97933
22.09440	98249
22.10252	100184
22.11065	107335
22.11877	102538
22.12690	97825
22.13502	94751
22.14313	95379
22.15127	90721
22.15938	95686
22.16750	97230
22.17563	111076
22.18375	117733
22.19188	115288
22.20000	125591
22.20812	114772
22.21625	105118
22.22437	103291
22.23250	92217
22.24062	100792
22.24873	100967
22.25687	114077
22.26498	105373
22.27312	104606
22.28123	106479
22.28935	101104
22.29748	99727
22.30560	95864
22.31372	96107
22.32185	91066
22.32997	98204
22.33810	93841
22.34622	93882
22.35433	94801
22.36247	90022
22.37058	88475
22.37872	89780
22.38683	88334
22.39495	88525
22.40308	84643
22.41120	89591
22.41932	89383
22.42745	91259
22.43557	98292
22.44370	99966
22.45182	100530
22.45993	101800
22.46807	97587
22.47618	87985
22.48432	87965
22.49243	85056
22.50055	86009
22.50868	88445
22.51680	92279
22.52493	83017
22.53305	85036
22.54117	80766
22.54930	84440
22.55742	80027
22.56553	85425
22.57367	75520
22.58178	79474
22.58992	84327
22.59803	79442
22.60615	76358
22.61428	82378
22.62240	82392
22.63053	79918
22.63865	74991
22.64677	74422
22.65490	77078
22.66302	76262
22.67115	75730
22.67927	76728
22.68738	81751
22.69552	80532
22.70363	75940
22.71175	77348
22.71988	69332
22.72800	79814
22.73613	74460
22.74425	75542
22.75237	76949
22.76050	79169
22.76862	75159
22.77675	74037
22.78487	74833
22.79298	81429
22.80112	85777
22.80923	84975
22.81735	80931
22.82548	81820
22.83360	79376
22.84173	77502
22.84985	79577
22.85797	79076
22.86610	79253
22.87422	78337
22.88235	79737
22.89047	83695
22.89858	93091
22.90672	92327
22.91483	106382
22.92297	108336
22.93108	120675
22.93920	117398
22.94733	118799
22.95545	111191
22.96357	111727
22.97170	111309
22.97982	109263
22.98795	109447
22.99607	96853
23.00418	94038
23.01232	91432
23.02043	92671
23.02857	90979
23.03668	86779
23.04480	85781
23.05293	80002
23.06105	83014
23.06917	77002
23.07730	76966
23.08542	75877
23.09355	75485
23.10167	75188
23.10978	76288
23.11792	75311
23.12603	77756
23.13417	74851
23.14228	77537
23.15040	78469
23.15853	84088
23.16665	79780
23.17478	79290
23.18290	81090
23.19102	76392
23.19915	75247
23.20727	84186
23.21538	74364
23.22352	75736
23.23163	73680
23.23977	74689
23.24788	75680
23.25600	74376
23.26413	76116
23.27225	72467
23.28038	75245
23.28850	74443
23.29662	76324
23.30475	75312
23.31287	76953
23.32100	76211
23.32912	76369
23.33723	68967
23.34537	73325
23.35348	76850
23.36160	77664
23.36973	71000
23.37785	73386
23.38598	79557
23.39410	76678
23.40222	73569
23.41035	76288
23.41847	72053
23.42660	80577
23.43472	76296
23.44283	74285
23.45097	73043
23.45908	74784
23.46720	73623
23.47533	75206
23.48345	73883
23.49158	72392
23.49970	67434
23.50782	74902
23.51595	68392
23.52407	73986
23.53220	74882
23.54032	72416
23.54843	72599
23.55657	75055
23.56468	76639
23.57282	72751
23.58093	68886
23.58905	70200
23.59718	75942
23.60530	74491
23.61342	78729
23.62155	75418
23.62967	77806
23.63780	80554
23.64592	87945
23.65403	92864
23.66217	95068
23.67028	99192
23.67842	96214
23.68653	96065
23.69465	92570
23.70278	85860
23.71090	93913
23.71903	105853
23.72715	163252
23.73527	364734
23.74340	988582
23.75152	2723070
23.75963	5516179
23.76777	8637591
23.77588	1.079426E+07
23.78402	1.118492E+07
23.79213	1.01362E+07
23.80025	7782958
23.80838	5505147
23.81650	3727435
23.82463	2663845
23.83275	1935580
23.84087	1487189
23.84900	1252779
23.85712	1218106
23.86523	1334312
23.87337	1589634
23.88148	1829917
23.88962	1874241
23.89773	1824893
23.90585	1612418
23.91398	1322545
23.92210	1039384
23.93023	814411
23.93835	668741
23.94647	569434
23.95460	497545
23.96272	447435
23.97085	411695
23.97897	375789
23.98708	345575
23.99522	335359
24.00333	314279
24.01145	297651
24.01958	282931
24.02770	272448
24.03583	260899
24.04395	249478
24.05207	247780
24.06020	248714
24.06832	261165
24.07645	273558
24.08457	289838
24.09268	306739
24.10082	306728
24.10893	294206
24.11705	288489
24.12518	256266
24.13330	247652
24.14143	235925
24.14955	237213
24.15767	249218
24.16580	260498
24.17392	274695
24.18205	272607
24.19017	263160
24.19828	254799
24.20642	233466
24.21453	222106
24.22267	221466
24.23078	203468
24.23890	187897
24.24703	187027
24.25515	179505
24.26327	174807
24.27140	166795
24.27952	166149
24.28765	164677
24.29577	161893
24.30388	161671
24.31202	171420
24.32013	193555
24.32827	259319
24.33638	405000
24.34450	651886
24.35263	929650
24.36075	1170181
24.36888	1362448
24.37700	1510798
24.38512	1771685
24.39325	2051140
24.40137	2118023
24.40948	1894185
24.41762	1561038
24.42573	1209358
24.43387	945383
24.44198	759450
24.45010	684998
24.45823	640695
24.46635	609882
24.47448	593457
24.48260	533075
24.49072	462529
24.49885	398257
24.50697	344285
24.51508	300367
24.52322	280794
24.53133	270834
24.53947	278621
24.54758	305637
24.55570	352230
24.56383	360473
24.57195	348352
24.58008	300240
24.58820	265279
24.59632	219916
24.60445	201764
24.61257	183139
24.62070	180470
24.62882	175681
24.63693	173540
24.64507	173142
24.65318	168775
24.66130	163213
24.66943	155934
24.67755	155255
24.68568	151939
24.69380	150218
24.70192	154651
24.71005	145915
24.71817	147339
24.72630	153684
24.73442	153270
24.74253	150737
24.75067	150382
24.75878	147316
24.76692	138320
24.77503	132473
24.78315	136195
24.79128	130611
24.79940	133436
24.80752	126651
24.81565	133503
24.82377	131368
24.83190	123838
24.84002	127740
24.84813	124548
24.85627	124095
24.86438	128101
24.87252	132411
24.88063	127812
24.88875	128140
24.89688	134120
24.90500	130229
24.91312	129118
24.92125	123867
24.92937	131784
24.93750	127832
24.94562	122298
24.95373	116359
24.96187	124240
24.96998	110051
24.97812	119845
24.98623	117220
24.99435	115583
25.00248	113546
25.01060	113483
25.01873	110786
25.02685	110869
25.03497	110442
25.04310	109396
25.05122	109391
25.05933	109834
25.06747	108639
25.07558	113561
25.08372	106021
25.09183	109638
25.09995	111656
25.10808	111794
25.11620	110664
25.12433	113901
25.13245	124056
25.14057	127514
25.14870	133480
25.15682	123985
25.16495	126512
25.17307	123094
25.18118	122229
25.18932	116282
25.19743	113361
25.20555	114655
25.21368	117631
25.22180	116915
25.22993	114004
25.23805	107404
25.24617	107486
25.25430	109063
25.26242	103298
25.27055	107861
25.27867	112373
25.28678	112714
25.29492	125216
25.30303	132101
25.31115	129593
25.31928	127597
25.32740	123479
25.33553	116053
25.34365	109546
25.35177	107055
25.35990	102064
25.36802	98672
25.37615	101600
25.38427	101118
25.39238	97167
25.40052	101458
25.40863	103406
25.41677	113484
25.42488	114279
25.43300	117267
25.44113	119991
25.44925	116489
25.45737	116386
25.46550	116089
25.47362	116322
25.48175	128727
25.48987	119688
25.49798	115919
25.50612	115220
25.51423	109695
25.52237	110203
25.53048	106117
25.53860	95020
25.54673	99060
25.55485	96484
25.56298	88959
25.57110	92634
25.57922	94172
25.58735	92364
25.59547	96544
25.60358	91435
25.61172	93366
25.61983	92465
25.62797	86315
25.63608	89451
25.64420	91505
25.65233	91222
25.66045	87629
25.66858	92234
25.67670	89632
25.68482	87479
25.69295	90501
25.70107	86300
25.70918	91911
25.71732	85207
25.72543	90328
25.73357	87794
25.74168	91048
25.74980	89606
25.75793	90029
25.76605	92540
25.77418	91423
25.78230	92176
25.79042	90759
25.79855	95450
25.80667	96517
25.81480	91120
25.82292	90326
25.83103	89136
25.83917	87088
25.84728	88834
25.85540	87819
25.86353	82993
25.87165	85178
25.87978	89413
25.88790	86834
25.89602	82392
25.90415	86233
25.91227	87669
25.92040	84557
25.92852	83701
25.93663	87474
25.94477	86383
25.95288	88007
25.96100	84957
25.96913	86832
25.97725	82538
25.98538	86620
25.99350	79307
26.00162	82820
26.00975	81363
26.01787	85183
26.02600	85198
26.03412	86943
26.04223	89009
26.05037	87493
26.05848	91462
26.06662	87396
26.07473	83535
26.08285	79078
26.09098	87751
26.09910	92040
26.10722	85865
26.11535	97426
26.12347	107383
26.13160	102586
26.13972	107813
26.14783	109994
26.15597	102213
26.16408	99623
26.17222	98619
26.18033	93833
26.18845	97963
26.19658	95684
26.20470	98982
26.21283	99571
26.22095	96951
26.22907	94737
26.23720	90486
26.24532	88719
26.25343	88753
26.26157	90942
26.26968	90150
26.27782	87444
26.28593	91890
26.29405	80867
26.30218	83517
26.31030	89656
26.31843	84336
26.32655	85683
26.33467	84440
26.34280	86558
26.35092	84379
26.35903	87775
26.36717	92990
26.37528	88673
26.38342	88128
26.39153	83463
26.39965	82841
26.40778	82083
26.41590	78961
26.42403	78380
26.43215	81522
26.44027	81528
26.44840	79975
26.45652	81836
26.46465	82781
26.47277	81994
26.48088	82707
26.48902	81138
26.49713	82424
26.50525	81065
26.51338	78483
26.52150	84877
26.52963	80284
26.53775	82953
26.54587	85177
26.55400	75862
26.56212	80952
26.57025	80387
26.57837	81631
26.58648	84110
26.59462	83788
26.60273	83688
26.61087	83324
26.61898	85637
26.62710	85910
26.63523	86397
26.64335	89138
26.65147	91453
26.65960	92025
26.66772	91829
26.67585	94333
26.68397	96976
26.69208	99003
26.70022	101543
26.70833	99009
26.71647	95566
26.72458	95462
26.73270	91599
26.74083	90709
26.74895	92510
26.75707	90597
26.76520	90930
26.77332	88306
26.78145	95415
26.78957	99438
26.79768	107196
26.80582	105816
26.81393	112970
26.82207	108869
26.83018	113266
26.83830	110905
26.84643	114053
26.85455	112643
26.86268	116286
26.87080	114859
26.87892	122155
26.88705	129869
26.89517	138321
26.90328	155024
26.91142	194150
26.91953	308314
26.92767	617939
26.93578	1695735
26.94390	5756102
26.95203	1.802206E+07
26.96015	3.698627E+07
26.96828	5.259698E+07
26.97640	6.374059E+07
26.98452	6.62359E+07
26.99265	6.383034E+07
27.00077	5.377765E+07
27.00888	4.578397E+07
27.01702	3.824469E+07
27.02513	3.143308E+07
27.03327	2.481959E+07
27.04138	1.909105E+07
27.04950	1.406421E+07
27.05763	1.035707E+07
27.06575	7658363
27.07388	5607863
27.08200	4458692
27.09012	3543148
27.09825	2923266
27.10637	2439072
27.11450	2087454
27.12262	1857820
27.13073	1631851
27.13887	1471859
27.14698	1348679
27.15510	1253895
27.16323	1173149
27.17135	1169880
27.17948	1202016
27.18760	1483929
27.19572	2152755
27.20385	3602196
27.21197	5855094
27.22010	8612412
27.22822	1.077761E+07
27.23633	1.136471E+07
27.24447	1.061879E+07
27.25258	9088311
27.26072	7514415
27.26883	5792519
27.27695	4358808
27.28508	3290183
27.29320	2563716
27.30132	2091333
27.30945	1697947
27.31757	1411281
27.32570	1196361
27.33382	1084165
27.34193	965395
27.35007	898707
27.35818	827877
27.36632	746783
27.37443	714829
27.38255	668887
27.39068	645011
27.39880	617470
27.40692	584676
27.41505	573902
27.42317	532484
27.43130	525454
27.43942	513635
27.44753	506784
27.45567	501278
27.46378	510522
27.47192	527301
27.48003	513592
27.48815	482135
27.49628	481369
27.50440	458094
27.51253	437880
27.52065	403609
27.52877	397599
27.53690	406226
27.54502	403093
27.55313	404933
27.56127	390690
27.56938	399508
27.57752	398275
27.58563	367356
27.59375	363377
27.60188	343520
27.61000	332370
27.61813	329974
27.62625	326259
27.63437	310028
27.64250	311164
27.65062	295449
27.65875	292176
27.66687	291215
27.67498	291096
27.68312	286790
27.69123	274857
27.69935	276467
27.70748	272879
27.71560	264104
27.72373	262387
27.73185	262996
27.73997	260519
27.74810	254348
27.75622	256760
27.76435	248249
27.77247	244489
27.78058	241303
27.78872	233523
27.79683	243269
27.80495	244150
27.81308	233152
27.82120	224452
27.82933	233158
27.83745	227984
27.84557	234190
27.85370	221238
27.86182	216891
27.86995	211917
27.87807	212183
27.88618	210205
27.89432	207839
27.90243	201789
27.91057	207700
27.91868	197569
27.92680	199279
27.93493	197012
27.94305	195705
27.95117	204137
27.95930	194112
27.96742	204896
27.97555	200788
27.98367	197533
27.99178	188706
27.99992	183242
28.00803	180449
28.01617	182484
28.02428	178062
28.03240	185126
28.04053	171791
28.04865	176891
28.05678	171267
28.06490	172151
28.07302	170685
28.08115	169160
28.08927	162709
28.09738	172568
28.10552	170007
28.11363	174519
28.12177	188713
28.12988	205859
28.13800	231851
28.14613	253523
28.15425	277758
28.16238	278312
28.17050	261235
28.17862	239324
28.18675	223334
28.19487	214021
28.20298	206040
28.21112	217241
28.21923	251278
28.22737	403559
28.23548	820731
28.24360	1806442
28.25173	4087233
28.25985	8570121
28.26798	1.561722E+07
28.27610	2.321023E+07
28.28422	2.959864E+07
28.29235	3.167412E+07
28.30047	3.284775E+07
28.30860	3.326636E+07
28.31672	3.143137E+07
28.32483	2.75888E+07
28.33297	2.377945E+07
28.34108	2.08124E+07
28.34920	1.769731E+07
28.35733	1.490134E+07
28.36545	1.209691E+07
28.37358	9534793
28.38170	7809681
28.38982	6085528
28.39795	5045409
28.40607	4336383
28.41420	3902693
28.42232	3865799
28.43043	4068048
28.43857	4579764
28.44668	5144708
28.45480	5537255
28.46293	5835362
28.47105	5809231
28.47918	5667448
28.48730	5492029
28.49542	4984286
28.50355	4427532
28.51167	3858808
28.51980	3330182
28.52792	2940984
28.53603	2525967
28.54417	2193151
28.55228	1868743
28.56042	1669783
28.56853	1512739
28.57665	1323160
28.58478	1160939
28.59290	1054629
28.60102	970977
28.60915	925768
28.61727	839143
28.62540	769697
28.63352	747958
28.64163	706090
28.64977	675850
28.65788	648516
28.66602	620517
28.67413	585686
28.68225	598661
28.69038	609646
28.69850	686963
28.70663	849058
28.71475	1098372
28.72287	1289679
28.73100	1298940
28.73912	1177073
28.74723	940255
28.75537	746593
28.76348	642496
28.77162	590219
28.77973	534939
28.78785	507826
28.79598	458448
28.80410	419009
28.81223	391410
28.82035	377013
28.82847	368647
28.83660	358220
28.84472	344369
28.85283	345156
28.86097	340050
28.86908	334522
28.87722	330982
28.88533	322824
28.89345	326835
28.90158	306458
28.90970	303141
28.91783	305199
28.92595	302758
28.93407	295576
28.94220	296010
28.95032	288450
28.95845	291264
28.96657	285254
28.97468	282528
28.98282	274631
28.99093	275323
28.99905	262681
29.00718	263917
29.01530	263509
29.02343	260720
29.03155	267611
29.03967	251649
29.04780	244701
29.05592	251562
29.06405	248785
29.07217	243723
29.08028	244469
29.08842	240679
29.09653	234645
29.10467	234660
29.11278	235232
29.12090	233698
29.12903	228573
29.13715	234301
29.14527	228365
29.15340	229765
29.16152	220391
29.16965	226393
29.17777	215710
29.18588	212348
29.19402	219629
29.20213	210473
29.21027	211604
29.21838	210222
29.22650	217705
29.23463	208837
29.24275	210596
29.25087	201260
29.25900	207655
29.26712	198261
29.27525	205633
29.28337	200314
29.29148	193965
29.29962	194799
29.30773	196196
29.31587	195278
29.32398	197544
29.33210	188169
29.34023	194156
29.34835	184163
29.35648	187421
29.36460	191947
29.37272	173646
29.38085	174399
29.38897	181121
29.39708	181993
29.40522	183927
29.41333	180309
29.42147	190154
29.42958	194352
29.43770	193061
29.44583	194500
29.45395	191738
29.46208	178727
29.47020	181313
29.47832	191007
29.48645	184421
29.49457	181043
29.50268	176139
29.51082	173449
29.51893	168119
29.52707	169359
29.53518	170265
29.54330	168659
29.55143	161124
29.55955	160044
29.56768	154841
29.57580	156038
29.58392	153265
29.59205	158724
29.60017	157530
29.60830	157295
29.61642	157644
29.62453	152909
29.63267	152177
29.64078	155444
29.64890	151916
29.65703	150849
29.66515	149861
29.67328	151654
29.68140	146918
29.68952	146997
29.69765	144841
29.70577	145836
29.71390	142461
29.72202	148431
29.73013	143030
29.73827	148006
29.74638	141626
29.75452	144390
29.76263	143197
29.77075	150215
29.77888	141185
29.78700	142863
29.79512	143264
29.80325	143599
29.81137	140438
29.81950	146620
29.82762	151859
29.83573	149712
29.84387	160480
29.85198	194124
29.86012	268005
29.86823	414604
29.87635	698953
29.88448	1169042
29.89260	1916085
29.90073	2994607
29.90885	4414371
29.91697	6227173
29.92510	8098830
29.93322	9862590
29.94133	1.10332E+07
29.94947	1.136465E+07
29.95758	1.144627E+07
29.96572	1.10403E+07
29.97383	1.045195E+07
29.98195	9980481
29.99008	9137791
29.99820	8337396
30.00633	7655059
30.01445	6780180
30.02257	6266815
30.03070	5680241
30.03882	5073042
30.04693	4559465
30.05507	4011445
30.06318	3574022
30.07132	3152891
30.07943	2770040
30.08755	2471478
30.09568	2178376
30.10380	1916898
30.11193	1693294
30.12005	1485765
30.12817	1303817
30.13630	1182275
30.14442	1072113
30.15255	971428
30.16067	891026
30.16878	800288
30.17692	724986
30.18503	667407
30.19315	620153
30.20128	568021
30.20940	542009
30.21753	507675
30.22565	465364
30.23377	444675
30.24190	436949
30.25002	404611
30.25815	382151
30.26627	391116
30.27438	375571
30.28252	360532
30.29063	341290
30.29875	343056
30.30688	321962
30.31500	320080
30.32313	308832
30.33125	300995
30.33937	304313
30.34750	290528
30.35562	282411
30.36375	283870
30.37187	269072
30.37998	270874
30.38812	272962
30.39623	253605
30.40437	247554
30.41248	253782
30.42060	240940
30.42873	238848
30.43685	237717
30.44497	239848
30.45310	233637
30.46122	223075
30.46935	220543
30.47747	226058
30.48558	222318
30.49372	216383
30.50183	216060
30.50997	210466
30.51808	203687
30.52620	198796
30.53433	196210
30.54245	199793
30.55058	200792
30.55870	194979
30.56682	197184
30.57495	193170
30.58307	196110
30.59118	187745
30.59932	189137
30.60743	179797
30.61557	177020
30.62368	183704
30.63180	177952
30.63993	177473
30.64805	174202
30.65618	169438
30.66430	171787
30.67242	172225
30.68055	174296
30.68867	174064
30.69678	163443
30.70492	165979
30.71303	168776
30.72117	162689
30.72928	166918
30.73740	159581
30.74553	165965
30.75365	165523
30.76178	166778
30.76990	166537
30.77802	166238
30.78615	169045
30.79427	169822
30.80240	170786
30.81052	171721
30.81863	166924
30.82677	161054
30.83488	155275
30.84300	151393
30.85113	148624
30.85925	147391
30.86738	148976
30.87550	148875
30.88362	147475
30.89175	149884
30.89987	138311
30.90800	143471
30.91612	141649
30.92423	146642
30.93237	144225
30.94048	147136
30.94862	140967
30.95673	136822
30.96485	140984
30.97298	144084
30.98110	141918
30.98922	139662
30.99735	139773
31.00547	140770
31.01360	149023
31.02172	137953
31.02983	135467
31.03797	144724
31.04608	142029
31.05422	135862
31.06233	136550
31.07045	138801
31.07858	153109
31.08670	155911
31.09482	163928
31.10295	175078
31.11107	167492
31.11920	174589
31.12732	183216
31.13543	177731
31.14357	168510
31.15168	167245
31.15982	163044
31.16793	169667
31.17605	180128
31.18418	196624
31.19230	213231
31.20043	239362
31.20855	240046
31.21667	242492
31.22480	232784
31.23292	219000
31.24103	199576
31.24917	175541
31.25728	161495
31.26542	154412
31.27353	143609
31.28165	134872
31.28978	126584
31.29790	127265
31.30603	128900
31.31415	123960
31.32227	126515
31.33040	141303
31.33852	150929
31.34663	154557
31.35477	169158
31.36288	172436
31.37102	173973
31.37913	165477
31.38725	154745
31.39538	140678
31.40350	140098
31.41163	132332
31.41975	133986
31.42787	124970
31.43600	122500
31.44412	122983
31.45225	123683
31.46037	118848
31.46848	119546
31.47662	117492
31.48473	113552
31.49285	116122
31.50098	115372
31.50910	119282
31.51723	115790
31.52535	111796
31.53347	116435
31.54160	115783
31.54972	117675
31.55785	112093
31.56597	111228
31.57408	109745
31.58222	118560
31.59033	121395
31.59847	118022
31.60658	118273
31.61470	111163
31.62283	113354
31.63095	118523
31.63907	107157
31.64720	118583
31.65532	112510
31.66345	113948
31.67157	112709
31.67968	114067
31.68782	107244
31.69593	115013
31.70407	100876
31.71218	108021
31.72030	107913
31.72843	111809
31.73655	107419
31.74467	101569
31.75280	106062
31.76092	106159
31.76905	113296
31.77717	107350
31.78528	105689
31.79342	114641
31.80153	131471
31.80967	147191
31.81778	208601
31.82590	323611
31.83403	492897
31.84215	757428
31.85028	1162540
31.85840	1625737
31.86652	2235254
31.87465	2894837
31.88277	3456994
31.89088	4025776
31.89902	4513823
31.90713	4807974
31.91527	4830470
31.92338	4683246
31.93150	4435901
31.93963	4157950
31.94775	3877479
31.95588	3472460
31.96400	3006788
31.97212	2590223
31.98025	2229010
31.98837	1968176
31.99650	1740019
32.00462	1561785
32.01273	1411875
32.02087	1248994
32.02898	1104195
32.03710	981790
32.04523	841087
32.05335	727775
32.06148	654957
32.06960	591085
32.07772	535384
32.08585	473090
32.09397	439024
32.10210	417024
32.11022	390618
32.11833	376674
32.12647	349660
32.13458	334557
32.14270	312795
32.15083	301963
32.15895	305710
32.16708	286663
32.17520	274590
32.18332	278695
32.19145	262946
32.19957	260073
32.20770	249753
32.21582	238955
32.22393	238033
32.23207	228744
32.24018	238672
32.24832	220279
32.25643	214544
32.26455	222326
32.27268	214253
32.28080	209510
32.28892	212562
32.29705	201951
32.30517	210778
32.31330	210476
32.32142	198460
32.32953	200956
32.33767	202148
32.34578	203260
32.35392	192772
32.36203	195901
32.37015	191803
32.37828	186846
32.38640	184670
32.39452	179011
32.40265	173947
32.41077	172297
32.41890	170555
32.42702	170657
32.43513	168303
32.44327	166835
32.45138	168873
32.45952	170470
32.46763	162318
32.47575	162080
32.48388	157670
32.49200	160546
32.50013	159980
32.50825	160126
32.51637	152837
32.52450	153683
32.53262	151995
32.54073	156493
32.54887	160467
32.55698	155582
32.56512	157134
32.57323	166141
32.58135	189060
32.58948	255491
32.59760	368070
32.60573	506164
32.61385	661874
32.62197	742435
32.63010	683133
32.63822	538583
32.64635	394545
32.65447	277492
32.66258	220609
32.67072	181459
32.67883	171604
32.68695	163541
32.69508	160371
32.70320	152135
32.71133	161021
32.71945	152330
32.72757	151175
32.73570	141935
32.74382	148951
32.75195	137121
32.76007	139234
32.76818	141681
32.77632	136071
32.78443	135832
32.79255	139003
32.80068	130282
32.80880	137422
32.81693	128118
32.82505	134714
32.83317	130479
32.84130	135100
32.84942	128166
32.85755	129408
32.86567	136959
32.87378	127932
32.88192	131790
32.89003	132474
32.89817	132460
32.90628	131289
32.91440	123295
32.92253	122754
32.93065	129753
32.93877	126344
32.94690	131960
32.95502	128499
32.96315	127910
32.97127	124205
32.97938	121150
32.98752	119664
32.99563	123850
33.00377	118391
33.01188	118508
33.02000	119040
33.02813	118257
33.03625	119984
33.04438	119997
33.05250	116236
33.06062	120740
33.06875	125758
33.07687	126464
33.08498	124562
33.09312	140176
33.10123	145806
33.10937	143544
33.11748	148567
33.12560	156290
33.13373	159838
33.14185	156862
33.14998	151071
33.15810	152355
33.16622	140357
33.17435	136646
33.18247	125498
33.19058	125223
33.19872	118699
33.20683	126235
33.21497	123996
33.22308	120564
33.23120	119298
33.23933	125326
33.24745	119516
33.25558	115591
33.26370	121336
33.27182	120315
33.27995	114440
33.28807	120062
33.29620	116091
33.30432	114433
33.31243	112748
33.32057	119187
33.32868	117050
33.33680	111434
33.34493	115797
33.35305	114884
33.36118	111769
33.36930	111121
33.37742	121515
33.38555	113851
33.39367	114470
33.40180	113056
33.40992	116370
33.41803	109141
33.42617	115332
33.43428	114014
33.44242	114061
33.45053	106181
33.45865	109171
33.46678	100822
33.47490	109695
33.48302	111415
33.49115	110888
33.49927	110143
33.50740	111349
33.51552	110615
33.52363	113589
33.53177	118790
33.53988	116897
33.54802	113332
33.55613	109232
33.56425	106667
33.57238	106433
33.58050	110533
33.58862	109849
33.59675	106171
33.60487	108022
33.61300	104811
33.62112	107534
33.62923	104380
33.63737	112344
33.64548	105794
33.65362	114750
33.66173	108552
33.66985	109925
33.67798	114452
33.68610	115001
33.69423	111018
33.70235	109906
33.71047	107974
33.71860	110113
33.72672	116821
33.73483	117618
33.74297	115319
33.75108	119769
33.75922	128120
33.76733	129462
33.77545	127575
33.78358	131235
33.79170	132071
33.79983	126254
33.80795	119786
33.81607	114655
33.82420	121357
33.83232	113101
33.84043	111399
33.84857	118553
33.85668	117457
33.86482	124570
33.87293	123613
33.88105	129587
33.88918	124399
33.89730	120108
33.90543	116808
33.91355	113147
33.92167	115188
33.92980	106794
33.93792	111509
33.94605	111898
33.95417	110463
33.96228	113237
33.97042	110236
33.97853	108591
33.98665	109989
33.99478	113729
34.00290	115695
34.01103	110196
34.01915	112649
34.02727	109802
34.03540	104108
34.04352	114098
34.05165	106660
34.05977	113496
34.06788	108834
34.07602	108166
34.08413	103386
34.09227	106324
34.10038	112649
34.10850	110303
34.11663	104753
34.12475	102250
34.13287	109062
34.14100	104968
34.14912	102916
34.15725	104450
34.16537	104988
34.17348	98537
34.18162	103963
34.18973	103385
34.19787	110629
34.20598	103112
34.21410	102332
34.22223	99112
34.23035	104392
34.23847	104884
34.24660	111329
34.25472	101866
34.26285	102212
34.27097	109100
34.27908	108603
34.28722	102697
34.29533	106917
34.30347	104080
34.31158	104281
34.31970	107691
34.32783	100640
34.33595	103859
34.34408	104845
34.35220	101853
34.36032	111000
34.36845	107706
34.37657	106347
34.38468	111531
34.39282	105708
34.40093	109682
34.40907	108846
34.41718	115568
34.42530	141213
34.43343	209418
34.44155	351162
34.44968	624203
34.45780	1028065
34.46592	1545299
34.47405	2106585
34.48217	2603031
34.49030	2966562
34.49842	3151471
34.50653	3119723
34.51467	2924884
34.52278	2648881
34.53090	2292510
34.53903	1891793
34.54715	1578429
34.55528	1293285
34.56340	1078613
34.57152	897921
34.57965	750565
34.58777	644301
34.59590	575522
34.60402	522271
34.61213	465803
34.62027	431625
34.62838	403560
34.63650	378060
34.64463	363687
34.65275	354946
34.66088	345133
34.66900	327805
34.67712	306398
34.68525	291475
34.69337	293297
34.70150	281290
34.70962	261870
34.71773	262275
34.72587	259570
34.73398	244988
34.74212	240227
34.75023	242041
34.75835	224341
34.76648	223966
34.77460	225730
34.78272	218285
34.79085	213909
34.79897	212935
34.80710	208841
34.81522	205065
34.82333	198970
34.83147	206837
34.83958	200024
34.84772	195183
34.85583	192415
34.86395	187410
34.87208	191392
34.88020	199726
34.88832	188421
34.89645	201202
34.90457	198435
34.91270	197619
34.92082	191660
34.92893	189833
34.93707	180271
34.94518	177135
34.95332	178155
34.96143	177428
34.96955	174715
34.97768	177429
34.98580	172923
34.99393	174014
35.00205	171341
35.01017	171134
35.01830	175920
35.02642	170781
35.03453	172583
35.04267	177432
35.05078	157895
35.05892	174225
35.06703	166958
35.07515	171483
35.08328	181252
35.09140	194320
35.09953	193345
35.10765	189895
35.11577	189648
35.12390	192445
35.13202	198329
35.14015	184307
35.14827	185433
35.15638	179484
35.16452	173289
35.17263	171330
35.18075	167384
35.18888	167109
35.19700	161420
35.20513	156593
35.21325	156965
35.22137	155824
35.22950	163287
35.23762	159464
35.24575	157051
35.25387	162165
35.26198	157363
35.27012	162140
35.27823	155151
35.28637	155130
35.29448	156548
35.30260	155109
35.31073	155010
35.31885	145794
35.32697	143869
35.33510	149921
35.34322	143181
35.35135	141620
35.35947	136383
35.36758	139826
35.37572	137720
35.38383	140868
35.39197	140389
35.40008	139270
35.40820	139439
35.41633	139549
35.42445	141741
35.43257	146926
35.44070	147256
35.44882	145442
35.45695	152550
35.46507	149743
35.47318	153653
35.48132	148627
35.48943	148684
35.49757	148502
35.50568	145304
35.51380	145741
35.52193	143159
35.53005	146813
35.53818	147558
35.54630	144120
35.55442	145265
35.56255	148815
35.57067	149180
35.57878	157607
35.58692	155869
35.59503	178732
35.60317	199938
35.61128	207884
35.61940	225713
35.62753	217852
35.63565	207191
35.64378	185346
35.65190	168233
35.66002	160046
35.66815	156644
35.67627	148474
35.68438	144113
35.69252	144882
35.70063	147553
35.70877	142020
35.71688	148893
35.72500	138460
35.73313	140681
35.74125	142834
35.74938	137059
35.75750	132778
35.76562	133629
35.77375	141359
35.78187	142829
35.79000	140186
35.79812	141514
35.80623	146397
35.81437	158410
35.82248	151107
35.83060	149930
35.83873	149110
35.84685	148240
35.85498	140667
35.86310	137696
35.87122	134342
35.87935	134769
35.88747	136320
35.89560	136882
35.90372	130615
35.91183	132265
35.91997	131892
35.92808	131661
35.93622	128331
35.94433	126768
35.95245	132019
35.96058	123837
35.96870	130580
35.97682	130402
35.98495	136064
35.99307	128558
36.00120	143698
36.00932	143725
36.01743	139630
36.02557	142998
36.03368	140682
36.04182	134084
36.04993	136127
36.05805	137204
36.06618	139241
36.07430	132966
36.08242	133037
36.09055	140327
36.09867	140734
36.10680	138095
36.11492	135794
36.12303	138109
36.13117	138178
36.13928	142138
36.14742	144883
36.15553	141105
36.16365	138410
36.17178	134440
36.17990	141341
36.18803	133572
36.19615	143358
36.20427	139030
36.21240	139821
36.22052	153836
36.22863	196925
36.23677	261577
36.24488	392004
36.25302	513961
36.26113	646707
36.26925	698710
36.27738	616667
36.28550	470024
36.29363	343808
36.30175	250763
36.30987	217731
36.31800	186881
36.32612	168385
36.33425	157874
36.34237	158335
36.35048	164291
36.35862	161152
36.36673	157086
36.37485	160976
36.38298	158546
36.39110	157261
36.39923	154923
36.40735	147207
36.41547	144473
36.42360	140972
36.43172	144452
36.43985	138610
36.44797	133523
36.45608	132030
36.46422	138345
36.47233	134155
36.48045	129999
36.48858	132931
36.49670	126222
36.50483	128841
36.51295	131617
36.52107	126446
36.52920	130693
36.53732	126596
36.54545	134409
36.55357	131023
36.56168	134005
36.56982	139599
36.57793	139332
36.58607	146323
36.59418	159547
36.60230	156673
36.61043	150965
36.61855	144205
36.62667	136833
36.63480	138335
36.64292	139246
36.65105	127483
36.65917	130069
36.66728	131048
36.67542	132384
36.68353	125504
36.69167	129003
36.69978	126564
36.70790	129710
36.71603	131574
36.72415	130743
36.73227	135448
36.74040	125341
36.74852	125635
36.75665	128986
36.76477	134108
36.77288	128148
36.78102	126016
36.78913	132489
36.79727	128912
36.80538	128879
36.81350	127048
36.82163	132305
36.82975	132404
36.83788	126733
36.84600	125161
36.85412	126038
36.86225	124318
36.87037	132477
36.87848	127695
36.88662	125479
36.89473	132018
36.90287	128828
36.91098	125907
36.91910	132865
36.92723	128621
36.93535	130323
36.94348	128430
36.95160	129277
36.95972	128425
36.96785	132797
36.97597	135762
36.98410	126372
36.99222	133365
37.00033	136251
37.00847	139851
37.01658	134100
37.02470	141143
37.03283	137794
37.04095	138750
37.04908	134436
37.05720	133439
37.06532	134390
37.07345	135418
37.08157	139859
37.08970	130462
37.09782	134254
37.10593	144877
37.11407	139869
37.12218	140742
37.13030	137548
37.13843	141166
37.14655	133531
37.15468	142831
37.16280	130895
37.17092	133225
37.17905	140547
37.18717	130487
37.19530	135110
37.20342	135815
37.21153	134295
37.21967	144435
37.22778	171881
37.23592	238018
37.24403	410921
37.25215	728837
37.26028	1160807
37.26840	1591381
37.27652	1911213
37.28465	2075398
37.29277	2065611
37.30090	1907778
37.30902	1670059
37.31713	1442316
37.32527	1204939
37.33338	1029460
37.34152	870102
37.34963	731833
37.35775	622062
37.36588	546417
37.37400	500251
37.38213	461673
37.39025	435776
37.39837	416621
37.40650	377551
37.41462	381530
37.42273	354777
37.43087	336411
37.43898	313505
37.44712	304535
37.45523	286258
37.46335	283759
37.47148	283051
37.47960	273836
37.48773	269634
