Z:\data\JTB-E02\BACandBLUE\JTB-E02-208-16.D Thu Mar 14 14:57:51 2019
Start of data points
2.09527,63057
2.10338,59624
2.11150,61718
2.11963,59104
2.12775,59486
2.13588,56741
2.14400,60089
2.15212,58211
2.16025,56641
2.16837,53622
2.17648,54892
2.18462,53552
2.19273,53673
2.20087,55982
2.20898,50946
2.21710,52700
2.22523,50381
2.23335,50414
2.24148,53101
2.24960,50625
2.25772,48093
2.26585,54482
2.27397,417007
2.28210,3234961
2.29022,3759110
2.29833,1408221
2.30647,846723
2.31458,690697
2.32270,575786
2.33083,504795
2.33895,437524
2.34708,391777
2.35520,361744
2.36332,320333
2.37145,293997
2.37957,284793
2.38770,269256
2.39582,246255
2.40393,228548
2.41207,228686
2.42018,221787
2.42832,219245
2.43643,217037
2.44455,197328
2.45268,198573
2.46080,192080
2.46892,190573
2.47705,179260
2.48517,181339
2.49330,184308
2.50142,200401
2.50953,195250
2.51767,180336
2.52578,177605
2.53392,181228
2.54203,171761
2.55015,184501
2.55828,596293
2.56640,2198826
2.57452,2061985
2.58265,939324
2.59077,594526
2.59890,475325
2.60702,430513
2.61513,482976
2.62327,547100
2.63138,437455
2.63952,342152
2.64763,311503
2.65575,281511
2.66388,273042
2.67200,259527
2.68013,239662
2.68825,230218
2.69637,220427
2.70450,213493
2.71262,208909
2.72073,205365
2.72887,205586
2.73698,199608
2.74512,195617
2.75323,195280
2.76135,191176
2.76948,185166
2.77760,184388
2.78573,193931
2.79385,204456
2.80197,212854
2.81010,197759
2.81822,191827
2.82635,188107
2.83447,189581
2.84258,185742
2.85072,180991
2.85883,172073
2.86695,174164
2.87508,172848
2.88320,172205
2.89133,155797
2.89945,158431
2.90757,157731
2.91570,160268
2.92382,159126
2.93195,156050
2.94007,152447
2.94818,145749
2.95632,146663
2.96443,142562
2.97255,147386
2.98068,151146
2.98880,146531
2.99693,148054
3.00505,148089
3.01317,149372
3.02130,143923
3.02942,137167
3.03755,137707
3.04567,140691
3.05378,135290
3.06192,136162
3.07003,140984
3.07817,137339
3.08628,152092
3.09440,241511
3.10253,644530
3.11065,2232037
3.11877,4088665
3.12690,3385176
3.13502,2083652
3.14315,1515109
3.15127,1214604
3.15938,986744
3.16752,831185
3.17563,703156
3.18377,594692
3.19188,527320
3.20000,469728
3.20813,421013
3.21625,432420
3.22437,427783
3.23250,403226
3.24062,338403
3.24875,303565
3.25687,290320
3.26498,265564
3.27312,256606
3.28123,242784
3.28937,281607
3.29748,564002
3.30560,1655047
3.31373,3461247
3.32185,4364276
3.32998,3533573
3.33810,2314113
3.34622,1578170
3.35435,1198792
3.36247,965118
3.37058,830109
3.37872,734182
3.38683,653408
3.39497,590990
3.40308,545265
3.41120,500053
3.41933,472265
3.42745,447790
3.43558,413680
3.44370,397647
3.45182,380317
3.45995,360822
3.46807,362959
3.47620,374888
3.48432,378872
3.49243,357395
3.50057,336489
3.50868,319462
3.51680,304487
3.52493,294317
3.53305,276713
3.54118,274517
3.54930,264443
3.55742,253014
3.56555,258344
3.57367,239586
3.58180,250215
3.58992,236285
3.59803,237460
3.60617,229506
3.61428,230765
3.62240,226079
3.63053,239291
3.63865,226582
3.64678,225503
3.65490,215183
3.66302,209116
3.67115,203414
3.67927,202576
3.68740,199863
3.69552,209763
3.70363,201299
3.71177,197700
3.71988,186037
3.72802,185990
3.73613,179051
3.74425,188616
3.75238,188472
3.76050,192517
3.76862,186903
3.77675,191111
3.78487,183318
3.79300,182501
3.80112,243568
3.80923,675517
3.81737,2008415
3.82548,3277797
3.83362,2886518
3.84173,1815720
3.84985,1223597
3.85798,955209
3.86610,805628
3.87423,704954
3.88235,615253
3.89047,562824
3.89860,512055
3.90672,471078
3.91483,442938
3.92297,402361
3.93108,386395
3.93922,363510
3.94733,368063
3.95545,406750
3.96358,595141
3.97170,862121
3.97983,910311
3.98795,702321
3.99607,532672
4.00420,619233
4.01232,1193213
4.02043,1958190
4.02857,2016199
4.03668,1427465
4.04482,880674
4.05293,583531
4.06105,466017
4.06918,404001
4.07730,359986
4.08543,328143
4.09355,291171
4.10167,271873
4.10980,274694
4.11792,254843
4.12605,248698
4.13417,251132
4.14228,260841
4.15042,299924
4.15853,335658
4.16665,332731
4.17478,306951
4.18290,306003
4.19103,300188
4.19915,262132
4.20727,230081
4.21540,228848
4.22352,312498
4.23165,563245
4.23977,787043
4.24788,742883
4.25602,569765
4.26413,429771
4.27227,358347
4.28038,310057
4.28850,268108
4.29663,244773
4.30475,226047
4.31287,209358
4.32100,210333
4.32912,202629
4.33725,205811
4.34537,194050
4.35348,190601
4.36162,175874
4.36973,176656
4.37787,171257
4.38598,170586
4.39410,166568
4.40223,160477
4.41035,160981
4.41847,153798
4.42660,155441
4.43472,162632
4.44285,151069
4.45097,153422
4.45908,156301
4.46722,159426
4.47533,153771
4.48347,152389
4.49158,152639
4.49970,142813
4.50783,148412
4.51595,148349
4.52408,148196
4.53220,139417
4.54032,149497
4.54845,142082
4.55657,140080
4.56468,145217
4.57282,139781
4.58093,141654
4.58907,139018
4.59718,133546
4.60530,139482
4.61343,141943
4.62155,143438
4.62968,132301
4.63780,129989
4.64592,131229
4.65405,128071
4.66217,130548
4.67028,134291
4.67842,131715
4.68653,133098
4.69467,126544
4.70278,124934
4.71090,133685
4.71903,129419
4.72715,132566
4.73528,134797
4.74340,127165
4.75152,124664
4.75965,123316
4.76777,123641
4.77590,114940
4.78402,113996
4.79213,113454
4.80027,113484
4.80838,129028
4.81650,126197
4.82463,127240
4.83275,143091
4.84088,175423
4.84900,199347
4.85712,209293
4.86525,176287
4.87337,150240
4.88150,139933
4.88962,125756
4.89773,129281
4.90587,122266
4.91398,126839
4.92212,124357
4.93023,125072
4.93835,144675
4.94648,233308
4.95460,494432
4.96272,972822
4.97085,1462350
4.97897,1616989
4.98710,1427152
4.99522,1076684
5.00333,765755
5.01147,608677
5.01958,508721
5.02772,432845
5.03583,396608
5.04395,355475
5.05208,329957
5.06020,313447
5.06832,294548
5.07645,277232
5.08457,253520
5.09270,246778
5.10082,245073
5.10893,239953
5.11707,230524
5.12518,222712
5.13332,219899
5.14143,209986
5.14955,203657
5.15768,201519
5.16580,200554
5.17393,208797
5.18205,197906
5.19017,187629
5.19830,187608
5.20642,185085
5.21453,188166
5.22267,184492
5.23078,184022
5.23892,194263
5.24703,199295
5.25515,201172
5.26328,194473
5.27140,172470
5.27953,160091
5.28765,153151
5.29577,149015
5.30390,149810
5.31202,145878
5.32015,142375
5.32827,159994
5.33638,171458
5.34452,199034
5.35263,213479
5.36075,200686
5.36888,182393
5.37700,152963
5.38513,153690
5.39325,152204
5.40137,139911
5.40950,141403
5.41762,138735
5.42575,135120
5.43387,130167
5.44198,130482
5.45012,149658
5.45823,143093
5.46635,136428
5.47448,141031
5.48260,126751
5.49073,123550
5.49885,117840
5.50697,128647
5.51510,133271
5.52322,140506
5.53135,150582
5.53947,139473
5.54758,132499
5.55572,125807
5.56383,127905
5.57197,126901
5.58008,127884
5.58820,143317
5.59633,151381
5.60445,148061
5.61257,150094
5.62070,136808
5.62882,130222
5.63695,129830
5.64507,129340
5.65318,134648
5.66132,122073
5.66943,122179
5.67757,131839
5.68568,163896
5.69380,202763
5.70193,228228
5.71005,228310
5.71817,192621
5.72630,161455
5.73442,145471
5.74255,131732
5.75067,123811
5.75878,124286
5.76692,119790
5.77503,117247
5.78317,116441
5.79128,114461
5.79940,112056
5.80753,103560
5.81565,105289
5.82378,108767
5.83190,109463
5.84002,105273
5.84815,104001
5.85627,107149
5.86438,105935
5.87252,101698
5.88063,103867
5.88877,100433
5.89688,106728
5.90500,95547
5.91313,92881
5.92125,89353
5.92938,83342
5.93750,80748
5.94562,79577
5.95375,85068
5.96187,86332
5.97000,88947
5.97812,108080
5.98623,119121
5.99437,135800
6.00248,126833
6.01060,116479
6.01873,101563
6.02685,95383
6.03498,93252
6.04310,90960
6.05122,85093
6.05935,84242
6.06747,84455
6.07560,87909
6.08372,82230
6.09183,79622
6.09997,74509
6.10808,73560
6.11622,80187
6.12433,81974
6.13245,79518
6.14058,88245
6.14870,88325
6.15682,102466
6.16495,112609
6.17307,115879
6.18120,112335
6.18932,100592
6.19743,95329
6.20557,109981
6.21368,98731
6.22182,110170
6.22993,109806
6.23805,114293
6.24618,113295
6.25430,118692
6.26242,115981
6.27055,113522
6.27867,118274
6.28680,125268
6.29492,125825
6.30303,120012
6.31117,118771
6.31928,124711
6.32742,122582
6.33553,127411
6.34365,126503
6.35178,130100
6.35990,134297
6.36803,138875
6.37615,133992
6.38427,141054
6.39240,139601
6.40052,144786
6.40863,142094
6.41677,146204
6.42488,146935
6.43302,151231
6.44113,145836
6.44925,145034
6.45738,156511
6.46550,157418
6.47363,148954
6.48175,159824
6.48987,158668
6.49800,159905
6.50612,163813
6.51423,168407
6.52237,161606
6.53048,164045
6.53862,169930
6.54673,164712
6.55485,173891
6.56298,178591
6.57110,180721
6.57923,174393
6.58735,177359
6.59547,172118
6.60360,182070
6.61172,181856
6.61985,187949
6.62797,189328
6.63608,202033
6.64422,352603
6.65233,1305162
6.66045,5141675
6.66858,1.330806E+07
6.67670,2.17407E+07
6.68483,2.496045E+07
6.69295,2.146795E+07
6.70107,1.440841E+07
6.70920,8575898
6.71732,5434599
6.72545,4018862
6.73357,3175963
6.74168,2629788
6.74982,2279578
6.75793,2002354
6.76607,1755109
6.77418,1684288
6.78230,1520271
6.79043,1375573
6.79855,1253146
6.80667,1154913
6.81480,1068482
6.82292,991594
6.83105,933845
6.83917,866265
6.84728,837485
6.85542,811423
6.86353,737883
6.87167,694820
6.87978,649980
6.88790,607230
6.89603,574327
6.90415,528038
6.91227,516751
6.92040,475866
6.92852,449861
6.93665,417736
6.94477,392546
6.95288,386235
6.96102,368736
6.96913,371889
6.97727,357243
6.98538,366255
6.99350,339633
7.00163,297995
7.00975,245853
7.01788,195051
7.02600,160847
7.03412,178874
7.04225,264924
7.05037,385875
7.05848,447734
7.06662,455281
7.07473,442613
7.08287,434711
7.09098,429633
7.09910,411994
7.10723,405885
7.11535,393523
7.12348,369294
7.13160,367972
7.13972,347980
7.14785,351927
7.15597,343500
7.16410,338460
7.17222,331955
7.18033,317766
7.18847,309542
7.19658,296544
7.20470,302012
7.21283,295399
7.22095,335392
7.22908,463806
7.23720,728304
7.24532,1116914
7.25345,1360145
7.26157,1192364
7.26970,870239
7.27782,585767
7.28593,443169
7.29407,361798
7.30218,315217
7.31030,269590
7.31843,245129
7.32655,237381
7.33468,217032
7.34280,226991
7.35092,221757
7.35905,208967
7.36717,203626
7.37530,206860
7.38342,204384
7.39153,202467
7.39967,194443
7.40778,197080
7.41592,192276
7.42403,186198
7.43215,182048
7.44028,178899
7.44840,177070
7.45652,178921
7.46465,177462
7.47277,171774
7.48090,175249
7.48902,161701
7.49713,163599
7.50527,161428
7.51338,151913
7.52152,160238
7.52963,154967
7.53775,153803
7.54588,148117
7.55400,154092
7.56212,149911
7.57025,144149
7.57837,135289
7.58650,142123
7.59462,135833
7.60273,135400
7.61087,134654
7.61898,134789
7.62712,125570
7.63523,137646
7.64335,124102
7.65148,125962
7.65960,124965
7.66773,120671
7.67585,126246
7.68397,126000
7.69210,123165
7.70022,124026
7.70833,121841
7.71647,113589
7.72458,118410
7.73272,114404
7.74083,112738
7.74895,115631
7.75708,118621
7.76520,108831
7.77333,116013
7.78145,110301
7.78957,113678
7.79770,116532
7.80582,115894
7.81395,114189
7.82207,109068
7.83018,107436
7.83832,102654
7.84643,107013
7.85455,102680
7.86268,105395
7.87080,101957
7.87893,102585
7.88705,103350
7.89517,112753
7.90330,103274
7.91142,104462
7.91955,103796
7.92767,127788
7.93578,186350
7.94392,265244
7.95203,337975
7.96015,371649
7.96828,323891
7.97640,245048
7.98453,176549
7.99265,134639
8.00077,117437
8.00890,105741
8.01702,102671
8.02515,93019
8.03327,100003
8.04138,91591
8.04952,90706
8.05763,94368
8.06577,88855
8.07388,90447
8.08200,91345
8.09013,87638
8.09825,88733
8.10637,80781
8.11450,82636
8.12262,85381
8.13075,84344
8.13887,82304
8.14698,83297
8.15512,85530
8.16323,84349
8.17137,79881
8.17948,85650
8.18760,77072
8.19573,79150
8.20385,79527
8.21198,76546
8.22010,75397
8.22822,76255
8.23635,81052
8.24447,75510
8.25258,76634
8.26072,76597
8.26883,71832
8.27697,74827
8.28508,70598
8.29320,79429
8.30133,74005
8.30945,71475
8.31758,78386
8.32570,76984
8.33382,76663
8.34195,75788
8.35007,74114
8.35818,69033
8.36632,70879
8.37443,73692
8.38257,75524
8.39068,74849
8.39880,66015
8.40693,61154
8.41505,59147
8.42318,51214
8.43130,51794
8.43942,56142
8.44755,59882
8.45567,71472
8.46380,85215
8.47192,93038
8.48003,91030
8.48817,88148
8.49628,74848
8.50440,66509
8.51253,59509
8.52065,58598
8.52878,72903
8.53690,122004
8.54502,221660
8.55315,397229
8.56127,545864
8.56940,592134
8.57752,475754
8.58563,318591
8.59377,186194
8.60188,122771
8.61000,96596
8.61813,87456
8.62625,81754
8.63438,77430
8.64250,74439
8.65062,72918
8.65875,67159
8.66687,67577
8.67500,62087
8.68312,58807
8.69123,64641
8.69937,64333
8.70748,60478
8.71562,61674
8.72373,61795
8.73185,60370
8.73998,59808
8.74810,71910
8.75622,137628
8.76435,396336
8.77247,1141895
8.78060,2722363
8.78872,4942471
8.79683,6408930
8.80497,6328005
8.81308,4951473
8.82122,3063562
8.82933,1722526
8.83745,994795
8.84558,641889
8.85370,503564
8.86183,443906
8.86995,385015
8.87807,319411
8.88620,284311
8.89432,247525
8.90243,222780
8.91057,192117
8.91868,175114
8.92682,168523
8.93493,153574
8.94305,139945
8.95118,142003
8.95930,129422
8.96743,124834
8.97555,118506
8.98367,108183
8.99180,107664
8.99992,103487
9.00803,103632
9.01617,95563
9.02428,99111
9.03242,92421
9.04053,95417
9.04865,88629
9.05678,86048
9.06490,92037
9.07303,87286
9.08115,84771
9.08927,84286
9.09740,81237
9.10552,80853
9.11365,79502
9.12177,76924
9.12988,73328
9.13802,78348
9.14613,80241
9.15425,71571
9.16238,76223
9.17050,77647
9.17863,71179
9.18675,68846
9.19487,68383
9.20300,66340
9.21112,67005
9.21925,65774
9.22737,63042
9.23548,70186
9.24362,76221
9.25173,82809
9.25987,87566
9.26798,86497
9.27610,85964
9.28423,82451
9.29235,74760
9.30047,68517
9.30860,68137
9.31672,59730
9.32485,60569
9.33297,56545
9.34108,57903
9.34922,65719
9.35733,54728
9.36547,54546
9.37358,58922
9.38170,56604
9.38983,54594
9.39795,51863
9.40607,58030
9.41420,56299
9.42232,53456
9.43045,57697
9.43857,51554
9.44668,54712
9.45482,55131
9.46293,49813
9.47107,53096
9.47918,53959
9.48730,52284
9.49543,52516
9.50355,61177
9.51168,81733
9.51980,96111
9.52792,126534
9.53605,118420
9.54417,117602
9.55228,105245
9.56042,93132
9.56853,87904
9.57667,84484
9.58478,76272
9.59290,66624
9.60103,66340
9.60915,58685
9.61728,54218
9.62540,46904
9.63352,48257
9.64165,46842
9.64977,47739
9.65790,46154
9.66602,43950
9.67413,42612
9.68227,46566
9.69038,43146
9.69850,44672
9.70663,41660
9.71475,40147
9.72288,38882
9.73100,38343
9.73912,42952
9.74725,39306
9.75537,36883
9.76350,42372
9.77162,39823
9.77973,38187
9.78787,38157
9.79598,38933
9.80410,39437
9.81223,39160
9.82035,38531
9.82848,39335
9.83660,37102
9.84472,38737
9.85285,34802
9.86097,39668
9.86910,36083
9.87722,39685
9.88533,36569
9.89347,38824
9.90158,35278
9.90972,34769
9.91783,40112
9.92595,37971
9.93408,39621
9.94220,49293
9.95032,54744
9.95845,57057
9.96657,58843
9.97470,58726
9.98282,55533
9.99093,52220
9.99907,49761
10.00718,47701
10.01532,54869
10.02343,50479
10.03155,47585
10.03968,42083
10.04780,42697
10.05592,41240
10.06405,38914
10.07217,39853
10.08030,37216
10.08842,39794
10.09653,37814
10.10467,40617
10.11278,46224
10.12092,41052
10.12903,37062
10.13715,39172
10.14528,41620
10.15340,37080
10.16153,37009
10.16965,39931
10.17777,34226
10.18590,35965
10.19402,37962
10.20213,34259
10.21027,41842
10.21838,36620
10.22652,34158
10.23463,39542
10.24275,43858
10.25088,55520
10.25900,70749
10.26713,142481
10.27525,370165
10.28337,994019
10.29150,2349346
10.29962,4581971
10.30775,7379343
10.31587,1.103107E+07
10.32398,1.556709E+07
10.33212,2.182824E+07
10.34023,3.050521E+07
10.34835,4.053054E+07
10.35648,4.954964E+07
10.36460,5.879442E+07
10.37273,6.604433E+07
10.38085,7.252631E+07
10.38897,7.706419E+07
10.39710,7.954948E+07
10.40522,7.424894E+07
10.41335,4.463152E+07
10.42147,1.152011E+07
10.42958,3385242
10.43772,2211521
10.44583,1907695
10.45395,1677078
10.46208,1497471
10.47020,1374163
10.47833,1247401
10.48645,1151059
10.49457,1057964
10.50270,980578
10.51082,920535
10.51895,859765
10.52707,806640
10.53518,770561
10.54332,731567
10.55143,680448
10.55957,650199
10.56768,619817
10.57580,583759
10.58393,560105
10.59205,530534
10.60017,502802
10.60830,498134
10.61642,476930
10.62455,455877
10.63267,438981
10.64078,427952
10.64892,405817
10.65703,394880
10.66517,370882
10.67328,366582
10.68140,351903
10.68953,339896
10.69765,321825
10.70578,319727
10.71390,306917
10.72202,291588
10.73015,295366
10.73827,284278
10.74638,271396
10.75452,261142
10.76263,262395
10.77077,255826
10.77888,247048
10.78700,236618
10.79513,229762
10.80325,230013
10.81138,220398
10.81950,213127
10.82762,216149
10.83575,216785
10.84387,204506
10.85198,192045
10.86012,192784
10.86823,192309
10.87637,189182
10.88448,184424
10.89260,169252
10.90073,167016
10.90885,169630
10.91698,172685
10.92510,168451
10.93322,151943
10.94135,152589
10.94947,149232
10.95760,161077
10.96572,149996
10.97383,144361
10.98197,148556
10.99008,138189
10.99820,137919
11.00633,136206
11.01445,136567
11.02258,127788
11.03070,128310
11.03882,128557
11.04695,122091
11.05507,121319
11.06320,121085
11.07132,118185
11.07943,117794
11.08757,114953
11.09568,114141
11.10380,109555
11.11193,112098
11.12005,99512
11.12818,92987
11.13630,81804
11.14442,68421
11.15255,66388
11.16067,61288
11.16880,60399
11.17692,60630
11.18503,69174
11.19317,57914
11.20128,61989
11.20942,62775
11.21753,64828
11.22565,59811
11.23378,53619
11.24190,53589
11.25002,49857
11.25815,51392
11.26627,47714
11.27440,51216
11.28252,48148
11.29063,48391
11.29877,47019
11.30688,47552
11.31502,47735
11.32313,48235
11.33125,46914
11.33938,50325
11.34750,48868
11.35563,47872
11.36375,48358
11.37187,44333
11.38000,45991
11.38812,41323
11.39623,43510
11.40437,44761
11.41248,39952
11.42062,42200
11.42873,43175
11.43685,40988
11.44498,39581
11.45310,44799
11.46123,45973
11.46935,47229
11.47747,46597
11.48560,54062
11.49372,69231
11.50183,83878
11.50997,100952
11.51808,107219
11.52622,102096
11.53433,99274
11.54245,105535
11.55058,118293
11.55870,120634
11.56683,107096
11.57495,91275
11.58307,75464
11.59120,66332
11.59932,53809
11.60745,51909
11.61557,51542
11.62368,46258
11.63182,48403
11.63993,47073
11.64805,56170
11.65618,46389
11.66430,47392
11.67243,47848
11.68055,43604
11.68867,48386
11.69680,50539
11.70492,48374
11.71305,48334
11.72117,50090
11.72928,48558
11.73742,44677
11.74553,41823
11.75367,43560
11.76178,44227
11.76990,43306
11.77803,41124
11.78615,44481
11.79427,40538
11.80240,40704
11.81052,43140
11.81865,42217
11.82677,40636
11.83488,42852
11.84302,40435
11.85113,43331
11.85927,42636
11.86738,41677
11.87550,42982
11.88363,39546
11.89175,43753
11.89987,47279
11.90800,46348
11.91612,46832
11.92425,50920
11.93237,51512
11.94048,49038
11.94862,49224
11.95673,44584
11.96487,47117
11.97298,43396
11.98110,41480
11.98923,42362
11.99735,47828
12.00548,56352
12.01360,70910
12.02172,75543
12.02985,81283
12.03797,69150
12.04608,64028
12.05422,55927
12.06233,47688
12.07047,43176
12.07858,42253
12.08670,43525
12.09483,44088
12.10295,48137
12.11108,41922
12.11920,52141
12.12732,45459
12.13545,52427
12.14357,48463
12.15168,47545
12.15982,42341
12.16793,40384
12.17607,39943
12.18418,37410
12.19230,41428
12.20043,41009
12.20855,41988
12.21668,43759
12.22480,41862
12.23292,46145
12.24105,40490
12.24917,42416
12.25730,41616
12.26542,45373
12.27353,45333
12.28167,47263
12.28978,44404
12.29790,41136
12.30603,40674
12.31415,44780
12.32228,41222
12.33040,40102
12.33852,38781
12.34665,36047
12.35477,39269
12.36290,38609
12.37102,36710
12.37913,35754
12.38727,39130
12.39538,34700
12.40352,45136
12.41163,38705
12.41975,44804
12.42788,39234
12.43600,41385
12.44412,41826
12.45225,44708
12.46037,42223
12.46850,40398
12.47662,48624
12.48473,36602
12.49287,36855
12.50098,38490
12.50912,34362
12.51723,37011
12.52535,35616
12.53348,35667
12.54160,40434
12.54973,46144
12.55785,53499
12.56597,72486
12.57410,76829
12.58222,84900
12.59033,84726
12.59847,69906
12.60658,51519
12.61472,48725
12.62283,47511
12.63095,46908
12.63908,42747
12.64720,44795
12.65533,44135
12.66345,38626
12.67157,39256
12.67970,41507
12.68782,37641
12.69593,39050
12.70407,36980
12.71218,36082
12.72032,36163
12.72843,39505
12.73655,38951
12.74468,41791
12.75280,41187
12.76093,39313
12.76905,41923
12.77717,38119
12.78530,37112
12.79342,37905
12.80155,36109
12.80967,34841
12.81778,35558
12.82592,33754
12.83403,33821
12.84215,37324
12.85028,34474
12.85840,33144
12.86653,31050
12.87465,33377
12.88277,34330
12.89090,35885
12.89902,35910
12.90715,37004
12.91527,35412
12.92338,32743
12.93152,33593
12.93963,33289
12.94775,31688
12.95588,33542
12.96400,33444
12.97213,34481
12.98025,43179
12.98837,39660
12.99650,39911
13.00462,38852
13.01275,38490
13.02087,33219
13.02898,32804
13.03712,35608
13.04523,34962
13.05337,36697
13.06148,32514
13.06960,35234
13.07773,35985
13.08585,40548
13.09397,39846
13.10210,39461
13.11022,41553
13.11835,39829
13.12647,39251
13.13458,39628
13.14272,32218
13.15083,38340
13.15897,34775
13.16708,38338
13.17520,36955
13.18333,37932
13.19145,38297
13.19958,39559
13.20770,38646
13.21582,37381
13.22395,44673
13.23207,36423
13.24018,38397
13.24832,35823
13.25643,35554
13.26457,31974
13.27268,32778
13.28080,37389
13.28893,33804
13.29705,35755
13.30518,34860
13.31330,35348
13.32142,32836
13.32955,29552
13.33767,31492
13.34578,30578
13.35392,30063
13.36203,34837
13.37017,33977
13.37828,31692
13.38640,30432
13.39453,28658
13.40265,32378
13.41078,33509
13.41890,33347
13.42702,34267
13.43515,33121
13.44327,34377
13.45140,35106
13.45952,30583
13.46763,35895
13.47577,30659
13.48388,33571
13.49200,32401
13.50013,32432
13.50825,30651
13.51638,27324
13.52450,31308
13.53262,32076
13.54075,31786
13.54887,32707
13.55700,34885
13.56512,35381
13.57323,39872
13.58137,39402
13.58948,35152
13.59762,35373
13.60573,32944
13.61385,32954
13.62198,32592
13.63010,29770
13.63822,30151
13.64635,32510
13.65447,29826
13.66260,29208
13.67072,29592
13.67883,30361
13.68697,29651
13.69508,29823
13.70322,28352
13.71133,28836
13.71945,29730
13.72758,30071
13.73570,35322
13.74382,31618
13.75195,40735
13.76007,51949
13.76820,78507
13.77632,106708
13.78443,134829
13.79257,156434
13.80068,143228
13.80882,126152
13.81693,95809
13.82505,76177
13.83318,58942
13.84130,48426
13.84943,48240
13.85755,44539
13.86567,48098
13.87380,44385
13.88192,41397
13.89003,39110
13.89817,40489
13.90628,41641
13.91442,43759
13.92253,42924
13.93065,40367
13.93878,42999
13.94690,44436
13.95503,46287
13.96315,69246
13.97127,122273
13.97940,183322
13.98752,240185
13.99563,249881
14.00377,250735
14.01188,214384
14.02002,164374
14.02813,124415
14.03625,98404
14.04438,80761
14.05250,79559
14.06063,69656
14.06875,67021
14.07687,66790
14.08500,64039
14.09312,56373
14.10125,57496
14.10937,51502
14.11748,54959
14.12562,50303
14.13373,47577
14.14185,52414
14.14998,50887
14.15810,54154
14.16623,48754
14.17435,49162
14.18247,48887
14.19060,56156
14.19872,61411
14.20685,71544
14.21497,98265
14.22308,121737
14.23122,138515
14.23933,135718
14.24747,125191
14.25558,114777
14.26370,115545
14.27183,102307
14.27995,94086
14.28807,85177
14.29620,78259
14.30432,73411
14.31245,62338
14.32057,66358
14.32868,65018
14.33682,69651
14.34493,61943
14.35307,59579
14.36118,59555
14.36930,59541
14.37743,57166
14.38555,54765
14.39367,45414
14.40180,47505
14.40992,44368
14.41805,39848
14.42617,40149
14.43428,38152
14.44242,37664
14.45053,34278
14.45867,33729
14.46678,35692
14.47490,36183
14.48303,38026
14.49115,37182
14.49928,38280
14.50740,37563
14.51552,41596
14.52365,39538
14.53177,41099
14.53988,36960
14.54802,39265
14.55613,43556
14.56427,38750
14.57238,31936
14.58050,36666
14.58863,34106
14.59675,39996
14.60488,35851
14.61300,31609
14.62112,36287
14.62925,39103
14.63737,32817
14.64550,31489
14.65362,35571
14.66173,34220
14.66987,31460
14.67798,30755
14.68610,32144
14.69423,30825
14.70235,33352
14.71048,31609
14.71860,30619
14.72672,35114
14.73485,33276
14.74297,35055
14.75110,34202
14.75922,34796
14.76733,35034
14.77547,32873
14.78358,33306
14.79170,34903
14.79983,33258
14.80795,34473
14.81608,34431
14.82420,36013
14.83232,40167
14.84045,46318
14.84857,40342
14.85670,42898
14.86482,42433
14.87293,45061
14.88107,38325
14.88918,38682
14.89732,38479
14.90543,37498
14.91355,41496
14.92168,35206
14.92980,37290
14.93792,33001
14.94605,37403
14.95417,35775
14.96230,37169
14.97042,41185
14.97853,35326
14.98667,40239
14.99478,34398
15.00292,35045
15.01103,34772
15.01915,31740
15.02728,30220
15.03540,35543
15.04353,37002
15.05165,32606
15.05977,31614
15.06790,35363
15.07602,33502
15.08413,33560
15.09227,30880
15.10038,33396
15.10852,35018
15.11663,29934
15.12475,29560
15.13288,31899
15.14100,30967
15.14913,27388
15.15725,28336
15.16537,31219
15.17350,35054
15.18162,34059
15.18973,32579
15.19787,34188
15.20598,33116
15.21412,31244
15.22223,31013
15.23035,29172
15.23848,30830
15.24660,28467
15.25473,35717
15.26285,29460
15.27097,30277
15.27910,30977
15.28722,28401
15.29535,28036
15.30347,29675
15.31158,29850
15.31972,35279
15.32783,29004
15.33595,29758
15.34408,30813
15.35220,31291
15.36033,30285
15.36845,29895
15.37657,30897
15.38470,28783
15.39282,28238
15.40095,26359
15.40907,32151
15.41718,31436
15.42532,30525
15.43343,30699
15.44155,27754
15.44968,28071
15.45780,27894
15.46593,29737
15.47405,29383
15.48217,28254
15.49030,32090
15.49842,40319
15.50655,85019
15.51467,190582
15.52278,467293
15.53092,1090697
15.53903,2535762
15.54717,4489804
15.55528,5827075
15.56340,6164793
15.57153,5105532
15.57965,3560577
15.58777,2306324
15.59590,1456603
15.60402,968291
15.61215,706245
15.62027,533500
15.62838,426792
15.63652,356224
15.64463,303040
15.65277,243948
15.66088,220658
15.66900,189934
15.67713,171549
15.68525,166680
15.69338,139087
15.70150,125827
15.70962,111579
15.71775,110834
15.72587,103718
15.73398,94923
15.74212,91964
15.75023,86980
15.75837,84373
15.76648,81435
15.77460,86572
15.78273,88002
15.79085,85705
15.79898,95460
15.80710,93766
15.81522,85968
15.82335,78405
15.83147,65969
15.83958,65763
15.84772,56965
15.85583,58027
15.86397,56818
15.87208,63090
15.88020,67397
15.88833,77557
15.89645,90642
15.90458,91956
15.91270,90506
15.92082,82991
15.92895,68101
15.93707,68170
15.94520,58034
15.95332,56035
15.96143,56898
15.96957,62354
15.97768,70101
15.98580,77810
15.99393,79290
16.00205,82469
16.01018,75326
16.01830,74380
16.02642,66868
16.03455,66451
16.04267,66105
16.05080,55530
16.05892,57500
16.06703,51777
16.07517,51837
16.08328,46830
16.09142,45506
16.09953,51249
16.10765,45082
16.11578,44295
16.12390,44674
16.13202,42336
16.14015,39673
16.14827,42258
16.15640,40608
16.16452,38858
16.17263,35182
16.18077,40258
16.18888,40541
16.19702,39871
16.20513,40072
16.21325,37924
16.22138,40928
16.22950,41143
16.23762,43624
16.24575,37188
16.25387,39080
16.26200,37860
16.27012,36588
16.27823,39751
16.28637,41647
16.29448,38071
16.30262,39912
16.31073,32906
16.31885,34980
16.32698,37301
16.33510,38093
16.34323,40546
16.35135,42852
16.35947,50025
16.36760,65180
16.37572,77329
16.38383,85697
16.39197,94901
16.40008,86234
16.40822,77625
16.41633,69632
16.42445,55451
16.43258,50666
16.44070,46978
16.44883,39823
16.45695,43876
16.46507,41393
16.47320,40629
16.48132,38903
16.48943,43164
16.49757,45970
16.50568,40734
16.51382,40729
16.52193,37990
16.53005,38763
16.53818,37083
16.54630,36514
16.55443,35367
16.56255,37161
16.57067,43187
16.57880,38807
16.58692,36714
16.59505,47489
16.60317,45043
16.61128,51826
16.61942,51518
16.62753,55011
16.63565,52506
16.64378,49331
16.65190,48656
16.66003,39868
16.66815,39861
16.67627,35819
16.68440,34615
16.69252,38978
16.70065,34140
16.70877,33874
16.71688,30417
16.72502,30480
16.73313,31534
16.74127,31348
16.74938,31675
16.75750,33363
16.76563,32484
16.77375,34166
16.78187,34800
16.79000,32144
16.79812,29902
16.80625,29432
16.81437,33372
16.82248,32903
16.83062,28860
16.83873,30816
16.84687,32748
16.85498,33698
16.86310,31222
16.87123,28629
16.87935,31809
16.88747,31269
16.89560,28744
16.90372,30617
16.91185,31067
16.91997,31838
16.92808,34865
16.93622,28769
16.94433,32653
16.95247,29664
16.96058,32251
16.96870,32222
16.97683,28492
16.98495,31527
16.99308,28753
17.00120,30351
17.00932,31565
17.01745,30356
17.02557,31030
17.03368,29240
17.04182,31082
17.04993,30732
17.05807,28174
17.06618,33766
17.07430,29849
17.08243,27033
17.09055,29591
17.09868,30374
17.10680,33089
17.11492,30470
17.12305,30729
17.13117,34880
17.13930,32384
17.14742,30733
17.15553,30786
17.16367,36683
17.17178,31692
17.17990,29667
17.18803,32204
17.19615,28718
17.20428,31489
17.21240,29966
17.22052,29449
17.22865,30339
17.23677,32421
17.24490,39655
17.25302,31516
17.26113,31484
17.26927,29902
17.27738,30269
17.28550,31182
17.29363,29611
17.30175,28896
17.30988,27674
17.31800,31691
17.32612,35369
17.33425,35142
17.34237,30512
17.35050,36303
17.35862,36567
17.36673,35371
17.37487,34526
17.38298,38541
17.39112,38700
17.39923,37082
17.40735,32681
17.41548,34199
17.42360,30785
17.43172,33616
17.43985,33382
17.44797,35133
17.45610,38751
17.46422,32406
17.47233,35434
17.48047,33037
17.48858,32428
17.49672,30426
17.50483,31609
17.51295,33261
17.52108,33455
17.52920,36079
17.53732,31458
17.54545,34954
17.55357,34987
17.56170,33251
17.56982,32265
17.57793,35595
17.58607,36108
17.59418,33775
17.60232,37726
17.61043,36328
17.61855,37187
17.62668,37867
17.63480,47090
17.64293,54359
17.65105,88583
17.65917,120548
17.66730,161524
17.67542,197473
17.68353,209431
17.69167,193316
17.69978,158863
17.70792,124986
17.71603,90571
17.72415,78845
17.73228,66077
17.74040,62393
17.74853,54768
17.75665,49024
17.76477,52969
17.77290,47842
17.78102,48997
17.78915,42609
17.79727,44074
17.80538,43374
17.81352,42655
17.82163,42145
17.82975,43992
17.83788,43380
17.84600,46138
17.85413,43077
17.86225,46307
17.87037,40857
17.87850,42403
17.88662,42770
17.89475,35306
17.90287,34566
17.91098,33170
17.91912,38959
17.92723,32796
17.93537,34182
17.94348,34659
17.95160,34203
17.95973,33067
17.96785,33361
17.97597,32274
17.98410,32112
17.99222,32920
18.00035,37384
18.00847,32148
18.01658,31435
18.02472,30464
18.03283,32512
18.04097,35290
18.04908,35385
18.05720,38106
18.06533,36647
18.07345,35127
18.08157,35810
18.08970,35931
18.09782,35139
18.10595,37337
18.11407,41485
18.12218,40387
18.13032,39900
18.13843,39725
18.14657,39563
18.15468,43131
18.16280,43803
18.17093,44692
18.17905,44227
18.18718,44794
18.19530,43758
18.20342,46826
18.21155,44601
18.21967,40113
18.22778,40143
18.23592,37110
18.24403,34804
18.25217,37530
18.26028,36128
18.26840,36738
18.27653,37990
18.28465,36167
18.29278,36131
18.30090,37263
18.30902,35087
18.31715,31483
18.32527,32560
18.33338,32065
18.34152,32291
18.34963,31417
18.35777,32900
18.36588,34218
18.37400,32587
18.38213,32262
18.39025,35709
18.39838,38851
18.40650,30172
18.41462,31260
18.42275,33670
18.43087,33825
18.43900,33063
18.44712,30341
18.45523,29992
18.46337,31009
18.47148,30883
18.47960,35392
18.48773,30052
18.49585,32403
18.50398,33785
18.51210,30064
18.52022,34123
18.52835,32389
18.53647,30749
18.54460,27276
18.55272,27542
18.56083,28345
18.56897,27695
18.57708,32367
18.58522,30394
18.59333,32715
18.60145,37833
18.60958,41223
18.61770,36864
18.62582,39603
18.63395,39594
18.64207,35998
18.65020,37733
18.65832,38615
18.66643,36222
18.67457,32708
18.68268,38194
18.69082,38873
18.69893,37004
18.70705,37935
18.71518,36816
18.72330,35417
18.73142,33307
18.73955,34873
18.74767,30756
18.75580,32995
18.76392,36093
18.77203,35828
18.78017,38592
18.78828,30341
18.79642,34174
18.80453,34543
18.81265,36219
18.82078,33228
18.82890,34901
18.83703,37923
18.84515,33729
18.85327,34111
18.86140,38190
18.86952,37153
18.87763,36823
18.88577,36137
18.89388,36495
18.90202,37621
18.91013,33692
18.91825,40374
18.92638,40550
18.93450,44837
18.94263,47625
18.95075,60569
18.95887,74968
18.96700,84555
18.97512,85012
18.98325,93558
18.99137,86033
18.99948,69964
19.00762,63246
19.01573,53196
19.02385,49676
19.03198,43352
19.04010,44499
19.04823,45094
19.05635,38572
19.06447,42920
19.07260,43030
19.08072,43098
19.08885,45252
19.09697,52264
19.10508,54008
19.11322,59053
19.12133,59874
19.12945,60305
19.13758,55444
19.14570,57273
19.15383,59894
19.16195,56817
19.17007,64675
19.17820,63337
19.18632,60491
19.19445,63913
19.20257,63948
19.21068,59615
19.21882,57952
19.22693,52374
19.23507,48763
19.24318,44822
19.25130,39870
19.25943,38391
19.26755,42582
19.27567,42087
19.28380,46557
19.29192,42916
19.30005,46220
19.30817,46759
19.31628,47794
19.32442,51200
19.33253,49698
19.34067,53551
19.34878,50583
19.35690,54154
19.36503,52097
19.37315,46569
19.38127,43657
19.38940,45601
19.39752,41415
19.40565,38854
19.41377,37790
19.42188,35480
19.43002,37961
19.43813,38946
19.44627,38189
19.45438,36011
19.46250,39134
19.47063,33863
19.47875,37601
19.48688,34846
19.49500,39206
19.50312,43594
19.51125,54224
19.51937,67707
19.52748,75718
19.53562,85423
19.54373,76490
19.55187,61809
19.55998,56864
19.56810,52151
19.57623,42499
19.58435,38016
19.59248,40046
19.60060,36163
19.60872,34257
19.61685,32671
19.62497,35211
19.63310,38434
19.64122,39921
19.64933,50137
19.65747,69189
19.66558,98889
19.67370,116503
19.68183,128611
19.68995,145167
19.69808,123221
19.70620,112375
19.71432,96039
19.72245,78365
19.73057,74270
19.73870,63120
19.74682,59337
19.75493,53510
19.76307,53354
19.77118,49759
19.77930,46395
19.78743,47598
19.79555,48133
19.80368,47507
19.81180,48140
19.81992,46363
19.82805,44534
19.83617,44853
19.84430,40995
19.85242,41453
19.86053,44821
19.86867,59114
19.87678,80760
19.88492,135216
19.89303,234769
19.90115,399192
19.90928,593750
19.91740,785422
19.92552,966003
19.93365,1071138
19.94177,1106210
19.94990,1108616
19.95802,1054477
19.96613,1024215
19.97427,978654
19.98238,918012
19.99052,884323
19.99863,837800
20.00675,789374
20.01488,757498
20.02300,715913
20.03113,696127
20.03925,649263
20.04737,596367
20.05550,491582
20.06362,401192
20.07173,313536
20.07987,238870
20.08798,189492
20.09612,166333
20.10423,156853
20.11235,138783
20.12048,127756
20.12860,123965
20.13673,124660
20.14485,120828
20.15297,119417
20.16110,118239
20.16922,120795
20.17733,117673
20.18547,119952
20.19358,113190
20.20172,110883
20.20983,109432
20.21795,103860
20.22608,96283
20.23420,90895
20.24233,95212
20.25045,96110
20.25857,104489
20.26670,119958
20.27482,143696
20.28295,163053
20.29107,193837
20.29918,206914
20.30732,200556
20.31543,175520
20.32355,148279
20.33168,126531
20.33980,109635
20.34793,89774
20.35605,76559
20.36417,65535
20.37230,54611
20.38042,55492
20.38855,42008
20.39667,46295
20.40478,47699
20.41292,43170
20.42103,40840
20.42917,42449
20.43728,50818
20.44540,54916
20.45353,58602
20.46165,65301
20.46977,65288
20.47790,65371
20.48602,63243
20.49415,56840
20.50227,48465
20.51038,48214
20.51852,43210
20.52663,41623
20.53477,39096
20.54288,38994
20.55100,36520
20.55913,43717
20.56725,38853
20.57537,38290
20.58350,36236
20.59162,37397
20.59975,36980
20.60787,36173
20.61598,36834
20.62412,41040
20.63223,36805
20.64037,34687
20.64848,34363
20.65660,33734
20.66473,35888
20.67285,32410
20.68098,37340
20.68910,35187
20.69722,39346
20.70535,37047
20.71347,36971
20.72158,33439
20.72972,35926
20.73783,35660
20.74597,37163
20.75408,35970
20.76220,33091
20.77033,36081
20.77845,37724
20.78658,36219
20.79470,36396
20.80282,35522
20.81095,36465
20.81907,37519
20.82718,33984
20.83532,33884
20.84343,40883
20.85157,36070
20.85968,36141
20.86780,35717
20.87593,35306
20.88405,36895
20.89218,38080
20.90030,37842
20.90842,35767
20.91655,35345
20.92467,32808
20.93280,37784
20.94092,37297
20.94903,35673
20.95717,36677
20.96528,34385
20.97340,38781
20.98153,31786
20.98965,41514
20.99778,35893
21.00590,33266
21.01402,34343
21.02215,34764
21.03027,34009
21.03840,33740
21.04652,32037
21.05463,35425
21.06277,35614
21.07088,34802
21.07902,36047
21.08713,34126
21.09525,31933
21.10338,33363
21.11150,36169
21.11962,37974
21.12775,36650
21.13587,41061
21.14400,43476
21.15212,41181
21.16023,46704
21.16837,51233
21.17648,52461
21.18462,47575
21.19273,46509
21.20085,42144
21.20898,39713
21.21710,40855
21.22522,38790
21.23335,39172
21.24147,40412
21.24960,40458
21.25772,38325
21.26583,43198
21.27397,39423
21.28208,40493
21.29022,37817
21.29833,39091
21.30645,40821
21.31458,38697
21.32270,37572
21.33083,37300
21.33895,37548
21.34707,38363
21.35520,35804
21.36332,36729
21.37143,36200
21.37957,37651
21.38768,41359
21.39582,36323
21.40393,39532
21.41205,33903
21.42018,37995
21.42830,36130
21.43643,38124
21.44455,38800
21.45267,38308
21.46080,35028
21.46892,34198
21.47705,29860
21.48517,33760
21.49328,31497
21.50142,34170
21.50953,34568
21.51765,32202
21.52578,34508
21.53390,34794
21.54203,31874
21.55015,33257
21.55827,35972
21.56640,33330
21.57452,36883
21.58265,36529
21.59077,28987
21.59888,37531
21.60702,34307
21.61513,38986
21.62325,38343
21.63138,38498
21.63950,44238
21.64763,49039
21.65575,52627
21.66387,60310
21.67200,59408
21.68012,51969
21.68825,44255
21.69637,41028
21.70448,39359
21.71262,39625
21.72073,36184
21.72887,37826
21.73698,36723
21.74510,37425
21.75323,32325
21.76135,35025
21.76947,34534
21.77760,37025
21.78572,36050
21.79385,38295
21.80197,35161
21.81008,37830
21.81822,36091
21.82633,39124
21.83447,43318
21.84258,55142
21.85070,63834
21.85883,66023
21.86695,72521
21.87507,60321
21.88320,57357
21.89132,50184
21.89945,46623
21.90757,44510
21.91568,39957
21.92382,35812
21.93193,34326
21.94007,35311
21.94818,37549
21.95630,34300
21.96443,34492
21.97255,34822
21.98068,33012
21.98880,31487
21.99692,30060
22.00505,34605
22.01317,30153
22.02128,30645
22.02942,31096
22.03753,31528
22.04567,30594
22.05378,33078
22.06190,36443
22.07003,31547
22.07815,34223
22.08628,32360
22.09440,32036
22.10252,29729
22.11065,32289
22.11877,31288
22.12690,33682
22.13502,32114
22.14313,29513
22.15127,34843
22.15938,35874
22.16750,34055
22.17563,32141
22.18375,32132
22.19188,35502
22.20000,33066
22.20812,32315
22.21625,32243
22.22437,31629
22.23250,34634
22.24062,38875
22.24873,35686
22.25687,38235
22.26498,39951
22.27312,41764
22.28123,49241
22.28935,69002
22.29748,95616
22.30560,106765
22.31372,136742
22.32185,156869
22.32997,172158
22.33810,181107
22.34622,169986
22.35433,155184
22.36247,132056
22.37058,112141
22.37872,95020
22.38683,71952
22.39495,63235
22.40308,57716
22.41120,58981
22.41932,52475
22.42745,51219
22.43557,49523
22.44370,42497
22.45182,42636
22.45993,42688
22.46807,40298
22.47618,34045
22.48432,41746
22.49243,37098
22.50055,35752
22.50868,35721
22.51680,38655
22.52493,33250
22.53305,33838
22.54117,31956
22.54930,32888
22.55742,38057
22.56553,38197
22.57367,38171
22.58178,41375
22.58992,32856
22.59803,31150
22.60615,32377
22.61428,34248
22.62240,33674
22.63053,30432
22.63865,33003
22.64677,33659
22.65490,33742
22.66302,34390
22.67113,37027
22.67927,38469
22.68738,44693
22.69552,48717
22.70363,49404
22.71175,49221
22.71988,46762
22.72800,43396
22.73613,44540
22.74425,37934
22.75237,40320
22.76050,39030
22.76862,34132
22.77675,31044
22.78487,32620
22.79298,33675
22.80112,30077
22.80923,29481
22.81735,33577
22.82548,27011
22.83360,32214
22.84173,31997
22.84985,32854
22.85797,34737
22.86610,33311
22.87422,31761
22.88235,33057
22.89047,33426
22.89858,34392
22.90672,33840
22.91483,39852
22.92297,41671
22.93108,54399
22.93920,52376
22.94733,61887
22.95545,58458
22.96357,60811
22.97170,55630
22.97982,52892
22.98795,52676
22.99607,50223
23.00418,44765
23.01232,46470
23.02043,41100
23.02857,42153
23.03668,38653
23.04480,37939
23.05293,35047
23.06105,35415
23.06917,33746
23.07730,35987
23.08542,36364
23.09355,34523
23.10167,34216
23.10978,36204
23.11792,36097
23.12603,34399
23.13417,32336
23.14228,33719
23.15040,29257
23.15853,30874
23.16665,29728
23.17478,35666
23.18290,31488
23.19102,33530
23.19915,32518
23.20727,28394
23.21538,31755
23.22352,39312
23.23163,31932
23.23977,36990
23.24788,40826
23.25600,44613
23.26413,45152
23.27225,50241
23.28038,43654
23.28850,46563
23.29662,39927
23.30475,36423
23.31287,36399
23.32100,35036
23.32912,32230
23.33723,36340
23.34537,34442
23.35348,36266
23.36160,35300
23.36973,35573
23.37785,33962
23.38598,34358
23.39410,39742
23.40222,36864
23.41035,36220
23.41847,37835
23.42660,36846
23.43472,34167
23.44283,38041
23.45097,38183
23.45908,37810
23.46720,34597
23.47533,31352
23.48345,37351
23.49158,39594
23.49970,36833
23.50782,35854
23.51595,34449
23.52407,34874
23.53220,36577
23.54032,35301
23.54843,35169
23.55657,37368
23.56468,36638
23.57282,39934
23.58093,42721
23.58905,52643
23.59718,56639
23.60530,66730
23.61342,74388
23.62155,77645
23.62967,91133
23.63780,102303
23.64592,148219
23.65403,228605
23.66217,340569
23.67028,443817
23.67842,485176
23.68653,496796
23.69465,424741
23.70278,321882
23.71090,249964
23.71902,180676
23.72715,139292
23.73527,116505
23.74340,92813
23.75152,92222
23.75963,109475
23.76777,168086
23.77588,324685
23.78402,629105
23.79213,1102349
23.80025,1554545
23.80838,1801021
23.81650,1808356
23.82463,1507817
23.83275,1212169
23.84087,932097
23.84900,678627
23.85712,522424
23.86523,410881
23.87337,322774
23.88148,282533
23.88962,246182
23.89773,220355
23.90585,203806
23.91398,184719
23.92210,166893
23.93023,152213
23.93835,138913
23.94647,135102
23.95460,132552
23.96272,122336
23.97085,117006
23.97897,115734
23.98708,106783
23.99522,102722
24.00333,100797
24.01145,92265
24.01958,100333
24.02770,102053
24.03583,114008
24.04395,116980
24.05207,119122
24.06020,116601
24.06832,110517
24.07645,102880
24.08457,99000
24.09268,91498
24.10082,85013
24.10893,81128
24.11705,75382
24.12518,69620
24.13330,66700
24.14143,72166
24.14955,72651
24.15767,74411
24.16580,73221
24.17392,75314
24.18205,68879
24.19017,64735
24.19828,65246
24.20642,71966
24.21453,65177
24.22267,65716
24.23078,67277
24.23890,64604
24.24703,67963
24.25515,64249
24.26327,60757
24.27140,58351
24.27952,54609
24.28765,50240
24.29577,55324
24.30388,51670
24.31202,54392
24.32013,49350
24.32827,57416
24.33638,49124
24.34450,50725
24.35263,50426
24.36075,50372
24.36888,47532
24.37700,50644
24.38512,48787
24.39325,57180
24.40137,59555
24.40948,69358
24.41762,73981
24.42573,77287
24.43387,73716
24.44198,60123
24.45010,63193
24.45823,51715
24.46635,44993
24.47448,47808
24.48260,45725
24.49072,46220
24.49885,44643
24.50697,48412
24.51508,50874
24.52322,50365
24.53133,57361
24.53947,58911
24.54758,54708
24.55570,56610
24.56383,49640
24.57195,47858
24.58008,48416
24.58820,45827
24.59632,45665
24.60445,44873
24.61257,48986
24.62070,48680
24.62882,44634
24.63693,47820
24.64507,47405
24.65318,47591
24.66130,47528
24.66943,44394
24.67755,44668
24.68568,44522
24.69380,46722
24.70192,42028
24.71005,41645
24.71817,39962
24.72630,39841
24.73442,38092
24.74253,41027
24.75067,40294
24.75878,42166
24.76690,42309
24.77503,34925
24.78315,34800
24.79128,33482
24.79940,39138
24.80752,40213
24.81565,36642
24.82377,34849
24.83190,37085
24.84002,29623
24.84813,39854
24.85627,37973
24.86438,34643
24.87252,37150
24.88063,34361
24.88875,38707
24.89688,37343
24.90500,34950
24.91312,35194
24.92125,43151
24.92937,34161
24.93750,38838
24.94562,38472
24.95373,35684
24.96187,38411
24.96998,32839
24.97812,36825
24.98623,33808
24.99435,36094
25.00248,32737
25.01060,32487
25.01873,32543
25.02685,38986
25.03497,32528
25.04310,30977
25.05122,36159
25.05933,33815
25.06747,39168
25.07558,33822
25.08372,38027
25.09183,36520
25.09995,36157
25.10808,34468
25.11620,32031
25.12433,32258
25.13245,34530
25.14057,35440
25.14870,39934
25.15682,43683
25.16493,43637
25.17307,39566
25.18118,40265
25.18932,39530
25.19743,39258
25.20555,36926
25.21368,36699
25.22180,34771
25.22993,35661
25.23805,36693
25.24617,33212
25.25430,36516
25.26242,30271
25.27055,31976
25.27867,34840
25.28678,34510
25.29492,37031
25.30303,37531
25.31115,40910
25.31928,44008
25.32740,43679
25.33553,46848
25.34365,44558
25.35177,42033
25.35990,42819
25.36802,35170
25.37615,35619
25.38427,36882
25.39238,32977
25.40052,35800
25.40863,37466
25.41677,32626
25.42488,32427
25.43300,33017
25.44113,36638
25.44925,34805
25.45737,32693
25.46550,33713
25.47362,31299
25.48175,36057
25.48987,32549
25.49798,38958
25.50612,39737
25.51423,38827
25.52237,37182
25.53048,35279
25.53860,31185
25.54673,31795
25.55485,33283
25.56297,34469
25.57110,32832
25.57922,34641
25.58735,32865
25.59547,30755
25.60358,28622
25.61172,34506
25.61983,32113
25.62797,38409
25.63608,50764
25.64420,59287
25.65233,66769
25.66045,71748
25.66858,67062
25.67670,65280
25.68482,54881
25.69295,44908
25.70107,41642
25.70918,37431
25.71732,36797
25.72543,39191
25.73357,38604
25.74168,37343
25.74980,41569
25.75793,39797
25.76605,46901
25.77418,41455
25.78230,42334
25.79042,34251
25.79855,36271
25.80667,41071
25.81480,46894
25.82292,43652
25.83103,45086
25.83917,53107
25.84728,50027
25.85540,52720
25.86353,48985
25.87165,45894
25.87978,42918
25.88790,41071
25.89602,34447
25.90415,36152
25.91227,33006
25.92040,32060
25.92852,31068
25.93663,31004
25.94477,29462
25.95288,33241
25.96100,34472
25.96913,28903
25.97725,30554
25.98538,30287
25.99350,28147
26.00162,28440
26.00975,29505
26.01787,31062
26.02600,26889
26.03412,28427
26.04223,30897
26.05037,30338
26.05848,29496
26.06662,31076
26.07473,29538
26.08285,28097
26.09098,31519
26.09910,31427
26.10722,36546
26.11535,29742
26.12347,35338
26.13160,36776
26.13972,40917
26.14783,42655
26.15597,42521
26.16408,46867
26.17222,47233
26.18033,44192
26.18845,40190
26.19658,35816
26.20470,34000
26.21282,32943
26.22095,35924
26.22907,33102
26.23720,29823
26.24532,31818
26.25343,27367
26.26157,31532
26.26968,28582
26.27782,29280
26.28593,31815
26.29405,30011
26.30218,32967
26.31030,31279
26.31843,36445
26.32655,33518
26.33467,33940
26.34280,33119
26.35092,35950
26.35903,34144
26.36717,33079
26.37528,33917
26.38342,33045
26.39153,29894
26.39965,29319
26.40778,31305
26.41590,33997
26.42403,28604
26.43215,31264
26.44027,31344
26.44840,29738
26.45652,33748
26.46465,30383
26.47277,29511
26.48088,32476
26.48902,30803
26.49713,31707
26.50525,29659
26.51338,27427
26.52150,26730
26.52963,30162
26.53775,25484
26.54587,24256
26.55400,27650
26.56212,28354
26.57025,26766
26.57837,33140
26.58648,24389
26.59462,26440
26.60273,27983
26.61085,33412
26.61898,26268
26.62710,28447
26.63523,28778
26.64335,27984
26.65147,28381
26.65960,28367
26.66772,29869
26.67585,33571
26.68397,37168
26.69208,32856
26.70022,31444
26.70833,31929
26.71647,30083
26.72458,31922
26.73270,30931
26.74083,28646
26.74895,29587
26.75707,30444
26.76520,32892
26.77332,38110
26.78145,34241
26.78957,30936
26.79768,31546
26.80582,32286
26.81393,32477
26.82207,33697
26.83018,33450
26.83830,31533
26.84643,31386
26.85455,29750
26.86268,30292
26.87080,32911
26.87892,35671
26.88705,35665
26.89517,34997
26.90328,32343
26.91142,31158
26.91953,29431
26.92767,29772
26.93578,33341
26.94390,27330
26.95203,29413
26.96015,31284
26.96828,31077
26.97640,32143
26.98452,43013
26.99265,62606
27.00077,95745
27.00888,135852
27.01702,201199
27.02513,250300
27.03327,287615
27.04138,311410
27.04950,292976
27.05763,249905
27.06575,215696
27.07388,176183
27.08200,147305
27.09012,125964
27.09825,110026
27.10637,94774
27.11450,88766
27.12262,80065
27.13073,76683
27.13887,76224
27.14698,71080
27.15510,64244
27.16323,65122
27.17135,65433
27.17948,57815
27.18760,55727
27.19572,60277
27.20385,57597
27.21197,58040
27.22010,54583
27.22822,54296
27.23633,47943
27.24447,48703
27.25258,47873
27.26070,48720
27.26883,46807
27.27695,45187
27.28508,46367
27.29320,42280
27.30132,41902
27.30945,41128
27.31757,45207
27.32570,41428
27.33382,40684
27.34193,44413
27.35007,39535
27.35818,40788
27.36632,42625
27.37443,40438
27.38255,46278
27.39068,40109
27.39880,41975
27.40692,39766
27.41505,42165
27.42317,40593
27.43130,44664
27.43942,40500
27.44753,42336
27.45567,38868
27.46378,34519
27.47192,36301
27.48003,36058
27.48815,35016
27.49628,35955
27.50440,40070
27.51253,39439
27.52065,41995
27.52877,39795
27.53690,38729
27.54502,34689
27.55313,34577
27.56127,36000
27.56938,38023
27.57752,37226
27.58563,33164
27.59375,35369
27.60188,34218
27.61000,38251
27.61813,36873
27.62625,35116
27.63437,36197
27.64250,36957
27.65062,41050
27.65875,32751
27.66687,34373
27.67498,34529
27.68312,32208
27.69123,30157
27.69935,31732
27.70748,30803
27.71560,36600
27.72373,33551
27.73185,32349
27.73997,36081
27.74810,32383
27.75622,30960
27.76435,28615
27.77247,32313
27.78058,35326
27.78872,36531
27.79683,30909
27.80495,31506
27.81308,34268
27.82120,33092
27.82933,35858
27.83745,37780
27.84557,35788
27.85370,34845
27.86182,35070
27.86995,32689
27.87807,35957
27.88618,36248
27.89432,31716
27.90243,32066
27.91057,32859
27.91868,37752
27.92680,31037
27.93493,38471
27.94305,32522
27.95117,32660
27.95930,31983
27.96742,30651
27.97555,31662
27.98367,33625
27.99178,32776
27.99992,30630
28.00803,31347
28.01617,32747
28.02428,30978
28.03240,29702
28.04053,31909
28.04865,32590
28.05677,29953
28.06490,30386
28.07302,30097
28.08115,35522
28.08927,33002
28.09738,31265
28.10552,29589
28.11363,30309
28.12177,32715
28.12988,29989
28.13800,27835
28.14613,31018
28.15425,31578
28.16238,29787
28.17050,28758
28.17862,33577
28.18675,34282
28.19487,37715
28.20298,48315
28.21112,58798
28.21923,72394
28.22737,86382
28.23548,92002
28.24360,84666
28.25173,83494
28.25985,69755
28.26798,59293
28.27610,49104
28.28422,47659
28.29235,42926
28.30047,44322
28.30860,41547
28.31672,40041
28.32483,38877
28.33297,40571
28.34108,47236
28.34920,54203
28.35733,61291
28.36545,67670
28.37358,76737
28.38170,76092
28.38982,82181
28.39795,84201
28.40607,90060
28.41420,88534
28.42232,85357
28.43043,81184
28.43857,83297
28.44668,74174
28.45480,68706
28.46293,67896
28.47105,65689
28.47918,59992
28.48730,54020
28.49542,59983
28.50355,47800
28.51167,46625
28.51980,50412
28.52792,44822
28.53603,41633
28.54417,41164
28.55228,44618
28.56042,43193
28.56853,47107
28.57665,49341
28.58478,42735
28.59290,43768
28.60102,39618
28.60915,43832
28.61727,43633
28.62540,44683
28.63352,49370
28.64163,62612
28.64977,73999
28.65788,84663
28.66602,89864
28.67413,101834
28.68225,94082
28.69038,94334
28.69850,75540
28.70663,62594
28.71475,55371
28.72287,48406
28.73100,47364
28.73912,41053
28.74723,42854
28.75537,45583
28.76348,45994
28.77162,45164
28.77973,44702
28.78785,48775
28.79598,51859
28.80410,51961
28.81223,49206
28.82035,43403
28.82847,41806
28.83660,40353
28.84472,39945
28.85283,38006
28.86097,35618
28.86908,35537
28.87722,36654
28.88533,33450
28.89345,35695
28.90158,42186
28.90970,34675
28.91783,34074
28.92595,33408
28.93407,38132
28.94220,35219
28.95032,40487
28.95845,40475
28.96657,40737
28.97468,46940
28.98282,44819
28.99093,48833
28.99905,38284
29.00718,41168
29.01530,35505
29.02343,37457
29.03155,34298
29.03967,36463
29.04780,35121
29.05592,41949
29.06405,34135
29.07217,33272
29.08028,35253
29.08842,38094
29.09653,34726
29.10465,36178
29.11278,33764
29.12090,33935
29.12903,33136
29.13715,36840
29.14527,36340
29.15340,37091
29.16152,37851
29.16965,32968
29.17777,38487
29.18588,35825
29.19402,34696
29.20213,36172
29.21027,41375
29.21838,36393
29.22650,37608
29.23463,34616
29.24275,36807
29.25087,38601
29.25900,35378
29.26712,36516
29.27525,32585
29.28337,34009
29.29148,35606
29.29962,34616
29.30773,35392
29.31587,29403
29.32398,33806
29.33210,31456
29.34023,32864
29.34835,32536
29.35648,31200
29.36460,34840
29.37272,37237
29.38085,40176
29.38897,38101
29.39708,38593
29.40522,40899
29.41333,46521
29.42147,53339
29.42958,57493
29.43770,55088
29.44583,53628
29.45395,48881
29.46208,43947
29.47020,39623
29.47832,39662
29.48645,36209
29.49457,38002
29.50268,38499
29.51082,40753
29.51893,45803
29.52707,41668
29.53518,42205
29.54330,40921
29.55143,37361
29.55955,32942
29.56768,32847
29.57580,34669
29.58392,34477
29.59205,28755
29.60017,32545
29.60830,31009
29.61642,33896
29.62453,33755
29.63267,34315
29.64078,34881
29.64890,33367
29.65703,33527
29.66515,38468
29.67328,33123
29.68140,33825
29.68952,32581
29.69765,31595
29.70577,30844
29.71390,29918
29.72202,32602
29.73013,32864
29.73827,35624
29.74638,38317
29.75452,35101
29.76263,36314
29.77075,34760
29.77888,32464
29.78700,38623
29.79512,34192
29.80325,34052
29.81137,30211
29.81950,32036
29.82762,27836
29.83573,32840
29.84387,33248
29.85198,34972
29.86012,49046
29.86823,82268
29.87635,157919
29.88448,314351
29.89260,604013
29.90072,942564
29.90885,1179223
29.91697,1199224
29.92510,989148
29.93322,697179
29.94133,409960
29.94947,243431
29.95758,142706
29.96572,98706
29.97383,79933
29.98195,70167
29.99008,73938
29.99820,76229
30.00633,70670
30.01445,74072
30.02257,79582
30.03070,82835
30.03882,78131
30.04693,82417
30.05507,80972
30.06318,81403
30.07132,82413
30.07943,77331
30.08755,83932
30.09568,78503
30.10380,73043
30.11193,71766
30.12005,69913
30.12817,69786
30.13630,61782
30.14442,65552
30.15253,60100
30.16067,62093
30.16878,62367
30.17692,57812
30.18503,56399
30.19315,55887
30.20128,56018
30.20940,51371
30.21753,46615
30.22565,48538
30.23377,48209
30.24190,47209
30.25002,45186
30.25815,45979
30.26627,47337
30.27438,43126
30.28252,43132
30.29063,44603
30.29875,42219
30.30688,40261
30.31500,39996
30.32313,41127
30.33125,43462
30.33937,40945
30.34750,41475
30.35562,42706
30.36375,38911
30.37187,40510
30.37998,41891
30.38812,40290
30.39623,39505
30.40437,39374
30.41248,38165
30.42060,37933
30.42873,37948
30.43685,36062
30.44497,35325
30.45310,36496
30.46122,38795
30.46935,32483
30.47747,37368
30.48558,39348
30.49372,39869
30.50183,36853
30.50997,38287
30.51808,36505
30.52620,33960
30.53433,33489
30.54245,32979
30.55057,39354
30.55870,37171
30.56682,38059
30.57495,36338
30.58307,34885
30.59118,35425
30.59932,36305
30.60743,39234
30.61557,31552
30.62368,33795
30.63180,36867
30.63993,33294
30.64805,37100
30.65618,34170
30.66430,33370
30.67242,30082
30.68055,33105
30.68867,33189
30.69678,35291
30.70492,35623
30.71303,37991
30.72117,32865
30.72928,33816
30.73740,35611
30.74553,34178
30.75365,35383
30.76178,41269
30.76990,51785
30.77802,77670
30.78615,126855
30.79427,238712
30.80240,412236
30.81052,646180
30.81863,791018
30.82677,833503
30.83488,707254
30.84300,523838
30.85113,341946
30.85925,201689
30.86738,125847
30.87550,91945
30.88362,75257
30.89175,66599
30.89987,56734
30.90800,52034
30.91612,54603
30.92423,54091
30.93237,53895
30.94048,51345
30.94860,46301
30.95673,49875
30.96485,45733
30.97298,47067
30.98110,43995
30.98922,44054
30.99735,44392
31.00547,45372
31.01360,49051
31.02172,45922
31.02983,48755
31.03797,47756
31.04608,53047
31.05422,55835
31.06233,54097
31.07045,53093
31.07858,60907
31.08670,65609
31.09482,95807
31.10295,127515
31.11107,163862
31.11920,176621
31.12732,169968
31.13543,149914
31.14357,112994
31.15168,92946
31.15982,66683
31.16793,56355
31.17605,57068
31.18418,50608
31.19230,52951
31.20043,64560
31.20855,79877
31.21667,88349
31.22480,102622
31.23292,106594
31.24103,100018
31.24917,94637
31.25728,84989
31.26542,66545
31.27353,53481
31.28165,52453
31.28978,46062
31.29790,41544
31.30603,42576
31.31415,39427
31.32227,42642
31.33040,39553
31.33852,39652
31.34663,37842
31.35477,45596
31.36288,40700
31.37102,44669
31.37913,48045
31.38725,54422
31.39538,58912
31.40350,57947
31.41163,54522
31.41975,50542
31.42787,49373
31.43600,48188
31.44412,43178
31.45225,40348
31.46037,41535
31.46848,38691
31.47662,39574
31.48473,39773
31.49285,42182
31.50098,40945
31.50910,37677
31.51723,36253
31.52535,36655
31.53347,36710
31.54160,39099
31.54972,37768
31.55785,38320
31.56597,41458
31.57408,40973
31.58222,37223
31.59033,40117
31.59845,39043
31.60658,41569
31.61470,38790
31.62283,41319
31.63095,35806
31.63907,37763
31.64720,38975
31.65532,38935
31.66345,40732
31.67157,38740
31.67968,34782
31.68782,38027
31.69593,36888
31.70407,34865
31.71218,35183
31.72030,36643
31.72843,34164
31.73655,37418
31.74467,35414
31.75280,34040
31.76092,41369
31.76905,33162
31.77717,35769
31.78528,33836
31.79342,36493
31.80153,37715
31.80967,39828
31.81778,38844
31.82590,38615
31.83403,36746
31.84215,42353
31.85028,39430
31.85840,42388
31.86652,42228
31.87465,50273
31.88277,42071
31.89088,41464
31.89902,43881
31.90713,49182
31.91527,47380
31.92338,51672
31.93150,55351
31.93963,53094
31.94775,54686
31.95588,57886
31.96400,58259
31.97212,62614
31.98025,68405
31.98837,68344
31.99648,64316
32.00462,74140
32.01273,64442
32.02087,66174
32.02898,70008
32.03710,68934
32.04523,63903
32.05335,61113
32.06148,58696
32.06960,56567
32.07772,54706
32.08585,57792
32.09397,52987
32.10210,49998
32.11022,51529
32.11833,51002
32.12647,50355
32.13458,45818
32.14270,46897
32.15083,45814
32.15895,42122
32.16708,45906
32.17520,48846
32.18332,43462
32.19145,40336
32.19957,37596
32.20770,40328
32.21582,41280
32.22393,43435
32.23207,41108
32.24018,43972
32.24832,38914
32.25643,40207
32.26455,44732
32.27268,42367
32.28080,42837
32.28892,42694
32.29705,41394
32.30517,40173
32.31330,44225
32.32142,40340
32.32953,45730
32.33767,53934
32.34578,53767
32.35392,55655
32.36203,65930
32.37015,64723
32.37828,62562
32.38640,55050
32.39452,49016
32.40265,49106
32.41077,43872
32.41890,40063
32.42702,41720
32.43513,38994
32.44327,41134
32.45138,39120
32.45952,39100
32.46763,39906
32.47575,37981
32.48388,36569
32.49200,37340
32.50013,39834
32.50825,40240
32.51637,37000
32.52450,36734
32.53262,39359
32.54073,39777
32.54887,41260
32.55698,41187
32.56512,36580
32.57323,38790
32.58135,37330
32.58948,38610
32.59760,39458
32.60573,38341
32.61385,38403
32.62197,34531
32.63010,33456
32.63822,37601
32.64633,35183
32.65447,36225
32.66258,34705
32.67072,40524
32.67883,43468
32.68695,45976
32.69508,47098
32.70320,43187
32.71133,45934
32.71945,44436
32.72757,39413
32.73570,37836
32.74382,42495
32.75195,34380
32.76007,38181
32.76818,36815
32.77632,36110
32.78443,34722
32.79255,34646
32.80068,36494
32.80880,34608
32.81693,36225
32.82505,34657
32.83317,35245
32.84130,39902
32.84942,39889
32.85755,35678
32.86567,33746
32.87378,34492
32.88192,37002
32.89003,31768
32.89817,40756
32.90628,35980
32.91440,43138
32.92253,34087
32.93065,33389
32.93877,37374
32.94690,37530
32.95502,38440
32.96315,37223
32.97127,34653
32.97938,32303
32.98752,35905
32.99563,39475
33.00377,35493
33.01188,36042
33.02000,37355
33.02813,38914
33.03625,34692
33.04438,34581
33.05250,33441
33.06062,35137
33.06875,35965
33.07687,37492
33.08498,48609
33.09312,68190
33.10123,121541
33.10937,199098
33.11748,321147
33.12560,471113
33.13373,541319
33.14185,463547
33.14998,343570
33.15810,219556
33.16622,128231
33.17435,83962
33.18247,61201
33.19058,55825
33.19872,47339
33.20683,48926
33.21497,44209
33.22308,44665
33.23120,45811
33.23933,45845
33.24745,45596
33.25558,40902
33.26370,40583
33.27182,41676
33.27995,41921
33.28807,42755
33.29620,47439
33.30432,41639
33.31243,47445
33.32057,35267
33.32868,38766
33.33680,41436
33.34493,40575
33.35305,38614
33.36118,35718
33.36930,41473
33.37742,40477
33.38555,41085
33.39367,40120
33.40180,37965
33.40992,38400
33.41803,38949
33.42617,43362
33.43428,42082
33.44240,41599
33.45053,35453
33.45865,40223
33.46678,38339
33.47490,39105
33.48302,36722
33.49115,38057
33.49927,39601
33.50740,37715
33.51552,35794
33.52363,36306
33.53177,37087
33.53988,36540
33.54802,38342
33.55613,38772
33.56425,35538
33.57238,41935
33.58050,39553
33.58862,37114
33.59675,38325
33.60487,39475
33.61300,38434
33.62112,37869
33.62923,43404
33.63737,41533
33.64548,41924
33.65362,40372
33.66173,38755
33.66985,39068
33.67798,40824
33.68610,40350
33.69423,39926
33.70235,36362
33.71047,39686
33.71860,37380
33.72672,36436
33.73483,38303
33.74297,37498
33.75108,35601
33.75922,38298
33.76733,34348
33.77545,39045
33.78358,36226
33.79170,41564
33.79983,38948
33.80795,37176
33.81607,38629
33.82420,38055
33.83232,37278
33.84043,38220
33.84857,40456
33.85668,42689
33.86482,35258
33.87293,39763
33.88105,43247
33.88918,37948
33.89730,40468
33.90543,40288
33.91355,47320
33.92167,36909
33.92980,39462
33.93792,37713
33.94605,36818
33.95417,36820
33.96228,39334
33.97042,40429
33.97853,37070
33.98665,37393
33.99478,38282
34.00290,36110
34.01103,39290
34.01915,37270
34.02727,39056
34.03540,37688
34.04352,36759
34.05165,41595
34.05977,41670
34.06788,39722
34.07602,41261
34.08413,42648
34.09227,40815
34.10038,38463
34.10850,36234
34.11663,38046
34.12475,38928
34.13287,39571
34.14100,39005
34.14912,39445
34.15725,37161
34.16537,36155
34.17348,39542
34.18162,44845
34.18973,38275
34.19787,35332
34.20598,38104
34.21410,35251
34.22223,40417
34.23035,39510
34.23847,39112
34.24660,45157
34.25472,42154
34.26285,45392
34.27097,47979
34.27908,52615
34.28722,47409
34.29533,46270
34.30347,37180
34.31158,37415
34.31970,38877
34.32783,42384
34.33595,37339
34.34408,37155
34.35220,42355
34.36032,43581
34.36845,38012
34.37657,43714
34.38468,43613
34.39282,41773
34.40093,41020
34.40907,40690
34.41718,39671
34.42530,38111
34.43343,37739
34.44155,36281
34.44968,39723
34.45780,42696
34.46592,42815
34.47405,38866
34.48217,36885
34.49028,39677
34.49842,39583
34.50653,37482
34.51467,37837
34.52278,38382
34.53090,43070
34.53903,42986
34.54715,48850
34.55528,60577
34.56340,57755
34.57152,59833
34.57965,58569
34.58777,60740
34.59590,66565
34.60402,54325
34.61213,57801
34.62027,54177
34.62838,51373
34.63650,47411
34.64463,47135
34.65275,48430
34.66088,40762
34.66900,45176
34.67712,44181
34.68525,45270
34.69337,40649
34.70150,47069
34.70962,46989
34.71773,41904
34.72587,43365
34.73398,41768
34.74212,42149
34.75023,43273
34.75835,43566
34.76648,38101
34.77460,40029
34.78272,39513
34.79085,37030
34.79897,39682
34.80710,37284
34.81522,43123
34.82333,40812
34.83147,38278
34.83958,38413
34.84772,41455
34.85583,40533
34.86395,36478
34.87208,37922
34.88020,39389
34.88832,42976
34.89645,40066
34.90457,39835
34.91270,43236
34.92082,44884
34.92893,44496
34.93707,47068
34.94518,60400
34.95332,79767
34.96143,116518
34.96955,184968
34.97768,266956
34.98580,339406
34.99393,340433
35.00205,299284
35.01017,215954
35.01830,149120
35.02642,96810
35.03453,71743
35.04267,62857
35.05078,61884
35.05892,50966
35.06703,53504
35.07515,50377
35.08328,56523
35.09140,49793
35.09953,51299
35.10765,57374
35.11577,49736
35.12390,47454
35.13202,45673
35.14015,48375
35.14827,45679
35.15638,45586
35.16452,45214
35.17263,49517
35.18075,43762
35.18888,46918
35.19700,46547
35.20513,43612
35.21325,43861
35.22137,48403
35.22950,45461
35.23762,45965
35.24575,42021
35.25387,46670
35.26198,46988
35.27012,48473
35.27823,43805
35.28635,46670
35.29448,51179
35.30260,44516
35.31073,40467
35.31885,45666
35.32697,41515
35.33510,44667
35.34322,45686
35.35135,41212
35.35947,40068
35.36758,43659
35.37572,44648
35.38383,45289
35.39197,41523
35.40008,40385
35.40820,36372
35.41633,41637
35.42445,44152
35.43257,42137
35.44070,41219
35.44882,41273
35.45695,43974
35.46507,45435
35.47318,50197
35.48132,40540
35.48943,47554
35.49757,44572
35.50568,43021
35.51380,46169
35.52193,44911
35.53005,49208
35.53818,49217
35.54630,43899
35.55442,44442
35.56255,41516
35.57067,46069
35.57878,44315
35.58692,46179
35.59503,48707
35.60317,50516
35.61128,47439
35.61940,51282
35.62753,52826
35.63565,47724
35.64378,53457
35.65190,44699
35.66002,41357
35.66815,44110
35.67627,46280
35.68438,45019
35.69252,42240
35.70063,44350
35.70877,48314
35.71688,48414
35.72500,46219
35.73313,44688
35.74125,46864
35.74938,45410
35.75750,41266
35.76562,45153
35.77375,43774
35.78187,42777
35.79000,47792
35.79812,43136
35.80623,45145
35.81437,44942
35.82248,47012
35.83060,42109
35.83873,46410
35.84685,40614
35.85498,44216
35.86310,43996
35.87122,42974
35.87935,39440
35.88747,41056
35.89560,46426
35.90372,40801
35.91183,45733
35.91997,42519
35.92808,40903
35.93620,47768
35.94433,43558
35.95245,43386
35.96058,43209
35.96870,41940
35.97682,48316
35.98495,44199
35.99307,46875
36.00120,42770
36.00932,44733
36.01743,45116
36.02557,49016
36.03368,49907
36.04182,49890
36.04993,46324
36.05805,45455
36.06618,44329
36.07430,46677
36.08242,46278
36.09055,44200
36.09867,44837
36.10680,43389
36.11492,47131
36.12303,44437
36.13117,43390
36.13928,44987
36.14742,43182
36.15553,48327
36.16365,44471
36.17178,44368
36.17990,52026
36.18803,42094
36.19615,42178
36.20427,46513
36.21240,40966
36.22052,40143
36.22863,40308
36.23677,40572
36.24488,44086
36.25302,44305
36.26113,43195
36.26925,43644
36.27738,50507
36.28550,47637
36.29363,45073
36.30175,44332
36.30987,46551
36.31800,48028
36.32612,49953
36.33423,54928
36.34237,48016
36.35048,50463
36.35862,46016
36.36673,45807
36.37485,41726
36.38298,48367
36.39110,41762
36.39923,45475
36.40735,42183
36.41547,43220
36.42360,44729
36.43172,49145
36.43985,46788
36.44797,43923
36.45608,44577
36.46422,45800
36.47233,41577
36.48045,41659
36.48858,42724
36.49670,44446
36.50483,46388
36.51295,43138
36.52107,42523
36.52920,45149
36.53732,40132
36.54545,43039
36.55357,47638
36.56168,43491
36.56982,46170
36.57793,42362
36.58607,41048
36.59418,45468
36.60230,46196
36.61043,44804
36.61855,39525
36.62667,41745
36.63480,41877
36.64292,43711
36.65105,46107
36.65917,41290
36.66728,43349
36.67542,47996
36.68353,42460
36.69167,43286
36.69978,48348
36.70790,45428
36.71603,44850
36.72415,45385
36.73227,43350
36.74040,46070
36.74852,45126
36.75665,46410
36.76477,44960
36.77288,45578
36.78102,42894
36.78913,42500
36.79727,44188
36.80538,46761
36.81350,45744
36.82163,45995
36.82975,42648
36.83788,42781
36.84600,53079
36.85412,49025
36.86225,44268
36.87037,47623
36.87848,44160
36.88662,49617
36.89473,44746
36.90287,45925
36.91098,48593
36.91910,49376
36.92723,48219
36.93535,49484
36.94348,45860
36.95160,44380
36.95972,45017
36.96785,45143
36.97597,45427
36.98408,46278
36.99222,46489
37.00033,45671
37.00847,44688
37.01658,44976
37.02470,41179
37.03283,43314
37.04095,45419
37.04908,46704
37.05720,49183
37.06532,45842
37.07345,42533
37.08157,48400
37.08970,53303
37.09782,48028
37.10593,46010
37.11407,42552
37.12218,47257
37.13030,46734
37.13843,47956
37.14655,47159
37.15468,47850
37.16280,52835
37.17092,50823
37.17905,50966
37.18717,46638
37.19530,50920
37.20342,46332
37.21153,47273
37.21967,51307
37.22778,47698
37.23592,46225
37.24403,52576
37.25215,52740
37.26028,50703
37.26840,53232
37.27652,49216
37.28465,49912
37.29277,52268
37.30090,47799
37.30902,50364
37.31713,48153
37.32527,52287
37.33338,56526
37.34152,49824
37.34963,57588
37.35775,61879
37.36588,59786
37.37400,58310
37.38212,60470
37.39025,63325
37.39837,64004
37.40650,59809
37.41462,60612
37.42273,53592
37.43087,55173
37.43898,54018
37.44712,50894
37.45523,55661
37.46335,55097
37.47148,48944
37.47960,52636
37.48773,52985
