Z:\data\JTB-E02\BACandBLUE\JTB-E02-194-15.D Thu Dec 20 13:56:59 2018
Start of data points
2.09522	60192
2.10333	64985
2.11147	62284
2.11958	63776
2.12772	66660
2.13583	62885
2.14395	65481
2.15208	58582
2.16020	62457
2.16832	60004
2.17645	63934
2.18457	59834
2.19270	60930
2.20082	56954
2.20893	57896
2.21707	56563
2.22518	56347
2.23332	56773
2.24143	58696
2.24955	56112
2.25768	56022
2.26580	97494
2.27393	653969
2.28205	1808938
2.29017	1413763
2.29830	698600
2.30642	471889
2.31453	384597
2.32267	324329
2.33078	291002
2.33892	266664
2.34703	248186
2.35515	238709
2.36328	220115
2.37140	217696
2.37953	206359
2.38765	202632
2.39577	199045
2.40390	198335
2.41202	186170
2.42013	193094
2.42827	187389
2.43638	181238
2.44452	180768
2.45263	179145
2.46075	170686
2.46888	159201
2.47700	159895
2.48513	151278
2.49325	165064
2.50137	177919
2.50950	165722
2.51762	158007
2.52575	157391
2.53387	151990
2.54198	146503
2.55012	157823
2.55823	158839
2.56635	159973
2.57448	147123
2.58260	136201
2.59073	136705
2.59885	147552
2.60697	326131
2.61510	760127
2.62322	742236
2.63135	432064
2.63947	299338
2.64758	246537
2.65572	207880
2.66383	185494
2.67197	168885
2.68008	156096
2.68820	152798
2.69633	142289
2.70445	138014
2.71257	136153
2.72070	131731
2.72882	127048
2.73695	125568
2.74507	121588
2.75318	121149
2.76132	122810
2.76943	123915
2.77757	317125
2.78568	1210743
2.79380	1845334
2.80193	1215390
2.81005	642184
2.81817	535591
2.82630	483160
2.83442	366637
2.84255	309208
2.85067	262071
2.85878	239721
2.86692	208278
2.87503	192156
2.88317	180603
2.89128	176202
2.89940	160256
2.90753	150354
2.91565	146160
2.92378	147073
2.93190	140250
2.94002	140156
2.94815	125565
2.95627	135276
2.96438	149778
2.97252	162139
2.98063	143678
2.98877	133985
2.99688	137482
3.00500	136005
3.01313	135995
3.02125	134949
3.02938	128340
3.03750	121916
3.04562	121076
3.05375	119063
3.06187	114742
3.07000	114608
3.07812	144948
3.08623	412569
3.09437	1237352
3.10248	2824141
3.11060	5863842
3.11873	7228368
3.12685	5035561
3.13498	2997178
3.14310	2127887
3.15122	1660116
3.15935	1309353
3.16747	1138500
3.17560	1098294
3.18372	1422986
3.19183	3433282
3.19997	5986354
3.20808	5485934
3.21620	3595539
3.22433	2594822
3.23245	2050929
3.24058	1683299
3.24870	1409630
3.25682	1229100
3.26495	1056346
3.27307	933429
3.28120	820447
3.28932	819278
3.29743	1272532
3.30557	2686520
3.31368	4794575
3.32182	5637439
3.32993	4752077
3.33805	3461021
3.34618	2617933
3.35430	2120183
3.36242	1727383
3.37055	1501519
3.37867	1323831
3.38680	1179415
3.39492	1071061
3.40303	998467
3.41117	905028
3.41928	834900
3.42742	796401
3.43553	759753
3.44365	766367
3.45178	715254
3.45990	707999
3.46802	799525
3.47615	1039013
3.48427	1078133
3.49240	875061
3.50052	691209
3.50863	581041
3.51677	535613
3.52488	516177
3.53302	521062
3.54113	564155
3.54925	587375
3.55738	553870
3.56550	482520
3.57363	442490
3.58175	405600
3.58987	398980
3.59800	376487
3.60612	372819
3.61423	362260
3.62237	358701
3.63048	373250
3.63862	378731
3.64673	363271
3.65485	411476
3.66298	1395708
3.67110	8662898
3.67923	2.658108E+07
3.68735	4.060939E+07
3.69547	3.941922E+07
3.70360	2.777609E+07
3.71172	1.781496E+07
3.71985	1.342295E+07
3.72797	1.101177E+07
3.73608	9305608
3.74422	8018240
3.75233	7013814
3.76045	6237393
3.76858	5504301
3.77670	4877686
3.78483	4464431
3.79295	4108204
3.80107	3892494
3.80920	3853693
3.81732	4203369
3.82545	4519217
3.83357	4146517
3.84168	3575431
3.84982	3151959
3.85793	2896685
3.86605	2671789
3.87418	2521969
3.88230	2372952
3.89043	2235051
3.89855	2148658
3.90667	2010511
3.91480	2006513
3.92292	2208810
3.93105	2705285
3.93917	2930194
3.94728	2675826
3.95542	2354141
3.96353	2456031
3.97167	2847623
3.97978	2788786
3.98790	2315246
3.99603	1883715
4.00415	1978402
4.01227	2768462
4.02040	3824942
4.02852	3749671
4.03665	2819298
4.04477	2012820
4.05288	1591745
4.06102	1368772
4.06913	1254511
4.07727	1146205
4.08538	1114995
4.09350	1064754
4.10163	1045521
4.10975	1000339
4.11788	965758
4.12600	930507
4.13412	902610
4.14225	885853
4.15037	908753
4.15848	915435
4.16662	918929
4.17473	902664
4.18287	887006
4.19098	870633
4.19910	821529
4.20723	911787
4.21535	2048962
4.22348	6388837
4.23160	1.488796E+07
4.23972	2.376489E+07
4.24785	3.019369E+07
4.25597	3.474631E+07
4.26408	3.730588E+07
4.27222	3.64573E+07
4.28033	2.367984E+07
4.28847	1.209096E+07
4.29658	8680744
4.30470	6779309
4.31283	5446105
4.32095	4567102
4.32908	3855664
4.33720	3358456
4.34532	2909417
4.35345	2647270
4.36157	2439619
4.36970	2367437
4.37782	2335103
4.38593	2179575
4.39407	1917599
4.40218	1673684
4.41030	1530886
4.41843	1384640
4.42655	1297048
4.43468	1234244
4.44280	1163023
4.45092	1090118
4.45905	1043167
4.46717	987235
4.47530	946466
4.48342	915587
4.49153	890147
4.49967	869088
4.50778	834263
4.51592	827170
4.52403	783458
4.53215	767478
4.54028	756197
4.54840	756662
4.55652	767142
4.56465	752086
4.57277	716413
4.58090	679018
4.58902	652541
4.59713	638439
4.60527	626422
4.61338	623073
4.62152	649251
4.62963	743835
4.63775	1121988
4.64588	1707175
4.65400	2032897
4.66212	1782946
4.67025	1337764
4.67837	1007394
4.68650	866815
4.69462	773954
4.70273	710069
4.71087	651318
4.71898	604024
4.72712	572908
4.73523	553809
4.74335	550763
4.75148	520898
4.75960	515757
4.76773	491975
4.77585	480763
4.78397	470297
4.79210	483817
4.80022	571779
4.80833	742400
4.81647	857074
4.82458	825919
4.83272	708480
4.84083	672910
4.84895	719297
4.85708	804056
4.86520	796337
4.87333	725560
4.88145	614562
4.88957	564239
4.89770	514230
4.90582	479821
4.91393	470792
4.92207	455953
4.93018	452454
4.93832	464848
4.94643	604777
4.95455	1020177
4.96268	1861223
4.97080	2813743
4.97893	3261168
4.98705	2955172
4.99517	2316258
5.00330	1769055
5.01142	1387418
5.01955	1173138
5.02767	1154119
5.03578	1364376
5.04392	1889633
5.05203	2222133
5.06015	2132509
5.06828	1752283
5.07640	1451517
5.08453	1234801
5.09265	1108432
5.10077	1012050
5.10890	939780
5.11702	882794
5.12515	849733
5.13327	791544
5.14138	754719
5.14952	746999
5.15763	827909
5.16577	979304
5.17388	1185619
5.18200	1248525
5.19013	1116126
5.19825	976857
5.20637	957894
5.21450	1036089
5.22262	1045455
5.23075	1004049
5.23887	904456
5.24698	819967
5.25512	747680
5.26323	677391
5.27137	610954
5.27948	549773
5.28760	511023
5.29573	507001
5.30385	489423
5.31197	473455
5.32010	462981
5.32822	458172
5.33635	472853
5.34447	500792
5.35258	491552
5.36072	479514
5.36883	450360
5.37697	434208
5.38508	418553
5.39320	423378
5.40133	428710
5.40945	462240
5.41758	470387
5.42570	442017
5.43382	423167
5.44195	402291
5.45007	408757
5.45818	458624
5.46632	474371
5.47443	485415
5.48257	447674
5.49068	395324
5.49880	381057
5.50693	355692
5.51505	357191
5.52318	338352
5.53130	348971
5.53942	351982
5.54755	348000
5.55567	368975
5.56380	454017
5.57192	619423
5.58003	823232
5.58817	882907
5.59628	789138
5.60440	622875
5.61253	469566
5.62065	412752
5.62878	366463
5.63690	359565
5.64502	354766
5.65315	347724
5.66127	341651
5.66940	333469
5.67752	334299
5.68563	371046
5.69377	445477
5.70188	543045
5.71000	569800
5.71813	517873
5.72625	443942
5.73438	388035
5.74250	350813
5.75062	327298
5.75875	319948
5.76687	306825
5.77500	297733
5.78312	292749
5.79123	285582
5.79937	280012
5.80748	275028
5.81562	285200
5.82373	277437
5.83185	287652
5.83998	279394
5.84810	286257
5.85622	272128
5.86435	273534
5.87247	278614
5.88060	265500
5.88872	265814
5.89683	255675
5.90497	262713
5.91308	256401
5.92122	247878
5.92933	249974
5.93745	257403
5.94558	274462
5.95370	305139
5.96182	390023
5.96995	523677
5.97807	676616
5.98620	886362
5.99432	1163121
6.00243	1327226
6.01057	1301001
6.01868	1047996
6.02682	760116
6.03493	544285
6.04305	414675
6.05118	339890
6.05930	310762
6.06743	287381
6.07555	273657
6.08367	263567
6.09180	252282
6.09992	243252
6.10803	235590
6.11617	241771
6.12428	258094
6.13242	386004
6.14053	726319
6.14865	1256382
6.15678	1662158
6.16490	1652294
6.17303	1266992
6.18115	884473
6.18927	669997
6.19740	540138
6.20552	472159
6.21365	412169
6.22177	366609
6.22988	348546
6.23802	346125
6.24613	331856
6.25425	337890
6.26238	340468
6.27050	354562
6.27863	358910
6.28675	337627
6.29487	312253
6.30300	300982
6.31112	294024
6.31925	300231
6.32737	289654
6.33548	295877
6.34362	303608
6.35173	297950
6.35987	297241
6.36798	289155
6.37610	281054
6.38423	276936
6.39235	279624
6.40047	279363
6.40860	276055
6.41672	261348
6.42485	264467
6.43297	266874
6.44108	266725
6.44922	269098
6.45733	276881
6.46547	275564
6.47358	271379
6.48170	276153
6.48983	282933
6.49795	267124
6.50607	273869
6.51420	277379
6.52232	273637
6.53045	279078
6.53857	277961
6.54668	283388
6.55482	269700
6.56293	278193
6.57107	300160
6.57918	408616
6.58730	545600
6.59543	618847
6.60355	572509
6.61168	457588
6.61980	365145
6.62792	334880
6.63605	311871
6.64417	301306
6.65228	285028
6.66042	271139
6.66853	282030
6.67667	281023
6.68478	261021
6.69290	232697
6.70103	219410
6.70915	205014
6.71728	199026
6.72540	197219
6.73352	190751
6.74165	185845
6.74977	180225
6.75788	177049
6.76602	185917
6.77413	178541
6.78227	176457
6.79038	178961
6.79850	173183
6.80663	174610
6.81475	163079
6.82288	170044
6.83100	156020
6.83912	160588
6.84725	160056
6.85537	171904
6.86350	186670
6.87162	207393
6.87973	239502
6.88787	249483
6.89598	220858
6.90410	190177
6.91223	169017
6.92035	143944
6.92848	140675
6.93660	127232
6.94472	127223
6.95285	131305
6.96097	122411
6.96910	129445
6.97722	141730
6.98533	162526
6.99347	172093
7.00158	167983
7.00972	163474
7.01783	151834
7.02595	147951
7.03408	150117
7.04220	144322
7.05032	143655
7.05845	144159
7.06657	141468
7.07470	156644
7.08282	179155
7.09093	193620
7.09907	182621
7.10718	161472
7.11532	149043
7.12343	134027
7.13155	132765
7.13968	126423
7.14780	138929
7.15592	164597
7.16405	204232
7.17217	236910
7.18030	261049
7.18842	278982
7.19653	489170
7.20467	1366041
7.21278	3689704
7.22092	7387606
7.22903	1.069389E+07
7.23715	1.158192E+07
7.24528	9147046
7.25340	5345497
7.26153	2582635
7.26965	1148531
7.27777	526985
7.28590	283137
7.29402	210467
7.30213	184857
7.31027	184378
7.31838	182834
7.32652	204124
7.33463	242521
7.34275	292236
7.35088	320162
7.35900	327079
7.36713	295275
7.37525	248457
7.38337	204390
7.39150	175696
7.39962	153172
7.40775	145045
7.41587	143686
7.42398	139833
7.43212	148554
7.44023	134886
7.44835	144473
7.45648	132715
7.46460	140222
7.47273	144545
7.48085	133668
7.48897	141872
7.49710	132521
7.50522	124948
7.51335	121933
7.52147	122971
7.52958	148586
7.53772	216487
7.54583	404373
7.55395	782541
7.56208	1399767
7.57020	2134850
7.57833	2691821
7.58645	2851006
7.59457	2551899
7.60270	1947211
7.61082	1301421
7.61895	831688
7.62707	527409
7.63518	358613
7.64332	279365
7.65143	221133
7.65957	187381
7.66768	166118
7.67580	149394
7.68393	137047
7.69205	129123
7.70017	119606
7.70830	124017
7.71642	121112
7.72455	119047
7.73267	125162
7.74078	135528
7.74892	142740
7.75703	145512
7.76517	152631
7.77328	158225
7.78140	147857
7.78953	143363
7.79765	140531
7.80577	152667
7.81390	172736
7.82202	205551
7.83015	211325
7.83827	206331
7.84638	169186
7.85452	148781
7.86263	134781
7.87077	126394
7.87888	140151
7.88700	147226
7.89513	178194
7.90325	190920
7.91138	207748
7.91950	217168
7.92762	204819
7.93575	189946
7.94387	188717
7.95198	216371
7.96012	236301
7.96823	258988
7.97637	239535
7.98448	221133
7.99260	184933
8.00073	161702
8.00885	138397
8.01698	118685
8.02510	106914
8.03322	105924
8.04135	106203
8.04947	103583
8.05760	109195
8.06572	102809
8.07383	97831
8.08197	98622
8.09008	102243
8.09820	99458
8.10633	92921
8.11445	96093
8.12258	93731
8.13070	97097
8.13882	123681
8.14695	172569
8.15507	255597
8.16320	325339
8.17132	361387
8.17943	303453
8.18757	240173
8.19568	179639
8.20380	145134
8.21193	124256
8.22005	114361
8.22818	103252
8.23630	101877
8.24442	93618
8.25255	93108
8.26067	94044
8.26880	90367
8.27692	92436
8.28503	87856
8.29317	87983
8.30128	85122
8.30942	85993
8.31753	84971
8.32565	89921
8.33378	95051
8.34190	97462
8.35002	99763
8.35815	95806
8.36627	87728
8.37440	82469
8.38252	83066
8.39063	79735
8.39877	80887
8.40688	77461
8.41502	75398
8.42313	77566
8.43125	77267
8.43938	79811
8.44750	75430
8.45563	76004
8.46375	72393
8.47187	78921
8.48000	76251
8.48812	72930
8.49623	66809
8.50437	72796
8.51248	72967
8.52062	80008
8.52873	107843
8.53685	159016
8.54498	239610
8.55310	285457
8.56123	288441
8.56935	234146
8.57747	171096
8.58560	113925
8.59372	100592
8.60183	99908
8.60997	115976
8.61808	143849
8.62622	165712
8.63433	182312
8.64245	180864
8.65058	160684
8.65870	129236
8.66683	105449
8.67495	98747
8.68307	87637
8.69120	79565
8.69932	77589
8.70745	76643
8.71557	73377
8.72368	79982
8.73182	74886
8.73993	76775
8.74805	72450
8.75618	75899
8.76430	76556
8.77243	98224
8.78055	169466
8.78867	296389
8.79680	528813
8.80492	754973
8.81305	872764
8.82117	823656
8.82928	649442
8.83742	471478
8.84553	368060
8.85367	316103
8.86178	292451
8.86990	280429
8.87803	262645
8.88615	245608
8.89427	236095
8.90240	216438
8.91052	216930
8.91865	205515
8.92677	229223
8.93488	299368
8.94302	397229
8.95113	489481
8.95927	517317
8.96738	460819
8.97550	360327
8.98363	295696
8.99175	269556
8.99987	261668
9.00800	256006
9.01612	235027
9.02425	216352
9.03237	194742
9.04048	177217
9.04862	152644
9.05673	154434
9.06487	154423
9.07298	142114
9.08110	138064
9.08923	140038
9.09735	151876
9.10548	169938
9.11360	197802
9.12172	238912
9.12985	273718
9.13797	289360
9.14608	269025
9.15422	222836
9.16233	188827
9.17047	175893
9.17858	162093
9.18670	157535
9.19483	147823
9.20295	142293
9.21108	134494
9.21920	132717
9.22732	136055
9.23545	138899
9.24357	145112
9.25168	143980
9.25982	147527
9.26793	138704
9.27607	134281
9.28418	130374
9.29230	126213
9.30043	121778
9.30855	116535
9.31668	113186
9.32480	115833
9.33292	110368
9.34105	108691
9.34917	112543
9.35730	105961
9.36542	104786
9.37353	107443
9.38167	114623
9.38978	116873
9.39790	112007
9.40603	123519
9.41415	148663
9.42228	165519
9.43040	200925
9.43852	244950
9.44665	280785
9.45477	316746
9.46290	316290
9.47102	282470
9.47913	233485
9.48727	193015
9.49538	156063
9.50352	133496
9.51163	119656
9.51975	120011
9.52788	141130
9.53600	160237
9.54412	162067
9.55225	163311
9.56037	147124
9.56850	138538
9.57662	124730
9.58473	106100
9.59287	106726
9.60098	110868
9.60912	105400
9.61723	103141
9.62535	91653
9.63348	85989
9.64160	79977
9.64972	72904
9.65785	70674
9.66597	75885
9.67410	71024
9.68222	76505
9.69033	76525
9.69847	72847
9.70658	73117
9.71472	77747
9.72283	85778
9.73095	85340
9.73908	90323
9.74720	82644
9.75533	76154
9.76345	80039
9.77157	69460
9.77970	68910
9.78782	72783
9.79593	72554
9.80407	70340
9.81218	68679
9.82032	69865
9.82843	67900
9.83655	70571
9.84468	65308
9.85280	66355
9.86093	71867
9.86905	69814
9.87717	68602
9.88530	70665
9.89342	75925
9.90155	64650
9.90967	65049
9.91778	63877
9.92592	66198
9.93403	73522
9.94215	89140
9.95028	131306
9.95840	185478
9.96653	246905
9.97465	299428
9.98277	306172
9.99090	279393
9.99902	215861
10.00715	167018
10.01527	132032
10.02338	118147
10.03152	111009
10.03963	110891
10.04775	111784
10.05588	112306
10.06400	111181
10.07213	116960
10.08025	117235
10.08837	122518
10.09650	125204
10.10462	113911
10.11275	112254
10.12087	117802
10.12898	105832
10.13712	109436
10.14523	107348
10.15337	101732
10.16148	103155
10.16960	101454
10.17773	98271
10.18585	100147
10.19397	100773
10.20210	92298
10.21022	88198
10.21835	92501
10.22647	88537
10.23458	96173
10.24272	92829
10.25083	106685
10.25897	133287
10.26708	212130
10.27520	535732
10.28333	1404426
10.29145	3082800
10.29957	5793477
10.30770	8960191
10.31582	1.230366E+07
10.32395	1.582462E+07
10.33207	1.994126E+07
10.34018	2.575298E+07
10.34832	3.327578E+07
10.35643	4.231018E+07
10.36457	4.935509E+07
10.37268	5.28029E+07
10.38080	4.779776E+07
10.38893	2.865243E+07
10.39705	1.137289E+07
10.40518	4303126
10.41330	2338115
10.42142	1624511
10.42955	1270304
10.43767	1059213
10.44578	928532
10.45392	838685
10.46203	790800
10.47017	789853
10.47828	765915
10.48640	714142
10.49453	655220
10.50265	593155
10.51078	537411
10.51890	511007
10.52702	485608
10.53515	471041
10.54327	474407
10.55140	477607
10.55952	489131
10.56763	473525
10.57577	457749
10.58388	432118
10.59200	403892
10.60013	397691
10.60825	381823
10.61638	357545
10.62450	339329
10.63262	322912
10.64075	304494
10.64887	301254
10.65700	279149
10.66512	282121
10.67323	270029
10.68137	261218
10.68948	266378
10.69762	256872
10.70573	251801
10.71385	258269
10.72198	258730
10.73010	260381
10.73822	249433
10.74635	240904
10.75447	237509
10.76260	237273
10.77072	220691
10.77883	215640
10.78697	210953
10.79508	202280
10.80322	194606
10.81133	201410
10.81945	199023
10.82758	203856
10.83570	198562
10.84382	196878
10.85195	187188
10.86007	176779
10.86820	166269
10.87632	162433
10.88443	160004
10.89257	158625
10.90068	163954
10.90882	160892
10.91693	154861
10.92505	154852
10.93318	151034
10.94130	146500
10.94943	151018
10.95755	146566
10.96567	148199
10.97380	137935
10.98192	142203
10.99003	137715
10.99817	139685
11.00628	137443
11.01442	142805
11.02253	144831
11.03065	141426
11.03878	146199
11.04690	134428
11.05503	135332
11.06315	129180
11.07127	129559
11.07940	140033
11.08752	142189
11.09563	151594
11.10377	152267
11.11188	150869
11.12002	145526
11.12813	134852
11.13625	123366
11.14438	115121
11.15250	103205
11.16063	106597
11.16875	101080
11.17687	98748
11.18500	99893
11.19312	98577
11.20125	101263
11.20937	104372
11.21748	97302
11.22562	96467
11.23373	91596
11.24185	82207
11.24998	85928
11.25810	82143
11.26623	79416
11.27435	78323
11.28247	81418
11.29060	76313
11.29872	75869
11.30685	84749
11.31497	122301
11.32308	201503
11.33122	399917
11.33933	737730
11.34747	1196141
11.35558	1562169
11.36370	1693717
11.37183	1545698
11.37995	1251025
11.38807	894950
11.39620	620679
11.40432	473862
11.41245	382018
11.42057	338983
11.42868	286795
11.43682	257885
11.44493	245424
11.45307	203051
11.46118	183317
11.46930	169278
11.47743	160212
11.48555	168359
11.49367	196677
11.50180	256705
11.50992	330511
11.51805	385437
11.52617	445470
11.53428	425736
11.54242	402071
11.55053	363020
11.55867	325543
11.56678	305072
11.57490	266997
11.58303	226228
11.59115	219120
11.59928	233296
11.60740	319753
11.61552	461277
11.62365	652267
11.63177	796828
11.63988	801602
11.64802	692300
11.65613	500283
11.66427	359667
11.67238	241498
11.68050	192354
11.68863	156159
11.69675	144424
11.70488	135342
11.71300	141796
11.72112	146568
11.72925	139537
11.73737	147332
11.74550	142732
11.75362	133943
11.76173	125045
11.76987	112634
11.77798	107693
11.78610	103290
11.79423	95080
11.80235	97742
11.81048	95522
11.81860	90272
11.82672	88224
11.83485	82013
11.84297	79021
11.85110	82455
11.85922	78711
11.86733	76639
11.87547	79419
11.88358	78237
11.89170	74075
11.89983	76972
11.90795	72285
11.91608	71684
11.92420	75843
11.93232	84290
11.94045	89073
11.94857	94132
11.95670	92840
11.96482	86305
11.97293	80150
11.98107	71243
11.98918	68882
11.99732	64031
12.00543	71459
12.01355	65286
12.02168	62583
12.02980	68516
12.03792	66210
12.04605	65377
12.05417	64538
12.06230	74304
12.07042	66818
12.07853	76355
12.08667	77820
12.09478	82423
12.10292	82592
12.11103	90687
12.11915	113416
12.12728	163907
12.13540	223084
12.14352	307172
12.15165	352944
12.15977	343510
12.16790	300600
12.17602	227740
12.18413	174316
12.19227	147146
12.20038	142163
12.20852	138036
12.21663	140273
12.22475	135263
12.23288	130661
12.24100	124263
12.24913	129068
12.25725	123170
12.26537	120705
12.27350	115571
12.28162	110411
12.28973	106580
12.29787	113075
12.30598	109820
12.31412	98435
12.32223	101680
12.33035	98913
12.33848	101586
12.34660	97727
12.35473	95211
12.36285	93396
12.37097	92550
12.37910	95260
12.38722	95485
12.39535	100807
12.40347	117173
12.41158	148801
12.41972	237812
12.42783	356557
12.43595	473958
12.44408	555501
12.45220	520982
12.46033	438349
12.46845	314051
12.47657	227733
12.48470	185066
12.49282	150230
12.50095	138773
12.50907	123011
12.51718	123891
12.52532	118719
12.53343	124062
12.54155	136330
12.54968	168651
12.55780	229166
12.56593	288739
12.57405	336230
12.58217	349150
12.59030	308584
12.59842	236194
12.60655	186081
12.61467	145386
12.62278	123420
12.63092	119477
12.63903	111054
12.64717	102167
12.65528	96463
12.66340	104653
12.67153	106954
12.67965	104179
12.68777	103979
12.69590	99961
12.70402	96491
12.71215	94253
12.72027	92226
12.72838	88325
12.73652	96272
12.74463	99039
12.75277	103466
12.76088	106271
12.76900	105853
12.77713	97082
12.78525	92202
12.79338	84328
12.80150	78570
12.80962	78080
12.81775	82804
12.82587	75213
12.83398	69630
12.84212	68018
12.85023	62167
12.85837	65087
12.86648	60467
12.87460	60280
12.88273	66159
12.89085	63021
12.89898	62020
12.90710	59033
12.91522	54766
12.92335	59977
12.93147	58946
12.93958	57353
12.94772	55223
12.95583	56488
12.96397	57881
12.97208	65330
12.98020	68965
12.98833	82284
12.99645	87769
13.00458	87132
13.01270	84696
13.02082	72288
13.02895	67690
13.03707	63781
13.04520	57923
13.05332	57258
13.06143	62852
13.06957	59857
13.07768	59657
13.08580	64709
13.09393	66104
13.10205	70859
13.11018	71411
13.11830	68905
13.12642	63358
13.13455	63426
13.14267	61003
13.15080	58966
13.15892	65482
13.16703	63866
13.17517	62677
13.18328	69179
13.19140	69659
13.19953	74444
13.20765	69735
13.21578	75532
13.22390	84488
13.23202	81007
13.24015	85449
13.24827	86970
13.25640	85457
13.26452	89294
13.27263	88747
13.28077	83948
13.28888	85398
13.29702	76777
13.30513	73201
13.31325	64251
13.32138	60084
13.32950	57665
13.33762	60131
13.34575	62854
13.35387	59172
13.36200	57178
13.37012	56452
13.37823	63325
13.38637	56293
13.39448	53220
13.40262	51416
13.41073	53009
13.41885	56107
13.42698	51891
13.43510	56629
13.44323	50962
13.45135	57158
13.45947	56768
13.46760	54533
13.47572	58467
13.48383	56046
13.49197	56047
13.50008	52927
13.50822	58410
13.51633	62357
13.52445	64730
13.53258	72350
13.54070	76417
13.54883	83992
13.55695	74528
13.56507	66211
13.57320	62806
13.58132	59974
13.58943	69664
13.59757	75560
13.60568	81671
13.61382	97089
13.62193	120976
13.63005	142174
13.63818	154692
13.64630	142625
13.65443	125787
13.66255	94591
13.67067	81306
13.67880	68194
13.68692	62482
13.69505	59196
13.70317	54395
13.71128	56539
13.71942	53403
13.72753	53453
13.73565	52152
13.74378	52059
13.75190	55392
13.76003	74941
13.76815	100911
13.77627	144709
13.78440	202230
13.79252	274293
13.80065	376153
13.80877	479951
13.81688	571836
13.82502	654821
13.83313	726391
13.84127	830380
13.84938	926945
13.85750	939974
13.86563	859707
13.87375	722473
13.88187	559736
13.89000	399647
13.89812	293217
13.90625	229116
13.91437	166392
13.92248	145523
13.93062	123744
13.93873	110949
13.94687	101246
13.95498	94335
13.96310	88017
13.97123	85112
13.97935	82926
13.98747	75597
13.99560	75294
14.00372	79869
14.01185	84770
14.01997	88575
14.02808	90880
14.03622	87151
14.04433	85113
14.05247	75811
14.06058	69037
14.06870	69076
14.07683	68555
14.08495	73154
14.09308	71843
14.10120	69100
14.10932	68733
14.11745	65336
14.12557	65761
14.13368	60197
14.14182	61014
14.14993	65329
14.15807	65014
14.16618	74835
14.17430	74577
14.18243	77973
14.19055	80290
14.19868	89693
14.20680	103836
14.21492	136073
14.22305	192064
14.23117	235207
14.23930	276577
14.24742	303825
14.25553	309598
14.26367	291701
14.27178	294140
14.27990	279379
14.28803	243121
14.29615	211787
14.30428	181335
14.31240	159666
14.32052	141096
14.32865	136225
14.33677	124540
14.34490	116314
14.35302	123880
14.36113	121197
14.36927	110343
14.37738	107258
14.38550	95929
14.39363	92507
14.40175	87150
14.40988	105781
14.41800	140137
14.42612	196743
14.43425	252479
14.44237	277778
14.45050	261382
14.45862	226424
14.46673	189834
14.47487	148227
14.48298	127366
14.49112	119596
14.49923	112281
14.50735	109891
14.51548	101076
14.52360	94499
14.53172	89183
14.53985	78082
14.54797	80368
14.55610	80844
14.56422	83135
14.57233	73914
14.58047	72546
14.58858	70819
14.59672	66557
14.60483	69095
14.61295	63081
14.62108	59835
14.62920	60221
14.63732	63944
14.64545	53313
14.65357	54543
14.66170	56714
14.66982	56336
14.67793	55351
14.68607	55092
14.69418	51155
14.70232	54009
14.71043	48708
14.71855	55104
14.72668	61401
14.73480	58249
14.74293	63469
14.75105	55900
14.75917	63152
14.76730	61194
14.77542	65774
14.78353	67517
14.79167	83438
14.79978	145530
14.80792	433092
14.81603	1287178
14.82415	3354988
14.83228	6844899
14.84040	1.17669E+07
14.84853	1.721005E+07
14.85665	2.127023E+07
14.86477	2.165693E+07
14.87290	1.845737E+07
14.88102	1.207721E+07
14.88915	6699734
14.89727	3639968
14.90538	2234962
14.91352	1643870
14.92163	1359752
14.92975	1221357
14.93788	1068108
14.94600	946336
14.95413	887577
14.96225	819530
14.97037	748336
14.97850	701731
14.98662	651995
14.99475	616862
15.00287	591822
15.01098	564525
15.01912	538880
15.02723	493049
15.03535	460906
15.04348	448370
15.05160	430356
15.05973	402527
15.06785	372234
15.07597	354683
15.08410	349130
15.09222	332809
15.10035	329135
15.10847	309791
15.11658	299591
15.12472	295988
15.13283	306946
15.14097	341469
15.14908	400289
15.15720	451365
15.16533	471844
15.17345	430335
15.18157	358941
15.18970	263649
15.19782	190822
15.20595	152631
15.21407	129732
15.22218	118727
15.23032	116721
15.23843	106647
15.24657	98800
15.25468	102370
15.26280	96813
15.27093	94328
15.27905	96089
15.28718	94278
15.29530	85309
15.30342	89353
15.31155	84725
15.31967	81357
15.32778	81166
15.33592	82769
15.34403	84274
15.35217	81697
15.36028	78396
15.36840	80829
15.37653	81246
15.38465	88315
15.39278	99327
15.40090	95265
15.40902	92693
15.41715	86918
15.42527	88203
15.43338	81535
15.44152	80701
15.44963	75951
15.45777	77326
15.46588	76654
15.47400	78236
15.48213	99968
15.49025	132391
15.49838	181207
15.50650	231748
15.51462	293327
15.52275	325540
15.53087	335019
15.53900	292009
15.54712	238093
15.55523	199014
15.56337	172950
15.57148	134398
15.57960	108618
15.58773	96041
15.59585	90300
15.60398	84130
15.61210	86518
15.62022	87693
15.62835	86275
15.63647	85832
15.64460	81143
15.65272	83762
15.66083	84186
15.66897	83708
15.67708	81087
15.68520	73887
15.69333	73380
15.70145	71466
15.70958	64660
15.71770	66429
15.72582	62669
15.73395	65789
15.74207	62599
15.75020	71915
15.75832	89049
15.76643	139089
15.77457	279039
15.78268	606693
15.79082	1101101
15.79893	1647544
15.80705	2000584
15.81518	1895864
15.82330	1506204
15.83142	1027262
15.83955	626430
15.84767	399776
15.85580	289037
15.86392	228723
15.87203	196424
15.88017	192312
15.88828	171397
15.89642	161083
15.90453	147586
15.91265	136518
15.92078	129874
15.92890	124733
15.93703	127619
15.94515	121959
15.95327	119921
15.96140	116594
15.96952	104345
15.97763	97172
15.98577	97076
15.99388	100686
16.00202	107549
16.01013	124595
16.01825	135574
16.02638	153164
16.03450	170330
16.04263	173502
16.05075	172358
16.05887	160381
16.06700	137177
16.07512	118240
16.08325	99698
16.09137	92353
16.09948	82108
16.10762	79621
16.11573	76329
16.12385	76607
16.13198	82633
16.14010	92329
16.14823	109212
16.15635	116250
16.16447	122490
16.17260	134754
16.18072	120279
16.18885	107979
16.19697	104302
16.20508	83110
16.21322	86556
16.22133	90466
16.22945	95600
16.23758	97343
16.24570	99192
16.25383	90092
16.26195	84414
16.27007	74468
16.27820	71341
16.28632	75700
16.29445	83263
16.30257	88713
16.31068	98264
16.31882	105637
16.32693	108288
16.33507	111499
16.34318	102226
16.35130	102958
16.35943	98117
16.36755	95317
16.37567	97757
16.38380	88834
16.39192	87103
16.40005	78111
16.40817	74156
16.41628	76614
16.42442	75114
16.43253	73370
16.44067	87142
16.44878	105566
16.45690	178261
16.46503	448574
16.47315	1099132
16.48127	2307646
16.48940	3889973
16.49752	5344585
16.50565	5680397
16.51377	5077150
16.52188	3549172
16.53002	2156392
16.53813	1194935
16.54627	715171
16.55438	499961
16.56250	373755
16.57063	326791
16.57875	284383
16.58688	267697
16.59500	242538
16.60312	233353
16.61125	224463
16.61937	204984
16.62748	184144
16.63562	175036
16.64373	164597
16.65187	155728
16.65998	148080
16.66810	141395
16.67623	138004
16.68435	138745
16.69248	133048
16.70060	131158
16.70872	116479
16.71685	115587
16.72497	106329
16.73310	98454
16.74122	94232
16.74933	96847
16.75747	97946
16.76558	130753
16.77370	154847
16.78183	179471
16.78995	184238
16.79808	162282
16.80620	133988
16.81432	109282
16.82245	92040
16.83057	77258
16.83870	78069
16.84682	68181
16.85493	68797
16.86307	73155
16.87118	67682
16.87930	64116
16.88743	64931
16.89555	62314
16.90368	66797
16.91180	63589
16.91992	59397
16.92805	56961
16.93617	65324
16.94430	63896
16.95242	61871
16.96053	64660
16.96867	61197
16.97678	59141
16.98492	63352
16.99303	63232
17.00115	70105
17.00928	71905
17.01740	62434
17.02552	66942
17.03365	73918
17.04177	82115
17.04990	86993
17.05802	110900
17.06613	139287
17.07427	160174
17.08238	163693
17.09052	146571
17.09863	121870
17.10675	103413
17.11488	87373
17.12300	78509
17.13113	80248
17.13925	79161
17.14737	85170
17.15550	84693
17.16362	83528
17.17173	77324
17.17987	78823
17.18798	78349
17.19612	77904
17.20423	67633
17.21235	66833
17.22048	63703
17.22860	62232
17.23673	65380
17.24485	59485
17.25297	60621
17.26110	64618
17.26922	67633
17.27733	67017
17.28547	61551
17.29358	63297
17.30172	63015
17.30983	60746
17.31795	61953
17.32608	78279
17.33420	104254
17.34233	147261
17.35045	195241
17.35857	218205
17.36670	236969
17.37482	237694
17.38295	216807
17.39107	193667
17.39918	172376
17.40732	169184
17.41543	163773
17.42355	154572
17.43168	149899
17.43980	142157
17.44793	145794
17.45605	137598
17.46417	129503
17.47230	118860
17.48042	113458
17.48855	108340
17.49667	98156
17.50478	91897
17.51292	94778
17.52103	93832
17.52915	91880
17.53728	87054
17.54540	88376
17.55353	92255
17.56165	96682
17.56977	136971
17.57790	256935
17.58602	576389
17.59415	1253493
17.60227	2419427
17.61038	3845613
17.61852	4991003
17.62663	5447705
17.63477	5039129
17.64288	4030004
17.65100	2827468
17.65913	1735031
17.66725	1023783
17.67537	634602
17.68350	428512
17.69162	329782
17.69975	275727
17.70787	245483
17.71598	212318
17.72412	191894
17.73223	178481
17.74037	171026
17.74848	161146
17.75660	142063
17.76473	136377
17.77285	123014
17.78098	109459
17.78910	102339
17.79722	94459
17.80535	93579
17.81347	91012
17.82158	95709
17.82972	88769
17.83783	91805
17.84597	97317
17.85408	107427
17.86220	122654
17.87033	155975
17.87845	191050
17.88658	202389
17.89470	189326
17.90282	164263
17.91095	128241
17.91907	108996
17.92718	87563
17.93532	78474
17.94343	71484
17.95157	70381
17.95968	71154
17.96780	72424
17.97593	72095
17.98405	66660
17.99218	65026
18.00030	63916
18.00842	63527
18.01655	74520
18.02467	96777
18.03280	129446
18.04092	185514
18.04903	258918
18.05717	339006
18.06528	488762
18.07340	842607
18.08153	1752920
18.08965	3467865
18.09778	6042080
18.10590	8254645
18.11402	9732959
18.12215	9390730
18.13027	7869006
18.13840	5801883
18.14652	4111595
18.15463	3043525
18.16277	2434221
18.17088	2002948
18.17902	1758353
18.18713	1558567
18.19525	1335996
18.20338	1202074
18.21150	1072118
18.21962	989848
18.22775	889346
18.23587	830194
18.24400	762227
18.25212	721212
18.26023	684879
18.26837	625833
18.27648	569566
18.28462	503612
18.29273	424471
18.30085	335427
18.30898	263177
18.31710	208107
18.32522	175029
18.33335	150881
18.34147	134104
18.34960	125481
18.35772	126380
18.36583	122151
18.37397	117623
18.38208	109400
18.39022	106813
18.39833	110385
18.40645	106794
18.41458	113939
18.42270	107934
18.43083	112542
18.43895	138730
18.44707	167008
18.45520	217087
18.46332	312695
18.47143	557379
18.47957	925655
18.48768	1456615
18.49582	1827405
18.50393	1979788
18.51205	1771381
18.52018	1378194
18.52830	957304
18.53643	608282
18.54455	384384
18.55267	245456
18.56080	187464
18.56892	153057
18.57703	132861
18.58517	123554
18.59328	104529
18.60142	107988
18.60953	111709
18.61765	109199
18.62578	115199
18.63390	121447
18.64203	122570
18.65015	112142
18.65827	111551
18.66640	104316
18.67452	91568
18.68265	80442
18.69077	80884
18.69888	81703
18.70702	71758
18.71513	69439
18.72325	73519
18.73138	68617
18.73950	67617
18.74763	65416
18.75575	71824
18.76387	69155
18.77200	64718
18.78012	64202
18.78825	68010
18.79637	62322
18.80448	65198
18.81262	69532
18.82073	70788
18.82887	68730
18.83698	70978
18.84510	69623
18.85323	65045
18.86135	66737
18.86947	78074
18.87760	91767
18.88572	126086
18.89385	179202
18.90197	218578
18.91008	244333
18.91822	257343
18.92633	268644
18.93447	285618
18.94258	297207
18.95070	323566
18.95883	341545
18.96695	361759
18.97507	372313
18.98320	397050
18.99132	388033
18.99945	368138
19.00757	342075
19.01568	319063
19.02382	295901
19.03193	290251
19.04007	275804
19.04818	268249
19.05630	271258
19.06443	269806
19.07255	255487
19.08068	261037
19.08880	261072
19.09692	282759
19.10505	304977
19.11317	324180
19.12128	349212
19.12942	349461
19.13753	347479
19.14567	313751
19.15378	301538
19.16190	290194
19.17003	268712
19.17815	264659
19.18628	255436
19.19440	250500
19.20252	248200
19.21065	242419
19.21877	243808
19.22690	238303
19.23502	240080
19.24313	240562
19.25127	241160
19.25938	244592
19.26750	243905
19.27563	242849
19.28375	244233
19.29188	243356
19.30000	250224
19.30812	257149
19.31625	270765
19.32437	267291
19.33250	251692
19.34062	240491
19.34873	250807
19.35687	266217
19.36498	301225
19.37310	371653
19.38123	473777
19.38935	553232
19.39748	601669
19.40560	565708
19.41372	486412
19.42185	413144
19.42997	338361
19.43810	300943
19.44622	283975
19.45433	274923
19.46247	270312
19.47058	261615
19.47872	254441
19.48683	259229
19.49495	248772
19.50308	259755
19.51120	284532
19.51932	306055
19.52745	332266
19.53557	390769
19.54370	407388
19.55182	413638
19.55993	388475
19.56807	334135
19.57618	299702
19.58432	269476
19.59243	244992
19.60055	239335
19.60868	216242
19.61680	210693
19.62493	198300
19.63305	209257
19.64117	204892
19.64930	226187
19.65742	276219
19.66553	394757
19.67367	563733
19.68178	740552
19.68992	894762
19.69803	991036
19.70615	948795
19.71428	854350
19.72240	747271
19.73053	639985
19.73865	535819
19.74677	463604
19.75490	409415
19.76302	349837
19.77113	310782
19.77927	293222
19.78738	294182
19.79552	299910
19.80363	322516
19.81175	356013
19.81988	364363
19.82800	363636
19.83613	342882
19.84425	301993
19.85237	265499
19.86050	252500
19.86862	242881
19.87675	272688
19.88487	338453
19.89298	484876
19.90112	695721
19.90923	897135
19.91735	1065498
19.92548	1064876
19.93360	962385
19.94173	768458
19.94985	608114
19.95797	490708
19.96610	421910
19.97422	374969
19.98235	333932
19.99047	319782
19.99858	305867
20.00672	294826
20.01483	289580
20.02295	284680
20.03108	271016
20.03920	266686
20.04733	253564
20.05545	241641
20.06357	238323
20.07170	238557
20.07982	243941
20.08795	257545
20.09607	282342
20.10418	293860
20.11232	291032
20.12043	281238
20.12857	265622
20.13668	240488
20.14480	210536
20.15293	209111
20.16105	230487
20.16917	267932
20.17730	350082
20.18542	470699
20.19355	591684
20.20167	729038
20.20978	821231
20.21792	793420
20.22603	718896
20.23417	642438
20.24228	538293
20.25040	458479
20.25853	460136
20.26665	517535
20.27478	664870
20.28290	821260
20.29102	982479
20.29915	1148788
20.30727	1190839
20.31538	1112577
20.32352	935286
20.33163	754222
20.33977	575228
20.34788	448943
20.35600	352453
20.36413	293100
20.37225	251694
20.38038	222873
20.38850	205780
20.39662	192263
20.40475	191663
20.41287	180538
20.42098	180366
20.42912	186503
20.43723	189327
20.44537	218596
20.45348	246389
20.46160	273524
20.46973	299801
20.47785	301586
20.48598	272737
20.49410	250897
20.50222	215717
20.51035	208644
20.51847	178854
20.52660	184949
20.53472	171848
20.54283	174514
20.55097	171791
20.55908	174881
20.56720	184154
20.57533	182092
20.58345	177385
20.59158	165438
20.59970	157382
20.60782	148573
20.61595	145773
20.62407	145331
20.63220	142882
20.64032	145541
20.64843	149773
20.65657	151366
20.66468	160459
20.67282	160241
20.68093	160218
20.68905	161906
20.69718	154862
20.70530	150336
20.71342	149638
20.72155	140602
20.72967	135446
20.73780	139272
20.74592	138782
20.75403	139902
20.76217	147695
20.77028	155244
20.77842	165805
20.78653	186252
20.79465	221049
20.80278	309880
20.81090	494639
20.81902	773595
20.82715	1077081
20.83527	1325440
20.84340	1328968
20.85152	1129816
20.85963	831838
20.86777	544822
20.87588	370080
20.88402	254838
20.89213	209708
20.90025	182505
20.90838	168120
20.91650	167127
20.92463	164609
20.93275	169944
20.94087	182916
20.94900	174447
20.95712	184842
20.96523	184895
20.97337	177242
20.98148	169771
20.98962	154014
20.99773	146482
21.00585	142167
21.01398	133521
21.02210	139887
21.03023	138407
21.03835	136215
21.04647	135197
21.05460	144691
21.06272	137804
21.07083	138745
21.07897	131048
21.08708	140484
21.09522	132232
21.10333	137953
21.11145	131473
21.11958	134893
21.12770	136620
21.13583	138132
21.14395	152892
21.15207	178073
21.16020	230741
21.16832	304230
21.17645	369454
21.18457	397123
21.19268	374959
21.20082	336774
21.20893	277882
21.21705	228359
21.22518	197291
21.23330	174120
21.24143	170724
21.24955	152042
21.25767	145631
21.26580	144205
21.27392	132392
21.28205	121949
21.29017	124524
21.29828	119291
21.30642	113152
21.31453	117952
21.32267	113778
21.33078	109533
21.33890	115187
21.34703	111740
21.35515	109878
21.36327	115863
21.37140	121112
21.37952	123644
21.38765	129167
21.39577	145430
21.40388	180415
21.41202	228827
21.42013	272274
21.42827	325597
21.43638	332662
21.44450	327623
21.45263	289708
21.46075	238129
21.46888	203579
21.47700	183665
21.48512	172019
21.49325	151018
21.50137	142163
21.50948	136833
21.51762	132069
21.52573	126075
21.53387	115114
21.54198	112077
21.55010	116826
21.55823	115564
21.56635	110994
21.57448	110420
21.58260	128895
21.59072	144004
21.59885	166120
21.60697	192175
21.61508	201971
21.62322	199628
21.63133	190421
21.63947	177890
21.64758	187896
21.65570	209959
21.66383	241856
21.67195	283818
21.68008	309656
21.68820	339556
21.69632	326014
21.70445	320168
21.71257	286594
21.72070	251675
21.72882	216943
21.73693	170471
21.74507	147992
21.75318	146358
21.76130	136148
21.76943	128639
21.77755	132963
21.78568	126288
21.79380	120268
21.80192	119657
21.81005	123367
21.81817	114336
21.82630	119166
21.83442	128316
21.84253	139577
21.85067	159436
21.85878	194028
21.86690	230860
21.87503	243391
21.88315	228425
21.89128	206208
21.89940	182654
21.90752	164718
21.91565	147662
21.92377	140413
21.93190	133719
21.94002	125416
21.94813	117136
21.95627	119691
21.96438	106268
21.97252	107269
21.98063	95351
21.98875	96261
21.99688	93604
22.00500	88588
22.01312	88659
22.02125	89007
22.02937	100551
22.03750	92373
22.04562	111288
22.05373	111492
22.06187	122096
22.06998	114199
22.07812	114344
22.08623	108372
22.09435	109894
22.10248	100284
22.11060	96991
22.11873	99181
22.12685	94009
22.13497	89681
22.14310	90733
22.15122	89005
22.15933	87947
22.16747	86687
22.17558	94907
22.18372	85020
22.19183	90997
22.19995	84059
22.20808	83894
22.21620	84681
22.22433	94720
22.23245	92385
22.24057	101410
22.24870	103628
22.25682	110392
22.26493	121364
22.27307	121211
22.28118	115976
22.28932	120482
22.29743	119701
22.30555	125492
22.31368	130960
22.32180	124667
22.32993	112526
22.33805	121361
22.34617	112074
22.35430	106673
22.36242	105190
22.37055	94275
22.37867	101542
22.38678	94570
22.39492	114734
22.40303	143792
22.41115	194611
22.41928	275244
22.42740	370847
22.43553	449666
22.44365	472255
22.45177	448252
22.45990	357513
22.46802	279830
22.47615	213512
22.48427	185043
22.49238	172584
22.50052	182011
22.50863	213247
22.51677	218926
22.52488	225889
22.53300	235667
22.54113	217049
22.54925	187997
22.55737	171839
22.56550	150805
22.57362	135578
22.58175	119921
22.58987	114115
22.59798	103324
22.60612	99142
22.61423	94146
22.62237	89534
22.63048	90340
22.63860	82871
22.64673	87341
22.65485	89727
22.66297	101082
22.67110	106171
22.67922	108550
22.68735	111508
22.69547	131400
22.70358	156997
22.71172	201201
22.71983	260925
22.72797	321210
22.73608	366287
22.74420	362730
22.75233	331128
22.76045	266371
22.76858	220134
22.77670	191025
22.78482	198414
22.79295	230966
22.80107	307461
22.80918	456006
22.81732	587447
22.82543	698844
22.83357	709425
22.84168	654246
22.84980	544125
22.85793	419590
22.86605	325183
22.87418	260613
22.88230	228619
22.89042	231230
22.89855	230338
22.90667	237042
22.91478	251787
22.92292	291880
22.93103	353753
22.93917	402715
22.94728	455935
22.95540	487611
22.96353	428999
22.97165	350796
22.97978	282022
22.98790	211933
22.99602	166748
23.00415	145839
23.01227	128897
23.02040	127818
23.02852	118413
23.03663	100695
23.04477	95623
23.05288	95015
23.06100	91937
23.06913	95100
23.07725	95669
23.08538	96136
23.09350	100207
23.10162	102286
23.10975	99591
23.11787	96165
23.12600	92900
23.13412	90614
23.14223	87152
23.15037	90239
23.15848	88530
23.16662	91883
23.17473	84274
23.18285	88983
23.19098	85871
23.19910	80363
23.20722	77999
23.21535	72759
23.22347	72071
23.23160	73875
23.23972	70721
23.24783	76797
23.25597	92455
23.26408	110394
23.27222	133144
23.28033	153746
23.28845	171174
23.29658	150304
23.30470	148582
23.31282	125196
23.32095	103941
23.32907	103384
23.33720	100954
23.34532	110779
23.35343	146766
23.36157	178227
23.36968	236097
23.37782	284428
23.38593	318397
23.39405	315642
23.40218	299397
23.41030	261549
23.41843	207619
23.42655	189011
23.43467	166331
23.44280	158737
23.45092	145239
23.45903	141803
23.46717	136479
23.47528	133823
23.48342	122459
23.49153	123357
23.49965	114852
23.50778	120834
23.51590	104050
23.52403	104743
23.53215	99847
23.54027	101988
23.54840	98153
23.55652	105961
23.56465	112264
23.57277	116219
23.58088	138885
23.58902	142618
23.59713	177299
23.60525	214979
23.61338	241807
23.62150	250047
23.62963	243968
23.63775	212722
23.64587	175481
23.65400	147617
23.66212	128754
23.67025	116883
23.67837	116463
23.68648	120902
23.69462	118874
23.70273	106659
23.71085	102476
23.71898	90228
23.72710	90132
23.73523	83075
23.74335	84481
23.75147	77317
23.75960	85637
23.76772	133444
23.77585	243433
23.78397	547804
23.79208	1122455
23.80022	1851482
23.80833	2499873
23.81647	2833676
23.82458	2660807
23.83270	2238365
23.84083	1732152
23.84895	1251497
23.85707	923206
23.86520	716226
23.87332	550796
23.88145	467160
23.88957	409198
23.89768	366187
23.90582	358602
23.91393	356461
23.92207	377370
23.93018	429528
23.93830	434870
23.94643	412999
23.95455	382657
23.96268	312083
23.97080	267996
23.97892	238295
23.98705	207332
23.99517	188767
24.00328	185836
24.01142	180071
24.01953	181134
24.02767	194142
24.03578	228975
24.04390	268337
24.05203	289992
24.06015	290045
24.06828	253226
24.07640	220188
24.08452	175812
24.09265	154097
24.10077	141554
24.10888	130608
24.11702	130978
24.12513	120883
24.13327	126471
24.14138	123391
24.14950	139845
24.15763	152886
24.16575	163418
24.17388	179840
24.18200	188081
24.19012	190817
24.19825	196092
24.20637	180762
24.21450	181351
24.22262	174686
24.23073	162849
24.23887	163466
24.24698	165237
24.25510	157427
24.26323	146197
24.27135	143921
24.27948	132428
24.28760	128637
24.29572	125080
24.30385	121012
24.31197	124757
24.32010	121707
24.32822	124414
24.33633	129604
24.34447	129658
24.35258	132295
24.36070	124657
24.36883	119456
24.37695	113535
24.38508	105758
24.39320	105650
24.40132	115472
24.40945	124937
24.41757	134469
24.42570	155623
24.43382	160040
24.44193	169806
24.45007	159126
24.45818	147557
24.46632	135334
24.47443	118001
24.48255	109400
24.49068	107248
24.49880	107622
24.50692	112279
24.51505	112349
24.52317	115938
24.53130	129200
24.53942	147667
24.54753	158139
24.55567	178230
24.56378	192927
24.57192	204597
24.58003	208398
24.58815	203023
24.59628	195454
24.60440	179717
24.61253	164225
24.62065	156328
24.62877	143648
24.63690	124297
24.64502	112659
24.65313	111365
24.66127	107938
24.66938	106220
24.67752	111649
24.68563	115580
24.69375	120727
24.70188	120504
24.71000	106855
24.71813	114599
24.72625	114080
24.73437	120404
24.74250	122635
24.75062	127578
24.75873	133297
24.76687	126146
24.77498	137416
24.78312	144321
24.79123	161534
24.79935	172802
24.80748	180139
24.81560	185039
24.82373	179356
24.83185	166288
24.83997	183739
24.84810	222399
24.85622	294425
24.86435	413054
24.87247	601110
24.88058	925626
24.88872	1361100
24.89683	1946016
24.90495	2484234
24.91308	2832573
24.92120	2759157
24.92933	2283178
24.93745	1620032
24.94557	1037095
24.95370	631349
24.96182	393251
24.96995	252546
24.97807	191800
24.98618	154559
24.99432	140097
25.00243	127035
25.01057	117542
25.01868	118426
25.02680	115091
25.03493	112209
25.04305	110396
25.05117	103191
25.05930	108761
25.06742	101813
25.07555	101839
25.08367	102677
25.09178	110477
25.09992	127156
25.10803	174770
25.11617	334423
25.12428	780270
25.13240	1882061
25.14053	4030164
25.14865	6730597
25.15677	9939584
25.16490	1.199609E+07
25.17302	1.227164E+07
25.18115	1.057861E+07
25.18927	7694409
25.19738	4962241
25.20552	2806758
25.21363	1470669
25.22177	792703
25.22988	456638
25.23800	304850
25.24613	263090
25.25425	268906
25.26238	338086
25.27050	444766
25.27862	547781
25.28675	635426
25.29487	644026
25.30298	576466
25.31112	478530
25.31923	354775
25.32737	261063
25.33548	193666
25.34360	160223
25.35173	137529
25.35985	120865
25.36798	106284
25.37610	104899
25.38422	98324
25.39235	99002
25.40047	85709
25.40858	89121
25.41672	82328
25.42483	84711
25.43297	85632
25.44108	82872
25.44920	83775
25.45733	86527
25.46545	78060
25.47358	87893
25.48170	88711
25.48982	86411
25.49795	87042
25.50607	97056
25.51420	101181
25.52232	118900
25.53043	134825
25.53857	131006
25.54668	131597
25.55480	113450
25.56293	98084
25.57105	86817
25.57918	86875
25.58730	83887
25.59542	89408
25.60355	87180
25.61167	80699
25.61980	85669
25.62792	80277
25.63603	77206
25.64417	80635
25.65228	73910
25.66042	72792
25.66853	73656
25.67665	76523
25.68478	74776
25.69290	82831
25.70102	81097
25.70915	86813
25.71727	84454
25.72540	80171
25.73352	84987
25.74163	83331
25.74977	86694
25.75788	83614
25.76602	76325
25.77413	73231
25.78225	76066
25.79038	71644
25.79850	68094
25.80663	70160
25.81475	69862
25.82287	71333
25.83100	72375
25.83912	75630
25.84723	71464
25.85537	74113
25.86348	74303
25.87162	69402
25.87973	71957
25.88785	72483
25.89598	70927
25.90410	70671
25.91223	78593
25.92035	78103
25.92847	85158
25.93660	122142
25.94472	180134
25.95283	270536
25.96097	327795
25.96908	351440
25.97722	380324
25.98533	378409
25.99345	374363
26.00158	376455
26.00970	372455
26.01783	360547
26.02595	380643
26.03407	358687
26.04220	362494
26.05032	373820
26.05845	372801
26.06657	376390
26.07468	377327
26.08282	386303
26.09093	386706
26.09905	383598
26.10718	378749
26.11530	401424
26.12343	405693
26.13155	388519
26.13967	384334
26.14780	381694
26.15592	393060
26.16405	387188
26.17217	395946
26.18028	387603
26.18842	385990
26.19653	385724
26.20465	380996
26.21278	373970
26.22090	368264
26.22903	359104
26.23715	372405
26.24527	359065
26.25340	369912
26.26152	361529
26.26965	344270
26.27777	349424
26.28588	337847
26.29402	340754
26.30213	340516
26.31027	334005
26.31838	341294
26.32650	332570
26.33463	328085
26.34275	329933
26.35087	325068
26.35900	335978
26.36712	349422
26.37525	371778
26.38337	414727
26.39148	489334
26.39962	566365
26.40773	654002
26.41587	699878
26.42398	712953
26.43210	648435
26.44023	587759
26.44835	503405
26.45648	431746
26.46460	390183
26.47272	359425
26.48085	340113
26.48897	334901
26.49708	331191
26.50522	327976
26.51333	320305
26.52147	309552
26.52958	294619
26.53770	284158
26.54583	277822
26.55395	269996
26.56208	265454
26.57020	261927
26.57832	267534
26.58645	259140
26.59457	259057
26.60268	267916
26.61082	256337
26.61893	275439
26.62707	268068
26.63518	256299
26.64330	261746
26.65143	262420
26.65955	261975
26.66768	263399
26.67580	249469
26.68392	243285
26.69205	248973
26.70017	251778
26.70830	234922
26.71642	244157
26.72453	241312
26.73267	243055
26.74078	246926
26.74890	240667
26.75703	230902
26.76515	246009
26.77328	237283
26.78140	235253
26.78952	225310
26.79765	235269
26.80577	231506
26.81390	232035
26.82202	254266
26.83013	239190
26.83827	233974
26.84638	240002
26.85452	228861
26.86263	225375
26.87075	219447
26.87888	223827
26.88700	221661
26.89512	218380
26.90325	227701
26.91137	210619
26.91950	211534
26.92762	205118
26.93573	198967
26.94387	204183
26.95198	195656
26.96012	202477
26.96823	204296
26.97635	224060
26.98448	243174
26.99260	303678
27.00072	425023
27.00885	634225
27.01697	1004810
27.02510	1461745
27.03322	1893966
27.04133	2124005
27.04947	2064373
27.05758	1822641
27.06572	1450152
27.07383	1112327
27.08195	879442
27.09008	697760
27.09820	600272
27.10633	510058
27.11445	454377
27.12257	426131
27.13070	412818
27.13882	395901
27.14693	374597
27.15507	379095
27.16318	346916
27.17132	332719
27.17943	339806
27.18755	353611
27.19568	366494
27.20380	381313
27.21193	397097
27.22005	377247
27.22817	344610
27.23630	327216
27.24442	291574
27.25253	279147
27.26067	261560
27.26878	243283
27.27692	240764
27.28503	232550
27.29315	226941
27.30128	214203
27.30940	212635
27.31753	206584
27.32565	205921
27.33377	204986
27.34190	198728
27.35002	217417
27.35815	215068
27.36627	205853
27.37438	217773
27.38252	213178
27.39063	210574
27.39875	202745
27.40688	197470
27.41500	196736
27.42313	179770
27.43125	175914
27.43937	174542
27.44750	187995
27.45562	178537
27.46375	182111
27.47187	184865
27.47998	178134
27.48812	175522
27.49623	174280
27.50437	170377
27.51248	161382
27.52060	164433
27.52873	155535
27.53685	168364
27.54497	154350
27.55310	163325
27.56122	164165
27.56935	160861
27.57747	168623
27.58558	186420
27.59372	210189
27.60183	250508
27.60997	267449
27.61808	287845
27.62620	283683
27.63433	263990
27.64245	233438
27.65057	209842
27.65870	177389
27.66682	165033
27.67495	161617
27.68307	150487
27.69118	146224
27.69932	152096
27.70743	150051
27.71557	146760
27.72368	145610
27.73180	137725
27.73993	132499
27.74805	134896
27.75618	126954
27.76430	127487
27.77242	130832
27.78055	136449
27.78867	135723
27.79678	146818
27.80492	142649
27.81303	152147
27.82117	143746
27.82928	144223
27.83740	128823
27.84553	128487
27.85365	123114
27.86178	119290
27.86990	118466
27.87802	118012
27.88615	111080
27.89427	114164
27.90240	113909
27.91052	112940
27.91863	115682
27.92677	120885
27.93488	118459
27.94300	119632
27.95113	110137
27.95925	111263
27.96738	106768
27.97550	111883
27.98362	112932
27.99175	110662
27.99987	111757
28.00800	111558
28.01612	117837
28.02423	118510
28.03237	129146
28.04048	131523
28.04860	138207
28.05673	148721
28.06485	163754
28.07298	166834
28.08110	155904
28.08922	151766
28.09735	136341
28.10547	131646
28.11360	121020
28.12172	116543
28.12983	108246
28.13797	107665
28.14608	104855
28.15422	104671
28.16233	96889
28.17045	102181
28.17858	101724
28.18670	104001
28.19482	108825
28.20295	127544
28.21107	154682
28.21920	195215
28.22732	242722
28.23543	271994
28.24357	298907
28.25168	291524
28.25982	264195
28.26793	226445
28.27605	185643
28.28418	150825
28.29230	123674
28.30042	121346
28.30855	113612
28.31667	121948
28.32480	138832
28.33292	159056
28.34103	176831
28.34917	205062
28.35728	227232
28.36542	250746
28.37353	271902
28.38165	309894
28.38978	332541
28.39790	341818
28.40603	359107
28.41415	353502
28.42227	342673
28.43040	317731
28.43852	298327
28.44663	260075
28.45477	243000
28.46288	222550
28.47102	204174
28.47913	178999
28.48725	175136
28.49538	168377
28.50350	163804
28.51163	159969
28.51975	156034
28.52787	155450
28.53600	156097
28.54412	142213
28.55225	134588
28.56037	135163
28.56848	127488
28.57662	121239
28.58473	110382
28.59285	115620
28.60098	117436
28.60910	115048
28.61723	112520
28.62535	116968
28.63347	116448
28.64160	121720
28.64972	122187
28.65785	125785
28.66597	126553
28.67408	129905
28.68222	126433
28.69033	123455
28.69845	119265
28.70658	113026
28.71470	109754
28.72283	104202
28.73095	99295
28.73907	98323
28.74720	97198
28.75532	98289
28.76345	94022
28.77157	99222
28.77968	101454
28.78782	108740
28.79593	112869
28.80407	126582
28.81218	154147
28.82030	148726
28.82843	164945
28.83655	157340
28.84467	150316
28.85280	133650
28.86092	127394
28.86905	118991
28.87717	118298
28.88528	120251
28.89342	142842
28.90153	154906
28.90967	181649
28.91778	190240
28.92590	189045
28.93403	178623
28.94215	161999
28.95028	133244
28.95840	118261
28.96652	113564
28.97465	106656
28.98277	105709
28.99088	101324
28.99902	99397
29.00713	99057
29.01527	95412
29.02338	91303
29.03150	89224
29.03963	86239
29.04775	88067
29.05588	88284
29.06400	89897
29.07212	89844
29.08025	90609
29.08837	102300
29.09648	101255
29.10462	111818
29.11273	107690
29.12087	107688
29.12898	104745
29.13710	95449
29.14523	92641
29.15335	87408
29.16148	80596
29.16960	84809
29.17772	82937
29.18585	93964
29.19397	100205
29.20210	130794
29.21022	165887
29.21833	223683
29.22647	283924
29.23458	325383
29.24270	317479
29.25083	286995
29.25895	243949
29.26708	202808
29.27520	162588
29.28332	145360
29.29145	123113
29.29957	112210
29.30770	99620
29.31582	90298
29.32393	83376
29.33207	88324
29.34018	81244
29.34832	84893
29.35643	78842
29.36455	78648
29.37268	81885
29.38080	78388
29.38892	79121
29.39705	77211
29.40517	75396
29.41330	76520
29.42142	80181
29.42953	85910
29.43767	86901
29.44578	88077
29.45392	90053
29.46203	84494
29.47015	80345
29.47828	77945
29.48640	74497
29.49452	76925
29.50265	86349
29.51077	85390
29.51890	87916
29.52702	96143
29.53513	98777
29.54327	96355
29.55138	90769
29.55952	89036
29.56763	89423
29.57575	84051
29.58388	82822
29.59200	87015
29.60013	77195
29.60825	77072
29.61637	74129
29.62450	71400
29.63262	76603
29.64073	78387
29.64887	76937
29.65698	84094
29.66512	76776
29.67323	86526
29.68135	80375
29.68948	86271
29.69760	95605
29.70573	111225
29.71385	114069
29.72197	114508
29.73010	105554
29.73822	99838
29.74633	88954
29.75447	84100
29.76258	80095
29.77072	80421
29.77883	76416
29.78695	74168
29.79508	73653
29.80320	71081
29.81133	72862
29.81945	71943
29.82757	67021
29.83570	71208
29.84382	73140
29.85195	71692
29.86007	79787
29.86818	76559
29.87632	78211
29.88443	94012
29.89255	111384
29.90068	152548
29.90880	190818
29.91693	217989
29.92505	234333
29.93317	213603
29.94130	174839
29.94942	133101
29.95755	105283
29.96567	90568
29.97378	85265
29.98192	87012
29.99003	93676
29.99817	101842
30.00628	106906
30.01440	126410
30.02253	139768
30.03065	152895
30.03877	168542
30.04690	168303
30.05502	181802
30.06315	189972
30.07127	191586
30.07938	186922
30.08752	179959
30.09563	177810
30.10377	168070
30.11188	161199
30.12000	154662
30.12813	148535
30.13625	152687
30.14437	133584
30.15250	131657
30.16062	123598
30.16875	116120
30.17687	113339
30.18498	110955
30.19312	110832
30.20123	106603
30.20937	111222
30.21748	106877
30.22560	105914
30.23373	106609
30.24185	102821
30.24998	101046
30.25810	92963
30.26622	96206
30.27435	89789
30.28247	88745
30.29058	86383
30.29872	89994
30.30683	88438
30.31497	82964
30.32308	82822
30.33120	80362
30.33933	78719
30.34745	81542
30.35558	81440
30.36370	83053
30.37182	86045
30.37995	84144
30.38807	79291
30.39620	76706
30.40432	83203
30.41243	83917
30.42057	72552
30.42868	70897
30.43680	73602
30.44493	75922
30.45305	81052
30.46118	73412
30.46930	69162
30.47742	72625
30.48555	70714
30.49367	76012
30.50180	70467
30.50992	71416
30.51803	77672
30.52617	75880
30.53428	72889
30.54240	80517
30.55053	76058
30.55865	76372
30.56678	72510
30.57490	78860
30.58302	85703
30.59115	82672
30.59927	78606
30.60740	74405
30.61552	75085
30.62363	80157
30.63177	77172
30.63988	78668
30.64802	77513
30.65613	69385
30.66425	69442
30.67238	70568
30.68050	66174
30.68862	70532
30.69675	67354
30.70487	71257
30.71300	64880
30.72112	68461
30.72923	68286
30.73737	71032
30.74548	68856
30.75362	71372
30.76173	69695
30.76985	67906
30.77798	72886
30.78610	77304
30.79422	103174
30.80235	140222
30.81047	206361
30.81860	271897
30.82672	341958
30.83483	354714
30.84297	310816
30.85108	253382
30.85922	186899
30.86733	135878
30.87545	110755
30.88358	92577
30.89170	88414
30.89983	82086
30.90795	78664
30.91607	82906
30.92420	80365
30.93232	82063
30.94043	76930
30.94857	74989
30.95668	76139
30.96482	78299
30.97293	76222
30.98105	77274
30.98918	79892
30.99730	76214
31.00543	76197
31.01355	78041
31.02167	77254
31.02980	72395
31.03792	71525
31.04605	71305
31.05417	74521
31.06228	70910
31.07042	71301
31.07853	72929
31.08665	75567
31.09478	79028
31.10290	91131
31.11103	100746
31.11915	116803
31.12727	117194
31.13540	120478
31.14352	120737
31.15165	109435
31.15977	103371
31.16788	108002
31.17602	111487
31.18413	113593
31.19227	123009
31.20038	132264
31.20850	151831
31.21663	192100
31.22475	234772
31.23287	280467
31.24100	311869
31.24912	322809
31.25725	285320
31.26537	234794
31.27348	185380
31.28162	138789
31.28973	108009
31.29787	92151
31.30598	83433
31.31410	87655
31.32223	94106
31.33035	93711
31.33847	100954
31.34660	103426
31.35472	114838
31.36285	113822
31.37097	110211
31.37908	97307
31.38722	95414
31.39533	88283
31.40347	75365
31.41158	69086
31.41970	70727
31.42783	74080
31.43595	71227
31.44408	71231
31.45220	70396
31.46032	74011
31.46845	77468
31.47657	78495
31.48468	74907
31.49282	74883
31.50093	73502
31.50907	76173
31.51718	76351
31.52530	75236
31.53343	83026
31.54155	85513
31.54968	88844
31.55780	79866
31.56592	78511
31.57405	79403
31.58217	79078
31.59028	76669
31.59842	76096
31.60653	70150
31.61467	77505
31.62278	65965
31.63090	73726
31.63903	78109
31.64715	73493
31.65528	77955
31.66340	84830
31.67152	96976
31.67965	111509
31.68777	113897
31.69590	121522
31.70402	121722
31.71213	113039
31.72027	104541
31.72838	95339
31.73650	83833
31.74463	74742
31.75275	72954
31.76088	74687
31.76900	68442
31.77712	66717
31.78525	67055
31.79337	69115
31.80150	67714
31.80962	73114
31.81773	75319
31.82587	71174
31.83398	68618
31.84210	72548
31.85023	71658
31.85835	69358
31.86648	73747
31.87460	75402
31.88272	75169
31.89085	80096
31.89897	81489
31.90710	72287
31.91522	72227
31.92333	66180
31.93147	70506
31.93958	73469
31.94772	80189
31.95583	84990
31.96395	100838
31.97208	109522
31.98020	122660
31.98832	126690
31.99645	138986
32.00457	141461
32.01270	145941
32.02082	160894
32.02893	149592
32.03707	147406
32.04518	142530
32.05332	130518
32.06143	119146
32.06955	115134
32.07768	109749
32.08580	103330
32.09393	104470
32.10205	99197
32.11017	101382
32.11830	99434
32.12642	99036
32.13453	94236
32.14267	93154
32.15078	88104
32.15892	79656
32.16703	78237
32.17515	78175
32.18328	76476
32.19140	76874
32.19953	76671
32.20765	72927
32.21577	75066
32.22390	73686
32.23202	76189
32.24015	75372
32.24827	68160
32.25638	71402
32.26452	69507
32.27263	76131
32.28075	76114
32.28888	75987
32.29700	73231
32.30513	73926
32.31325	74398
32.32137	72096
32.32950	68393
32.33762	70607
32.34575	72315
32.35387	70672
32.36198	69538
32.37012	77180
32.37823	73527
32.38635	72444
32.39448	74483
32.40260	75095
32.41073	70838
32.41885	68994
32.42697	68937
32.43510	63718
32.44322	70881
32.45135	70314
32.45947	69179
32.46758	67837
32.47572	70068
32.48383	67231
32.49197	70004
32.50008	61908
32.50820	66049
32.51633	65565
32.52445	72094
32.53257	68704
32.54070	69640
32.54882	71494
32.55695	73505
32.56507	67538
32.57318	65652
32.58132	72608
32.58943	67931
32.59757	67400
32.60568	65227
32.61380	65348
32.62193	65252
32.63005	64639
32.63817	66394
32.64630	68116
32.65442	63860
32.66255	67851
32.67067	71491
32.67878	72579
32.68692	79130
32.69503	81326
32.70317	86232
32.71128	83094
32.71940	83033
32.72753	85104
32.73565	73937
32.74378	75272
32.75190	76116
32.76002	74511
32.76815	67075
32.77627	75745
32.78438	68623
32.79252	64546
32.80063	69042
32.80877	68698
32.81688	70749
32.82500	69745
32.83313	67952
32.84125	72438
32.84938	71974
32.85750	70055
32.86562	68326
32.87375	69268
32.88187	70269
32.89000	78642
32.89812	84171
32.90623	81727
32.91437	91440
32.92248	98706
32.93060	104836
32.93873	92726
32.94685	90395
32.95498	84025
32.96310	75678
32.97122	73484
32.97935	77015
32.98747	85675
32.99560	103886
33.00372	129999
33.01183	168621
33.01997	193174
33.02808	208979
33.03620	181359
33.04433	158465
33.05245	135705
33.06058	122646
33.06870	123067
33.07682	121501
33.08495	139972
33.09307	147382
33.10120	155317
33.10932	159755
33.11743	158981
33.12557	160109
33.13368	157216
33.14182	161315
33.14993	148246
33.15805	135254
33.16618	125780
33.17430	118275
33.18242	103966
33.19055	100364
33.19867	95065
33.20680	89114
33.21492	86687
33.22303	79922
33.23117	81449
33.23928	84487
33.24742	77128
33.25553	79510
33.26365	79023
33.27178	84477
33.27990	79349
33.28803	73466
33.29615	75948
33.30427	73524
33.31240	69325
33.32052	71682
33.32863	72280
33.33677	74652
33.34488	77193
33.35302	79892
33.36113	80533
33.36925	81277
33.37738	93992
33.38550	88705
33.39363	90107
33.40175	85900
33.40987	89071
33.41800	82701
33.42612	72029
33.43423	70390
33.44237	69796
33.45048	62774
33.45862	66062
33.46673	72216
33.47485	66987
33.48298	66410
33.49110	71790
33.49923	69696
33.50735	72707
33.51547	71065
33.52360	75092
33.53172	80909
33.53985	78792
33.54797	93573
33.55608	99755
33.56422	113450
33.57233	125286
33.58045	128487
33.58858	123405
33.59670	111690
33.60483	100788
33.61295	88676
33.62107	77715
33.62920	74193
33.63732	72148
33.64545	72379
33.65357	75928
33.66168	75992
33.66982	81297
33.67793	84715
33.68605	86837
33.69418	90304
33.70230	81885
33.71043	77915
33.71855	72964
33.72667	71510
33.73480	67623
33.74292	67764
33.75105	70560
33.75917	68788
33.76728	64898
33.77542	68435
33.78353	70346
33.79167	68250
33.79978	65875
33.80790	67302
33.81603	62902
33.82415	64238
33.83227	64285
33.84040	61141
33.84852	64561
33.85665	70426
33.86477	72747
33.87288	69249
33.88102	69858
33.88913	74535
33.89727	75746
33.90538	75216
33.91350	77847
33.92163	70281
33.92975	73377
33.93788	66118
33.94600	70595
33.95412	70016
33.96225	66662
33.97037	65200
33.97848	66663
33.98662	65240
33.99473	66492
34.00287	63368
34.01098	66717
34.01910	67714
34.02723	65201
34.03535	66363
34.04348	64003
34.05160	61647
34.05972	66889
34.06785	67078
34.07597	66704
34.08408	63728
34.09222	65133
34.10033	65126
34.10847	63521
34.11658	71798
34.12470	62848
34.13283	66867
34.14095	69523
34.14908	66847
34.15720	73827
34.16532	71818
34.17345	67208
34.18157	67231
34.18970	63975
34.19782	68362
34.20593	67993
34.21407	61049
34.22218	67246
34.23030	59066
34.23843	69969
34.24655	63579
34.25468	61231
34.26280	62192
34.27092	67527
34.27905	63996
34.28717	65803
34.29530	64086
34.30342	59911
34.31153	60498
34.31967	60341
34.32778	61308
34.33592	62248
34.34403	60046
34.35215	63309
34.36028	65743
34.36840	59188
34.37652	66748
34.38465	65776
34.39277	65469
34.40090	59293
34.40902	61548
34.41713	64838
34.42527	63616
34.43338	67013
34.44152	62275
34.44963	69795
34.45775	65487
34.46588	61702
34.47400	63502
34.48212	61296
34.49025	64716
34.49837	60068
34.50650	66165
34.51462	65462
34.52273	62170
34.53087	64009
34.53898	70551
34.54712	68735
34.55523	80801
34.56335	89476
34.57148	99826
34.57960	108369
34.58773	116553
34.59585	120023
34.60397	120032
34.61210	113458
34.62022	99143
34.62833	97164
34.63647	90420
34.64458	90928
34.65272	83511
34.66083	82728
34.66895	78921
34.67708	83025
34.68520	78797
34.69333	78096
34.70145	77721
34.70957	73555
34.71770	70917
34.72582	78209
34.73395	72079
34.74207	78831
34.75018	73687
34.75832	76034
34.76643	77877
34.77455	74293
34.78268	74714
34.79080	73107
34.79893	79310
34.80705	76707
34.81517	76113
34.82330	72099
34.83142	69440
34.83955	66860
34.84767	67548
34.85578	75048
34.86392	72472
34.87203	70804
34.88015	71270
34.88828	71325
34.89640	68497
34.90453	70263
34.91265	65630
34.92077	66458
34.92890	68963
34.93702	71918
34.94515	70516
34.95327	70479
34.96138	73709
34.96952	80692
34.97763	84812
34.98577	87101
34.99388	91076
35.00200	93965
35.01013	87677
35.01825	87846
35.02637	74750
35.03450	72226
35.04262	70233
35.05075	67889
35.05887	73146
35.06698	67397
35.07512	66994
35.08323	73121
35.09137	66788
35.09948	66878
35.10760	68000
35.11573	69474
35.12385	62926
35.13197	68110
35.14010	76060
35.14822	74325
35.15635	70271
35.16447	73117
35.17258	72218
35.18072	83852
35.18883	77514
35.19697	78413
35.20508	77086
35.21320	74448
35.22133	73705
35.22945	69864
35.23758	70143
35.24570	70693
35.25382	68943
35.26195	69012
35.27007	71053
35.27818	66129
35.28632	68337
35.29443	69539
35.30257	66477
35.31068	68912
35.31880	68237
35.32693	67960
35.33505	70058
35.34318	68553
35.35130	67539
35.35942	70476
35.36755	66546
35.37567	68339
35.38380	67511
35.39192	65898
35.40003	67423
35.40817	71794
35.41628	76318
35.42440	71732
35.43253	77551
35.44065	75694
35.44878	74373
35.45690	78081
35.46502	77383
35.47315	81563
35.48127	75332
35.48940	76230
35.49752	79912
35.50563	78808
35.51377	76935
35.52188	74893
35.53000	71448
35.53813	72254
35.54625	66830
35.55438	70322
35.56250	70400
35.57062	71582
35.57875	71460
35.58687	66210
35.59500	68119
35.60312	67960
35.61123	65331
35.61937	71198
35.62748	69605
35.63562	64787
35.64373	67839
35.65185	72533
35.65998	66197
35.66810	69888
35.67622	68217
35.68435	73214
35.69247	73393
35.70060	73259
35.70872	75525
35.71683	73017
35.72497	77697
35.73308	80707
35.74122	75020
35.74933	83291
35.75745	83593
35.76558	91443
35.77370	101872
35.78183	111928
35.78995	111987
35.79807	109673
35.80620	100952
35.81432	93004
35.82243	88187
35.83057	77451
35.83868	83646
35.84682	77041
35.85493	72974
35.86305	72770
35.87118	73010
35.87930	75269
35.88743	69006
35.89555	69086
35.90367	70878
35.91180	72606
35.91992	71460
35.92803	71601
35.93617	69888
35.94428	69517
35.95242	71642
35.96053	69115
35.96865	70026
35.97678	71083
35.98490	67062
35.99303	69608
36.00115	68921
36.00927	67342
36.01740	70740
36.02552	71831
36.03365	77707
36.04177	76297
36.04988	72805
36.05802	79556
36.06613	73313
36.07425	71868
36.08238	71841
36.09050	70235
36.09863	69347
36.10675	69877
36.11487	69393
36.12300	69553
36.13112	74906
36.13925	73096
36.14737	80720
36.15548	80309
36.16362	84682
36.17173	84702
36.17985	92300
36.18798	82377
36.19610	78690
36.20423	79565
36.21235	75649
36.22047	74524
36.22860	70942
36.23672	67344
36.24485	73855
36.25297	69950
36.26108	73510
36.26922	68860
36.27733	76302
36.28547	72089
36.29358	72805
36.30170	69882
36.30983	73396
36.31795	78912
36.32607	74890
36.33420	80769
36.34232	87247
36.35045	89353
36.35857	91180
36.36668	87349
36.37482	83534
36.38293	83330
36.39107	79684
36.39918	85137
36.40730	78483
36.41543	78595
36.42355	82677
36.43168	85905
36.43980	85684
36.44792	83663
36.45605	79626
36.46417	83586
36.47228	81662
36.48042	75046
36.48853	75248
36.49667	75325
36.50478	68660
36.51290	72523
36.52103	70199
36.52915	71835
36.53728	72172
36.54540	73474
36.55352	73340
36.56165	73133
36.56977	70908
36.57790	77709
36.58602	75008
36.59413	69448
36.60227	74034
36.61038	69986
36.61850	72098
36.62663	71947
36.63475	75537
36.64288	73022
36.65100	73136
36.65912	69592
36.66725	73003
36.67537	72199
36.68350	76854
36.69162	72386
36.69973	79337
36.70787	75203
36.71598	76395
36.72410	74330
36.73223	77179
36.74035	80351
36.74848	74242
36.75660	77477
36.76472	72088
36.77285	80305
36.78097	74189
36.78910	74600
36.79722	79247
36.80533	74891
36.81347	75292
36.82158	75849
36.82972	77928
36.83783	75106
36.84595	78498
36.85408	75706
36.86220	73179
36.87032	71198
36.87845	76624
36.88657	76108
36.89470	73975
36.90282	75756
36.91093	71796
36.91907	75707
36.92718	74204
36.93532	75970
36.94343	80932
36.95155	91483
36.95968	98987
36.96780	117342
36.97592	138409
36.98405	175936
36.99217	194574
37.00030	191452
37.00842	167702
37.01653	137996
37.02467	117530
37.03278	98390
37.04092	95584
37.04903	86065
37.05715	84847
37.06528	83791
37.07340	91360
37.08153	89567
37.08965	89547
37.09777	87026
37.10590	85562
37.11402	89804
37.12213	88607
37.13027	89710
37.13838	85398
37.14652	85549
37.15463	86827
37.16275	81479
37.17088	79727
37.17900	82396
37.18713	79903
37.19525	83223
37.20337	78550
37.21150	79902
37.21962	77943
37.22775	82370
37.23587	80292
37.24398	87334
37.25212	91021
37.26023	86775
37.26835	80928
37.27648	88603
37.28460	80261
37.29273	82753
37.30085	78600
37.30897	76349
37.31710	80067
37.32522	77713
37.33335	75727
37.34147	80915
37.34958	82747
37.35772	85946
37.36583	83946
37.37395	82903
37.38208	92548
37.39020	91995
37.39833	92326
37.40645	95402
37.41457	98605
37.42270	98415
37.43082	99539
37.43895	98683
37.44707	99856
37.45518	95878
37.46332	100177
37.47143	96846
37.47957	93904
37.48768	90220
