Z:\data\JTB-E02\BACandBLUE\JTB-E18-005-13.D Wed Apr 10 17:54:35 2019
Start of data points
2.09527	150151
2.10340	146202
2.11152	150540
2.11965	153594
2.12777	150616
2.13588	157567
2.14402	145317
2.15213	149725
2.16027	152407
2.16838	147350
2.17650	150354
2.18463	143353
2.19275	141436
2.20087	142567
2.20900	136051
2.21712	138123
2.22525	150393
2.23337	146960
2.24148	472084
2.24962	2544584
2.25773	3279665
2.26587	1655263
2.27398	1016912
2.28210	827062
2.29023	706003
2.29835	629064
2.30647	569317
2.31460	522587
2.32272	477531
2.33085	446230
2.33897	418694
2.34708	395051
2.35522	381361
2.36333	359587
2.37147	344784
2.37958	345986
2.38770	333334
2.39583	330581
2.40395	325949
2.41208	309957
2.42020	308580
2.42832	300717
2.43645	292118
2.44457	291130
2.45268	286712
2.46082	283236
2.46893	291273
2.47707	287740
2.48518	286984
2.49330	275568
2.50143	279139
2.50955	274505
2.51768	276132
2.52580	328209
2.53392	679055
2.54205	970506
2.55017	784194
2.55830	604155
2.56642	509383
2.57453	457148
2.58267	446485
2.59078	449998
2.59890	441290
2.60703	394441
2.61515	367265
2.62328	359249
2.63140	343366
2.63952	338365
2.64765	332847
2.65577	323160
2.66390	313076
2.67202	309585
2.68013	298556
2.68827	299956
2.69638	297061
2.70450	293314
2.71263	289988
2.72075	285413
2.72888	287391
2.73700	296151
2.74512	290882
2.75325	459270
2.76137	1321513
2.76950	1909049
2.77762	1400081
2.78573	990966
2.79387	850159
2.80198	739140
2.81012	672705
2.81823	609734
2.82635	535685
2.83448	486479
2.84260	456352
2.85072	408439
2.85885	391152
2.86697	374230
2.87510	361765
2.88322	352359
2.89133	334723
2.89947	322980
2.90758	320054
2.91572	310773
2.92383	293891
2.93195	294911
2.94008	294718
2.94820	296760
2.95633	282742
2.96445	314992
2.97257	435697
2.98070	525639
2.98882	494836
2.99693	445941
3.00507	400086
3.01318	369803
3.02132	355621
3.02943	354261
3.03755	388289
3.04568	445485
3.05380	408449
3.06193	367870
3.07005	364351
3.07817	390307
3.08630	440388
3.09442	473110
3.10253	422485
3.11067	371536
3.11878	360707
3.12692	325585
3.13503	310715
3.14315	321271
3.15128	360566
3.15940	458982
3.16753	898379
3.17565	1481177
3.18377	1436510
3.19190	1077251
3.20002	884245
3.20815	761066
3.21627	676389
3.22438	615366
3.23252	552286
3.24063	515891
3.24875	469311
3.25688	436289
3.26500	477328
3.27313	810760
3.28125	1885685
3.28937	3433597
3.29750	4288085
3.30562	4014734
3.31375	3292221
3.32187	2721066
3.32998	2262996
3.33812	1969827
3.34623	1729770
3.35435	1555597
3.36248	1415194
3.37060	1305371
3.37873	1203570
3.38685	1109267
3.39497	1090673
3.40310	1078952
3.41122	1025627
3.41935	937727
3.42747	861569
3.43558	804640
3.44372	756581
3.45183	720901
3.45997	702057
3.46808	669587
3.47620	642555
3.48433	616662
3.49245	600908
3.50057	624102
3.50870	698788
3.51682	713614
3.52495	659462
3.53307	611554
3.54118	577741
3.54932	547923
3.55743	520039
3.56557	513644
3.57368	490085
3.58180	480536
3.58993	478695
3.59805	466453
3.60618	468412
3.61430	525502
3.62242	537364
3.63055	551044
3.63867	692684
3.64678	2501742
3.65492	8280905
3.66303	1.443062E+07
3.67117	1.404528E+07
3.67928	9726283
3.68740	6722826
3.69553	5321776
3.70365	4477897
3.71178	3904763
3.71990	3462620
3.72802	3080893
3.73615	2804854
3.74427	2571349
3.75240	2335813
3.76052	2162616
3.76863	2026855
3.77677	1905172
3.78488	1810696
3.79300	1684097
3.80113	1600629
3.80925	1509491
3.81738	1449227
3.82550	1371955
3.83362	1320388
3.84175	1247860
3.84987	1196081
3.85800	1167911
3.86612	1115952
3.87423	1068386
3.88237	1032597
3.89048	1015340
3.89860	1035092
3.90673	1156909
3.91485	1245097
3.92298	1211241
3.93110	1145756
3.93922	1198470
3.94735	1394777
3.95547	1437213
3.96360	1253585
3.97172	1075268
3.97983	981054
3.98797	1141106
3.99608	1374163
4.00422	1433223
4.01233	1229426
4.02045	1016109
4.02858	876359
4.03670	783658
4.04482	738216
4.05295	700165
4.06107	674959
4.06920	655138
4.07732	636656
4.08543	624569
4.09357	620787
4.10168	617021
4.10982	775734
4.11793	1746916
4.12605	4190571
4.13418	6853397
4.14230	7030592
4.15042	5231518
4.15855	3343386
4.16667	2220500
4.17480	1658317
4.18292	1349329
4.19103	1525334
4.19917	3501689
4.20728	8871931
4.21542	1.531264E+07
4.22353	1.920998E+07
4.23165	1.817918E+07
4.23978	1.349355E+07
4.24790	9063337
4.25603	6365162
4.26415	4730319
4.27227	3599251
4.28040	2853643
4.28852	2283690
4.29663	1926042
4.30477	1643878
4.31288	1455724
4.32102	1290188
4.32913	1170640
4.33725	1121255
4.34538	1111497
4.35350	1142573
4.36163	1091233
4.36975	980505
4.37787	856811
4.38600	786299
4.39412	741952
4.40225	703369
4.41037	670251
4.41848	637735
4.42662	603522
4.43473	583447
4.44285	569105
4.45098	573916
4.45910	601822
4.46723	693062
4.47535	763366
4.48347	735520
4.49160	667755
4.49972	624539
4.50785	562409
4.51597	552928
4.52408	530037
4.53222	539958
4.54033	542044
4.54845	516537
4.55658	490198
4.56470	478118
4.57283	473102
4.58095	455039
4.58907	457185
4.59720	455709
4.60532	482001
4.61345	603059
4.62157	821770
4.62968	1020416
4.63782	1011936
4.64593	855627
4.65407	718883
4.66218	667236
4.67030	623239
4.67843	576254
4.68655	531123
4.69467	496048
4.70280	465678
4.71092	446573
4.71905	423479
4.72717	428918
4.73528	427249
4.74342	401436
4.75153	392612
4.75967	388219
4.76778	399354
4.77590	394461
4.78403	406090
4.79215	410596
4.80028	403611
4.80840	394958
4.81652	389215
4.82465	368382
4.83277	374776
4.84088	356095
4.84902	354988
4.85713	350473
4.86527	357127
4.87338	346170
4.88150	358830
4.88963	350531
4.89775	347341
4.90588	344064
4.91400	343863
4.92212	375561
4.93025	504903
4.93837	882498
4.94648	1490779
4.95462	2115358
4.96273	2368438
4.97087	2187728
4.97898	1844407
4.98710	1510333
4.99523	1269153
5.00335	1100363
5.01148	1046088
5.01960	1016495
5.02772	1039805
5.03585	1016219
5.04397	943579
5.05210	864353
5.06022	809227
5.06833	787935
5.07647	745172
5.08458	693910
5.09270	671258
5.10083	648502
5.10895	615475
5.11708	608262
5.12520	602152
5.13332	591702
5.14145	628240
5.14957	691017
5.15770	751273
5.16582	748749
5.17393	724512
5.18207	708584
5.19018	740355
5.19830	774492
5.20643	764616
5.21455	721537
5.22268	664997
5.23080	620073
5.23892	577534
5.24705	534573
5.25517	510342
5.26330	477084
5.27142	461926
5.27953	429926
5.28767	416919
5.29578	414876
5.30392	404501
5.31203	388923
5.32015	393512
5.32828	389212
5.33640	384596
5.34452	383073
5.35265	381998
5.36077	381329
5.36890	399219
5.37702	436321
5.38513	467667
5.39327	485496
5.40138	489323
5.40952	452879
5.41763	411408
5.42575	405309
5.43388	433624
5.44200	470994
5.45013	521481
5.45825	498885
5.46637	445288
5.47450	411095
5.48262	380434
5.49073	360290
5.49887	350186
5.50698	343807
5.51512	342103
5.52323	339296
5.53135	345614
5.53948	392133
5.54760	501822
5.55573	737946
5.56385	922073
5.57197	986919
5.58010	873152
5.58822	709574
5.59633	573734
5.60447	483599
5.61258	453660
5.62072	427459
5.62883	409377
5.63695	393311
5.64508	388847
5.65320	388055
5.66133	443999
5.66945	609217
5.67757	861188
5.68570	1044068
5.69382	1053984
5.70195	887832
5.71007	717429
5.71818	612626
5.72632	535809
5.73443	495005
5.74255	472077
5.75068	435890
5.75880	415963
5.76693	407526
5.77505	398103
5.78317	399779
5.79130	378616
5.79942	381913
5.80755	380250
5.81567	412388
5.82378	455349
5.83192	489699
5.84003	503750
5.84817	504474
5.85628	466261
5.86440	466388
5.87253	439353
5.88065	432161
5.88877	405690
5.89690	394025
5.90502	400676
5.91315	388962
5.92127	376107
5.92938	362455
5.93752	357663
5.94563	360483
5.95377	358601
5.96188	371551
5.97000	404199
5.97813	444749
5.98625	443439
5.99437	436037
6.00250	396039
6.01062	367440
6.01875	342420
6.02687	332683
6.03498	310617
6.04312	295979
6.05123	288477
6.05937	269084
6.06748	269322
6.07560	266937
6.08373	258090
6.09185	253723
6.09998	249386
6.10810	262312
6.11622	289429
6.12435	383969
6.13247	494632
6.14058	587635
6.14872	585825
6.15683	518996
6.16497	445371
6.17308	404140
6.18120	363308
6.18933	347209
6.19745	324409
6.20558	318476
6.21370	293972
6.22182	296775
6.22995	303947
6.23807	309205
6.24618	335439
6.25432	363049
6.26243	365969
6.27057	347303
6.27868	318520
6.28680	299839
6.29493	298724
6.30305	291890
6.31118	299459
6.31930	290226
6.32742	281371
6.33555	270635
6.34367	263763
6.35180	262569
6.35992	255630
6.36803	266598
6.37617	267967
6.38428	262592
6.39240	255563
6.40053	250787
6.40865	249936
6.41678	242594
6.42490	251387
6.43302	242622
6.44115	238870
6.44927	253456
6.45740	243229
6.46552	249555
6.47363	243412
6.48177	235644
6.48988	242250
6.49802	236803
6.50613	251670
6.51425	254099
6.52238	247995
6.53050	242407
6.53862	245932
6.54675	266290
6.55487	336831
6.56300	492520
6.57112	698108
6.57923	798453
6.58737	729051
6.59548	571086
6.60362	441547
6.61173	359510
6.61985	325597
6.62798	305409
6.63610	325558
6.64422	495260
6.65235	848461
6.66047	1291282
6.66860	1488985
6.67672	1326767
6.68483	1191815
6.69297	884088
6.70108	701317
6.70922	575973
6.71733	515593
6.72545	467479
6.73358	425210
6.74170	385210
6.74983	363818
6.75795	346386
6.76607	329723
6.77420	316699
6.78232	313386
6.79043	298465
6.79857	335098
6.80668	364219
6.81482	412520
6.82293	454516
6.83105	458188
6.83918	427088
6.84730	373934
6.85543	319334
6.86355	280976
6.87167	240901
6.87980	222630
6.88792	204748
6.89605	199560
6.90417	192229
6.91228	189246
6.92042	174934
6.92853	179828
6.93665	175940
6.94478	175701
6.95290	187831
6.96103	200451
6.96915	238273
6.97727	262488
6.98540	263525
6.99352	253013
7.00165	228820
7.00977	209206
7.01788	200834
7.02602	186516
7.03413	193159
7.04225	206273
7.05038	235616
7.05850	276147
7.06663	315949
7.07475	346933
7.08287	331840
7.09100	300525
7.09912	260048
7.10725	233230
7.11537	207163
7.12348	200863
7.13162	203240
7.13973	230744
7.14787	282144
7.15598	337286
7.16410	362629
7.17223	354995
7.18035	370266
7.18847	605489
7.19660	1380840
7.20472	2888282
7.21285	4541567
7.22097	5224927
7.22908	4410645
7.23722	3019721
7.24533	1791030
7.25347	977034
7.26158	577457
7.26970	349226
7.27783	268942
7.28595	241442
7.29408	231529
7.30220	231516
7.31032	232858
7.31845	239145
7.32657	245958
7.33468	263834
7.34282	267609
7.35093	270929
7.35907	254576
7.36718	244233
7.37530	224524
7.38343	220585
7.39155	206722
7.39968	200997
7.40780	195465
7.41592	190444
7.42405	192341
7.43217	188237
7.44028	186191
7.44842	196646
7.45653	194182
7.46467	202016
7.47278	186746
7.48090	185799
7.48903	183683
7.49715	178512
7.50528	181712
7.51340	218122
7.52152	359466
7.52965	651766
7.53777	1267777
7.54590	2229879
7.55402	3339048
7.56213	4258893
7.57027	4535755
7.57838	4193052
7.58650	3329569
7.59463	2413507
7.60275	1669007
7.61088	1119153
7.61900	789709
7.62712	592823
7.63525	461657
7.64337	387075
7.65150	331766
7.65962	293775
7.66773	252621
7.67587	230784
7.68398	213332
7.69210	198539
7.70023	191266
7.70835	200563
7.71648	211569
7.72460	224020
7.73272	248714
7.74085	276207
7.74897	298852
7.75710	304112
7.76522	301712
7.77333	285793
7.78147	271739
7.78958	262319
7.79772	262637
7.80583	271624
7.81395	265308
7.82208	261219
7.83020	270323
7.83832	303535
7.84645	387126
7.85457	514881
7.86270	723023
7.87082	1083270
7.87893	1540815
7.88707	1929479
7.89518	2067102
7.90332	1808186
7.91143	1356361
7.91955	958055
7.92768	671046
7.93580	534707
7.94393	461629
7.95205	397864
7.96017	333761
7.96830	290979
7.97642	262475
7.98453	242420
7.99267	238293
8.00078	240342
8.00892	267771
8.01703	272288
8.02515	284414
8.03328	279701
8.04140	273162
8.04953	262263
8.05765	252742
8.06577	246010
8.07390	240847
8.08202	236554
8.09013	231843
8.09827	218331
8.10638	222973
8.11452	221688
8.12263	232078
8.13075	234573
8.13888	233515
8.14700	243731
8.15513	238495
8.16325	228889
8.17137	216078
8.17950	211756
8.18762	206196
8.19575	195515
8.20387	192111
8.21198	188192
8.22012	187587
8.22823	187032
8.23635	181063
8.24448	191888
8.25260	176979
8.26073	175564
8.26885	167214
8.27697	174422
8.28510	170293
8.29322	165336
8.30135	169729
8.30947	170196
8.31758	178950
8.32572	183224
8.33383	183227
8.34197	184881
8.35008	181727
8.35820	169316
8.36633	157569
8.37445	165096
8.38257	160512
8.39070	158875
8.39882	149605
8.40695	155614
8.41507	149665
8.42318	146674
8.43132	150489
8.43943	149618
8.44757	145118
8.45568	149391
8.46380	148213
8.47193	147722
8.48005	146476
8.48817	150164
8.49630	164499
8.50442	228632
8.51255	483061
8.52067	1153565
8.52878	2264719
8.53692	3405326
8.54503	3781250
8.55317	3167540
8.56128	2186215
8.56940	1223042
8.57753	676055
8.58565	453122
8.59378	396052
8.60190	350693
8.61002	339740
8.61815	315728
8.62627	304737
8.63438	282391
8.64252	262406
8.65063	249937
8.65877	238951
8.66688	237071
8.67500	223535
8.68313	208946
8.69125	204827
8.69938	202386
8.70750	205976
8.71562	199276
8.72375	188798
8.73187	180238
8.73998	181309
8.74812	178736
8.75623	186966
8.76437	238425
8.77248	322431
8.78060	499511
8.78873	663530
8.79685	776020
8.80498	773063
8.81310	651437
8.82122	511553
8.82935	414024
8.83747	379246
8.84560	350785
8.85372	339279
8.86183	325475
8.86997	318573
8.87808	311220
8.88620	296525
8.89433	278213
8.90245	267235
8.91058	259813
8.91870	259609
8.92682	265747
8.93495	277762
8.94307	282857
8.95120	287357
8.95932	262293
8.96743	259837
8.97557	248601
8.98368	252773
8.99182	255649
8.99993	239845
9.00805	237154
9.01618	220575
9.02430	213012
9.03242	201536
9.04055	197343
9.04867	192000
9.05680	191871
9.06492	193031
9.07303	185839
9.08117	189263
9.08928	198251
9.09742	212963
9.10553	233568
9.11365	264663
9.12178	277474
9.12990	275465
9.13803	259638
9.14615	263625
9.15427	245050
9.16240	236014
9.17052	220971
9.17863	206342
9.18677	193145
9.19488	200123
9.20302	193384
9.21113	193669
9.21925	181963
9.22738	185404
9.23550	170799
9.24363	179557
9.25175	173753
9.25987	168559
9.26800	168173
9.27612	164741
9.28423	163241
9.29237	162983
9.30048	156185
9.30862	156629
9.31673	154533
9.32485	148637
9.33298	149311
9.34110	139534
9.34923	150157
9.35735	151473
9.36547	143838
9.37360	144990
9.38172	142794
9.38985	153580
9.39797	159304
9.40608	181858
9.41422	214130
9.42233	263019
9.43045	362717
9.43858	428233
9.44670	481811
9.45483	477837
9.46295	423842
9.47107	349270
9.47920	274156
9.48732	218354
9.49545	186225
9.50357	168363
9.51168	186501
9.51982	191020
9.52793	197861
9.53605	211664
9.54418	212614
9.55230	208392
9.56043	197843
9.56855	178081
9.57667	161950
9.58480	146816
9.59292	135073
9.60105	124268
9.60917	119016
9.61728	112770
9.62542	107750
9.63353	110528
9.64167	101343
9.64978	104831
9.65790	102054
9.66603	103298
9.67415	108612
9.68227	101256
9.69040	97907
9.69852	99287
9.70665	97290
9.71477	92091
9.72288	95843
9.73102	97495
9.73913	96468
9.74727	92763
9.75538	97484
9.76350	94901
9.77163	91742
9.77975	91875
9.78787	88675
9.79600	94158
9.80412	87601
9.81225	87608
9.82037	85953
9.82848	87389
9.83662	90320
9.84473	93317
9.85287	97102
9.86098	102331
9.86910	109577
9.87723	99501
9.88535	98123
9.89348	92013
9.90160	87266
9.90972	85569
9.91785	92553
9.92597	97419
9.93408	116191
9.94222	151576
9.95033	185289
9.95847	217472
9.96658	234472
9.97470	222864
9.98283	210846
9.99095	185288
9.99908	162805
10.00720	153171
10.01532	151160
10.02345	146081
10.03157	140178
10.03970	140609
10.04782	132987
10.05593	133167
10.06407	130430
10.07218	136638
10.08030	126716
10.08843	128826
10.09655	126246
10.10468	117687
10.11280	117644
10.12092	117250
10.12905	109708
10.13717	111918
10.14530	109087
10.15342	109608
10.16153	98754
10.16967	100064
10.17778	98383
10.18592	99757
10.19403	99069
10.20215	97584
10.21028	100197
10.21840	94118
10.22652	98776
10.23465	100774
10.24277	118803
10.25090	195963
10.25902	429348
10.26713	1205846
10.27527	2894206
10.28338	5891370
10.29152	9422212
10.29963	1.30567E+07
10.30775	1.657971E+07
10.31588	2.048874E+07
10.32400	2.504165E+07
10.33212	3.096598E+07
10.34025	3.735185E+07
10.34837	4.250251E+07
10.35650	4.234865E+07
10.36462	3.347204E+07
10.37273	1.997319E+07
10.38087	1.059189E+07
10.38898	6765980
10.39712	4850523
10.40523	3567080
10.41335	2651209
10.42148	2124796
10.42960	1847569
10.43773	1768354
10.44585	1750885
10.45397	1752130
10.46210	1746357
10.47022	1648483
10.47833	1503680
10.48647	1289863
10.49458	1163903
10.50272	1040561
10.51083	948866
10.51895	899971
10.52708	813894
10.53520	779981
10.54333	753995
10.55145	703405
10.55957	654952
10.56770	629334
10.57582	613018
10.58393	583299
10.59207	556704
10.60018	523076
10.60832	502161
10.61643	492289
10.62455	477104
10.63268	459883
10.64080	429314
10.64893	433363
10.65705	403163
10.66517	399286
10.67330	386117
10.68142	369061
10.68955	368835
10.69767	363996
10.70578	369493
10.71392	367495
10.72203	361202
10.73015	345310
10.73828	337007
10.74640	320418
10.75453	303197
10.76265	292716
10.77077	292374
10.77890	273468
10.78702	269994
10.79515	278992
10.80327	272318
10.81138	270545
10.81952	271130
10.82763	268358
10.83577	262734
10.84388	241790
10.85200	243055
10.86013	231259
10.86825	228892
10.87637	218837
10.88450	218215
10.89262	208238
10.90075	206650
10.90887	197346
10.91698	202274
10.92512	193456
10.93323	190876
10.94137	200562
10.94948	202201
10.95760	205357
10.96573	223952
10.97385	239883
10.98197	266726
10.99010	253449
10.99822	250871
11.00635	236992
11.01447	235711
11.02258	205277
11.03072	210057
11.03883	195279
11.04697	193491
11.05508	189525
11.06320	185284
11.07133	191913
11.07945	195216
11.08758	202483
11.09570	203636
11.10382	203941
11.11195	206106
11.12007	196496
11.12818	176722
11.13632	169408
11.14443	152922
11.15257	148109
11.16068	147136
11.16880	144520
11.17693	139812
11.18505	146094
11.19318	146834
11.20130	144459
11.20942	147757
11.21755	131864
11.22567	129489
11.23380	131531
11.24192	119316
11.25003	116824
11.25817	107509
11.26628	110520
11.27440	100683
11.28253	104205
11.29065	113872
11.29878	141814
11.30690	223921
11.31502	440226
11.32315	847899
11.33127	1507620
11.33940	2213478
11.34752	2747234
11.35563	2839793
11.36377	2487671
11.37188	1942765
11.38000	1503770
11.38813	1211372
11.39625	1061024
11.40438	950345
11.41250	894924
11.42062	793174
11.42875	696489
11.43687	602589
11.44500	555542
11.45312	478170
11.46123	443543
11.46937	381413
11.47748	363279
11.48562	361769
11.49373	368967
11.50185	391981
11.50998	411801
11.51810	393199
11.52622	379416
11.53435	341602
11.54247	326354
11.55060	306211
11.55872	286491
11.56683	269375
11.57497	259791
11.58308	251001
11.59122	255764
11.59933	258736
11.60745	290997
11.61558	317944
11.62370	320836
11.63182	309976
11.63995	288596
11.64807	240061
11.65620	221080
11.66432	205706
11.67243	202615
11.68057	202729
11.68868	205166
11.69682	183766
11.70493	186838
11.71305	178317
11.72118	171469
11.72930	155627
11.73743	144174
11.74555	140254
11.75367	140285
11.76180	134435
11.76992	130781
11.77803	128976
11.78617	127342
11.79428	120371
11.80242	118807
11.81053	117431
11.81865	112662
11.82678	122911
11.83490	111615
11.84303	106450
11.85115	111963
11.85927	104859
11.86740	111206
11.87552	109301
11.88365	112401
11.89177	104686
11.89988	121286
11.90802	155281
11.91613	207199
11.92425	267825
11.93238	313525
11.94050	317594
11.94863	295059
11.95675	247130
11.96487	212093
11.97300	278522
11.98112	532427
11.98925	1196506
11.99737	2305513
12.00548	3413504
12.01362	4417985
12.02173	4605282
12.02985	4322540
12.03798	3321653
12.04610	2617383
12.05423	2010245
12.06235	1643623
12.07047	1468232
12.07860	1327399
12.08672	1202510
12.09485	1132573
12.10297	1080934
12.11108	1095570
12.11922	1184794
12.12733	1284633
12.13547	1350929
12.14358	1383764
12.15170	1337481
12.15983	1230191
12.16795	1065769
12.17607	951789
12.18420	890594
12.19232	857417
12.20045	822875
12.20857	802721
12.21668	788535
12.22482	738231
12.23293	715628
12.24107	680322
12.24918	665656
12.25730	659484
12.26543	653361
12.27355	634756
12.28168	612805
12.28980	587851
12.29792	560396
12.30605	534786
12.31417	540736
12.32228	498689
12.33042	485334
12.33853	484998
12.34667	457788
12.35478	448289
12.36290	446401
12.37103	440890
12.37915	438661
12.38728	425166
12.39540	407110
12.40352	413040
12.41165	413730
12.41977	423878
12.42788	412777
12.43602	411263
12.44413	391854
12.45227	386003
12.46038	381878
12.46850	371611
12.47663	365001
12.48475	363442
12.49288	363265
12.50100	357715
12.50912	362084
12.51725	354665
12.52537	368071
12.53350	361139
12.54162	358162
12.54973	343134
12.55787	335872
12.56598	318488
12.57410	335760
12.58223	308949
12.59035	298249
12.59848	293830
12.60660	286527
12.61472	293054
12.62285	287775
12.63097	284586
12.63910	266371
12.64722	266004
12.65533	259915
12.66347	258085
12.67158	233160
12.67970	221352
12.68783	186341
12.69595	167886
12.70408	143768
12.71220	143419
12.72032	137037
12.72845	132790
12.73657	136616
12.74470	135024
12.75282	127172
12.76093	125680
12.76907	119965
12.77718	124913
12.78532	116018
12.79343	122376
12.80155	120486
12.80968	117435
12.81780	117820
12.82592	108661
12.83405	107935
12.84217	100530
12.85030	99204
12.85842	95267
12.86653	92490
12.87467	93881
12.88278	91860
12.89092	94154
12.89903	97190
12.90715	90585
12.91528	92087
12.92340	92360
12.93153	97211
12.93965	88709
12.94777	94801
12.95590	106680
12.96402	110197
12.97213	131609
12.98027	144088
12.98838	162562
12.99652	146884
13.00463	136716
13.01275	121929
13.02088	118900
13.02900	113333
13.03713	107822
13.04525	105970
13.05337	100992
13.06150	98977
13.06962	99716
13.07773	95946
13.08587	96021
13.09398	99651
13.10212	99713
13.11023	96110
13.11835	95612
13.12648	91081
13.13460	87714
13.14273	85149
13.15085	92129
13.15897	87604
13.16710	87581
13.17522	92891
13.18335	97210
13.19147	93943
13.19958	92888
13.20772	101495
13.21583	102578
13.22395	98620
13.23208	101724
13.24020	92991
13.24833	94431
13.25645	88830
13.26457	93266
13.27270	86748
13.28082	88896
13.28895	87547
13.29707	89820
13.30518	87404
13.31332	85886
13.32143	80454
13.32957	81177
13.33768	84772
13.34580	80148
13.35393	82185
13.36205	83425
13.37017	79563
13.37830	78657
13.38642	75198
13.39455	76336
13.40267	76987
13.41078	81935
13.41892	77739
13.42703	81592
13.43517	79946
13.44328	79653
13.45140	76568
13.45953	79786
13.46765	80823
13.47577	84628
13.48390	86466
13.49202	84890
13.50015	81481
13.50827	85022
13.51638	81813
13.52452	84005
13.53263	85494
13.54077	86629
13.54888	78213
13.55700	80487
13.56513	81184
13.57325	82711
13.58138	90720
13.58950	104426
13.59762	122144
13.60575	149898
13.61387	176991
13.62198	205768
13.63012	198555
13.63823	186462
13.64637	159542
13.65448	140085
13.66260	111544
13.67073	104252
13.67885	98890
13.68698	93982
13.69510	89992
13.70322	90444
13.71135	87185
13.71947	90679
13.72760	90607
13.73572	112341
13.74383	172911
13.75197	335568
13.76008	679198
13.76820	1327898
13.77633	1983219
13.78445	2389382
13.79258	2631044
13.80070	2637586
13.80882	2311778
13.81695	1882047
13.82507	1600930
13.83320	1457210
13.84132	1396700
13.84943	1315493
13.85757	1242114
13.86568	1184072
13.87380	1043033
13.88193	916852
13.89005	823876
13.89818	740259
13.90630	688379
13.91442	625404
13.92255	601015
13.93067	566677
13.93880	548982
13.94692	550315
13.95503	633093
13.96317	811877
13.97128	1076967
13.97942	1491748
13.98753	1781881
13.99565	1741471
14.00378	1713398
14.01190	1383235
14.02002	1165726
14.02815	1010357
14.03627	883210
14.04440	770494
14.05252	760925
14.06063	698352
14.06877	657684
14.07688	671006
14.08502	598166
14.09313	588446
14.10125	578452
14.10938	552002
14.11750	534865
14.12562	548642
14.13375	599976
14.14187	657919
14.15000	775601
14.15812	860495
14.16623	863082
14.17437	847070
14.18248	779424
14.19062	748076
14.19873	752959
14.20685	780812
14.21498	816606
14.22310	808900
14.23123	760891
14.23935	696508
14.24747	642144
14.25560	555741
14.26372	527914
14.27183	470471
14.27997	428168
14.28808	408931
14.29622	367462
14.30433	345775
14.31245	340102
14.32058	314765
14.32870	322886
14.33683	319988
14.34495	293861
14.35307	289415
14.36120	270790
14.36932	259012
14.37745	250836
14.38557	227587
14.39368	216582
14.40182	228493
14.40993	212348
14.41805	217063
14.42618	210042
14.43430	198035
14.44243	199871
14.45055	182610
14.45867	178528
14.46680	157968
14.47492	146116
14.48305	154013
14.49117	143097
14.49928	147233
14.50742	156447
14.51553	176909
14.52365	204028
14.53178	232223
14.53990	231626
14.54803	227936
14.55615	211776
14.56427	188124
14.57240	167159
14.58052	158210
14.58865	150065
14.59677	142108
14.60488	134814
14.61302	128354
14.62113	130715
14.62927	117913
14.63738	125908
14.64550	113167
14.65363	112564
14.66175	115372
14.66987	112632
14.67800	112383
14.68612	111630
14.69425	104530
14.70237	100513
14.71048	102460
14.71862	103498
14.72673	106517
14.73487	121393
14.74298	124721
14.75110	141548
14.75923	143863
14.76735	142423
14.77548	146112
14.78360	152201
14.79172	194287
14.79985	325602
14.80797	720431
14.81608	1485208
14.82422	2751654
14.83233	4010010
14.84047	4818875
14.84858	4792616
14.85670	4080331
14.86483	3095187
14.87295	2198124
14.88108	1561473
14.88920	1186661
14.89732	938502
14.90545	776606
14.91357	686960
14.92168	610659
14.92982	545645
14.93793	520984
14.94607	484624
14.95418	447864
14.96230	421809
14.97043	395594
14.97855	364647
14.98668	352045
14.99480	332566
15.00292	307449
15.01105	310713
15.01917	289067
15.02730	281928
15.03542	273341
15.04353	251989
15.05167	256781
15.05978	240575
15.06790	232308
15.07603	229803
15.08415	225659
15.09228	219138
15.10040	205659
15.10852	193432
15.11665	193248
15.12477	192105
15.13290	199447
15.14102	207968
15.14913	217678
15.15727	203667
15.16538	191110
15.17350	182378
15.18163	144429
15.18975	137614
15.19788	120010
15.20600	121189
15.21412	108274
15.22225	108389
15.23037	99841
15.23850	108514
15.24662	103845
15.25473	99328
15.26287	97550
15.27098	95558
15.27912	93542
15.28723	98579
15.29535	88404
15.30348	91280
15.31160	87980
15.31972	85143
15.32785	85646
15.33597	86149
15.34410	87876
15.35222	82279
15.36033	83493
15.36847	75146
15.37658	85633
15.38472	82691
15.39283	79027
15.40095	81546
15.40908	82193
15.41720	81526
15.42533	82711
15.43345	83637
15.44157	84006
15.44970	88283
15.45782	82487
15.46593	94822
15.47407	120855
15.48218	158708
15.49032	228514
15.49843	302634
15.50655	380540
15.51468	425932
15.52280	455256
15.53093	432696
15.53905	406254
15.54717	345005
15.55530	309498
15.56342	268040
15.57155	227256
15.57967	201693
15.58778	182522
15.59592	167822
15.60403	155356
15.61215	140732
15.62028	135293
15.62840	130527
15.63653	129186
15.64465	124135
15.65277	113153
15.66090	116634
15.66902	102457
15.67715	106265
15.68527	95334
15.69338	98659
15.70152	104415
15.70963	101036
15.71775	95153
15.72588	93300
15.73400	89022
15.74213	93884
15.75025	100617
15.75837	119685
15.76650	169278
15.77462	267084
15.78275	415613
15.79087	584986
15.79898	735472
15.80712	766590
15.81523	660328
15.82337	549159
15.83148	420696
15.83960	331289
15.84773	266890
15.85585	232492
15.86397	211424
15.87210	187021
15.88022	178494
15.88835	171019
15.89647	161960
15.90458	150703
15.91272	149045
15.92083	136287
15.92897	133402
15.93708	137266
15.94520	137976
15.95333	149934
15.96145	165764
15.96957	194097
15.97770	227282
15.98582	259908
15.99395	271791
16.00207	272424
16.01018	256035
16.01832	228111
16.02643	211500
16.03457	185782
16.04268	184031
16.05080	166990
16.05893	154100
16.06705	148284
16.07518	139326
16.08330	136327
16.09142	133810
16.09955	144011
16.10767	163035
16.11578	202707
16.12392	247567
16.13203	291911
16.14017	297442
16.14828	290497
16.15640	254371
16.16453	214119
16.17265	185781
16.18078	165512
16.18890	141123
16.19702	138104
16.20515	127887
16.21327	123849
16.22140	122201
16.22952	122443
16.23763	112427
16.24577	110353
16.25388	112003
16.26200	107894
16.27013	106018
16.27825	110207
16.28638	107725
16.29450	117139
16.30262	123703
16.31075	119537
16.31887	119406
16.32700	123622
16.33512	119235
16.34323	110831
16.35137	112544
16.35948	117826
16.36760	138570
16.37573	180121
16.38385	223713
16.39198	279353
16.40010	304464
16.40822	281211
16.41635	246087
16.42447	204068
16.43260	183831
16.44072	165226
16.44883	157841
16.45697	163982
16.46508	208226
16.47322	328295
16.48133	520663
16.48945	784228
16.49758	948490
16.50570	970303
16.51382	825471
16.52195	637957
16.53007	462557
16.53820	352422
16.54632	270931
16.55443	236632
16.56257	213231
16.57068	204922
16.57882	186643
16.58693	178066
16.59505	165085
16.60318	156310
16.61130	156513
16.61943	159375
16.62755	157491
16.63567	155284
16.64380	147797
16.65192	138604
16.66003	130311
16.66817	131069
16.67628	130252
16.68442	124579
16.69253	118114
16.70065	117361
16.70878	116454
16.71690	104997
16.72503	100296
16.73315	104315
16.74127	94415
16.74940	91881
16.75752	95166
16.76563	96737
16.77377	96081
16.78188	104776
16.79002	99092
16.79813	100071
16.80625	94042
16.81438	92901
16.82250	85331
16.83063	88541
16.83875	88955
16.84687	88058
16.85500	93736
16.86312	89900
16.87125	93818
16.87937	98873
16.88748	99973
16.89562	98255
16.90373	97105
16.91185	93768
16.91998	88109
16.92810	83739
16.93623	81930
16.94435	84739
16.95247	92458
16.96060	90398
16.96872	91742
16.97685	89605
16.98497	84361
16.99308	80759
17.00122	86814
17.00933	88685
17.01745	83938
17.02558	85070
17.03370	87712
17.04183	86272
17.04995	89540
17.05807	91458
17.06620	91676
17.07432	86790
17.08245	91810
17.09057	97528
17.09868	106610
17.10682	112270
17.11493	136624
17.12307	151100
17.13118	162846
17.13930	179862
17.14743	178557
17.15555	177876
17.16367	170221
17.17180	164279
17.17992	140487
17.18805	124559
17.19617	119561
17.20428	108546
17.21242	113185
17.22053	104261
17.22867	99906
17.23678	100317
17.24490	92475
17.25303	89648
17.26115	93473
17.26928	93911
17.27740	95065
17.28552	93079
17.29365	89976
17.30177	91328
17.30988	95770
17.31802	100455
17.32613	112188
17.33427	131554
17.34238	146357
17.35050	167614
17.35863	175712
17.36675	165616
17.37488	159982
17.38300	153641
17.39112	143790
17.39925	143733
17.40737	140352
17.41548	138816
17.42362	135499
17.43173	132526
17.43987	132628
17.44798	129879
17.45610	130438
17.46423	120571
17.47235	112823
17.48048	110114
17.48860	100846
17.49672	98829
17.50485	96932
17.51297	95450
17.52110	89737
17.52922	88037
17.53733	88301
17.54547	89679
17.55358	95852
17.56170	88336
17.56983	90653
17.57795	94055
17.58608	103072
17.59420	131604
17.60232	172118
17.61045	381171
17.61857	3815649
17.62670	2.300481E+07
17.63482	3.069992E+07
17.64293	3.0739E+07
17.65107	2.940379E+07
17.65918	2.812236E+07
17.66732	2.634676E+07
17.67543	2.489825E+07
17.68355	2.388543E+07
17.69168	2.253954E+07
17.69980	2.100692E+07
17.70792	2.038648E+07
17.71605	1.896029E+07
17.72417	1.76542E+07
17.73230	1.646146E+07
17.74042	1.558063E+07
17.74853	1.426698E+07
17.75667	1.317618E+07
17.76478	1.234003E+07
17.77292	1.140648E+07
17.78103	1.076621E+07
17.78915	9968584
17.79728	9439339
17.80540	8843398
17.81352	8286357
17.82165	7834713
17.82977	7316101
17.83790	6914078
17.84602	6613117
17.85413	6327006
17.86227	6001139
17.87038	5721561
17.87852	5441971
17.88663	5151691
17.89475	4813035
17.90288	4643750
17.91100	4485212
17.91913	4275682
17.92725	4051372
17.93537	3952416
17.94350	3728625
17.95162	3513828
17.95973	3336340
17.96787	3332236
17.97598	3245017
17.98412	3134613
17.99223	2954710
18.00035	2826432
18.00848	2793408
18.01660	2671947
18.02473	2582390
18.03285	2533181
18.04097	2548842
18.04910	2440251
18.05722	2350160
18.06533	2277708
18.07347	2220120
18.08158	2111759
18.08972	2066735
18.09783	1986950
18.10595	1967586
18.11408	1928809
18.12220	1881346
18.13033	1849902
18.13845	1770772
18.14657	1741291
18.15470	1679497
18.16282	1645655
18.17095	1600846
18.17907	1556495
18.18718	1513294
18.19532	1477776
18.20343	1414821
18.21155	1387383
18.21968	1328807
18.22780	1297717
18.23593	1258272
18.24405	1245852
18.25217	1181333
18.26030	1194234
18.26842	1141248
18.27655	1131075
18.28467	1092241
18.29278	1045328
18.30092	1020224
18.30903	1017067
18.31717	978861
18.32528	938499
18.33340	923973
18.34153	894710
18.34965	884434
18.35777	869055
18.36590	835112
18.37402	841346
18.38215	826021
18.39027	804579
18.39838	770449
18.40652	782365
18.41463	766334
18.42277	755704
18.43088	753533
18.43900	760281
18.44713	774781
18.45525	786593
18.46337	815384
18.47150	838931
18.47962	861658
18.48775	888665
18.49587	890703
18.50398	870463
18.51212	821422
18.52023	771080
18.52837	722146
18.53648	680159
18.54460	647882
18.55273	620892
18.56085	608335
18.56898	605856
18.57710	589405
18.58522	574455
18.59335	575151
18.60147	571373
18.60958	573872
18.61772	585998
18.62583	579317
18.63397	569532
18.64208	577648
18.65020	574109
18.65833	543754
18.66645	527742
18.67458	506297
18.68270	488375
18.69082	486782
18.69895	469190
18.70707	471290
18.71520	462197
18.72332	451857
18.73143	448895
18.73957	455205
18.74768	445365
18.75580	439475
18.76393	422948
18.77205	433150
18.78018	418528
18.78830	410466
18.79642	419087
18.80455	405556
18.81267	406784
18.82080	401513
18.82892	401610
18.83703	389449
18.84517	384304
18.85328	386599
18.86140	386567
18.86953	376462
18.87765	379855
18.88578	379455
18.89390	371847
18.90202	376984
18.91015	373290
18.91827	374526
18.92640	366800
18.93452	379967
18.94263	404793
18.95077	436357
18.95888	480545
18.96702	503406
18.97513	508267
18.98325	504596
18.99138	474386
18.99950	445283
19.00762	411104
19.01575	398115
19.02387	385545
19.03200	378037
19.04012	357265
19.04823	353480
19.05637	339964
19.06448	342585
19.07262	346602
19.08073	364766
19.08885	413658
19.09698	480268
19.10510	544332
19.11323	616366
19.12135	606355
19.12947	594606
19.13760	536779
19.14572	482240
19.15383	431473
19.16197	402029
19.17008	383680
19.17822	361044
19.18633	346938
19.19445	351549
19.20258	327627
19.21070	323288
19.21883	316010
19.22695	304500
19.23507	294511
19.24320	294351
19.25132	277650
19.25943	284136
19.26757	272506
19.27568	270629
19.28382	263692
19.29193	270200
19.30005	281697
19.30818	267951
19.31630	275276
19.32443	288463
19.33255	268536
19.34067	278942
19.34880	279952
19.35692	289916
19.36505	315771
19.37317	333975
19.38128	349177
19.38942	358562
19.39753	354084
19.40565	345829
19.41378	316134
19.42190	325855
19.43003	306859
19.43815	308283
19.44627	317600
19.45440	347046
19.46252	362364
19.47065	386631
19.47877	423779
19.48688	449261
19.49502	482429
19.50313	505036
19.51125	556428
19.51938	577951
19.52750	583816
19.53563	558359
19.54375	492633
19.55187	419584
19.56000	359803
19.56812	320874
19.57625	285794
19.58437	277923
19.59248	265862
19.60062	261374
19.60873	261598
19.61687	250415
19.62498	258483
19.63310	261689
19.64123	275691
19.64935	314652
19.65747	386575
19.66560	484661
19.67372	597726
19.68185	683623
19.68997	707308
19.69808	680747
19.70622	624158
19.71433	563304
19.72247	491485
19.73058	434392
19.73870	399597
19.74683	350467
19.75495	338854
19.76308	313960
19.77120	312591
19.77932	287724
19.78745	283561
19.79557	292490
19.80368	297236
19.81182	302741
19.81993	319116
19.82807	302399
19.83618	290249
19.84430	267677
19.85243	256488
19.86055	246330
19.86868	234592
19.87680	241664
19.88492	250490
19.89305	261095
19.90117	279234
19.90928	317221
19.91742	341072
19.92553	358786
19.93367	361879
19.94178	373347
19.94990	361205
19.95803	353897
19.96615	341096
19.97428	339911
19.98240	327139
19.99052	335475
19.99865	332614
20.00677	330937
20.01490	336576
20.02302	343214
20.03113	335030
20.03927	332190
20.04738	315996
20.05550	318450
20.06363	308201
20.07175	315964
20.07988	335289
20.08800	367930
20.09612	391858
20.10425	409164
20.11237	394231
20.12050	374475
20.12862	345074
20.13673	318055
20.14487	316782
20.15298	344956
20.16112	418042
20.16923	576011
20.17735	810685
20.18548	1190291
20.19360	1588491
20.20172	1956487
20.20985	2162162
20.21797	2127058
20.22610	1893641
20.23422	1596518
20.24233	1367456
20.25047	1186114
20.25858	1140610
20.26672	1228492
20.27483	1396459
20.28295	1583482
20.29108	1701306
20.29920	1665450
20.30732	1506253
20.31545	1264159
20.32357	979120
20.33170	751610
20.33982	600591
20.34793	492225
20.35607	417306
20.36418	353903
20.37232	306281
20.38043	287832
20.38855	264611
20.39668	254851
20.40480	239867
20.41293	247938
20.42105	245111
20.42917	245388
20.43730	243749
20.44542	251548
20.45353	251577
20.46167	264499
20.46978	247637
20.47792	250199
20.48603	232115
20.49415	230358
20.50228	211820
20.51040	201148
20.51853	195084
20.52665	186881
20.53477	179822
20.54290	171910
20.55102	175748
20.55913	169751
20.56727	166952
20.57538	172049
20.58352	165903
20.59163	164457
20.59975	163724
20.60788	159583
20.61600	160737
20.62413	160933
20.63225	151967
20.64037	151522
20.64850	152061
20.65662	154012
20.66475	149315
20.67287	152807
20.68098	153464
20.68912	153353
20.69723	148122
20.70535	148765
20.71348	141752
20.72160	143661
20.72973	138733
20.73785	132133
20.74597	138845
20.75410	145333
20.76222	149566
20.77035	150275
20.77847	156698
20.78658	170159
20.79472	204142
20.80283	258904
20.81097	356011
20.81908	447785
20.82720	520765
20.83533	554226
20.84345	486980
20.85157	405390
20.85970	314874
20.86782	248318
20.87595	219821
20.88407	189568
20.89218	173787
20.90032	170589
20.90843	171633
20.91657	171300
20.92468	173503
20.93280	177919
20.94093	193309
20.94905	191258
20.95718	187067
20.96530	195685
20.97342	179226
20.98155	172796
20.98967	165925
20.99778	161652
21.00592	154562
21.01403	149087
21.02217	152848
21.03028	144687
21.03840	148589
21.04653	144163
21.05465	152565
21.06278	147493
21.07090	155503
21.07902	153413
21.08715	153560
21.09527	152496
21.10338	152130
21.11152	140320
21.11963	142667
21.12777	146225
21.13588	159541
21.14400	185285
21.15213	227739
21.16025	278053
21.16838	332865
21.17650	357810
21.18462	347193
21.19275	313266
21.20087	267112
21.20900	241636
21.21712	208483
21.22523	191425
21.23337	189874
21.24148	169084
21.24960	169537
21.25773	160698
21.26585	149127
21.27398	149357
21.28210	141388
21.29022	145050
21.29835	143873
21.30647	136574
21.31460	136035
21.32272	133670
21.33083	132548
21.33897	128487
21.34708	130317
21.35520	128364
21.36333	127706
21.37145	133556
21.37958	133776
21.38770	133647
21.39582	132949
21.40395	140476
21.41207	151797
21.42020	165808
21.42832	162191
21.43643	172473
21.44457	164986
21.45268	160471
21.46082	150030
21.46893	147528
21.47705	147435
21.48518	142221
21.49330	134088
21.50142	146265
21.50955	130933
21.51767	141946
21.52580	142773
21.53392	141527
21.54203	137878
21.55017	142394
21.55828	138246
21.56642	133988
21.57453	132899
21.58265	137532
21.59078	143507
21.59890	146175
21.60703	159535
21.61515	165097
21.62327	174829
21.63140	189560
21.63952	190834
21.64763	207216
21.65577	211715
21.66388	219935
21.67202	210732
21.68013	200471
21.68825	192789
21.69638	186480
21.70450	171763
21.71263	161270
21.72075	145422
21.72887	137917
21.73700	141674
21.74512	137336
21.75323	139057
21.76137	138760
21.76948	138619
21.77762	146413
21.78573	149334
21.79385	160395
21.80198	183369
21.81010	191668
21.81823	200564
21.82635	197149
21.83447	199998
21.84260	204847
21.85072	206804
21.85885	201380
21.86697	193454
21.87508	171546
21.88322	162777
21.89133	147652
21.89945	136836
21.90758	130525
21.91570	127186
21.92383	121909
21.93195	127118
21.94007	117436
21.94820	116184
21.95632	112476
21.96445	107621
21.97257	102194
21.98068	104564
21.98882	104893
21.99693	102106
22.00507	101548
22.01318	97950
22.02130	99529
22.02943	97176
22.03755	101576
22.04567	108992
22.05380	112700
22.06192	112475
22.07005	113093
22.07817	115985
22.08628	120290
22.09442	128741
22.10253	131023
22.11067	129312
22.11878	136507
22.12690	128784
22.13503	135751
22.14315	129084
22.15127	130889
22.15940	127037
22.16752	129493
22.17565	129335
22.18377	135801
22.19188	130214
22.20002	132206
22.20813	134495
22.21627	123705
22.22438	126598
22.23250	118699
22.24063	122766
22.24875	113060
22.25688	121951
22.26500	113604
22.27312	110851
22.28125	111569
22.28937	110282
22.29748	117599
22.30562	115381
22.31373	116565
22.32187	112560
22.32998	112614
22.33810	115171
22.34623	109728
22.35435	117095
22.36248	106266
22.37060	109440
22.37872	109074
22.38685	113928
22.39497	117550
22.40308	133627
22.41122	143021
22.41933	165346
22.42747	193804
22.43558	201972
22.44370	218689
22.45183	213637
22.45995	195723
22.46808	189427
22.47620	176766
22.48432	161950
22.49245	163865
22.50057	161606
22.50870	160145
22.51682	153853
22.52493	154142
22.53307	157799
22.54118	157420
22.54930	148086
22.55743	154475
22.56555	150034
22.57368	141770
22.58180	145004
22.58992	142481
22.59805	130715
22.60617	131965
22.61430	134013
22.62242	128829
22.63053	132934
22.63867	131245
22.64678	136231
22.65492	132442
22.66303	134319
22.67115	132503
22.67928	134637
22.68740	133005
22.69552	139293
22.70365	141381
22.71177	153701
22.71990	157348
22.72802	171097
22.73613	173058
22.74427	176581
22.75238	169846
22.76052	165822
22.76863	163983
22.77675	162895
22.78488	171531
22.79300	169932
22.80112	173021
22.80925	208411
22.81737	206497
22.82550	224086
22.83362	219903
22.84173	210913
22.84987	197491
22.85798	191274
22.86612	194916
22.87423	194294
22.88235	208258
22.89048	226541
22.89860	248652
22.90673	253452
22.91485	267286
22.92297	273621
22.93110	273451
22.93922	275056
22.94733	245779
22.95547	240617
22.96358	202939
22.97172	186363
22.97983	162019
22.98795	153894
22.99608	143566
23.00420	145087
23.01233	140999
23.02045	140316
23.02857	139832
23.03670	139723
23.04482	138965
23.05295	132806
23.06107	144973
23.06918	140841
23.07732	144533
23.08543	155021
23.09355	154124
23.10168	158886
23.10980	158146
23.11793	148574
23.12605	155828
23.13417	152215
23.14230	149722
23.15042	149984
23.15855	146996
23.16667	151926
23.17478	144875
23.18292	150500
23.19103	149130
23.19915	153349
23.20728	151412
23.21540	153762
23.22353	156913
23.23165	148857
23.23977	153844
23.24790	150792
23.25602	154460
23.26415	159267
23.27227	159033
23.28038	164020
23.28852	165400
23.29663	159367
23.30477	154586
23.31288	149238
23.32100	143960
23.32913	146679
23.33725	157308
23.34537	165869
23.35350	198271
23.36162	210611
23.36975	229548
23.37787	248713
23.38598	245161
23.39412	230666
23.40223	207341
23.41037	182834
23.41848	172630
23.42660	157583
23.43473	152506
23.44285	153272
23.45097	139506
23.45910	142289
23.46722	140108
23.47535	144559
23.48347	141793
23.49158	139238
23.49972	138180
23.50783	132206
23.51597	134875
23.52408	140630
23.53220	131327
23.54033	134451
23.54845	136736
23.55658	143115
23.56470	142886
23.57282	163555
23.58095	192027
23.58907	229608
23.59718	270004
23.60532	312368
23.61343	351388
23.62157	340615
23.62968	331267
23.63780	277612
23.64593	246515
23.65405	209102
23.66218	187949
23.67030	172374
23.67842	149935
23.68655	155785
23.69467	148879
23.70280	148358
23.71092	142472
23.71903	146133
23.72717	134683
23.73528	141346
23.74340	150861
23.75153	199797
23.75965	330484
23.76778	662076
23.77590	1312517
23.78402	2330215
23.79215	3454227
23.80027	4188054
23.80840	4256166
23.81652	3668007
23.82463	2944564
23.83277	2136299
23.84088	1604686
23.84900	1191730
23.85713	925284
23.86525	778242
23.87338	636038
23.88150	565989
23.88962	503520
23.89775	456183
23.90587	425466
23.91400	408158
23.92212	396689
23.93023	378463
23.93837	367060
23.94648	342945
23.95462	334573
23.96273	311121
23.97085	307329
23.97898	284011
23.98710	273472
23.99522	277087
24.00335	342702
24.01147	525238
24.01960	912821
24.02772	1556333
24.03583	2323091
24.04397	2743422
24.05208	2701059
24.06022	2207542
24.06833	1574928
24.07645	1019476
24.08458	634785
24.09270	423320
24.10083	319377
24.10895	268430
24.11707	246036
24.12520	234597
24.13332	247171
24.14143	260451
24.14957	280965
24.15768	292812
24.16582	306756
24.17393	293842
24.18205	278128
24.19018	261196
24.19830	241880
24.20643	227607
24.21455	218150
24.22267	214271
24.23080	205746
24.23892	200006
24.24703	195290
24.25517	175581
24.26328	167866
24.27142	160006
24.27953	153270
24.28765	149425
24.29578	145342
24.30390	141687
24.31203	143605
24.32015	148025
24.32827	152380
24.33640	146274
24.34452	147362
24.35265	149989
24.36077	140189
24.36888	135883
24.37702	141318
24.38513	160191
24.39325	190358
24.40138	231954
24.40950	292873
24.41763	323929
24.42575	320118
24.43387	288877
24.44200	232390
24.45012	186156
24.45825	165234
24.46637	143885
24.47448	138616
24.48262	137253
24.49073	139762
24.49887	146066
24.50698	151331
24.51510	172086
24.52323	170116
24.53135	173068
24.53947	174794
24.54760	171828
24.55572	174291
24.56385	174411
24.57197	169232
24.58008	169139
24.58822	158746
24.59633	152719
24.60447	147217
24.61258	145584
24.62070	142255
24.62883	138946
24.63695	132921
24.64507	124510
24.65320	127786
24.66132	128891
24.66945	125262
24.67757	122548
24.68568	122013
24.69382	120543
24.70193	122208
24.71007	135694
24.71818	143372
24.72630	150355
24.73443	155805
24.74255	163877
24.75068	165837
24.75880	170347
24.76692	173826
24.77505	176146
24.78317	179394
24.79128	188491
24.79942	198396
24.80753	195299
24.81567	195256
24.82378	201383
24.83190	199834
24.84003	209387
24.84815	227562
24.85628	272209
24.86440	319866
24.87252	392038
24.88065	481326
24.88877	599286
24.89688	693712
24.90502	714784
24.91313	686412
24.92127	604273
24.92938	472508
24.93750	374777
24.94563	290761
24.95375	255303
24.96188	225409
24.97000	216780
24.97812	199419
24.98625	201424
24.99437	203344
25.00250	194317
25.01062	194270
25.01873	196112
25.02687	191132
25.03498	198348
25.04310	205605
25.05123	197467
25.05935	197294
25.06748	203266
25.07560	201013
25.08372	204479
25.09185	199723
25.09997	223207
25.10810	269930
25.11622	392320
25.12433	652600
25.13247	1118905
25.14058	1760188
25.14872	2375845
25.15683	2812028
25.16495	2826427
25.17308	2414313
25.18120	1912565
25.18932	1456103
25.19745	1040491
25.20557	728059
25.21370	519619
25.22182	406959
25.22993	340088
25.23807	346786
25.24618	437020
25.25432	625352
25.26243	882347
25.27055	1215890
25.27868	1548908
25.28680	1663775
25.29492	1514311
25.30305	1216770
25.31117	891627
25.31930	614032
25.32742	418704
25.33553	310753
25.34367	252192
25.35178	224769
25.35992	214030
25.36803	194732
25.37615	190448
25.38428	189841
25.39240	181833
25.40053	182087
25.40865	179174
25.41677	176180
25.42490	171440
25.43302	175359
25.44113	167520
25.44927	160615
25.45738	163505
25.46552	172585
25.47363	170789
25.48175	181075
25.48988	178171
25.49800	183508
25.50613	171239
25.51425	173613
25.52237	165767
25.53050	155789
25.53862	161496
25.54675	155155
25.55487	148520
25.56298	152123
25.57112	141711
25.57923	149430
25.58735	143294
25.59548	152922
25.60360	144927
25.61173	154784
25.61985	153178
25.62797	164903
25.63610	167747
25.64422	188623
25.65235	204042
25.66047	209005
25.66858	203098
25.67672	185195
25.68483	167780
25.69295	148979
25.70108	133559
25.70920	127495
25.71733	125857
25.72545	121432
25.73357	120585
25.74170	118401
25.74982	117526
25.75795	124047
25.76607	138586
25.77418	160344
25.78232	198614
25.79043	230673
25.79857	252901
25.80668	232799
25.81480	200182
25.82293	173943
25.83105	153252
25.83917	130600
25.84730	126100
25.85542	119849
25.86355	118069
25.87167	117676
25.87978	113205
25.88792	110841
25.89603	112720
25.90417	104375
25.91228	107763
25.92040	107084
25.92853	108404
25.93665	110044
25.94477	117466
25.95290	120046
25.96102	116502
25.96915	120382
25.97727	113839
25.98538	110146
25.99352	102720
26.00163	101824
26.00977	101229
26.01788	98148
26.02600	96657
26.03413	100575
26.04225	94765
26.05038	100113
26.05850	98528
26.06662	104490
26.07475	112491
26.08287	130835
26.09098	144660
26.09912	148009
26.10723	154829
26.11537	158361
26.12348	160201
26.13160	165569
26.13973	174436
26.14785	174509
26.15598	178714
26.16410	183393
26.17222	178518
26.18035	177011
26.18847	171083
26.19660	168838
26.20472	164914
26.21283	158660
26.22097	161004
26.22908	161239
26.23720	153187
26.24533	143807
26.25345	159221
26.26158	157745
26.26970	161348
26.27782	168238
26.28595	169642
26.29407	160688
26.30220	164198
26.31032	161569
26.31843	157172
26.32657	153427
26.33468	150445
26.34280	150354
26.35093	156075
26.35905	153543
26.36718	172194
26.37530	190065
26.38342	226234
26.39155	276186
26.39967	322892
26.40780	354642
26.41592	386027
26.42403	370020
26.43217	319613
26.44028	304701
26.44842	249098
26.45653	218774
26.46465	204006
26.47278	178136
26.48090	177998
26.48902	167073
26.49715	159718
26.50527	151992
26.51340	150832
26.52152	142786
26.52963	146966
26.53777	135704
26.54588	139888
26.55402	133805
26.56213	135552
26.57025	140181
26.57838	137225
26.58650	134805
26.59463	131967
26.60275	130494
26.61087	126588
26.61900	127667
26.62712	125634
26.63523	125878
26.64337	126158
26.65148	125741
26.65962	124503
26.66773	130336
26.67585	137659
26.68398	129593
26.69210	125301
26.70023	125199
26.70835	123913
26.71647	121045
26.72460	119204
26.73272	117884
26.74083	117338
26.74897	124255
26.75708	117667
26.76522	119649
26.77333	125275
26.78145	117366
26.78958	123144
26.79770	126439
26.80583	123346
26.81395	125620
26.82207	126773
26.83020	128067
26.83832	127347
26.84645	118169
26.85457	118151
26.86268	114026
26.87082	119171
26.87893	115035
26.88705	118362
26.89518	113411
26.90330	116811
26.91143	111499
26.91955	111575
26.92767	114275
26.93580	106191
26.94392	108801
26.95205	111375
26.96017	112243
26.96828	115118
26.97642	132553
26.98453	157380
26.99265	227345
27.00078	319394
27.00890	446236
27.01703	598544
27.02515	735825
27.03327	848369
27.04140	829834
27.04952	757140
27.05765	654511
27.06577	532838
27.07388	444355
27.08202	372482
27.09013	316768
27.09827	279196
27.10638	251682
27.11450	231377
27.12263	216812
27.13075	199048
27.13887	186483
27.14700	183941
27.15512	188963
27.16325	186904
27.17137	188100
27.17948	199653
27.18762	209881
27.19573	220867
27.20387	222723
27.21198	218085
27.22010	206996
27.22823	196634
27.23635	176159
27.24448	172584
27.25260	151316
27.26072	144948
27.26885	142883
27.27697	140659
27.28508	137947
27.29322	132736
27.30133	129880
27.30947	125470
27.31758	125896
27.32570	125280
27.33383	127263
27.34195	120137
27.35008	127780
27.35820	125921
27.36632	127356
27.37445	128957
27.38257	136473
27.39070	131752
27.39882	124104
27.40693	114863
27.41507	114448
27.42318	113440
27.43130	116905
27.43943	108260
27.44755	114794
27.45568	112756
27.46380	103963
27.47192	105781
27.48005	112140
27.48817	104204
27.49630	103144
27.50442	98775
27.51253	97254
27.52067	98479
27.52878	102308
27.53690	107245
27.54503	105772
27.55315	107282
27.56128	103745
27.56940	107404
27.57752	106317
27.58565	110946
27.59377	127216
27.60190	134552
27.61002	130728
27.61813	129881
27.62627	130281
27.63438	122618
27.64252	108197
27.65063	111233
27.65875	107291
27.66688	104233
27.67500	95626
27.68312	97167
27.69125	98322
27.69937	98757
27.70750	96340
27.71562	97751
27.72373	102736
27.73187	91231
27.73998	92078
27.74812	105634
27.75623	96527
27.76435	109374
27.77248	132459
27.78060	168759
27.78872	191998
27.79685	208851
27.80497	214707
27.81310	195924
27.82122	175626
27.82933	137091
27.83747	123540
27.84558	108966
27.85372	104005
27.86183	98326
27.86995	105093
27.87808	100015
27.88620	94737
27.89433	90805
27.90245	95002
27.91057	92995
27.91870	89406
27.92682	91103
27.93493	93633
27.94307	94125
27.95118	90663
27.95932	95142
27.96743	89223
27.97555	82556
27.98368	93865
27.99180	95701
27.99993	92037
28.00805	94776
28.01617	98021
28.02430	101124
28.03242	101814
28.04055	106633
28.04867	116417
28.05678	112959
28.06492	116148
28.07303	115263
28.08115	109322
28.08928	111069
28.09740	101482
28.10553	97315
28.11365	99731
28.12177	96781
28.12990	96650
28.13802	89714
28.14615	89648
28.15427	87163
28.16238	83349
28.17052	89442
28.17863	85873
28.18675	91976
28.19488	98202
28.20300	109891
28.21113	121963
28.21925	133317
28.22737	144569
28.23550	138824
28.24362	136640
28.25175	125591
28.25987	117714
28.26798	106756
28.27612	100555
28.28423	95288
28.29237	94591
28.30048	94811
28.30860	94710
28.31673	95273
28.32485	100576
28.33297	102575
28.34110	104912
28.34922	115962
28.35735	128623
28.36547	138727
28.37358	148637
28.38172	162988
28.38983	168901
28.39797	166823
28.40608	177537
28.41420	173500
28.42233	161807
28.43045	156393
28.43858	146815
28.44670	150304
28.45482	136587
28.46295	123761
28.47107	124986
28.47918	120737
28.48732	122494
28.49543	123868
28.50357	133691
28.51168	132614
28.51980	132852
28.52793	134113
28.53605	126836
28.54418	119242
28.55230	107151
28.56042	106460
28.56855	110343
28.57667	104028
28.58478	108964
28.59292	108031
28.60103	109077
28.60917	115914
28.61728	122854
28.62540	121871
28.63353	132729
28.64165	131828
28.64978	135853
28.65790	136871
28.66602	131800
28.67415	123126
28.68227	124006
28.69040	116405
28.69852	113382
28.70663	107908
28.71477	106854
28.72288	106177
28.73100	104033
28.73913	98164
28.74725	103208
28.75538	108977
28.76350	119485
28.77162	130419
28.77975	151283
28.78787	163725
28.79600	165506
28.80412	161842
28.81223	153716
28.82037	134629
28.82848	123590
28.83660	122102
28.84473	111190
28.85285	108159
28.86098	103348
28.86910	104626
28.87722	96687
28.88535	98706
28.89347	103330
28.90160	100072
28.90972	104446
28.91783	105998
28.92597	108189
28.93408	105773
28.94222	114801
28.95033	112278
28.95845	114386
28.96658	120005
28.97470	116185
28.98282	109267
28.99095	105649
28.99907	105873
29.00720	91246
29.01532	89259
29.02343	91682
29.03157	92943
29.03968	94426
29.04782	97260
29.05593	97841
29.06405	102477
29.07218	109962
29.08030	120841
29.08843	124868
29.09655	122142
29.10467	113197
29.11280	112911
29.12092	104325
29.12903	96063
29.13717	92079
29.14528	86444
29.15342	88295
29.16153	85107
29.16965	88152
29.17778	91632
29.18590	92772
29.19403	98408
29.20215	105193
29.21027	117100
29.21840	130554
29.22652	149914
29.23463	164237
29.24277	201210
29.25088	264721
29.25902	326088
29.26713	395210
29.27525	437411
29.28338	427657
29.29150	363284
29.29963	307681
29.30775	228874
29.31587	189684
29.32400	154428
29.33212	123941
29.34025	115336
29.34837	112748
29.35648	106027
29.36462	99773
29.37273	98473
29.38085	98260
29.38898	90366
29.39710	92225
29.40523	95852
29.41335	97666
29.42147	95181
29.42960	90070
29.43772	94203
29.44585	96659
29.45397	95937
29.46208	93912
29.47022	98014
29.47833	98771
29.48647	105634
29.49458	105757
29.50270	107909
29.51083	118414
29.51895	109476
29.52707	110154
29.53520	105660
29.54332	99246
29.55145	99698
29.55957	93223
29.56768	92309
29.57582	91723
29.58393	86399
29.59207	87974
29.60018	91961
29.60830	90414
29.61643	94622
29.62455	93215
29.63267	90076
29.64080	86592
29.64892	85622
29.65705	84078
29.66517	82233
29.67328	81336
29.68142	87259
29.68953	78057
29.69767	83364
29.70578	88304
29.71390	82190
29.72203	82478
29.73015	78414
29.73828	76251
29.74640	83614
29.75452	74937
29.76265	79039
29.77077	78323
29.77888	76827
29.78702	80072
29.79513	76957
29.80327	74539
29.81138	81249
29.81950	72495
29.82763	78078
29.83575	78679
29.84388	80178
29.85200	83001
29.86012	86725
29.86825	89202
29.87637	99525
29.88450	112760
29.89262	144156
29.90073	162492
29.90887	176085
29.91698	173844
29.92510	159335
29.93323	143183
29.94135	114719
29.94948	104506
29.95760	93994
29.96572	88369
29.97385	94805
29.98197	93198
29.99010	93679
29.99822	105322
30.00633	107521
30.01447	115391
30.02258	110426
30.03070	120494
30.03883	121607
30.04695	123805
30.05508	120574
30.06320	125101
30.07132	121256
30.07945	125435
30.08757	124926
30.09570	120453
30.10382	118488
30.11193	111778
30.12007	111584
30.12818	113796
30.13632	113213
30.14443	115151
30.15255	107073
30.16068	111282
30.16880	109172
30.17692	106197
30.18505	105437
30.19317	102018
30.20130	97598
30.20942	100991
30.21753	105464
30.22567	104805
30.23378	103202
30.24192	98156
30.25003	95319
30.25815	100136
30.26628	90333
30.27440	97731
30.28252	84491
30.29065	87435
30.29877	80747
30.30690	88134
30.31502	83351
30.32313	76680
30.33127	82007
30.33938	81724
30.34752	80836
30.35563	76587
30.36375	78006
30.37188	80871
30.38000	78686
30.38813	82521
30.39625	76734
30.40437	74459
30.41250	79059
30.42062	74197
30.42873	81113
30.43687	73734
30.44498	74729
30.45312	72716
30.46123	78727
30.46935	75713
30.47748	77779
30.48560	83535
30.49373	83973
30.50185	88941
30.50997	94447
30.51810	88169
30.52622	83851
30.53435	85199
30.54247	78315
30.55058	84568
30.55872	83104
30.56683	83566
30.57495	74911
30.58308	80515
30.59120	77066
30.59933	76578
30.60745	79692
30.61557	77213
30.62370	79512
30.63182	79178
30.63995	77602
30.64807	75278
30.65618	78742
30.66432	76312
30.67243	73064
30.68055	78788
30.68868	74494
30.69680	80503
30.70493	77238
30.71305	76780
30.72117	74700
30.72930	79834
30.73742	73888
30.74555	76074
30.75367	75290
30.76178	72815
30.76992	76785
30.77803	91972
30.78617	100534
30.79428	120136
30.80240	137802
30.81053	171940
30.81865	185514
30.82677	186581
30.83490	168946
30.84302	145772
30.85115	121542
30.85927	100783
30.86738	99884
30.87552	89754
30.88363	89658
30.89177	88930
30.89988	84686
30.90800	82914
30.91613	84780
30.92425	85860
30.93238	76849
30.94050	78476
30.94862	77347
30.95675	78743
30.96487	80375
30.97298	79833
30.98112	89874
30.98923	78303
30.99737	81143
31.00548	85036
31.01360	77181
31.02173	81832
31.02985	81801
31.03798	83273
31.04610	80347
31.05422	78757
31.06235	83941
31.07047	80456
31.07858	84962
31.08672	92932
31.09483	100316
31.10297	112765
31.11108	121536
31.11920	108624
31.12733	103530
31.13545	101442
31.14358	91033
31.15170	91853
31.15982	88757
31.16795	85009
31.17607	92169
31.18420	86221
31.19232	96500
31.20043	105003
31.20857	124088
31.21668	139570
31.22480	153622
31.23293	154964
31.24105	160344
31.24918	150334
31.25730	133458
31.26542	122592
31.27355	108597
31.28167	104359
31.28980	93931
31.29792	87670
31.30603	87848
31.31417	80192
31.32228	80691
31.33040	80987
31.33853	77864
31.34665	81280
31.35478	78305
31.36290	81838
31.37102	73167
31.37915	77303
31.38727	80851
31.39540	75367
31.40352	75505
31.41163	76327
31.41977	74482
31.42788	80877
31.43602	84101
31.44413	79742
31.45225	78259
31.46038	79805
31.46850	83655
31.47662	85810
31.48475	95946
31.49287	110313
31.50100	104665
31.50912	102312
31.51723	104831
31.52537	97348
31.53348	101047
31.54162	95899
31.54973	98076
31.55785	109046
31.56598	113369
31.57410	122681
31.58223	124330
31.59035	112269
31.59847	107525
31.60660	104732
31.61472	95728
31.62283	96485
31.63097	89413
31.63908	88131
31.64722	87267
31.65533	93297
31.66345	87190
31.67158	89565
31.67970	94600
31.68783	85127
31.69595	87000
31.70407	82076
31.71220	84994
31.72032	80609
31.72845	81795
31.73657	78627
31.74468	83426
31.75282	82340
31.76093	84650
31.76905	86291
31.77718	89010
31.78530	95814
31.79343	94739
31.80155	99759
31.80967	99682
31.81780	92596
31.82592	97196
31.83405	91896
31.84217	88828
31.85028	97743
31.85842	94625
31.86653	98072
31.87465	86259
31.88278	88469
31.89090	84866
31.89903	83477
31.90715	84257
31.91527	87656
31.92340	84459
31.93152	90149
31.93965	93060
31.94777	93346
31.95588	103319
31.96402	111346
31.97213	109835
31.98027	114309
31.98838	120341
31.99650	116614
32.00463	113382
32.01275	120108
32.02087	117733
32.02900	114517
32.03712	114080
32.04525	111931
32.05337	109949
32.06148	109462
32.06962	113975
32.07773	108705
32.08587	111386
32.09398	112215
32.10210	107066
32.11023	109952
32.11835	99772
32.12647	94627
32.13460	89917
32.14272	92011
32.15085	90885
32.15897	87678
32.16708	90649
32.17522	89701
32.18333	87816
32.19147	86090
32.19958	93799
32.20770	84331
32.21583	85808
32.22395	82740
32.23208	86788
32.24020	84844
32.24832	90500
32.25645	95913
32.26457	99480
32.27268	105344
32.28082	110482
32.28893	106007
32.29707	101451
32.30518	95780
32.31330	90014
32.32143	83049
32.32955	85677
32.33768	88246
32.34580	85811
32.35392	86071
32.36205	83557
32.37017	85266
32.37830	85296
32.38642	79156
32.39453	83726
32.40267	78191
32.41078	79191
32.41890	80840
32.42703	83967
32.43515	77583
32.44328	79702
32.45140	83511
32.45952	74741
32.46765	75678
32.47577	77399
32.48390	75507
32.49202	76307
32.50013	71865
32.50827	76473
32.51638	74257
32.52450	79249
32.53263	75779
32.54075	79046
32.54888	77250
32.55700	77083
32.56512	79677
32.57325	77431
32.58137	73608
32.58950	78353
32.59762	72212
32.60573	70737
32.61387	70362
32.62198	73965
32.63012	73390
32.63823	77305
32.64635	79940
32.65448	84234
32.66260	86801
32.67072	95238
32.67885	108575
32.68697	113313
32.69510	118650
32.70322	118154
32.71133	117157
32.71947	103161
32.72758	105661
32.73572	100097
32.74383	95281
32.75195	92728
32.76008	84551
32.76820	79280
32.77633	80747
32.78445	78965
32.79257	75036
32.80070	81384
32.80882	76723
32.81693	73582
32.82507	77605
32.83318	72706
32.84132	76836
32.84943	74287
32.85755	77746
32.86568	77748
32.87380	71235
32.88193	78459
32.89005	78306
32.89817	81499
32.90630	78492
32.91442	72142
32.92253	78581
32.93067	74626
32.93878	74877
32.94692	74106
32.95503	76375
32.96315	75910
32.97128	82543
32.97940	85839
32.98753	95092
32.99565	117129
33.00377	133363
33.01190	144509
33.02002	147440
33.02815	134913
33.03627	122165
33.04438	110930
33.05252	94804
33.06063	96444
33.06875	91227
33.07688	97133
33.08500	98212
33.09313	102892
33.10125	115330
33.10937	129758
33.11750	138927
33.12562	140130
33.13375	140332
33.14187	129495
33.14998	115430
33.15812	100653
33.16623	87871
33.17435	88724
33.18248	85552
33.19060	82381
33.19873	86863
33.20685	87671
33.21497	88508
33.22310	86490
33.23122	92961
33.23935	94071
33.24747	87350
33.25558	83745
33.26372	82914
33.27183	74318
33.27997	76746
33.28808	79239
33.29620	79142
33.30433	75316
33.31245	79074
33.32057	78667
33.32870	79581
33.33682	78958
33.34495	81489
33.35307	81470
33.36118	73918
33.36932	79571
33.37743	76582
33.38557	81113
33.39368	87151
33.40180	83875
33.40993	83799
33.41805	86698
33.42618	94196
33.43430	100228
33.44242	108012
33.45055	99977
33.45867	98401
33.46678	94963
33.47492	86315
33.48303	89196
33.49117	86434
33.49928	87513
33.50740	91712
33.51553	95824
33.52365	90781
33.53178	91374
33.53990	86795
33.54802	84685
33.55615	88053
33.56427	76547
33.57238	78578
33.58052	78411
33.58863	78343
33.59677	78285
33.60488	75993
33.61300	80814
33.62113	76100
33.62925	78599
33.63738	75344
33.64550	80921
33.65362	81139
33.66175	91585
33.66987	88517
33.67800	89875
33.68612	84629
33.69423	78081
33.70237	80048
33.71048	81182
33.71860	85619
33.72673	87346
33.73485	98885
33.74298	107313
33.75110	110644
33.75922	110627
33.76735	114770
33.77547	109797
33.78360	102923
33.79172	93142
33.79983	84274
33.80797	87823
33.81608	82583
33.82422	77649
33.83233	85101
33.84045	92469
33.84858	93268
33.85670	100936
33.86482	103227
33.87295	104828
33.88107	103318
33.88920	107939
33.89732	110670
33.90543	118647
33.91357	124205
33.92168	123870
33.92982	118465
33.93793	120104
33.94605	107109
33.95418	98812
33.96230	96361
33.97042	86938
33.97855	85068
33.98667	80362
33.99480	82026
34.00292	81428
34.01103	81692
34.01917	82706
34.02728	83204
34.03542	80061
34.04353	89219
34.05165	84491
34.05978	83200
34.06790	84889
34.07603	85700
34.08415	80163
34.09227	81622
34.10040	80522
34.10852	79584
34.11663	75771
34.12477	82762
34.13288	80988
34.14102	73569
34.14913	74263
34.15725	83092
34.16538	78160
34.17350	80713
34.18163	92827
34.18975	99150
34.19787	95293
34.20600	103431
34.21412	104202
34.22223	108703
34.23037	99441
34.23848	94592
34.24662	86048
34.25473	85312
34.26285	82560
34.27098	76650
34.27910	83105
34.28723	80289
34.29535	77162
34.30347	79262
34.31160	75783
34.31972	75922
34.32785	70217
34.33597	70170
34.34408	73070
34.35222	77530
34.36033	72780
34.36845	73078
34.37658	74324
34.38470	76514
34.39283	77186
34.40095	71230
34.40907	75068
34.41720	73453
34.42532	69617
34.43345	71197
34.44157	73933
34.44968	74908
34.45782	68545
34.46593	71194
34.47407	77594
34.48218	74446
34.49030	75219
34.49843	73701
34.50655	76083
34.51467	71863
34.52280	75676
34.53092	78393
34.53905	86875
34.54717	94755
34.55528	97225
34.56342	103040
34.57153	104621
34.57967	112794
34.58778	114657
34.59590	116638
34.60403	107148
34.61215	111707
34.62027	111953
34.62840	112916
34.63652	110925
34.64465	111789
34.65277	111987
34.66088	108594
34.66902	106684
34.67713	105704
34.68527	98725
34.69338	96954
34.70150	97294
34.70963	98000
34.71775	91447
34.72588	99066
34.73400	88832
34.74212	85796
34.75025	90225
34.75837	84981
34.76648	87180
34.77462	83410
34.78273	84021
34.79087	82396
34.79898	87436
34.80710	84860
34.81523	90483
34.82335	90879
34.83148	86443
34.83960	90376
34.84772	84479
34.85585	88508
34.86397	88351
34.87210	91797
34.88022	82992
34.88833	84707
34.89647	84431
34.90458	83795
34.91270	89389
34.92083	95653
34.92895	95098
34.93708	93706
34.94520	89415
34.95332	93822
34.96145	97292
34.96957	100566
34.97770	99017
34.98582	101834
34.99393	111385
35.00207	99146
35.01018	101770
35.01830	113043
35.02643	110849
35.03455	113573
35.04268	112835
35.05080	119241
35.05892	111072
35.06705	111039
35.07517	102104
35.08330	102058
35.09142	96295
35.09953	93470
35.10767	92671
35.11578	91424
35.12392	88145
35.13203	84076
35.14015	78076
35.14828	77036
35.15640	90373
35.16452	88319
35.17265	92843
35.18077	86722
35.18890	85527
35.19702	87745
35.20513	86935
35.21327	80385
35.22138	86870
35.22952	84527
35.23763	84736
35.24575	86656
35.25388	94644
35.26200	96770
35.27013	95387
35.27825	98231
35.28637	99425
35.29450	100430
35.30262	93051
35.31073	89788
35.31887	92144
35.32698	89336
35.33512	92503
35.34323	84466
35.35135	88432
35.35948	95847
35.36760	92727
35.37573	104575
35.38385	109098
35.39197	115826
35.40010	118561
35.40822	134238
35.41633	149088
35.42447	148344
35.43258	149647
35.44072	146569
35.44883	148382
35.45695	141470
35.46508	120848
35.47320	113580
35.48133	107578
35.48945	99213
35.49757	99209
35.50570	98641
35.51382	100015
35.52195	90780
35.53007	88809
35.53818	93651
35.54632	94933
35.55443	94138
35.56255	90968
35.57068	95261
35.57880	96413
35.58693	93406
35.59505	89334
35.60317	87830
35.61130	92024
35.61942	83635
35.62755	84652
35.63567	87874
35.64378	83477
35.65192	85738
35.66003	84251
35.66815	92625
35.67628	92972
35.68440	91666
35.69253	99107
35.70065	107579
35.70877	104018
35.71690	105412
35.72502	103198
35.73315	102144
35.74127	100158
35.74938	97499
35.75752	99995
35.76563	98911
35.77377	99470
35.78188	98640
35.79000	97217
35.79813	97457
35.80625	99084
35.81437	107831
35.82250	94911
35.83062	91612
35.83875	89731
35.84687	85533
35.85498	88913
35.86312	87124
35.87123	95998
35.87937	89487
35.88748	88851
35.89560	91219
35.90373	92561
35.91185	92920
35.91998	91213
35.92810	89909
35.93622	82414
35.94435	89574
35.95247	87658
35.96058	88804
35.96872	89154
35.97683	86139
35.98497	88759
35.99308	85138
36.00120	85848
36.00933	84028
36.01745	92821
36.02558	94908
36.03370	93977
36.04182	90002
36.04995	89741
36.05807	94072
36.06618	89954
36.07432	88723
36.08243	87585
36.09057	87532
36.09868	87426
36.10680	89806
36.11493	90069
36.12305	91265
36.13118	88192
36.13930	85713
36.14742	84071
36.15555	84824
36.16367	87171
36.17180	86900
36.17992	84492
36.18803	81581
36.19617	85413
36.20428	84628
36.21240	88538
36.22053	85301
36.22865	85652
36.23678	87883
36.24490	88022
36.25302	89530
36.26115	89428
36.26927	92910
36.27740	96144
36.28552	92095
36.29363	101831
36.30177	96102
36.30988	99639
36.31802	102178
36.32613	109281
36.33425	107719
36.34238	104888
36.35050	101802
36.35862	94896
36.36675	89095
36.37487	87571
36.38300	83774
36.39112	89654
36.39923	89220
36.40737	94356
36.41548	94206
36.42362	94219
36.43173	96886
36.43985	102080
36.44798	106287
36.45610	112767
36.46422	108927
36.47235	111915
36.48047	114654
36.48860	107333
36.49672	108078
36.50483	108384
36.51297	116842
36.52108	115456
36.52922	118041
36.53733	116924
36.54545	109581
36.55358	105586
36.56170	98515
36.56983	95575
36.57795	95841
36.58607	88599
36.59420	83299
36.60232	88906
36.61043	89228
36.61857	92590
36.62668	91659
36.63482	103760
36.64293	111653
36.65105	113914
36.65918	121373
36.66730	118589
36.67543	110285
36.68355	107507
36.69167	102928
36.69980	104752
36.70792	93508
36.71603	96312
36.72417	94438
36.73228	95991
36.74042	92502
36.74853	90744
36.75665	89715
36.76478	88136
36.77290	90275
36.78103	91560
36.78915	88691
36.79727	89381
36.80540	87544
36.81352	88248
36.82165	86092
36.82977	83312
36.83788	85523
36.84602	88723
36.85413	85283
36.86225	92204
36.87038	87000
36.87850	86771
36.88663	92526
36.89475	86454
36.90287	95742
36.91100	84849
36.91912	90861
36.92725	90603
36.93537	88123
36.94348	91639
36.95162	90341
36.95973	104760
36.96787	106655
36.97598	103853
36.98410	106497
36.99223	105321
37.00035	100471
37.00847	104156
37.01660	100097
37.02472	91384
37.03285	95382
37.04097	96547
37.04908	96008
37.05722	96746
37.06533	103562
37.07347	99559
37.08158	103391
37.08970	101882
37.09783	108093
37.10595	110453
37.11408	117740
37.12220	117214
37.13032	114075
37.13845	116809
37.14657	121623
37.15468	115818
37.16282	118821
37.17093	110749
37.17907	100384
37.18718	103591
37.19530	99397
37.20343	94284
37.21155	95481
37.21968	94915
37.22780	91597
37.23592	90170
37.24405	92136
37.25217	92042
37.26028	93280
37.26842	94577
37.27653	94874
37.28467	94356
37.29278	100606
37.30090	97408
37.30903	97465
37.31715	102149
37.32528	93505
37.33340	102256
37.34152	104980
37.34965	103042
37.35777	109462
37.36590	109573
37.37402	115893
37.38213	109906
37.39027	112262
37.39838	120153
37.40650	113369
37.41463	103935
37.42275	102124
37.43088	105010
37.43900	109268
37.44712	101976
37.45525	100838
37.46337	104965
37.47150	99322
37.47962	102518
37.48773	101687
