Z:\data\JTB-E02\BACandBLUE\JTB-E02-193-11.D Wed Dec 19 10:13:12 2018
Start of data points
2.09530	86053
2.10342	90682
2.11155	83495
2.11967	83591
2.12780	86296
2.13592	80366
2.14403	79831
2.15217	77844
2.16028	82196
2.16842	80645
2.17653	80085
2.18465	76870
2.19278	69834
2.20090	72007
2.20902	69957
2.21715	70712
2.22527	71969
2.23340	69536
2.24152	76093
2.24963	71600
2.25777	73734
2.26588	117859
2.27402	625178
2.28213	1396546
2.29025	1666580
2.29838	1113947
2.30650	634064
2.31463	480115
2.32275	395623
2.33087	332392
2.33900	301737
2.34712	269024
2.35523	244338
2.36337	227594
2.37148	221383
2.37962	220322
2.38773	213495
2.39585	199559
2.40398	193353
2.41210	193146
2.42023	189853
2.42835	186588
2.43647	177180
2.44460	176266
2.45272	172394
2.46085	163713
2.46897	159300
2.47708	154776
2.48522	153579
2.49333	154448
2.50145	160663
2.50958	159165
2.51770	152991
2.52583	152633
2.53395	151028
2.54207	147596
2.55020	151675
2.55832	160659
2.56645	157987
2.57457	150162
2.58268	135054
2.59082	127833
2.59893	126364
2.60705	179884
2.61518	349835
2.62330	492997
2.63143	429753
2.63955	296304
2.64767	219963
2.65580	196443
2.66392	174768
2.67205	158987
2.68017	152633
2.68828	149312
2.69642	132931
2.70453	132395
2.71267	131102
2.72078	128497
2.72890	126786
2.73703	119054
2.74515	119656
2.75327	121269
2.76140	117302
2.76952	119065
2.77765	307335
2.78577	1597634
2.79388	3461051
2.80202	3592743
2.81013	2297857
2.81827	1337885
2.82638	993630
2.83450	824634
2.84263	629676
2.85075	500701
2.85888	420742
2.86700	365192
2.87512	319346
2.88325	294683
2.89137	263047
2.89948	240641
2.90762	234097
2.91573	209180
2.92387	192415
2.93198	188727
2.94010	183959
2.94823	176828
2.95635	158685
2.96448	165530
2.97260	169937
2.98072	173261
2.98885	159898
2.99697	148613
3.00508	153719
3.01322	157425
3.02133	156696
3.02947	149728
3.03758	149225
3.04570	135784
3.05383	128538
3.06195	124603
3.07008	126656
3.07820	125455
3.08632	176116
3.09445	437633
3.10257	1091835
3.11070	2603537
3.11882	4861155
3.12693	5419221
3.13507	4049684
3.14318	2596223
3.15130	1783151
3.15943	1322998
3.16755	1079111
3.17568	970708
3.18380	1077513
3.19192	1991425
3.20005	4723959
3.20817	7395722
3.21630	7060520
3.22442	4977610
3.23253	3540047
3.24067	2660087
3.24878	2146864
3.25690	1750384
3.26503	1473762
3.27315	1253910
3.28128	1065395
3.28940	952674
3.29752	981568
3.30565	1596566
3.31377	3419367
3.32190	5921191
3.33002	6987207
3.33813	5970660
3.34627	4335119
3.35438	3037231
3.36252	2363691
3.37063	1901975
3.37875	1595910
3.38688	1382974
3.39500	1232167
3.40312	1093044
3.41125	1012299
3.41937	912542
3.42750	862676
3.43562	821595
3.44373	816925
3.45187	832335
3.45998	777747
3.46812	754997
3.47623	866902
3.48435	1027773
3.49248	1010123
3.50060	851141
3.50873	668058
3.51685	572312
3.52497	513889
3.53310	484569
3.54122	509547
3.54933	565152
3.55747	593761
3.56558	543622
3.57372	469618
3.58183	412111
3.58995	388537
3.59808	390639
3.60620	378863
3.61433	363742
3.62245	364024
3.63057	377543
3.63870	374321
3.64682	387045
3.65493	396901
3.66307	480679
3.67118	2111550
3.67932	1.239825E+07
3.68743	3.318306E+07
3.69555	5.025779E+07
3.70368	5.340695E+07
3.71180	4.430604E+07
3.71993	3.118023E+07
3.72805	2.304257E+07
3.73617	1.859813E+07
3.74430	1.547025E+07
3.75242	1.32284E+07
3.76055	1.136534E+07
3.76867	1.001918E+07
3.77678	8943786
3.78492	7881909
3.79303	7035115
3.80115	6480018
3.80928	6105933
3.81740	5873570
3.82553	5967009
3.83365	6177979
3.84177	5887856
3.84990	5187697
3.85802	4517764
3.86615	4051782
3.87427	3666433
3.88238	3284601
3.89052	2986232
3.89863	2742144
3.90677	2513088
3.91488	2347635
3.92300	2271585
3.93113	2516465
3.93925	3135012
3.94737	3556350
3.95550	3337416
3.96362	2850398
3.97175	2634441
3.97987	2709519
3.98798	2700798
3.99612	2423107
4.00423	2147948
4.01237	2075326
4.02048	2356231
4.02860	2844836
4.03673	2909481
4.04485	2526300
4.05297	1945944
4.06110	1598661
4.06922	1420214
4.07735	1299260
4.08547	1241045
4.09358	1180985
4.10172	1149181
4.10983	1148023
4.11797	1110891
4.12608	1071534
4.13420	1053907
4.14233	1031372
4.15045	1002451
4.15858	1010523
4.16670	1019148
4.17482	1017285
4.18295	997647
4.19107	998268
4.19918	973742
4.20732	968645
4.21543	975531
4.22357	1749433
4.23168	5347784
4.23980	1.30335E+07
4.24793	2.23339E+07
4.25605	2.936291E+07
4.26418	3.407848E+07
4.27230	3.731095E+07
4.28042	3.77598E+07
4.28855	2.948688E+07
4.29667	1.446592E+07
4.30478	8869209
4.31292	6630711
4.32103	5281612
4.32917	4426877
4.33728	3727001
4.34540	3194783
4.35353	2834775
4.36165	2564391
4.36978	2364394
4.37790	2368377
4.38602	2517830
4.39415	2489194
4.40227	2190073
4.41040	1776669
4.41852	1463592
4.42663	1253472
4.43477	1116294
4.44288	1007981
4.45100	920397
4.45913	849663
4.46725	811847
4.47538	770088
4.48350	759286
4.49162	755506
4.49975	766748
4.50787	781530
4.51600	771058
4.52412	787637
4.53223	787226
4.54037	789660
4.54848	789120
4.55662	792733
4.56473	817177
4.57285	830823
4.58098	786665
4.58910	715233
4.59722	647125
4.60535	621753
4.61347	610359
4.62160	586499
4.62972	600127
4.63783	741167
4.64597	1242719
4.65408	2142847
4.66222	2926680
4.67033	2955061
4.67845	2353588
4.68658	1652105
4.69470	1259350
4.70282	1092548
4.71095	952298
4.71907	810511
4.72720	702028
4.73532	644663
4.74343	593791
4.75157	564204
4.75968	538319
4.76782	535007
4.77593	512881
4.78405	491205
4.79218	477951
4.80030	480051
4.80843	528379
4.81655	643559
4.82467	798359
4.83280	828202
4.84092	760945
4.84903	712535
4.85717	716768
4.86528	834472
4.87342	874927
4.88153	859549
4.88965	747354
4.89778	657840
4.90590	585556
4.91403	538923
4.92215	520168
4.93027	488430
4.93840	482582
4.94652	467169
4.95465	477778
4.96277	613420
4.97088	993724
4.97902	1687001
4.98713	2369169
4.99525	2633153
5.00338	2443705
5.01150	2000390
5.01963	1552463
5.02775	1309886
5.03587	1192848
5.04400	1330665
5.05212	1785555
5.06025	2424488
5.06837	2665957
5.07648	2415758
5.08462	1966289
5.09273	1662442
5.10085	1404289
5.10898	1243746
5.11710	1131317
5.12523	1053882
5.13335	990536
5.14147	929534
5.14960	898895
5.15772	870376
5.16585	938115
5.17397	1144275
5.18208	1483284
5.19022	1709159
5.19833	1653099
5.20647	1434230
5.21458	1299441
5.22270	1361915
5.23083	1474883
5.23895	1460074
5.24707	1265821
5.25520	1072516
5.26332	994115
5.27145	806244
5.27957	691896
5.28768	626789
5.29582	571605
5.30393	532539
5.31207	523127
5.32018	509952
5.32830	496088
5.33643	495545
5.34455	479556
5.35268	502781
5.36080	531368
5.36892	538929
5.37705	517741
5.38517	477203
5.39328	474430
5.40142	467309
5.40953	508460
5.41767	577622
5.42578	622312
5.43390	604775
5.44203	523166
5.45015	481537
5.45828	470690
5.46640	521285
5.47452	611445
5.48265	667778
5.49077	642024
5.49888	553033
5.50702	474270
5.51513	413582
5.52327	391731
5.53138	377440
5.53950	375696
5.54763	375460
5.55575	388717
5.56388	397256
5.57200	521495
5.58012	841144
5.58825	1366876
5.59637	1845651
5.60450	1914043
5.61262	1567029
5.62073	1092605
5.62887	769704
5.63698	580608
5.64510	511331
5.65323	475180
5.66135	448496
5.66948	421355
5.67760	409690
5.68572	395891
5.69385	384580
5.70197	420329
5.71010	475823
5.71822	555569
5.72633	574731
5.73447	531909
5.74258	478284
5.75072	418694
5.75883	375398
5.76695	341972
5.77508	330669
5.78320	325129
5.79132	319544
5.79945	312333
5.80757	309282
5.81570	310830
5.82382	296333
5.83193	295679
5.84007	292531
5.84818	290791
5.85632	294420
5.86443	293262
5.87255	294023
5.88068	276181
5.88880	274370
5.89692	277246
5.90505	267520
5.91317	260770
5.92130	256775
5.92942	269246
5.93753	307523
5.94567	342167
5.95378	343055
5.96192	335322
5.97003	361216
5.97815	454348
5.98628	573983
5.99440	758508
6.00253	980959
6.01065	1235796
6.01877	1324971
6.02690	1223746
6.03502	983078
6.04313	738336
6.05127	526692
6.05938	414448
6.06752	334554
6.07563	304583
6.08375	288886
6.09188	274603
6.10000	277020
6.10813	269087
6.11625	256335
6.12437	244841
6.13250	250234
6.14062	307257
6.14873	525995
6.15687	1076567
6.16498	1740305
6.17312	2163598
6.18123	2019071
6.18935	1572278
6.19748	1148815
6.20560	904612
6.21373	727623
6.22185	627912
6.22997	560745
6.23810	524427
6.24622	483564
6.25435	464452
6.26247	451350
6.27058	472135
6.27872	501164
6.28683	539933
6.29495	528951
6.30308	469649
6.31120	408120
6.31933	385460
6.32745	369428
6.33557	356342
6.34370	348569
6.35182	356840
6.35995	358154
6.36807	352485
6.37618	337570
6.38432	327371
6.39243	330753
6.40057	328103
6.40868	336520
6.41680	327731
6.42493	327567
6.43305	304542
6.44117	300520
6.44930	300843
6.45742	303327
6.46555	302517
6.47367	324593
6.48178	329719
6.48992	325500
6.49803	313596
6.50617	318179
6.51428	316917
6.52240	319197
6.53053	305921
6.53865	303427
6.54677	323564
6.55490	324014
6.56302	306669
6.57115	308531
6.57927	360038
6.58738	546902
6.59552	952521
6.60363	1397685
6.61177	1578103
6.61988	1337503
6.62800	929867
6.63613	629770
6.64425	496550
6.65238	408912
6.66050	345018
6.66862	291753
6.67675	281794
6.68487	270400
6.69298	262993
6.70112	252706
6.70923	231074
6.71737	222144
6.72548	208882
6.73360	207544
6.74173	214289
6.74985	206983
6.75798	207427
6.76610	207585
6.77422	196310
6.78235	195776
6.79047	199157
6.79860	199257
6.80672	204176
6.81483	191037
6.82297	184536
6.83108	181378
6.83920	174486
6.84733	171000
6.85545	162729
6.86358	165705
6.87170	166690
6.87982	181737
6.88795	212756
6.89607	248284
6.90420	261254
6.91232	246209
6.92043	201607
6.92857	174246
6.93668	159396
6.94480	155550
6.95293	138704
6.96105	140622
6.96918	137466
6.97730	137906
6.98542	146775
6.99355	173534
7.00167	202380
7.00980	212582
7.01792	203126
7.02603	185857
7.03417	165745
7.04228	171206
7.05042	169020
7.05853	167174
7.06665	158848
7.07478	151770
7.08290	179530
7.09102	232518
7.09915	305441
7.10727	369575
7.11540	391508
7.12352	356418
7.13163	283796
7.13977	221859
7.14788	184811
7.15602	178948
7.16413	181108
7.17225	217577
7.18038	277108
7.18850	320413
7.19662	474294
7.20475	1006535
7.21287	2598161
7.22100	5760819
7.22912	9455352
7.23723	1.162452E+07
7.24537	1.060065E+07
7.25348	6889104
7.26162	3249281
7.26973	1311970
7.27785	518505
7.28598	259104
7.29410	208741
7.30223	189368
7.31035	194652
7.31847	181139
7.32660	176198
7.33472	180995
7.34283	183782
7.35097	206886
7.35908	251494
7.36722	313228
7.37533	362102
7.38345	366791
7.39158	327477
7.39970	272277
7.40783	226481
7.41595	185811
7.42407	166356
7.43220	154913
7.44032	161846
7.44845	161734
7.45657	149727
7.46468	146647
7.47282	144401
7.48093	144063
7.48905	156281
7.49718	156276
7.50530	154714
7.51343	149732
7.52155	137872
7.52967	134709
7.53780	130704
7.54592	156515
7.55405	249110
7.56217	476142
7.57028	1065190
7.57842	2175682
7.58653	3834796
7.59465	5696577
7.60278	7043858
7.61090	7205348
7.61903	6183113
7.62715	4518931
7.63527	2860609
7.64340	1688270
7.65152	984426
7.65965	599912
7.66777	417772
7.67588	306051
7.68402	243561
7.69213	197616
7.70027	166949
7.70838	154362
7.71650	137185
7.72463	129657
7.73275	136344
7.74087	150256
7.74900	180707
7.75712	207965
7.76525	222282
7.77337	218694
7.78148	194193
7.78962	180448
7.79773	168862
7.80587	157314
7.81398	164375
7.82210	185190
7.83023	228990
7.83835	280530
7.84648	297450
7.85460	278674
7.86272	242442
7.87085	185791
7.87897	171299
7.88708	184868
7.89522	202941
7.90333	241647
7.91147	315865
7.91958	377506
7.92770	432828
7.93583	424908
7.94395	342173
7.95208	294446
7.96020	268359
7.96832	298623
7.97645	325785
7.98457	303696
7.99268	294055
8.00082	238264
8.00893	212277
8.01707	166719
8.02518	141812
8.03330	132940
8.04143	122217
8.04955	117400
8.05768	115320
8.06580	109971
8.07392	104837
8.08205	111424
8.09017	111665
8.09830	120210
8.10642	118072
8.11453	117835
8.12267	111171
8.13078	108857
8.13890	107885
8.14703	118201
8.15515	148090
8.16328	221898
8.17140	315065
8.17952	395679
8.18765	389777
8.19577	345485
8.20390	264369
8.21202	208845
8.22013	179983
8.22827	161028
8.23638	134134
8.24452	124660
8.25263	124274
8.26075	113325
8.26888	108692
8.27700	100906
8.28512	100742
8.29325	104665
8.30137	99124
8.30950	96431
8.31762	99199
8.32573	102916
8.33387	105605
8.34198	108297
8.35012	122359
8.35823	137095
8.36635	140738
8.37448	130567
8.38260	120531
8.39072	103803
8.39885	94672
8.40697	94344
8.41510	87155
8.42322	81175
8.43133	85524
8.43947	83333
8.44758	79619
8.45572	85089
8.46383	81119
8.47195	85309
8.48008	85971
8.48820	81321
8.49633	85250
8.50445	81692
8.51257	77218
8.52070	81835
8.52882	86818
8.53693	111503
8.54507	166625
8.55318	242345
8.56132	319029
8.56943	316187
8.57755	253623
8.58568	187018
8.59380	126916
8.60193	98186
8.61005	90277
8.61817	88810
8.62630	101491
8.63442	126470
8.64253	156618
8.65067	182918
8.65878	196103
8.66692	188833
8.67503	163764
8.68315	132412
8.69128	116405
8.69940	96353
8.70753	90549
8.71565	87256
8.72377	87285
8.73190	81696
8.74002	82129
8.74815	82637
8.75627	80123
8.76438	86465
8.77252	78206
8.78063	91553
8.78875	108426
8.79688	177679
8.80500	327676
8.81313	588273
8.82125	854416
8.82937	999119
8.83750	909950
8.84562	726900
8.85375	534841
8.86187	391357
8.86998	322700
8.87812	278714
8.88623	261454
8.89437	250835
8.90248	232189
8.91060	221459
8.91873	220087
8.92685	210278
8.93497	229181
8.94310	289236
8.95122	383061
8.95935	489113
8.96747	556311
8.97558	527388
8.98372	398141
8.99183	330953
8.99997	306015
9.00808	316125
9.01620	347836
9.02433	352637
9.03245	314353
9.04057	271988
9.04870	231806
9.05682	203576
9.06495	190916
9.07307	170559
9.08118	169064
9.08932	159257
9.09743	152647
9.10557	161957
9.11368	175276
9.12180	220168
9.12993	287038
9.13805	392187
9.14618	484035
9.15430	510485
9.16242	449264
9.17055	351405
9.17867	284176
9.18678	225172
9.19492	203771
9.20303	194681
9.21117	191733
9.21928	179971
9.22740	180369
9.23553	168064
9.24365	169541
9.25178	167439
9.25990	177744
9.26802	186461
9.27615	173989
9.28427	168846
9.29240	155062
9.30052	145862
9.30863	148921
9.31677	145161
9.32488	144283
9.33300	148669
9.34113	143349
9.34925	138921
9.35738	139884
9.36550	131338
9.37362	126465
9.38175	116830
9.38987	121722
9.39800	122076
9.40612	125300
9.41423	143329
9.42237	171800
9.43048	204922
9.43860	255843
9.44673	328419
9.45485	410614
9.46298	508740
9.47110	591361
9.47922	583007
9.48735	512446
9.49547	413330
9.50360	307551
9.51172	214665
9.51983	175361
9.52797	169675
9.53608	184305
9.54422	201238
9.55233	235135
9.56045	242603
9.56858	233536
9.57670	209670
9.58482	168169
9.59295	135236
9.60107	125588
9.60920	113786
9.61732	110810
9.62543	102219
9.63357	99658
9.64168	98111
9.64982	91960
9.65793	94116
9.66605	92129
9.67418	92212
9.68230	86699
9.69042	94322
9.69855	97175
9.70667	95755
9.71480	86846
9.72292	85573
9.73103	92351
9.73917	94443
9.74728	101845
9.75542	91810
9.76353	84026
9.77165	86917
9.77978	82893
9.78790	81147
9.79603	77814
9.80415	79960
9.81227	78781
9.82040	77785
9.82852	78637
9.83663	77510
9.84477	73568
9.85288	75577
9.86102	79256
9.86913	79258
9.87725	80323
9.88538	80595
9.89350	88027
9.90163	74859
9.90975	76509
9.91787	75425
9.92600	72607
9.93412	81583
9.94225	82540
9.95037	86313
9.95848	108308
9.96662	141126
9.97473	215297
9.98285	296077
9.99098	392669
9.99910	407047
10.00723	365175
10.01535	302284
10.02347	222644
10.03160	169295
10.03972	138535
10.04785	131015
10.05597	132050
10.06408	134038
10.07222	143515
10.08033	148761
10.08847	149362
10.09658	148768
10.10470	150623
10.11283	143069
10.12095	135206
10.12907	137268
10.13720	127857
10.14532	127383
10.15345	127046
10.16157	116034
10.16968	116624
10.17782	117301
10.18593	119096
10.19407	113078
10.20218	115449
10.21030	106266
10.21843	98135
10.22655	111330
10.23467	95992
10.24280	103422
10.25092	104469
10.25905	115923
10.26717	123917
10.27528	193415
10.28342	393696
10.29153	1003188
10.29967	2386044
10.30778	4842877
10.31590	8121112
10.32403	1.165673E+07
10.33215	1.544393E+07
10.34028	1.96846E+07
10.34840	2.496516E+07
10.35652	3.171675E+07
10.36465	3.9985E+07
10.37277	4.829218E+07
10.38088	5.435588E+07
10.38902	5.442418E+07
10.39713	4.147906E+07
10.40527	2.106494E+07
10.41338	9336321
10.42150	5299335
10.42963	3442352
10.43775	2250545
10.44588	1543717
10.45400	1200374
10.46212	1077986
10.47025	1072576
10.47837	1075189
10.48648	1058727
10.49462	997343
10.50273	876429
10.51087	756442
10.51898	639114
10.52710	559231
10.53523	491049
10.54335	452867
10.55148	433723
10.55960	420075
10.56772	421312
10.57585	417920
10.58397	414721
10.59210	388654
10.60022	394121
10.60833	390388
10.61647	380443
10.62458	360906
10.63270	334788
10.64083	319719
10.64895	295866
10.65708	294575
10.66520	276022
10.67332	266620
10.68145	267802
10.68957	247451
10.69770	241665
10.70582	242082
10.71393	253171
10.72207	263216
10.73018	279318
10.73830	290363
10.74643	280654
10.75455	270678
10.76268	254143
10.77080	255314
10.77892	233696
10.78705	227326
10.79517	215313
10.80330	204884
10.81142	201247
10.81953	205210
10.82767	210517
10.83578	228145
10.84392	242431
10.85203	255124
10.86015	228241
10.86828	205188
10.87640	188011
10.88452	170000
10.89265	167744
10.90077	163769
10.90890	156282
10.91702	149957
10.92513	151900
10.93327	152300
10.94138	155960
10.94952	150023
10.95763	151437
10.96575	136343
10.97388	145032
10.98200	140321
10.99013	143666
10.99825	142374
11.00637	143971
11.01450	141551
11.02262	152632
11.03073	164609
11.03887	171220
11.04698	176816
11.05512	174943
11.06323	167933
11.07135	155285
11.07948	144880
11.08760	149574
11.09573	154723
11.10385	171938
11.11197	191649
11.12010	207652
11.12822	193757
11.13635	192633
11.14447	175971
11.15258	155018
11.16072	141896
11.16883	133087
11.17695	129264
11.18508	121645
11.19320	125577
11.20133	121816
11.20945	120214
11.21757	111916
11.22570	100800
11.23382	107762
11.24195	102531
11.25007	96547
11.25818	90101
11.26632	81999
11.27443	86523
11.28255	84636
11.29068	82608
11.29880	82501
11.30693	81496
11.31505	91757
11.32317	123150
11.33130	245535
11.33942	555708
11.34755	1232065
11.35567	2307423
11.36378	3592445
11.37192	4533760
11.38003	4805478
11.38817	4313054
11.39628	3326210
11.40440	2346105
11.41253	1651650
11.42065	1265819
11.42877	981359
11.43690	779400
11.44502	634534
11.45315	518236
11.46127	418882
11.46938	357463
11.47752	316182
11.48563	275680
11.49377	247674
11.50188	249102
11.51000	281728
11.51813	350040
11.52625	441735
11.53437	510017
11.54250	547242
11.55062	536919
11.55875	486961
11.56687	415793
11.57498	374901
11.58312	336151
11.59123	311269
11.59937	290266
11.60748	302525
11.61560	356494
11.62373	467383
11.63185	662945
11.63998	858923
11.64810	916333
11.65622	821051
11.66435	639156
11.67247	455104
11.68058	327811
11.68872	233892
11.69683	180653
11.70497	165267
11.71308	173156
11.72120	157375
11.72933	166961
11.73745	166321
11.74558	178437
11.75370	173196
11.76182	167242
11.76995	154954
11.77807	140471
11.78620	120936
11.79432	112705
11.80243	103809
11.81057	102551
11.81868	101633
11.82680	96435
11.83493	94337
11.84305	100724
11.85118	94198
11.85930	89501
11.86742	90887
11.87555	84858
11.88367	86014
11.89180	87318
11.89992	90880
11.90803	82404
11.91617	82050
11.92428	79538
11.93240	82566
11.94053	91441
11.94865	90053
11.95678	95176
11.96490	100744
11.97302	96061
11.98115	84121
11.98927	76518
11.99740	80751
12.00552	72622
12.01363	75934
12.02177	68017
12.02988	68965
12.03802	69301
12.04613	73211
12.05425	68902
12.06238	71838
12.07050	71821
12.07862	77779
12.08675	76171
12.09487	80208
12.10300	86146
12.11112	98304
12.11923	120476
12.12737	163548
12.13548	279906
12.14362	484538
12.15173	749720
12.15985	1029287
12.16798	1166298
12.17610	1079668
12.18423	902124
12.19235	665127
12.20047	477659
12.20860	368350
12.21672	326837
12.22483	312123
12.23297	293061
12.24108	265726
12.24922	257247
12.25733	229441
12.26545	216810
12.27358	203535
12.28170	202156
12.28983	201774
12.29795	186160
12.30607	189932
12.31420	164931
12.32232	166220
12.33043	158150
12.33857	162065
12.34668	152024
12.35482	148336
12.36293	140459
12.37105	146525
12.37918	144116
12.38730	147566
12.39543	141270
12.40355	141646
12.41167	152997
12.41980	190308
12.42792	288859
12.43605	441528
12.44417	607785
12.45228	715426
12.46042	710293
12.46853	598529
12.47665	430686
12.48478	318484
12.49290	251986
12.50103	213645
12.50915	195434
12.51727	177489
12.52540	166665
12.53352	154598
12.54165	159041
12.54977	165738
12.55788	201556
12.56602	252486
12.57413	328213
12.58225	380738
12.59038	372594
12.59850	358702
12.60663	290654
12.61475	230500
12.62287	189258
12.63100	164522
12.63912	153146
12.64725	138441
12.65537	132841
12.66348	123428
12.67162	118366
12.67973	127688
12.68787	118420
12.69598	119173
12.70410	112673
12.71223	111516
12.72035	111713
12.72847	103875
12.73660	104493
12.74472	111687
12.75285	108589
12.76097	115433
12.76908	113157
12.77722	118835
12.78533	104712
12.79347	104927
12.80158	100260
12.80970	91100
12.81783	84670
12.82595	86170
12.83408	79928
12.84220	75189
12.85032	75188
12.85845	71626
12.86657	64307
12.87468	63221
12.88282	64049
12.89093	60496
12.89907	61392
12.90718	63582
12.91530	60879
12.92343	60790
12.93155	63270
12.93968	66945
12.94780	67373
12.95592	59314
12.96405	62244
12.97217	63434
12.98028	69930
12.98842	73678
12.99653	83832
13.00467	93760
13.01278	97113
13.02090	88798
13.02903	79387
13.03715	70728
13.04528	71039
13.05340	71129
13.06152	62939
13.06965	64980
13.07777	64174
13.08590	63025
13.09402	66397
13.10213	70888
13.11027	79878
13.11838	77429
13.12650	77420
13.13463	69263
13.14275	68801
13.15088	67175
13.15900	66735
13.16712	65360
13.17525	63893
13.18337	69861
13.19150	71543
13.19962	75961
13.20773	76531
13.21587	84624
13.22398	77291
13.23212	85816
13.24023	89915
13.24835	97866
13.25648	99327
13.26460	96601
13.27272	96724
13.28085	113578
13.28897	96881
13.29710	96236
13.30522	82495
13.31333	78075
13.32147	68608
13.32958	62815
13.33772	60752
13.34583	59323
13.35395	60324
13.36208	63522
13.37020	57469
13.37832	57305
13.38645	60916
13.39457	63282
13.40270	60073
13.41082	53893
13.41893	57797
13.42707	60164
13.43518	59949
13.44332	60259
13.45143	60504
13.45955	56021
13.46768	58480
13.47580	56962
13.48393	61416
13.49205	63744
13.50017	67968
13.50830	62584
13.51642	64210
13.52453	74543
13.53267	72528
13.54078	79365
13.54892	82774
13.55703	88237
13.56515	78659
13.57328	72615
13.58140	66416
13.58953	67861
13.59765	73738
13.60577	83969
13.61390	107453
13.62202	119750
13.63015	141852
13.63827	166110
13.64638	181513
13.65452	174290
13.66263	145335
13.67075	111598
13.67888	94631
13.68700	74911
13.69513	66252
13.70325	57459
13.71137	52519
13.71950	55358
13.72762	55135
13.73575	55949
13.74387	54528
13.75198	54246
13.76012	58061
13.76823	70544
13.77635	98023
13.78448	134107
13.79260	192623
13.80073	290735
13.80885	417414
13.81697	562325
13.82510	697534
13.83322	820678
13.84135	970283
13.84947	1156354
13.85758	1376161
13.86572	1560261
13.87383	1548145
13.88197	1302472
13.89008	1011906
13.89820	721166
13.90633	474996
13.91445	314527
13.92257	216518
13.93070	160130
13.93882	131304
13.94695	110339
13.95507	111977
13.96318	98012
13.97132	95603
13.97943	86507
13.98757	84559
13.99568	79103
14.00380	81304
14.01193	81758
14.02005	92147
14.02817	91763
14.03630	93025
14.04442	94745
14.05255	88449
14.06067	78975
14.06878	75836
14.07692	68955
14.08503	72631
14.09317	79300
14.10128	78790
14.10940	73431
14.11753	73465
14.12565	71554
14.13378	68639
14.14190	61636
14.15002	65631
14.15815	70942
14.16627	73472
14.17438	81837
14.18252	88365
14.19063	99316
14.19877	103095
14.20688	103939
14.21500	128886
14.22313	146154
14.23125	189153
14.23938	241503
14.24750	278117
14.25562	299060
14.26375	313628
14.27187	326182
14.28000	344759
14.28812	333299
14.29623	299990
14.30437	248747
14.31248	200462
14.32060	181557
14.32873	155803
14.33685	145620
14.34498	136948
14.35310	134742
14.36122	128818
14.36935	128797
14.37747	125397
14.38560	111655
14.39372	101385
14.40183	98145
14.40997	93004
14.41808	106006
14.42620	152133
14.43433	199377
14.44245	260647
14.45058	292820
14.45870	284220
14.46682	237027
14.47495	201813
14.48307	171759
14.49120	141402
14.49932	141743
14.50743	143732
14.51557	144682
14.52368	138393
14.53182	126173
14.53993	112276
14.54805	99744
14.55618	98421
14.56430	91187
14.57242	87063
14.58055	80724
14.58867	78883
14.59680	79160
14.60492	76837
14.61303	67832
14.62117	65074
14.62928	61497
14.63742	59974
14.64553	61920
14.65365	58156
14.66178	58397
14.66990	57789
14.67803	62645
14.68615	56268
14.69427	56413
14.70240	56127
14.71052	52115
14.71863	56111
14.72677	62874
14.73488	60691
14.74302	58004
14.75113	62181
14.75925	63421
14.76738	67325
14.77550	68623
14.78363	70404
14.79175	74917
14.79987	92265
14.80800	156101
14.81612	391681
14.82423	1183033
14.83237	3120387
14.84048	6798840
14.84862	1.217877E+07
14.85673	1.845337E+07
14.86485	2.360895E+07
14.87298	2.603545E+07
14.88110	2.429398E+07
14.88923	1.733953E+07
14.89735	1.022524E+07
14.90547	5282894
14.91360	3091702
14.92172	2134618
14.92985	1675014
14.93797	1381274
14.94608	1250262
14.95422	1119835
14.96233	986511
14.97045	906772
14.97858	834907
14.98670	759286
14.99483	719496
15.00295	645830
15.01107	606475
15.01920	583350
15.02732	544520
15.03545	524478
15.04357	477807
15.05168	462662
15.05982	440283
15.06793	414039
15.07605	387470
15.08418	366048
15.09230	348669
15.10043	335906
15.10855	317855
15.11667	302272
15.12480	296341
15.13292	287302
15.14105	296298
15.14917	319500
15.15728	379670
15.16542	455290
15.17353	475402
15.18167	456668
15.18978	388908
15.19790	295452
15.20603	222415
15.21415	166544
15.22227	145593
15.23040	133080
15.23852	124618
15.24665	116575
15.25477	120667
15.26288	107422
15.27102	105471
15.27913	105916
15.28727	99643
15.29538	92720
15.30350	91940
15.31163	90164
15.31975	84000
15.32788	85884
15.33600	84433
15.34412	82518
15.35225	81215
15.36037	80335
15.36848	76667
15.37662	81357
15.38473	84978
15.39287	87433
15.40098	94488
15.40910	101376
15.41723	96586
15.42535	92068
15.43348	87521
15.44160	85665
15.44972	79136
15.45785	79209
15.46597	75755
15.47410	81886
15.48222	88489
15.49033	113001
15.49847	179165
15.50658	281266
15.51470	424056
15.52283	576389
15.53095	703745
15.53908	732346
15.54720	699271
15.55532	568724
15.56345	450730
15.57157	330347
15.57970	238955
15.58782	193453
15.59593	157903
15.60407	125073
15.61218	112753
15.62030	115847
15.62843	108133
15.63655	104833
15.64468	112005
15.65280	103775
15.66092	96292
15.66905	97219
15.67717	93880
15.68530	87308
15.69342	84954
15.70153	84866
15.70967	75185
15.71778	75171
15.72592	69761
15.73403	71049
15.74215	65517
15.75028	68439
15.75840	76850
15.76652	90290
15.77465	149817
15.78277	300767
15.79090	622974
15.79902	1157746
15.80713	1744406
15.81527	2137988
15.82338	2073805
15.83152	1670282
15.83963	1180920
15.84775	731967
15.85588	478611
15.86400	347546
15.87212	270537
15.88025	221659
15.88837	212104
15.89650	187927
15.90462	179600
15.91273	167462
15.92087	155398
15.92898	152036
15.93712	136308
15.94523	131526
15.95335	131548
15.96148	121472
15.96960	124879
15.97773	117382
15.98585	107149
15.99397	114704
16.00210	110015
16.01022	117157
16.01833	117481
16.02647	131452
16.03458	156232
16.04272	171743
16.05083	186804
16.05895	167445
16.06708	158369
16.07520	139065
16.08333	122596
16.09145	104885
16.09957	98151
16.10770	86894
16.11582	83123
16.12393	85343
16.13207	86301
16.14018	99485
16.14832	109494
16.15643	123678
16.16455	155606
16.17268	180038
16.18080	171559
16.18893	164745
16.19705	146069
16.20517	127985
16.21330	108217
16.22142	105634
16.22955	103190
16.23767	106658
16.24578	106247
16.25392	107131
16.26203	98130
16.27015	90570
16.27828	81849
16.28640	78951
16.29453	87973
16.30265	94463
16.31077	103759
16.31890	127036
16.32702	142723
16.33515	158678
16.34327	159566
16.35138	148445
16.35952	145529
16.36763	147430
16.37577	138237
16.38388	133511
16.39200	121886
16.40013	109983
16.40825	102729
16.41637	92306
16.42450	91548
16.43262	82647
16.44075	85986
16.44887	88777
16.45698	115207
16.46512	211739
16.47323	485070
16.48137	1200692
16.48948	2535434
16.49760	4259040
16.50573	5904568
16.51385	6430813
16.52198	5722458
16.53010	4173789
16.53822	2599278
16.54635	1512056
16.55447	918325
16.56258	614282
16.57072	469803
16.57883	399805
16.58697	362819
16.59508	317238
16.60320	302987
16.61133	276231
16.61945	264757
16.62758	246642
16.63570	225805
16.64382	204133
16.65195	188174
16.66007	183982
16.66818	170523
16.67632	165490
16.68443	155295
16.69257	152439
16.70068	150425
16.70880	131431
16.71693	127752
16.72505	118737
16.73318	108152
16.74130	107591
16.74942	98832
16.75755	103326
16.76567	110341
16.77380	132853
16.78192	163060
16.79003	200330
16.79817	198691
16.80628	177803
16.81440	143308
16.82253	122579
16.83065	98108
16.83878	84492
16.84690	77362
16.85502	73729
16.86315	74332
16.87127	73022
16.87940	70215
16.88752	68901
16.89563	64510
16.90377	66266
16.91188	63959
16.92000	62852
16.92813	63162
16.93625	64855
16.94438	69588
16.95250	67900
16.96062	68268
16.96875	69497
16.97687	64489
16.98500	62764
16.99312	67528
17.00123	65581
17.00937	67193
17.01748	72468
17.02562	70163
17.03373	74659
17.04185	79766
17.04998	85951
17.05810	99742
17.06622	130784
17.07435	164888
17.08247	189323
17.09060	176205
17.09872	159061
17.10683	128533
17.11497	103410
17.12308	84402
17.13122	86538
17.13933	81810
17.14745	88998
17.15558	88435
17.16370	90711
17.17183	92965
17.17995	92322
17.18807	93290
17.19620	86943
17.20432	92485
17.21243	82794
17.22057	73142
17.22868	72037
17.23682	67561
17.24493	64507
17.25305	67212
17.26118	64913
17.26930	69548
17.27743	76098
17.28555	77204
17.29367	71794
17.30180	69544
17.30992	63917
17.31803	66838
17.32617	69052
17.33428	87511
17.34242	112533
17.35053	145394
17.35865	203029
17.36678	230757
17.37490	244643
17.38303	237585
17.39115	225170
17.39927	207047
17.40740	188473
17.41552	174992
17.42365	164793
17.43177	162079
17.43988	165036
17.44802	162789
17.45613	158018
17.46425	156019
17.47238	144595
17.48050	133407
17.48863	115466
17.49675	112435
17.50487	103025
17.51300	100359
17.52112	93533
17.52925	95964
17.53737	94890
17.54548	95869
17.55362	96358
17.56173	96096
17.56987	102840
17.57798	161366
17.58610	278673
17.59423	629940
17.60235	1417525
17.61047	2720563
17.61860	4278954
17.62672	5658465
17.63485	6239364
17.64297	5739589
17.65108	4388207
17.65922	2907837
17.66733	1750595
17.67547	979720
17.68358	560893
17.69170	347531
17.69983	251524
17.70795	206885
17.71607	192683
17.72420	195531
17.73232	179716
17.74045	169041
17.74857	162498
17.75668	152031
17.76482	138923
17.77293	127322
17.78107	120909
17.78918	107258
17.79730	101092
17.80543	94985
17.81355	92020
17.82168	88889
17.82980	91949
17.83792	90907
17.84605	94035
17.85417	111823
17.86228	132893
17.87042	169205
17.87853	218163
17.88667	267888
17.89478	300521
17.90290	282672
17.91103	236914
17.91915	180112
17.92728	135449
17.93540	112182
17.94352	96322
17.95165	89853
17.95977	80491
17.96788	81970
17.97602	83005
17.98413	78624
17.99227	74441
18.00038	72092
18.00850	73143
18.01663	73355
18.02475	86897
18.03288	117505
18.04100	172265
18.04912	249663
18.05725	359641
18.06537	461768
18.07350	612980
18.08162	971442
18.08973	1915634
18.09787	3689816
18.10598	6274522
18.11410	8808551
18.12223	1.015779E+07
18.13035	1.011592E+07
18.13848	8466573
18.14660	6390380
18.15472	4646470
18.16285	3565915
18.17097	2856723
18.17910	2350455
18.18722	1993030
18.19533	1744201
18.20347	1487012
18.21158	1343766
18.21972	1177087
18.22783	1060958
18.23595	970078
18.24408	913409
18.25220	807633
18.26032	761765
18.26845	682503
18.27657	649263
18.28470	582089
18.29282	498743
18.30093	397477
18.30907	333526
18.31718	248492
18.32532	201601
18.33343	168642
18.34155	150663
18.34968	132730
18.35780	126547
18.36592	123126
18.37405	121314
18.38217	113082
18.39030	114184
18.39842	105090
18.40653	112142
18.41467	112924
18.42278	114721
18.43092	126912
18.43903	141239
18.44715	163189
18.45528	207481
18.46340	286039
18.47153	427993
18.47965	685691
18.48777	1132621
18.49590	1673843
18.50402	2083677
18.51213	2156396
18.52027	1936027
18.52838	1482317
18.53652	972251
18.54463	596097
18.55275	355054
18.56088	223672
18.56900	163674
18.57713	138767
18.58525	115047
18.59337	111715
18.60150	108224
18.60962	109395
18.61775	117480
18.62587	127326
18.63398	139607
18.64212	147378
18.65023	151304
18.65835	147685
18.66648	136228
18.67460	122906
18.68273	106142
18.69085	101817
18.69897	94958
18.70710	89784
18.71522	92077
18.72335	83818
18.73147	77271
18.73958	81527
18.74772	78633
18.75583	76793
18.76395	74844
18.77208	76840
18.78020	74039
18.78833	75940
18.79645	73508
18.80457	74049
18.81270	76108
18.82082	81803
18.82895	79788
18.83707	87858
18.84518	107242
18.85332	158447
18.86143	212743
18.86957	253694
18.87768	271612
18.88580	278897
18.89393	290950
18.90205	294653
18.91017	307170
18.91830	302805
18.92642	312781
18.93455	318781
18.94267	330435
18.95078	348226
18.95892	367642
18.96703	403268
18.97517	440019
18.98328	445673
18.99140	440525
18.99953	441587
19.00765	413555
19.01578	376089
19.02390	344183
19.03202	325543
19.04015	311548
19.04827	301743
19.05638	301826
19.06452	289992
19.07263	281567
19.08077	282079
19.08888	276475
19.09700	291586
19.10513	298489
19.11325	331775
19.12138	344400
19.12950	376694
19.13762	385855
19.14575	360625
19.15387	336331
19.16198	303822
19.17012	295274
19.17823	283344
19.18637	273181
19.19448	267119
19.20260	266558
19.21073	254349
19.21885	261094
19.22698	264027
19.23510	255786
19.24322	249215
19.25135	250713
19.25947	256508
19.26760	245740
19.27572	260183
19.28383	252280
19.29197	244489
19.30008	253747
19.30820	262281
19.31633	264233
19.32445	272685
19.33258	270166
19.34070	274230
19.34882	264486
19.35695	251076
19.36507	267549
19.37320	316569
19.38132	383278
19.38943	479706
19.39757	584479
19.40568	595260
19.41380	549460
19.42193	478467
19.43005	431750
19.43818	351965
19.44630	305225
19.45442	299547
19.46255	273917
19.47067	272225
19.47880	266263
19.48692	265877
19.49503	264822
19.50317	257940
19.51128	270166
19.51942	290129
19.52753	331400
19.53565	362059
19.54378	409925
19.55190	417606
19.56002	422655
19.56815	399439
19.57627	358554
19.58440	327549
19.59252	289886
19.60063	267147
19.60877	245565
19.61688	226604
19.62502	212628
19.63313	210795
19.64125	207191
19.64938	231064
19.65750	264922
19.66563	342512
19.67375	493987
19.68187	710211
19.69000	937485
19.69812	1119433
19.70623	1184967
19.71437	1130910
19.72248	989382
19.73062	862440
19.73873	696113
19.74685	582761
19.75498	508523
19.76310	421273
19.77123	388506
19.77935	338107
19.78747	316079
19.79560	331137
19.80372	378338
19.81183	424109
19.81997	484134
19.82808	517880
19.83622	508367
19.84433	481701
19.85245	407571
19.86058	344651
19.86870	304737
19.87683	279885
19.88495	292582
19.89307	367039
19.90120	508120
19.90932	712233
19.91745	906594
19.92557	990182
19.93368	996464
19.94182	881219
19.94993	748127
19.95805	572094
19.96618	463642
19.97430	408329
19.98243	362659
19.99055	322073
19.99867	320077
20.00680	303826
20.01492	290491
20.02305	285894
20.03117	268260
20.03928	278226
20.04742	274917
20.05553	257080
20.06367	262948
20.07178	261884
20.07990	274434
20.08803	312658
20.09615	360320
20.10427	417740
20.11240	440770
20.12052	441007
20.12865	411662
20.13677	366404
20.14488	311915
20.15302	287949
20.16113	269770
20.16927	298626
20.17738	374693
20.18550	537192
20.19363	737787
20.20175	1012322
20.20987	1234347
20.21800	1337337
20.22612	1297028
20.23425	1181591
20.24237	981517
20.25048	780276
20.25862	677843
20.26673	641022
20.27487	761139
20.28298	958156
20.29110	1175558
20.29923	1403712
20.30735	1531320
20.31548	1474897
20.32360	1309115
20.33172	1050412
20.33985	777402
20.34797	585802
20.35608	436524
20.36422	336762
20.37233	271491
20.38047	246087
20.38858	227923
20.39670	220396
20.40483	204399
20.41295	194659
20.42108	187456
20.42920	184639
20.43732	191385
20.44545	211828
20.45357	247303
20.46168	285880
20.46982	317242
20.47793	334437
20.48607	318954
20.49418	300655
20.50230	281822
20.51043	244268
20.51855	211953
20.52668	191043
20.53480	192197
20.54292	186368
20.55105	190654
20.55917	193501
20.56730	199613
20.57542	201335
20.58353	192076
20.59167	182949
20.59978	172214
20.60790	170261
20.61603	162524
20.62415	162567
20.63228	162788
20.64040	156730
20.64852	157763
20.65665	162153
20.66477	175007
20.67290	178049
20.68102	180868
20.68913	183128
20.69727	178734
20.70538	171943
20.71352	162662
20.72163	151985
20.72975	145278
20.73788	142808
20.74600	149386
20.75412	147463
20.76225	151689
20.77037	166514
20.77850	173575
20.78662	204088
20.79473	229004
20.80287	313581
20.81098	498102
20.81912	870470
20.82723	1400522
20.83535	1963203
20.84348	2236971
20.85160	2161275
20.85972	1739153
20.86785	1227912
20.87597	754104
20.88410	461685
20.89222	301393
20.90033	228250
20.90847	199803
20.91658	188519
20.92472	184534
20.93283	180100
20.94095	184249
20.94908	192508
20.95720	204546
20.96533	207607
20.97345	205635
20.98157	199409
20.98970	179176
20.99782	168717
21.00593	156961
21.01407	156815
21.02218	152079
21.03032	144789
21.03843	153598
21.04655	160597
21.05468	162784
21.06280	165646
21.07093	162409
21.07905	161064
21.08717	153136
21.09530	150414
21.10342	142332
21.11155	152757
21.11967	142382
21.12778	144994
21.13592	142473
21.14403	152761
21.15215	188602
21.16028	242467
21.16840	349845
21.17653	492035
21.18465	576652
21.19277	605075
21.20090	565974
21.20902	468107
21.21715	366431
21.22527	295778
21.23338	238494
21.24152	219456
21.24963	192131
21.25775	185256
21.26588	162029
21.27400	158517
21.28213	143614
21.29025	147138
21.29837	136726
21.30650	135154
21.31462	132659
21.32275	128600
21.33087	126620
21.33898	128629
21.34712	118809
21.35523	124712
21.36337	123632
21.37148	130449
21.37960	126222
21.38773	128581
21.39585	142214
21.40397	167708
21.41210	212320
21.42022	264094
21.42835	333979
21.43647	384018
21.44458	404095
21.45272	387183
21.46083	351125
21.46897	294776
21.47708	247526
21.48520	220593
21.49333	195609
21.50145	180996
21.50958	167080
21.51770	150246
21.52582	140053
21.53395	139441
21.54207	124807
21.55018	131454
21.55832	124202
21.56643	125677
21.57457	121939
21.58268	128126
21.59080	149835
21.59893	159473
21.60705	189214
21.61518	216238
21.62330	216046
21.63142	212162
21.63955	191403
21.64767	195671
21.65578	210165
21.66392	242140
21.67203	274496
21.68017	318088
21.68828	347178
21.69640	378182
21.70453	369558
21.71265	363329
21.72078	324768
21.72890	270865
21.73702	222001
21.74515	182157
21.75327	163986
21.76140	153936
21.76952	136847
21.77763	139211
21.78577	136914
21.79388	131599
21.80200	132455
21.81013	127932
21.81825	127634
21.82638	129625
21.83450	135945
21.84262	143151
21.85075	168043
21.85887	189503
21.86700	224460
21.87512	241057
21.88323	244542
21.89137	231061
21.89948	205945
21.90762	183174
21.91573	173601
21.92385	158447
21.93198	154865
21.94010	146397
21.94822	137744
21.95635	134104
21.96447	126266
21.97260	121650
21.98072	109757
21.98883	105527
21.99697	96085
22.00508	100288
22.01322	104525
22.02133	92985
22.02945	102962
22.03758	110943
22.04570	116433
22.05382	125745
22.06195	123370
22.07007	128318
22.07820	135608
22.08632	122587
22.09443	116603
22.10257	115543
22.11068	112574
22.11882	113431
22.12693	106953
22.13505	105198
22.14318	99484
22.15130	99498
22.15943	92313
22.16755	96626
22.17567	93165
22.18380	95022
22.19192	89019
22.20003	88601
22.20817	86147
22.21628	88788
22.22442	92044
22.23253	91042
22.24065	101323
22.24878	108602
22.25690	119759
22.26503	122126
22.27315	123427
22.28127	126552
22.28940	127081
22.29752	136037
22.30563	144681
22.31377	152779
22.32188	158863
22.33002	149037
22.33813	148396
22.34625	129018
22.35438	128063
22.36250	118971
22.37063	118678
22.37875	109933
22.38687	109718
22.39500	115365
22.40312	145347
22.41125	195954
22.41937	283465
22.42748	432083
22.43562	568960
22.44373	686592
22.45185	704717
22.45998	608507
22.46810	487520
22.47623	359217
22.48435	260901
22.49247	207685
22.50060	204020
22.50872	223357
22.51685	255412
22.52497	293008
22.53308	307363
22.54122	305342
22.54933	294069
22.55747	258801
22.56558	226829
22.57370	193530
22.58183	170835
22.58995	152842
22.59807	134832
22.60620	124860
22.61432	114935
22.62245	104998
22.63057	104679
22.63868	98679
22.64682	101761
22.65493	102205
22.66307	108560
22.67118	107380
22.67930	121155
22.68743	123143
22.69555	126167
22.70367	137307
22.71180	172903
22.71992	233979
22.72805	284025
22.73617	341168
22.74428	360737
22.75242	354240
22.76053	323566
22.76867	259600
22.77678	220484
22.78490	201021
22.79303	207490
22.80115	253830
22.80928	345345
22.81740	471875
22.82552	600241
22.83365	686630
22.84177	679649
22.84988	601876
22.85802	515179
22.86613	404808
22.87427	320878
22.88238	278209
22.89050	266906
22.89863	273509
22.90675	301617
22.91488	323215
22.92300	357032
22.93112	379963
22.93925	442711
22.94737	480853
22.95550	503864
22.96362	494239
22.97173	426658
22.97987	339365
22.98798	255887
22.99610	210396
23.00423	173373
23.01235	143581
23.02048	133726
23.02860	112034
23.03672	111751
23.04485	104592
23.05297	100622
23.06110	102950
23.06922	102110
23.07733	110710
23.08547	112976
23.09358	119795
23.10170	122856
23.10983	117684
23.11795	116297
23.12608	113687
23.13420	105059
23.14232	98973
23.15045	100333
23.15857	99220
23.16670	97352
23.17482	106504
23.18293	101470
23.19107	92892
23.19918	92375
23.20732	89095
23.21543	78972
23.22355	80397
23.23168	77403
23.23980	79174
23.24792	84180
23.25605	94354
23.26417	109066
23.27230	131586
23.28042	170943
23.28853	195099
23.29667	196364
23.30478	186919
23.31292	165153
23.32103	137998
23.32915	116383
23.33728	105016
23.34540	119013
23.35352	153545
23.36165	204394
23.36977	276651
23.37790	368881
23.38602	441640
23.39413	456631
23.40227	431136
23.41038	362457
23.41852	285498
23.42663	211448
23.43475	173054
23.44288	149510
23.45100	131695
23.45913	122634
23.46725	113599
23.47537	103970
23.48350	103685
23.49162	96417
23.49973	100802
23.50787	96780
23.51598	98859
23.52412	92303
23.53223	92728
23.54035	94014
23.54848	97183
23.55660	98508
23.56473	103585
23.57285	114341
23.58097	133336
23.58910	172514
23.59722	214666
23.60535	267257
23.61347	335365
23.62158	393978
23.62972	397115
23.63783	372343
23.64595	299798
23.65408	230421
23.66220	177499
23.67033	141509
23.67845	129546
23.68657	131655
23.69470	136997
23.70282	122372
23.71095	116980
23.71907	107353
23.72718	97438
23.73532	96631
23.74343	86514
23.75155	81323
23.75968	89177
23.76780	106176
23.77593	175056
23.78405	356749
23.79217	790012
23.80030	1455343
23.80842	2193414
23.81655	2690935
23.82467	2851574
23.83278	2501082
23.84092	1990261
23.84903	1445447
23.85717	1065697
23.86528	788519
23.87340	609321
23.88153	502335
23.88965	445469
23.89777	393905
23.90590	368855
23.91402	381056
23.92215	411959
23.93027	472225
23.93838	518110
23.94652	520922
23.95463	494706
23.96277	408547
23.97088	334425
23.97900	274019
23.98713	237779
23.99525	218075
24.00338	202788
24.01150	184915
24.01962	171022
24.02775	173767
24.03587	177543
24.04398	180958
24.05212	178674
24.06023	187237
24.06837	175856
24.07648	176848
24.08460	158096
24.09273	152454
24.10085	147039
24.10898	137250
24.11710	131676
24.12522	128911
24.13335	127331
24.14147	136256
24.14958	148587
24.15772	154042
24.16583	182162
24.17397	199608
24.18208	225473
24.19020	216138
24.19833	227652
24.20645	220982
24.21458	229105
24.22270	219044
24.23082	214492
24.23895	195589
24.24707	178865
24.25520	180396
24.26332	162430
24.27143	160972
24.27957	144207
24.28768	133976
24.29580	133152
24.30393	123778
24.31205	132310
24.32018	133194
24.32830	133464
24.33642	138498
24.34455	146422
24.35267	148421
24.36080	142522
24.36892	141084
24.37703	130548
24.38517	121515
24.39328	117651
24.40142	115573
24.40953	130405
24.41765	132009
24.42578	152911
24.43390	167860
24.44202	173114
24.45015	169839
24.45827	154038
24.46640	148713
24.47452	134574
24.48263	123813
24.49077	119904
24.49888	129716
24.50702	130066
24.51513	128662
24.52325	130217
24.53138	145425
24.53950	152381
24.54762	167237
24.55575	195878
24.56387	225020
24.57200	252275
24.58012	271334
24.58823	273064
24.59637	266506
24.60448	241013
24.61262	204301
24.62073	191816
24.62885	169996
24.63698	149536
24.64510	135807
24.65323	120757
24.66135	114792
24.66947	113477
24.67760	112904
24.68572	108244
24.69383	112506
24.70197	106928
24.71008	119823
24.71822	110819
24.72633	119242
24.73445	118125
24.74258	124492
24.75070	134132
24.75883	131842
24.76695	140986
24.77507	140990
24.78320	146817
24.79132	169768
24.79943	183472
24.80757	197184
24.81568	205615
24.82382	196897
24.83193	194902
24.84005	199226
24.84818	224457
24.85630	288626
24.86443	418648
24.87255	602794
24.88067	882810
24.88880	1299277
24.89692	1919189
24.90505	2599957
24.91317	3181244
24.92128	3318201
24.92942	2955438
24.93753	2252020
24.94565	1515396
24.95378	940169
24.96190	562922
24.97003	335030
24.97815	229823
24.98627	179457
24.99440	156458
25.00252	142995
25.01065	133731
25.01877	134316
25.02688	130750
25.03502	130555
25.04313	124546
25.05127	118717
25.05938	116656
25.06750	107966
25.07563	113887
25.08375	111727
25.09187	116917
25.10000	121170
25.10812	157879
25.11625	262300
25.12437	628391
25.13248	1555370
25.14062	3432735
25.14873	6614753
25.15687	1.058462E+07
25.16498	1.446066E+07
25.17310	1.635016E+07
25.18123	1.548276E+07
25.18935	1.242065E+07
25.19747	8267647
25.20560	4853127
25.21372	2604211
25.22185	1310180
25.22997	701613
25.23808	418501
25.24622	317152
25.25433	290605
25.26247	355988
25.27058	468759
25.27870	641138
25.28683	759680
25.29495	841176
25.30308	778503
25.31120	678594
25.31932	529353
25.32745	379126
25.33557	267885
25.34368	195342
25.35182	162347
25.35993	151456
25.36807	137162
25.37618	123297
25.38430	111034
25.39243	104966
25.40055	105128
25.40868	93821
25.41680	97109
25.42492	88062
25.43305	90316
25.44117	87173
25.44930	92707
25.45742	90064
25.46553	93567
25.47367	87233
25.48178	85782
25.48990	89860
25.49803	97568
25.50615	110216
25.51428	125540
25.52240	139428
25.53052	138753
25.53865	119748
25.54677	107161
25.55490	98298
25.56302	88765
25.57113	87766
25.57927	87898
25.58738	92406
25.59550	98449
25.60363	93033
25.61175	94240
25.61988	91628
25.62800	89681
25.63612	83504
25.64425	79535
25.65237	83761
25.66050	80571
25.66862	75646
25.67673	81294
25.68487	82454
25.69298	86959
25.70112	88157
25.70923	102537
25.71735	102379
25.72548	108438
25.73360	108076
25.74172	105912
25.74985	104177
25.75797	96868
25.76610	95020
25.77422	85616
25.78233	80904
25.79047	76360
25.79858	79952
25.80672	77389
25.81483	77452
25.82295	77796
25.83108	75397
25.83920	80828
25.84732	80736
25.85545	84648
25.86357	79029
25.87170	81391
25.87982	78021
25.88793	75611
25.89607	81892
25.90418	86859
25.91232	100491
25.92043	146832
25.92855	217613
25.93668	298080
25.94480	346713
25.95293	392800
25.96105	417922
25.96917	424472
25.97730	430966
25.98542	418699
25.99353	416175
26.00167	422730
26.00978	413682
26.01792	411661
26.02603	402217
26.03415	395209
26.04228	414735
26.05040	402308
26.05853	396805
26.06665	409236
26.07477	400529
26.08290	420853
26.09102	418716
26.09915	425464
26.10727	422719
26.11538	441798
26.12352	435639
26.13163	426638
26.13975	413118
26.14788	421966
26.15600	423489
26.16413	425762
26.17225	437673
26.18037	425256
26.18850	424936
26.19662	426817
26.20475	423280
26.21287	406615
26.22098	409237
26.22912	396296
26.23723	392457
26.24537	394861
26.25348	400483
26.26160	388513
26.26973	381827
26.27785	372629
26.28597	371933
26.29410	373083
26.30222	361149
26.31035	363968
26.31847	365911
26.32658	355152
26.33472	360481
26.34283	344402
26.35097	352533
26.35908	354883
26.36720	351677
26.37533	377182
26.38345	425249
26.39157	504381
26.39970	592294
26.40782	713015
26.41595	788872
26.42407	839840
26.43218	817880
26.44032	764370
26.44843	651359
26.45657	570386
26.46468	489791
26.47280	416114
26.48093	402310
26.48905	382474
26.49718	373835
26.50530	366479
26.51342	350677
26.52155	338837
26.52967	329532
26.53778	325483
26.54592	320930
26.55403	303068
26.56217	294622
26.57028	292161
26.57840	294245
26.58653	289105
26.59465	278670
26.60278	284755
26.61090	274750
26.61902	284390
26.62715	267204
26.63527	278412
26.64338	271050
26.65152	274186
26.65963	270389
26.66777	267674
26.67588	263988
26.68400	269152
26.69213	269320
26.70025	261921
26.70838	265768
26.71650	258514
26.72462	257330
26.73275	256062
26.74087	254876
26.74900	252669
26.75712	247135
26.76523	250453
26.77337	244694
26.78148	253946
26.78960	248330
26.79773	250257
26.80585	255177
26.81398	256310
26.82210	252971
26.83022	268670
26.83835	262030
26.84647	255009
26.85460	256967
26.86272	254237
26.87083	255971
26.87897	241994
26.88708	246690
26.89522	238153
26.90333	239062
26.91145	234048
26.91958	229124
26.92770	228757
26.93582	234227
26.94395	225324
26.95207	217449
26.96020	221464
26.96832	227396
26.97643	241300
26.98457	257954
26.99268	308433
27.00082	438775
27.00893	654859
27.01705	1015290
27.02518	1509505
27.03330	2077279
27.04142	2371951
27.04955	2328853
27.05767	2093838
27.06580	1690661
27.07392	1266312
27.08203	991246
27.09017	779516
27.09828	644443
27.10642	549055
27.11453	492976
27.12265	462757
27.13078	424977
27.13890	412538
27.14703	400699
27.15515	390210
27.16327	365807
27.17140	375539
27.17952	372096
27.18763	398438
27.19577	425345
27.20388	464946
27.21202	485671
27.22013	458582
27.22825	434502
27.23638	390211
27.24450	350447
27.25263	325309
27.26075	298939
27.26887	280319
27.27700	260532
27.28512	260386
27.29325	241206
27.30137	233441
27.30948	229818
27.31762	230041
27.32573	219475
27.33385	221163
27.34198	212699
27.35010	221877
27.35823	222262
27.36635	231964
27.37447	231540
27.38260	229364
27.39072	232044
27.39885	227166
27.40697	226501
27.41508	214774
27.42322	208316
27.43133	200823
27.43945	200375
27.44758	198162
27.45570	198243
27.46383	191115
27.47195	189183
27.48007	188852
27.48820	178165
27.49632	172235
27.50445	177087
27.51257	171813
27.52068	168482
27.52882	167007
27.53693	168905
27.54507	178826
27.55318	165391
27.56130	171636
27.56943	182743
27.57755	181903
27.58567	196141
27.59380	216733
27.60192	260216
27.61005	303865
27.61817	337595
27.62628	343854
27.63442	315182
27.64253	280488
27.65067	239593
27.65878	207030
27.66690	189105
27.67503	179690
27.68315	170077
27.69127	164088
27.69940	172234
27.70752	177112
27.71565	180412
27.72377	177331
27.73188	171009
27.74002	159452
27.74813	152964
27.75627	150889
27.76438	144805
27.77250	142963
27.78063	147891
27.78875	154562
27.79688	156852
27.80500	167404
27.81312	170369
27.82125	167914
27.82937	168721
27.83748	156325
27.84562	149444
27.85373	148756
27.86187	140684
27.86998	136748
27.87810	133370
27.88623	131737
27.89435	132725
27.90248	130253
27.91060	126711
27.91872	134360
27.92685	131537
27.93497	128278
27.94310	126782
27.95122	127276
27.95933	118772
27.96747	116875
27.97558	120411
27.98370	121101
27.99183	120809
27.99995	123455
28.00808	120858
28.01620	127620
28.02432	137178
28.03245	145059
28.04057	156669
28.04870	181021
28.05682	216542
28.06493	231441
28.07307	231115
28.08118	248529
28.08930	218546
28.09743	189301
28.10555	171844
28.11368	148611
28.12180	128603
28.12992	115107
28.13805	115058
28.14617	114783
28.15430	111059
28.16242	104992
28.17053	109606
28.17867	117926
28.18678	114927
28.19492	116540
28.20303	133807
28.21115	157287
28.21928	199209
28.22740	255106
28.23552	302477
28.24365	323335
28.25177	331705
28.25990	314198
28.26802	270297
28.27613	219076
28.28427	174183
28.29238	142868
28.30052	132723
28.30863	123690
28.31675	145252
28.32488	165215
28.33300	191595
28.34113	222672
28.34925	236812
28.35737	263990
28.36550	276951
28.37362	279415
28.38173	298739
28.38987	337817
28.39798	336218
28.40612	334682
28.41423	334221
28.42235	337734
28.43048	321059
28.43860	292652
28.44673	276189
28.45485	238910
28.46297	205518
28.47110	183311
28.47922	182616
28.48733	173910
28.49547	171654
28.50358	162229
28.51172	170774
28.51983	172376
28.52795	179002
28.53608	179537
28.54420	168709
28.55233	158672
28.56045	145297
28.56857	127594
28.57670	122931
28.58482	116840
28.59295	109505
28.60107	113420
28.60918	113217
28.61732	114104
28.62543	116826
28.63355	121492
28.64168	124768
28.64980	144084
28.65793	134467
28.66605	140486
28.67417	138375
28.68230	139496
28.69042	133247
28.69855	132323
28.70667	126413
28.71478	117467
28.72292	109881
28.73103	107430
28.73917	101827
28.74728	98230
28.75540	100911
28.76353	99322
28.77165	103589
28.77977	105564
28.78790	115341
28.79602	120263
28.80415	129881
28.81227	146996
28.82038	164737
28.82852	165431
28.83663	179500
28.84477	160529
28.85288	158440
28.86100	138023
28.86913	138269
28.87725	127178
28.88537	123639
28.89350	141135
28.90162	165463
28.90975	192151
28.91787	209251
28.92598	215812
28.93412	206676
28.94223	181121
28.95037	146800
28.95848	126251
28.96660	116129
28.97473	113139
28.98285	110095
28.99098	108916
28.99910	103913
29.00722	100411
29.01535	98443
29.02347	102867
29.03158	99114
29.03972	93518
29.04783	99596
29.05597	97861
29.06408	89014
29.07220	97601
29.08033	99090
29.08845	101359
29.09658	111213
29.10470	110081
29.11282	120804
29.12095	114359
29.12907	117071
29.13718	104697
29.14532	101112
29.15343	96257
29.16157	86724
29.16968	92511
29.17780	86607
29.18593	97131
29.19405	105353
29.20218	122124
29.21030	157820
29.21842	232070
29.22655	279529
29.23467	337207
29.24280	358428
29.25092	337331
29.25903	283994
29.26717	251311
29.27528	212685
29.28340	181384
29.29153	153578
29.29965	129276
29.30778	124522
29.31590	109704
29.32402	96330
29.33215	91674
29.34027	93345
29.34840	87313
29.35652	88734
29.36463	87148
29.37277	89524
29.38088	83703
29.38902	82956
29.39713	85975
29.40525	79752
29.41338	85481
29.42150	89601
29.42962	89919
29.43775	94397
29.44587	90921
29.45400	95649
29.46212	87998
29.47023	89172
29.47837	90334
29.48648	89467
29.49462	84231
29.50273	85110
29.51085	89534
29.51898	93013
29.52710	98865
29.53522	104837
29.54335	103614
29.55147	95839
29.55960	95726
29.56772	95651
29.57583	87362
29.58397	89683
29.59208	87330
29.60022	80755
29.60833	85620
29.61645	80827
29.62458	79016
29.63270	82587
29.64083	85285
29.64895	83581
29.65707	81796
29.66520	82048
29.67332	85760
29.68143	90335
29.68957	85401
29.69768	105453
29.70582	111352
29.71393	116556
29.72205	121577
29.73018	123067
29.73830	113448
29.74643	101364
29.75455	92658
29.76267	80546
29.77080	86525
29.77892	77383
29.78705	77281
29.79517	74987
29.80328	75852
29.81142	70801
29.81953	71678
29.82765	74535
29.83578	71343
29.84390	75302
29.85203	73507
29.86015	81450
29.86827	74685
29.87640	75894
29.88452	89229
29.89265	111495
29.90077	134577
29.90888	179224
29.91702	215843
29.92513	236729
29.93325	224599
29.94138	189970
29.94950	155406
29.95763	115606
29.96575	95978
29.97387	96071
29.98200	88151
29.99012	93814
29.99825	99638
30.00637	112464
30.01448	125317
30.02262	138042
30.03073	150089
30.03887	172491
30.04698	188447
30.05510	179726
30.06323	178571
30.07135	187697
30.07947	173779
30.08760	171210
30.09572	165031
30.10385	164834
30.11197	164371
30.12008	145195
30.12822	137786
30.13633	138806
30.14447	137820
30.15258	136339
30.16070	121677
30.16883	115782
30.17695	117210
30.18507	116186
30.19320	114219
30.20132	118348
30.20945	119833
30.21757	122963
30.22568	123386
30.23382	121918
30.24193	122858
30.25007	114084
30.25818	108208
30.26630	100844
30.27443	95117
30.28255	95350
30.29068	87335
30.29880	83935
30.30692	90124
30.31505	86635
30.32317	87780
30.33128	88116
30.33942	87454
30.34753	86524
30.35567	86446
30.36378	91443
30.37190	85539
30.38003	89150
30.38815	83588
30.39628	87751
30.40440	83474
30.41252	87079
30.42065	84471
30.42877	74615
30.43690	77151
30.44502	79731
30.45313	80387
30.46127	81324
30.46938	78204
30.47750	73650
30.48563	82452
30.49375	77135
30.50188	80194
30.51000	84301
30.51812	85079
30.52625	82748
30.53437	80103
30.54250	83845
30.55062	80290
30.55873	77594
30.56687	77829
30.57498	83969
30.58310	84400
30.59123	87802
30.59935	85887
30.60748	79831
30.61560	82838
30.62372	78909
30.63185	77415
30.63997	81452
30.64810	79813
30.65622	76136
30.66433	77609
30.67247	75998
30.68058	72559
30.68872	73316
30.69683	73864
30.70495	70922
30.71308	74491
30.72120	72208
30.72932	69841
30.73745	75383
30.74557	75434
30.75370	75527
30.76182	73248
30.76993	76157
30.77807	75101
30.78618	80304
30.79432	104185
30.80243	129613
30.81055	186897
30.81868	249115
30.82680	312275
30.83493	329977
30.84305	312642
30.85117	265143
30.85930	203162
30.86742	139631
30.87553	116306
30.88367	100272
30.89178	86556
30.89992	92180
30.90803	86914
30.91615	82482
30.92428	79318
30.93240	79316
30.94053	72600
30.94865	74982
30.95677	74715
30.96490	74214
30.97302	74436
30.98113	73061
30.98927	78051
30.99738	76761
31.00552	76570
31.01363	75258
31.02175	78288
31.02988	77058
31.03800	78381
31.04613	77141
31.05425	73696
31.06237	77051
31.07050	79499
31.07862	79394
31.08675	77331
31.09487	83458
31.10298	93605
31.11112	102247
31.11923	125152
31.12735	138915
31.13548	132005
31.14360	136884
31.15173	122620
31.15985	124660
31.16797	123049
31.17610	116983
31.18422	128041
31.19235	129705
31.20047	134331
31.20858	151247
31.21672	175009
31.22483	206656
31.23295	238967
31.24108	280831
31.24920	283778
31.25733	266025
31.26545	216751
31.27357	179429
31.28170	138044
31.28982	115873
31.29795	89247
31.30607	86904
31.31418	85384
31.32232	85560
31.33043	94545
31.33857	103371
31.34668	112674
31.35480	121228
31.36293	125963
31.37105	123086
31.37917	106293
31.38730	94585
31.39542	83829
31.40355	86403
31.41167	82734
31.41978	75365
31.42792	72667
31.43603	75329
31.44417	77455
31.45228	79265
31.46040	81646
31.46853	81473
31.47665	80684
31.48478	76669
31.49290	76879
31.50102	79768
31.50915	83409
31.51727	87117
31.52538	92216
31.53352	97613
31.54163	99474
31.54977	101996
31.55788	100447
31.56600	99695
31.57413	93021
31.58225	93858
31.59038	93361
31.59850	80456
31.60662	77754
31.61475	81174
31.62287	75725
31.63100	74812
31.63912	70679
31.64723	76617
31.65537	74901
31.66348	80642
31.67160	95977
31.67973	104141
31.68785	120574
31.69598	124600
31.70410	127113
31.71222	117467
31.72035	109645
31.72847	99515
31.73660	89810
31.74472	80468
31.75283	73160
31.76097	78826
31.76908	68525
31.77720	71888
31.78533	69113
31.79345	70946
31.80158	76164
31.80970	76589
31.81782	72869
31.82595	74015
31.83407	74814
31.84220	75287
31.85032	73266
31.85843	76768
31.86657	82716
31.87468	84870
31.88282	91477
31.89093	97173
31.89905	93061
31.90718	84059
31.91530	82926
31.92342	78553
31.93155	81122
31.93967	76368
31.94780	85099
31.95592	84224
31.96403	94082
31.97217	106820
31.98028	122231
31.98842	138022
31.99653	141587
32.00465	157461
32.01278	158168
32.02090	166480
32.02902	172374
32.03715	172167
32.04527	163159
32.05340	146414
32.06152	131202
32.06963	119745
32.07777	112256
32.08588	103334
32.09402	103008
32.10213	103196
32.11025	105057
32.11838	97007
32.12650	102887
32.13463	100650
32.14275	90771
32.15087	87740
32.15900	85614
32.16712	82519
32.17523	81369
32.18337	80366
32.19148	76261
32.19962	78713
32.20773	76010
32.21585	73900
32.22398	78087
32.23210	79500
32.24023	78462
32.24835	75522
32.25647	76456
32.26460	74973
32.27272	73103
32.28085	78465
32.28897	82297
32.29708	80428
32.30522	78980
32.31333	79709
32.32145	72683
32.32958	73468
32.33770	71799
32.34583	77978
32.35395	72739
32.36207	72871
32.37020	76966
32.37832	76614
32.38645	86901
32.39457	73234
32.40268	71415
32.41082	70437
32.41893	72910
32.42705	67226
32.43518	70431
32.44330	72256
32.45143	74629
32.45955	74259
32.46767	69571
32.47580	72570
32.48392	66253
32.49205	71361
32.50017	69726
32.50828	68418
32.51642	68329
32.52453	71350
32.53267	75112
32.54078	73031
32.54890	79095
32.55703	69468
32.56515	75556
32.57327	70496
32.58140	73734
32.58952	69255
32.59765	69607
32.60577	69368
32.61388	72159
32.62202	69434
32.63013	69872
32.63827	73912
32.64638	75543
32.65450	62550
32.66263	74201
32.67075	75729
32.67888	74690
32.68700	74893
32.69512	82930
32.70325	83002
32.71137	82095
32.71948	87014
32.72762	85578
32.73573	86578
32.74387	85223
32.75198	77077
32.76010	78040
32.76823	74584
32.77635	81779
32.78448	72992
32.79260	73271
32.80072	73173
32.80885	69291
32.81697	71694
32.82508	70025
32.83322	69108
32.84133	73775
32.84947	74227
32.85758	70331
32.86570	75241
32.87383	72245
32.88195	70898
32.89008	74333
32.89820	80514
32.90632	82116
32.91445	92277
32.92257	97505
32.93070	97875
32.93882	98114
32.94693	86776
32.95507	88496
32.96318	79517
32.97130	77125
32.97943	84896
32.98755	91281
32.99568	110180
33.00380	137353
33.01192	177329
33.02005	219895
33.02817	222229
33.03630	217719
33.04442	194196
33.05253	156538
33.06067	141615
33.06878	126749
33.07690	142665
33.08503	161449
33.09315	167468
33.10128	189106
33.10940	203731
33.11752	216937
33.12565	229926
33.13377	232025
33.14190	222579
33.15002	204348
33.15813	175042
33.16627	159283
33.17438	140848
33.18252	124550
33.19063	113129
33.19875	107696
33.20688	93627
33.21500	88992
33.22312	97642
33.23125	85231
33.23937	90119
33.24750	96061
33.25562	95157
33.26373	92987
33.27187	87512
33.27998	88380
33.28812	84876
33.29623	76472
33.30435	78968
33.31248	84688
33.32060	85304
33.32873	82363
33.33685	80739
33.34497	88784
33.35310	88507
33.36122	95328
33.36933	96036
33.37747	107097
33.38558	115026
33.39372	112033
33.40183	105845
33.40995	107793
33.41808	90254
33.42620	79542
33.43433	82360
33.44245	78472
33.45057	76050
33.45870	71805
33.46682	74450
33.47493	77313
33.48307	67188
33.49118	71790
33.49932	68930
33.50743	75610
33.51555	77529
33.52368	84344
33.53180	83006
33.53993	95447
33.54805	89421
33.55617	101742
33.56430	115211
33.57242	131698
33.58055	135970
33.58867	131205
33.59678	120165
33.60492	102877
33.61303	92196
33.62115	82654
33.62928	85413
33.63740	77518
33.64553	78520
33.65365	78052
33.66177	82843
33.66990	90053
33.67802	93082
33.68615	92045
33.69427	93447
33.70238	83993
33.71052	84457
33.71863	75048
33.72677	70432
33.73488	75879
33.74300	75643
33.75113	69021
33.75925	69049
33.76737	72731
33.77550	72916
33.78362	72862
33.79175	70859
33.79987	71279
33.80798	76739
33.81612	72810
33.82423	69460
33.83237	72796
33.84048	72980
33.84860	68319
33.85673	70980
33.86485	74562
33.87297	74707
33.88110	76404
33.88922	82819
33.89735	81425
33.90547	80802
33.91358	81088
33.92172	76356
33.92983	74174
33.93797	74696
33.94608	78649
33.95420	71829
33.96233	70925
33.97045	74410
33.97858	68327
33.98670	72114
33.99482	70883
34.00295	69346
34.01107	73461
34.01918	71088
34.02732	65866
34.03543	68229
34.04357	71760
34.05168	66715
34.05980	68843
34.06793	68768
34.07605	71454
34.08418	73265
34.09230	67911
34.10042	72033
34.10855	69363
34.11667	74899
34.12480	68545
34.13292	76395
34.14103	69117
34.14917	72000
34.15728	73594
34.16540	75549
34.17353	74018
34.18165	69934
34.18978	71468
34.19790	73127
34.20602	68423
34.21415	69156
34.22227	69131
34.23040	70194
34.23852	63530
34.24663	66161
34.25477	69812
34.26288	66719
34.27100	67090
34.27913	64894
34.28725	62197
34.29538	66353
34.30350	64917
34.31162	63184
34.31975	63990
34.32787	64877
34.33600	67116
34.34412	64866
34.35223	74905
34.36037	67711
34.36848	65760
34.37662	67013
34.38473	67685
34.39285	68829
34.40098	75359
34.40910	69095
34.41722	69037
34.42535	66533
34.43347	73019
34.44160	68196
34.44972	67613
34.45783	72682
34.46597	71826
34.47408	74145
34.48222	67554
34.49033	70087
34.49845	67182
34.50658	71682
34.51470	67424
34.52282	71459
34.53095	69997
34.53907	71611
34.54720	70196
34.55532	81910
34.56343	88189
34.57157	94640
34.57968	109069
34.58782	109901
34.59593	118796
34.60405	117403
34.61218	106911
34.62030	104941
34.62843	103673
34.63655	95749
34.64467	95808
34.65280	90636
34.66092	88372
34.66903	84648
34.67717	87104
34.68528	80625
34.69342	76807
34.70153	80167
34.70965	80577
34.71778	77459
34.72590	71845
34.73403	74956
34.74215	77272
34.75027	76927
34.75840	78922
34.76652	84433
34.77465	84300
34.78277	82471
34.79088	89775
34.79902	86265
34.80713	87195
34.81525	91713
34.82338	83344
34.83150	80920
34.83963	76395
34.84775	72428
34.85587	76687
34.86400	80207
34.87212	77014
34.88025	74482
34.88837	73451
34.89648	73352
34.90462	72467
34.91273	75921
34.92085	70374
34.92898	74095
34.93710	76937
34.94523	76868
34.95335	78806
34.96147	74623
34.96960	84177
34.97772	90655
34.98585	91908
34.99397	93645
35.00208	94401
35.01022	93614
35.01833	93686
35.02647	83254
35.03458	77376
35.04270	76373
35.05083	77083
35.05895	78519
35.06707	72066
35.07520	72672
35.08332	77556
35.09145	69778
35.09957	75076
35.10768	72662
35.11582	76581
35.12393	73790
35.13207	67531
35.14018	73549
35.14830	74330
35.15643	74915
35.16455	82343
35.17268	78931
35.18080	75900
35.18892	82916
35.19705	84343
35.20517	78347
35.21328	77574
35.22142	79499
35.22953	71471
35.23767	72570
35.24578	69675
35.25390	67072
35.26203	69057
35.27015	75242
35.27828	80391
35.28640	75500
35.29452	78481
35.30265	78609
35.31077	77228
35.31888	73027
35.32702	70676
35.33513	67338
35.34327	74604
35.35138	73201
35.35950	71496
35.36763	71841
35.37575	69502
35.38388	70688
35.39200	74818
35.40012	75117
35.40825	77280
35.41637	79929
35.42450	88025
35.43262	91943
35.44073	92641
35.44887	95031
35.45698	95178
35.46510	93071
35.47323	90620
35.48135	88722
35.48948	83800
35.49760	84950
35.50572	87474
35.51385	84411
35.52197	81371
35.53010	84779
35.53822	81535
35.54633	75202
35.55447	81881
35.56258	75086
35.57070	75094
35.57883	75173
35.58695	68547
35.59508	71672
35.60320	75746
35.61132	74196
35.61945	71615
35.62757	73658
35.63570	77297
35.64382	70592
35.65193	73052
35.66007	74266
35.66818	74755
35.67632	70701
35.68443	74599
35.69255	73745
35.70068	75716
35.70880	79144
35.71692	84117
35.72505	82951
35.73317	81671
35.74130	81137
35.74942	90051
35.75753	93113
35.76567	102640
35.77378	115535
35.78192	130863
35.79003	139471
35.79815	142871
35.80628	128544
35.81440	116490
35.82253	98317
35.83065	88241
35.83877	85214
35.84690	78014
35.85502	77756
35.86313	80163
35.87127	76496
35.87938	79200
35.88752	78042
35.89563	75334
35.90375	76749
35.91188	78367
35.92000	74510
35.92813	78301
35.93625	73924
35.94437	72558
35.95250	77838
35.96062	75971
35.96873	77606
35.97687	77951
35.98498	78248
35.99312	70780
36.00123	77861
36.00935	79074
36.01748	79781
36.02560	78522
36.03373	82499
36.04185	81997
36.04997	89717
36.05810	84525
36.06622	76785
36.07435	79337
36.08247	81869
36.09058	76986
36.09872	78659
36.10683	78942
36.11495	83000
36.12308	77948
36.13120	78371
36.13933	83905
36.14745	93028
36.15557	88577
36.16370	94893
36.17182	101381
36.17995	96379
36.18807	98402
36.19618	90506
36.20432	88813
36.21243	84733
36.22057	79104
36.22868	75815
36.23680	76146
36.24493	71828
36.25305	77232
36.26117	76982
36.26930	80586
36.27742	74728
36.28555	76185
36.29367	81349
36.30178	81209
36.30992	75025
36.31803	75757
36.32617	84492
36.33428	89843
36.34240	92167
36.35053	92329
36.35865	93993
36.36677	96665
36.37490	88470
36.38302	86682
36.39115	86386
36.39927	79321
36.40738	80702
36.41552	87266
36.42363	82583
36.43177	84772
36.43988	86445
36.44800	88119
36.45613	91748
36.46425	90147
36.47238	87487
36.48050	85073
36.48862	78858
36.49675	82837
36.50487	73086
36.51298	76871
36.52112	76220
36.52923	77652
36.53737	81644
36.54548	81444
36.55360	79936
36.56173	80333
36.56985	76885
36.57798	76934
36.58610	74757
36.59422	78010
36.60235	79311
36.61047	84032
36.61858	82589
36.62672	81566
36.63483	83797
36.64297	77075
36.65108	82940
36.65920	78639
36.66733	82602
36.67545	73977
36.68358	83134
36.69170	85707
36.69982	81284
36.70795	78265
36.71607	84352
36.72420	81162
36.73232	83067
36.74043	78972
36.74857	84426
36.75668	83385
36.76480	84717
36.77293	83833
36.78105	81432
36.78918	81299
36.79730	80606
36.80542	78917
36.81355	82405
36.82167	81351
36.82980	80499
36.83792	81699
36.84603	78350
36.85417	79130
36.86228	79356
36.87042	79185
36.87853	77981
36.88665	72592
36.89478	77921
36.90290	74171
36.91102	72805
36.91915	73549
36.92727	75017
36.93540	73774
36.94352	79902
36.95163	86425
36.95977	101574
36.96788	125636
36.97602	156573
36.98413	182091
36.99225	201433
37.00038	208082
37.00850	182544
37.01663	162551
37.02475	129362
37.03287	109396
37.04100	97520
37.04912	87536
37.05723	87241
37.06537	93268
37.07348	89651
37.08162	91806
37.08973	91145
37.09785	89547
37.10598	90850
37.11410	97128
37.12223	91934
37.13035	97855
37.13847	97876
37.14660	92680
37.15472	87667
37.16283	87344
37.17097	85970
37.17908	83778
37.18722	82431
37.19533	82503
37.20345	77212
37.21158	88320
37.21970	85008
37.22783	88076
37.23595	86408
37.24407	86943
37.25220	91636
37.26032	85041
37.26845	81597
37.27657	81241
37.28468	88231
37.29282	82262
37.30093	86704
37.30905	82798
37.31718	83290
37.32530	85771
37.33343	83244
37.34155	79639
37.34967	87203
37.35780	84829
37.36592	89206
37.37405	95351
37.38217	101197
37.39028	99438
37.39842	101846
37.40653	103712
37.41465	106886
37.42278	100093
37.43090	100088
37.43903	105618
37.44715	108251
37.45527	105840
37.46340	101972
37.47152	100034
37.47965	101776
37.48777	101438
