C:\MassHunter\GCMS\1\data\JTB-E18\JTB-E18-027-08.D Wed Sep 18 12:12:56 2019
Start of data points
2.09517,102572
2.10330,101353
2.11142,99598
2.11953,102570
2.12767,96321
2.13578,94828
2.14392,95729
2.15203,90686
2.16015,90058
2.16828,87972
2.17640,84494
2.18452,85756
2.19265,80182
2.20077,78767
2.20890,83269
2.21702,78509
2.22513,79003
2.23327,78452
2.24138,77088
2.24952,80474
2.25763,84583
2.26575,192701
2.27388,1087871
2.28200,1845330
2.29013,1104962
2.29825,541276
2.30637,374064
2.31450,330304
2.32262,298080
2.33073,264629
2.33887,254913
2.34698,231613
2.35512,200938
2.36323,193783
2.37135,186519
2.37948,216323
2.38760,294807
2.39573,238398
2.40385,194385
2.41197,178120
2.42010,175960
2.42822,189022
2.43635,178339
2.44447,178724
2.45258,181142
2.46072,160651
2.46883,150924
2.47695,141701
2.48508,145452
2.49320,165115
2.50133,178388
2.50945,160248
2.51757,151129
2.52570,147013
2.53382,140531
2.54195,137455
2.55007,148291
2.55818,146392
2.56632,145505
2.57443,136927
2.58257,129697
2.59068,126938
2.59880,128222
2.60693,123715
2.61505,140576
2.62317,153669
2.63130,142338
2.63942,125602
2.64755,119857
2.65567,126749
2.66378,132736
2.67192,140743
2.68003,181771
2.68817,183348
2.69628,145896
2.70440,132577
2.71253,129350
2.72065,117427
2.72877,120293
2.73690,121485
2.74502,123726
2.75315,119219
2.76127,118155
2.76938,117372
2.77752,119019
2.78563,113721
2.79377,115189
2.80188,116619
2.81000,129952
2.81813,137531
2.82625,273813
2.83438,727463
2.84250,856427
2.85062,511085
2.85875,298515
2.86687,274682
2.87498,252086
2.88312,189858
2.89123,166309
2.89937,155407
2.90748,144378
2.91560,136301
2.92373,131062
2.93185,131604
2.93998,120109
2.94810,118012
2.95622,112307
2.96435,117739
2.97247,114032
2.98058,115898
2.98872,116865
2.99683,123926
3.00497,135039
3.01308,157692
3.02120,180797
3.02933,326389
3.03745,724245
3.04558,1101359
3.05370,2381721
3.06182,7140892
3.06995,1.094602E+07
3.07807,8211738
3.08620,4018531
3.09432,2042109
3.10243,1363455
3.11057,998501
3.11868,810415
3.12680,654847
3.13493,555419
3.14305,484279
3.15118,440571
3.15930,387589
3.16742,364636
3.17555,353108
3.18367,333016
3.19180,306184
3.19992,282856
3.20803,266876
3.21617,250074
3.22428,241844
3.23242,262068
3.24053,259210
3.24865,237065
3.25678,218961
3.26490,204356
3.27302,195971
3.28115,207351
3.28927,320726
3.29740,877325
3.30552,2287548
3.31363,3892937
3.32177,4309773
3.32988,3365847
3.33802,2266599
3.34613,1595949
3.35425,1232470
3.36238,1032792
3.37050,947695
3.37862,1091446
3.38675,1402319
3.39487,1408251
3.40300,1234550
3.41112,1898177
3.41923,3861804
3.42737,5019570
3.43548,3771704
3.44362,2088721
3.45173,1236041
3.45985,905317
3.46798,783142
3.47610,718606
3.48423,622140
3.49235,579069
3.50047,512957
3.50860,498568
3.51672,458864
3.52483,444719
3.53297,410632
3.54108,408278
3.54922,366583
3.55733,346739
3.56545,327488
3.57358,317738
3.58170,312824
3.58983,302353
3.59795,288647
3.60607,278755
3.61420,298829
3.62232,464928
3.63045,1072287
3.63857,2286085
3.64668,2977563
3.65482,2393057
3.66293,1398001
3.67105,831905
3.67918,615873
3.68730,519646
3.69543,459477
3.70355,424390
3.71167,392454
3.71980,360829
3.72792,342991
3.73605,339294
3.74417,337900
3.75228,336171
3.76042,325071
3.76853,327546
3.77665,313430
3.78478,285947
3.79290,279846
3.80103,278259
3.80915,277305
3.81727,268819
3.82540,273377
3.83352,266379
3.84165,280770
3.84977,284126
3.85788,268092
3.86602,247160
3.87413,247345
3.88227,232241
3.89038,238493
3.89850,233500
3.90663,228593
3.91475,229926
3.92287,228433
3.93100,220532
3.93912,219562
3.94725,215400
3.95537,217756
3.96348,215794
3.97162,208369
3.97973,205756
3.98787,205896
3.99598,209293
4.00410,209671
4.01223,201649
4.02035,208782
4.02847,199710
4.03660,204069
4.04472,204787
4.05285,202762
4.06097,204505
4.06908,211031
4.07722,217686
4.08533,209240
4.09347,206072
4.10158,200113
4.10970,191945
4.11783,187310
4.12595,190108
4.13408,198472
4.14220,211078
4.15032,242406
4.15845,300312
4.16657,326360
4.17468,304347
4.18282,255959
4.19093,233534
4.19907,209158
4.20718,202834
4.21530,200419
4.22343,200184
4.23155,222955
4.23968,262633
4.24780,284075
4.25592,257581
4.26405,235040
4.27217,218541
4.28030,206201
4.28842,191561
4.29653,190780
4.30467,193020
4.31278,181845
4.32090,185072
4.32903,183627
4.33715,183368
4.34528,184251
4.35340,182475
4.36152,174933
4.36965,176586
4.37777,174276
4.38590,182909
4.39402,170558
4.40213,169422
4.41027,173604
4.41838,165473
4.42650,167606
4.43463,163633
4.44275,162274
4.45088,174614
4.45900,190790
4.46712,198444
4.47525,204723
4.48337,199319
4.49150,182470
4.49962,180424
4.50773,167125
4.51587,169400
4.52398,170547
4.53212,167895
4.54023,164465
4.54835,164344
4.55648,168253
4.56460,156125
4.57272,159444
4.58085,160381
4.58897,163906
4.59710,154533
4.60522,157553
4.61333,150907
4.62147,158336
4.62958,154460
4.63772,155372
4.64583,150822
4.65395,155647
4.66208,152922
4.67020,155934
4.67833,153382
4.68645,151950
4.69457,154220
4.70270,156536
4.71082,152742
4.71893,148566
4.72707,148163
4.73518,153827
4.74332,147987
4.75143,150124
4.75955,145985
4.76768,152116
4.77580,146829
4.78393,152781
4.79205,146356
4.80017,144114
4.80830,139793
4.81642,154954
4.82453,156885
4.83267,150414
4.84078,147451
4.84892,145666
4.85703,149534
4.86515,153393
4.87328,159785
4.88140,159653
4.88953,156429
4.89765,156482
4.90577,149718
4.91390,152882
4.92202,158439
4.93015,173682
4.93827,222608
4.94638,397905
4.95452,709698
4.96263,1059980
4.97075,1218782
4.97888,1135110
4.98700,927438
4.99513,727022
5.00325,584856
5.01137,512229
5.01950,455188
5.02762,405686
5.03575,389183
5.04387,372401
5.05198,354664
5.06012,333504
5.06823,324047
5.07635,318237
5.08448,303274
5.09260,283589
5.10073,290820
5.10885,305905
5.11697,345026
5.12510,393589
5.13322,413396
5.14135,397203
5.14947,347722
5.15758,301689
5.16572,285717
5.17383,286301
5.18197,324983
5.19008,379714
5.19820,437634
5.20633,434917
5.21445,385917
5.22257,325908
5.23070,300220
5.23882,301498
5.24695,367379
5.25507,428234
5.26318,428983
5.27132,370226
5.27943,314407
5.28757,289349
5.29568,309587
5.30380,270194
5.31193,258117
5.32005,248350
5.32818,222437
5.33630,226424
5.34442,227078
5.35255,236827
5.36067,232657
5.36878,226525
5.37692,217086
5.38503,212191
5.39317,204315
5.40128,203708
5.40940,191288
5.41753,195335
5.42565,194358
5.43378,187981
5.44190,183838
5.45002,192723
5.45815,191763
5.46627,195440
5.47438,194072
5.48252,188504
5.49063,183480
5.49877,184725
5.50688,193169
5.51500,196754
5.52313,186407
5.53125,191491
5.53938,183508
5.54750,186467
5.55562,186369
5.56375,188715
5.57187,178930
5.58000,183101
5.58812,190251
5.59623,193634
5.60437,185564
5.61248,192189
5.62060,188604
5.62873,196837
5.63685,213696
5.64498,227486
5.65310,232046
5.66122,224724
5.66935,215810
5.67747,204546
5.68560,198392
5.69372,203432
5.70183,200547
5.70997,207445
5.71808,214494
5.72622,230890
5.73433,247798
5.74245,258031
5.75058,259541
5.75870,247405
5.76682,246875
5.77495,262742
5.78307,271561
5.79120,272385
5.79932,249911
5.80743,252162
5.81557,296552
5.82368,474196
5.83182,812349
5.83993,1192792
5.84805,1432633
5.85618,1345381
5.86430,996432
5.87242,687162
5.88055,476978
5.88867,372133
5.89680,312416
5.90492,272286
5.91303,252286
5.92117,293267
5.92928,404483
5.93742,547494
5.94553,673182
5.95365,671409
5.96178,544534
5.96990,397373
5.97803,300277
5.98615,268559
5.99427,245623
6.00240,234647
6.01052,213300
6.01863,197102
6.02677,184769
6.03488,172821
6.04302,169770
6.05113,160493
6.05925,164948
6.06738,156367
6.07550,154576
6.08363,152955
6.09175,143875
6.09987,144716
6.10800,143285
6.11612,139375
6.12425,142145
6.13237,138418
6.14048,140145
6.14862,145495
6.15673,141988
6.16485,135862
6.17298,142931
6.18110,152484
6.18923,157077
6.19735,170332
6.20547,181502
6.21360,213858
6.22172,214355
6.22985,194600
6.23797,180097
6.24608,171911
6.25422,168847
6.26233,166952
6.27045,171148
6.27858,167954
6.28670,167949
6.29483,171414
6.30295,171714
6.31107,172568
6.31920,175574
6.32732,176339
6.33545,186292
6.34357,188909
6.35168,194254
6.35982,194992
6.36793,203765
6.37607,205932
6.38418,212624
6.39230,207931
6.40043,199189
6.40855,203493
6.41667,203624
6.42480,204134
6.43292,200419
6.44105,208108
6.44917,205894
6.45728,211700
6.46542,217617
6.47353,217412
6.48167,220928
6.48978,228345
6.49790,232931
6.50603,223789
6.51415,222507
6.52227,230810
6.53040,230828
6.53852,229624
6.54665,237307
6.55477,245293
6.56288,248519
6.57102,240580
6.57913,222356
6.58727,184795
6.59538,175216
6.60350,156898
6.61163,156419
6.61975,160119
6.62788,154382
6.63600,148875
6.64412,144449
6.65225,143037
6.66037,137215
6.66848,134776
6.67662,135190
6.68473,135402
6.69287,136577
6.70098,135535
6.70910,133770
6.71723,150481
6.72535,169533
6.73348,202366
6.74160,231408
6.74972,252562
6.75785,223462
6.76597,194762
6.77410,172827
6.78222,150193
6.79033,135644
6.79847,122959
6.80658,127469
6.81470,124415
6.82283,119947
6.83095,119452
6.83908,129208
6.84720,160888
6.85532,228859
6.86345,351102
6.87157,539445
6.87970,726770
6.88782,832654
6.89593,786375
6.90407,621203
6.91218,415838
6.92030,268402
6.92843,187970
6.93655,140454
6.94468,122731
6.95280,107656
6.96092,107201
6.96905,98111
6.97717,93387
6.98530,96871
6.99342,100875
7.00153,99147
7.00967,128769
7.01778,170042
7.02592,237347
7.03403,311679
7.04215,357797
7.05028,339848
7.05840,292325
7.06652,220988
7.07465,170337
7.08277,140591
7.09090,120088
7.09902,114107
7.10713,115124
7.11527,117071
7.12338,115388
7.13152,115682
7.13963,116698
7.14775,111487
7.15588,101783
7.16400,102521
7.17213,102906
7.18025,101369
7.18837,98423
7.19650,96148
7.20462,96633
7.21273,98443
7.22087,97535
7.22898,101301
7.23712,104402
7.24523,109956
7.25335,120812
7.26148,128759
7.26960,146932
7.27773,158590
7.28585,166578
7.29397,163553
7.30210,145096
7.31022,130711
7.31833,122630
7.32647,128248
7.33458,129341
7.34272,130776
7.35083,132678
7.35895,125338
7.36708,115513
7.37520,120084
7.38333,151057
7.39145,191309
7.39957,242862
7.40770,274597
7.41582,300295
7.42395,265274
7.43207,224759
7.44018,174840
7.44832,144997
7.45643,125342
7.46455,128136
7.47268,120699
7.48080,116136
7.48893,124775
7.49705,150198
7.50517,178887
7.51330,202767
7.52142,208557
7.52955,200094
7.53767,169643
7.54578,134247
7.55392,116540
7.56203,110942
7.57015,98312
7.57828,99759
7.58640,99657
7.59453,98006
7.60265,91285
7.61077,96735
7.61890,88440
7.62702,86380
7.63515,88592
7.64327,87171
7.65138,88121
7.65952,91053
7.66763,97964
7.67577,95521
7.68388,93905
7.69200,89036
7.70013,90604
7.70825,87997
7.71637,83643
7.72450,87732
7.73262,80244
7.74075,78987
7.74887,78899
7.75698,79128
7.76512,76717
7.77323,76234
7.78137,77069
7.78948,77650
7.79760,84648
7.80573,78832
7.81385,79222
7.82198,80105
7.83010,72648
7.83822,74623
7.84635,73136
7.85447,73994
7.86258,70510
7.87072,68037
7.87883,71198
7.88697,73668
7.89508,72337
7.90320,77994
7.91133,76045
7.91945,75172
7.92758,70496
7.93570,75816
7.94382,74087
7.95195,73696
7.96007,73363
7.96820,76636
7.97632,78192
7.98443,81159
7.99257,78370
8.00068,80809
8.00880,76022
8.01693,71214
8.02505,71646
8.03318,69174
8.04130,76366
8.04942,75079
8.05755,72861
8.06567,67034
8.07380,76427
8.08192,67509
8.09003,71188
8.09817,65527
8.10628,73764
8.11440,63897
8.12253,65995
8.13065,69175
8.13878,66122
8.14690,70492
8.15502,73326
8.16315,75432
8.17127,73159
8.17940,76475
8.18752,78237
8.19563,76459
8.20377,76666
8.21188,71503
8.22002,72666
8.22813,67702
8.23625,66086
8.24438,69578
8.25250,67991
8.26062,64066
8.26875,67146
8.27687,72946
8.28500,68351
8.29312,64818
8.30123,65535
8.30937,69203
8.31748,67826
8.32562,65554
8.33373,68997
8.34185,71667
8.34998,84816
8.35810,86047
8.36622,85683
8.37435,83723
8.38247,75084
8.39060,72814
8.39872,68242
8.40683,69697
8.41497,68947
8.42308,66787
8.43122,65427
8.43933,65597
8.44745,64284
8.45558,61772
8.46370,66502
8.47183,69091
8.47995,63203
8.48807,64775
8.49620,63360
8.50432,66236
8.51243,64093
8.52057,67928
8.52868,74294
8.53682,77706
8.54493,82562
8.55305,82252
8.56118,79373
8.56930,77798
8.57743,73374
8.58555,79358
8.59367,70398
8.60180,73958
8.60992,65643
8.61805,61033
8.62617,60740
8.63428,64311
8.64242,64623
8.65053,67198
8.65865,63388
8.66678,61745
8.67490,57320
8.68303,62757
8.69115,61046
8.69927,60588
8.70740,63808
8.71552,63965
8.72365,64922
8.73177,69571
8.73988,73417
8.74802,77093
8.75613,104559
8.76425,174740
8.77238,265652
8.78050,348162
8.78863,384901
8.79675,359074
8.80487,297878
8.81300,243530
8.82112,210034
8.82925,190893
8.83737,172573
8.84548,159415
8.85362,147039
8.86173,144071
8.86987,138590
8.87798,133811
8.88610,128638
8.89423,125188
8.90235,117701
8.91047,120704
8.91860,111844
8.92672,112705
8.93485,114416
8.94297,113490
8.95108,109510
8.95922,110389
8.96733,108563
8.97547,104525
8.98358,101194
8.99170,103909
8.99983,101760
9.00795,99206
9.01608,97962
9.02420,99417
9.03232,97154
9.04045,93749
9.04857,92136
9.05668,95984
9.06482,97385
9.07293,95187
9.08107,98499
9.08918,93955
9.09730,93634
9.10543,96363
9.11355,93131
9.12168,89967
9.12980,92180
9.13792,93624
9.14605,92983
9.15417,86723
9.16228,89887
9.17042,93189
9.17853,83119
9.18667,88161
9.19478,84804
9.20290,84618
9.21103,87317
9.21915,82225
9.22728,86059
9.23540,84931
9.24352,84839
9.25165,83248
9.25977,84448
9.26790,89129
9.27602,85937
9.28413,87522
9.29227,87879
9.30038,89915
9.30850,92772
9.31663,88354
9.32475,94167
9.33288,84608
9.34100,84134
9.34912,85344
9.35725,87540
9.36537,87527
9.37350,86559
9.38162,87488
9.38973,78766
9.39787,80392
9.40598,73050
9.41410,80809
9.42223,76351
9.43035,76686
9.43848,79378
9.44660,75286
9.45472,71605
9.46285,69870
9.47097,72597
9.47910,71156
9.48722,69452
9.49533,73031
9.50347,75950
9.51158,74127
9.51972,72120
9.52783,72721
9.53595,73599
9.54408,77972
9.55220,70717
9.56032,68600
9.56845,65307
9.57657,65089
9.58470,61735
9.59282,62349
9.60093,64499
9.60907,62702
9.61718,67827
9.62532,63692
9.63343,63660
9.64155,61711
9.64968,57879
9.65780,58815
9.66593,58298
9.67405,64084
9.68217,59571
9.69030,54885
9.69842,53670
9.70653,53591
9.71467,56238
9.72278,57849
9.73092,57376
9.73903,56783
9.74715,50429
9.75528,53339
9.76340,51443
9.77153,53008
9.77965,53630
9.78777,57656
9.79590,53775
9.80402,53271
9.81213,54508
9.82027,49033
9.82838,52186
9.83652,53310
9.84463,52766
9.85275,51480
9.86088,52808
9.86900,52909
9.87713,52354
9.88525,52729
9.89337,53817
9.90150,51349
9.90962,50881
9.91775,50718
9.92587,53388
9.93398,50385
9.94212,52105
9.95023,52636
9.95835,51588
9.96648,52490
9.97460,55076
9.98273,51780
9.99085,60563
9.99897,63287
10.00710,63943
10.01522,62850
10.02335,61907
10.03147,59617
10.03958,54640
10.04772,58768
10.05583,56645
10.06397,52188
10.07208,51271
10.08020,51146
10.08833,53147
10.09645,53532
10.10457,53561
10.11270,54196
10.12082,50402
10.12895,48963
10.13707,48852
10.14518,50485
10.15332,51939
10.16143,46526
10.16957,47303
10.17768,47959
10.18580,48794
10.19393,47469
10.20205,47797
10.21017,46905
10.21830,49021
10.22642,49411
10.23455,49490
10.24267,52715
10.25078,55242
10.25892,51088
10.26703,55165
10.27517,52926
10.28328,58984
10.29140,52826
10.29953,58438
10.30765,50541
10.31578,55883
10.32390,52518
10.33202,51509
10.34015,49986
10.34827,52585
10.35638,51231
10.36452,49494
10.37263,47716
10.38077,49963
10.38888,52227
10.39700,50717
10.40513,59065
10.41325,56523
10.42138,58396
10.42950,53496
10.43762,54166
10.44575,50341
10.45387,47674
10.46200,47426
10.47012,45657
10.47823,45188
10.48637,46725
10.49448,44771
10.50260,45994
10.51073,46049
10.51885,49885
10.52698,47255
10.53510,51034
10.54322,53262
10.55135,56504
10.55947,53318
10.56760,49876
10.57572,51446
10.58383,49113
10.59197,48442
10.60008,49660
10.60820,46937
10.61633,46954
10.62445,43775
10.63258,46057
10.64070,46058
10.64882,46205
10.65695,48510
10.66507,47101
10.67320,46573
10.68132,44815
10.68943,47485
10.69757,44449
10.70568,47431
10.71382,47772
10.72193,47538
10.73005,49725
10.73818,48570
10.74630,49796
10.75442,50230
10.76255,51824
10.77067,48008
10.77880,52631
10.78692,53688
10.79503,49150
10.80317,48646
10.81128,45089
10.81942,43990
10.82753,46881
10.83565,43770
10.84378,42291
10.85190,41166
10.86002,40343
10.86815,41380
10.87627,42639
10.88440,42394
10.89252,40242
10.90063,43177
10.90877,47262
10.91688,43889
10.92502,43037
10.93313,46530
10.94125,43985
10.94938,39419
10.95750,40858
10.96563,40500
10.97375,43260
10.98187,43304
10.99000,42662
10.99812,44539
11.00623,40915
11.01437,46187
11.02248,43844
11.03062,41049
11.03873,43373
11.04685,41449
11.05498,42937
11.06310,42981
11.07123,41417
11.07935,43660
11.08747,45607
11.09560,46285
11.10372,48036
11.11185,51133
11.11997,57537
11.12808,56942
11.13622,62703
11.14433,68197
11.15245,69667
11.16058,73020
11.16870,68440
11.17683,70608
11.18495,71245
11.19307,71215
11.20120,72629
11.20932,66261
11.21745,66452
11.22557,69488
11.23368,69857
11.24182,64118
11.24993,65700
11.25805,71276
11.26618,67694
11.27430,68038
11.28243,66264
11.29055,77729
11.29867,92552
11.30680,101697
11.31492,121043
11.32305,133564
11.33117,133999
11.33928,126330
11.34742,114283
11.35553,106308
11.36367,99225
11.37178,99351
11.37990,90160
11.38803,95977
11.39615,84386
11.40427,77904
11.41240,72271
11.42052,74412
11.42865,67181
11.43677,67753
11.44488,64556
11.45302,65693
11.46113,66853
11.46927,66100
11.47738,60604
11.48550,61650
11.49363,60605
11.50175,61036
11.50988,65019
11.51800,61845
11.52612,63550
11.53425,64099
11.54237,72977
11.55048,73007
11.55862,70454
11.56673,75256
11.57487,78017
11.58298,73538
11.59110,72285
11.59923,67029
11.60735,69403
11.61548,63005
11.62360,65907
11.63172,68574
11.63985,66164
11.64797,61177
11.65608,62958
11.66422,59110
11.67233,60326
11.68047,59240
11.68858,62138
11.69670,64582
11.70483,68341
11.71295,75634
11.72108,82524
11.72920,84906
11.73732,81827
11.74545,85000
11.75357,78948
11.76170,85469
11.76982,83463
11.77793,77709
11.78607,78221
11.79418,77182
11.80230,75099
11.81043,70666
11.81855,67242
11.82668,71424
11.83480,64915
11.84292,66161
11.85105,62854
11.85917,60848
11.86730,63547
11.87542,57206
11.88353,59787
11.89167,58494
11.89978,54348
11.90790,53663
11.91603,51807
11.92415,55617
11.93228,53276
11.94040,54576
11.94852,60025
11.95665,63206
11.96477,67343
11.97290,68099
11.98102,64769
11.98913,63024
11.99727,59433
12.00538,56795
12.01352,58458
12.02163,54185
12.02975,50016
12.03788,54884
12.04600,49880
12.05412,52046
12.06225,48210
12.07037,48727
12.07850,47694
12.08662,47829
12.09473,46951
12.10287,48796
12.11098,42727
12.11912,48199
12.12723,47745
12.13535,47187
12.14348,48087
12.15160,46793
12.15973,48553
12.16785,51002
12.17597,48982
12.18410,44361
12.19222,48156
12.20033,48180
12.20847,48707
12.21658,47926
12.22472,43604
12.23283,44194
12.24095,42989
12.24908,45223
12.25720,48760
12.26533,46484
12.27345,49803
12.28157,45736
12.28970,48243
12.29782,45673
12.30593,51987
12.31407,54603
12.32218,56033
12.33032,55945
12.33843,51541
12.34655,50188
12.35468,49816
12.36280,51100
12.37093,48963
12.37905,49809
12.38717,54853
12.39530,49755
12.40342,51023
12.41155,51664
12.41967,48653
12.42778,52220
12.43592,46839
12.44403,50245
12.45215,49326
12.46028,51535
12.46840,56510
12.47653,55122
12.48465,53066
12.49277,44804
12.50090,48322
12.50902,49187
12.51715,45484
12.52527,45726
12.53338,42196
12.54152,44247
12.54963,44113
12.55777,44596
12.56588,45712
12.57400,46498
12.58213,51265
12.59025,47909
12.59837,44653
12.60650,46645
12.61462,37475
12.62275,42422
12.63087,37437
12.63898,40199
12.64712,46351
12.65523,47077
12.66337,41688
12.67148,40903
12.67960,41596
12.68773,41195
12.69585,40979
12.70397,37794
12.71210,37921
12.72022,42513
12.72835,44129
12.73647,48019
12.74458,47984
12.75272,52743
12.76083,49925
12.76897,47403
12.77708,47252
12.78520,47549
12.79333,47480
12.80145,43587
12.80958,44621
12.81770,49908
12.82582,50377
12.83395,51312
12.84207,51127
12.85018,50473
12.85832,45974
12.86643,46058
12.87457,44296
12.88268,40741
12.89080,44679
12.89893,43178
12.90705,39393
12.91518,41785
12.92330,39775
12.93142,38167
12.93955,40158
12.94767,45424
12.95578,46769
12.96392,49565
12.97203,60185
12.98017,69154
12.98828,81690
12.99640,86252
13.00453,87399
13.01265,90709
13.02078,87544
13.02890,84106
13.03702,75882
13.04515,69670
13.05327,59585
13.06140,55494
13.06952,48192
13.07763,47049
13.08577,44065
13.09388,44788
13.10200,42160
13.11013,43368
13.11825,39932
13.12638,43171
13.13450,45432
13.14262,44674
13.15075,42551
13.15887,40781
13.16700,44414
13.17512,41424
13.18323,40472
13.19137,41509
13.19948,43282
13.20762,46556
13.21573,41326
13.22385,42604
13.23198,46615
13.24010,42362
13.24822,38958
13.25635,44540
13.26447,44818
13.27260,44729
13.28072,50184
13.28883,49756
13.29697,52721
13.30508,53385
13.31322,58028
13.32133,51036
13.32945,53179
13.33758,55514
13.34570,51409
13.35383,57576
13.36195,53335
13.37007,49958
13.37820,42828
13.38632,46743
13.39443,44116
13.40257,48988
13.41068,39854
13.41882,39646
13.42693,42811
13.43505,39786
13.44318,40778
13.45130,35263
13.45943,37281
13.46755,36773
13.47567,40119
13.48380,45728
13.49192,35442
13.50003,34533
13.50817,35958
13.51628,38114
13.52442,36293
13.53253,36171
13.54065,37572
13.54878,42288
13.55690,42211
13.56503,40256
13.57315,41606
13.58127,43457
13.58940,49691
13.59752,48025
13.60565,47411
13.61377,45436
13.62188,49768
13.63002,55060
13.63813,53248
13.64625,57709
13.65438,57813
13.66250,56906
13.67063,60445
13.67875,57115
13.68687,54685
13.69500,52650
13.70312,49166
13.71125,47398
13.71937,43873
13.72748,45861
13.73562,44067
13.74373,47441
13.75185,38356
13.75998,39947
13.76810,39358
13.77623,40099
13.78435,43820
13.79247,38955
13.80060,41234
13.80872,38041
13.81685,38654
13.82497,35650
13.83308,35484
13.84122,37754
13.84933,39390
13.85747,37574
13.86558,39597
13.87370,38082
13.88183,39702
13.88995,42308
13.89807,38813
13.90620,41399
13.91432,43208
13.92245,45378
13.93057,45328
13.93868,51115
13.94682,48510
13.95493,48135
13.96307,44836
13.97118,45929
13.97930,41166
13.98743,44569
13.99555,40133
14.00368,41707
14.01180,40885
14.01992,39075
14.02805,41940
14.03617,47682
14.04428,46809
14.05242,44149
14.06053,42471
14.06867,41389
14.07678,42258
14.08490,40827
14.09303,43918
14.10115,39901
14.10928,38269
14.11740,36327
14.12552,36677
14.13365,37506
14.14177,40901
14.14988,50460
14.15802,66206
14.16613,91561
14.17427,125845
14.18238,149653
14.19050,172356
14.19863,166245
14.20675,143406
14.21488,129407
14.22300,118614
14.23112,107418
14.23925,92072
14.24737,85479
14.25550,84101
14.26362,81803
14.27173,77425
14.27987,69592
14.28798,72039
14.29610,70325
14.30423,62494
14.31235,60312
14.32048,57301
14.32860,55075
14.33672,46775
14.34485,42772
14.35297,41511
14.36110,37728
14.36922,36578
14.37733,38640
14.38547,37049
14.39358,40083
14.40172,34628
14.40983,38441
14.41795,38903
14.42608,37657
14.43420,34808
14.44232,37462
14.45045,37333
14.45857,38254
14.46670,36494
14.47482,37794
14.48293,37428
14.49107,37465
14.49918,38248
14.50732,36508
14.51543,35925
14.52355,36944
14.53168,38391
14.53980,36757
14.54792,33671
14.55605,35185
14.56417,38165
14.57230,36855
14.58042,39186
14.58853,35462
14.59667,33232
14.60478,33236
14.61292,35666
14.62103,35351
14.62915,35358
14.63728,35982
14.64540,37915
14.65353,35930
14.66165,34225
14.66977,32488
14.67790,35233
14.68602,36480
14.69413,36013
14.70227,34378
14.71038,35681
14.71852,32505
14.72663,35312
14.73475,34821
14.74288,36675
14.75100,41468
14.75913,34210
14.76725,39978
14.77537,34124
14.78350,34695
14.79162,33425
14.79973,34566
14.80787,35368
14.81598,35668
14.82412,37174
14.83223,35736
14.84035,34226
14.84848,35799
14.85660,33158
14.86473,37328
14.87285,38679
14.88097,36626
14.88910,35645
14.89722,36879
14.90535,35972
14.91347,40941
14.92158,35613
14.92972,35889
14.93783,34295
14.94595,36455
14.95408,33993
14.96220,32664
14.97033,36451
14.97845,34083
14.98657,35375
14.99470,38151
15.00282,37224
15.01095,36136
15.01907,34500
15.02718,30778
15.03532,36484
15.04343,31276
15.05157,33896
15.05968,35901
15.06780,35722
15.07593,34284
15.08405,33172
15.09217,33282
15.10030,31786
15.10842,32597
15.11655,35646
15.12467,31776
15.13278,33074
15.14092,28879
15.14903,35217
15.15717,31795
15.16528,30944
15.17340,33694
15.18153,31140
15.18965,30826
15.19777,34339
15.20590,32370
15.21402,31479
15.22215,29991
15.23027,31244
15.23838,30838
15.24652,31468
15.25463,32585
15.26277,33872
15.27088,34409
15.27900,30748
15.28713,35473
15.29525,29388
15.30338,30651
15.31150,31092
15.31962,29364
15.32775,29004
15.33587,27280
15.34398,26631
15.35212,30658
15.36023,32799
15.36837,32832
15.37648,29217
15.38460,29408
15.39273,29629
15.40085,29643
15.40898,33058
15.41710,30986
15.42522,28029
15.43335,31426
15.44147,32061
15.44960,29755
15.45772,31053
15.46583,29242
15.47397,30590
15.48208,32594
15.49020,29728
15.49833,31467
15.50645,28628
15.51458,32561
15.52270,30674
15.53082,27655
15.53895,30733
15.54707,28871
15.55520,30310
15.56332,34349
15.57143,29931
15.57957,29836
15.58768,26286
15.59580,25556
15.60393,31835
15.61205,29093
15.62018,27310
15.62830,31568
15.63642,29093
15.64455,29043
15.65267,28345
15.66080,32373
15.66892,30591
15.67703,34548
15.68517,31250
15.69328,30018
15.70142,29034
15.70953,29985
15.71765,28676
15.72578,30449
15.73390,30521
15.74202,33858
15.75015,32568
15.75827,34619
15.76640,33462
15.77452,37652
15.78263,33766
15.79077,32769
15.79888,33776
15.80702,32073
15.81513,33397
15.82325,28698
15.83138,33172
15.83950,29089
15.84763,31439
15.85575,28000
15.86387,29240
15.87200,35826
15.88012,34118
15.88823,32756
15.89637,32353
15.90448,31755
15.91262,31657
15.92073,31744
15.92885,32533
15.93698,31735
15.94510,32295
15.95323,28489
15.96135,33783
15.96947,34303
15.97760,29245
15.98572,32660
15.99383,35375
16.00197,33232
16.01008,33624
16.01822,36756
16.02633,45050
16.03445,44229
16.04258,48159
16.05070,40597
16.05883,41122
16.06695,40682
16.07507,38552
16.08320,38447
16.09132,35990
16.09945,33685
16.10757,35050
16.11568,34219
16.12382,36410
16.13193,34640
16.14005,31318
16.14818,34197
16.15630,32742
16.16443,32650
16.17255,34018
16.18067,35779
16.18880,34481
16.19692,37729
16.20505,32427
16.21317,32187
16.22128,33913
16.22942,32138
16.23753,33736
16.24565,33867
16.25378,34852
16.26190,34398
16.27003,33501
16.27815,32074
16.28627,31779
16.29440,30951
16.30252,37042
16.31065,37746
16.31877,37653
16.32688,37861
16.33502,42189
16.34313,46904
16.35127,52675
16.35938,52863
16.36750,50216
16.37563,49804
16.38375,48316
16.39187,41753
16.40000,45418
16.40812,40463
16.41625,39151
16.42437,41764
16.43248,38333
16.44062,40682
16.44873,37744
16.45687,37459
16.46498,42290
16.47310,37803
16.48123,33750
16.48935,38324
16.49748,40456
16.50560,36919
16.51372,39093
16.52185,37127
16.52997,38349
16.53808,40235
16.54622,38409
16.55433,36876
16.56247,42316
16.57058,38563
16.57870,36343
16.58683,37731
16.59495,35715
16.60308,42041
16.61120,37353
16.61932,39512
16.62745,37453
16.63557,37045
16.64368,39702
16.65182,29969
16.65993,35005
16.66807,33968
16.67618,30151
16.68430,34416
16.69243,34300
16.70055,34393
16.70868,34452
16.71680,29908
16.72492,33471
16.73305,33898
16.74117,34908
16.74930,38207
16.75742,32194
16.76553,31336
16.77367,31800
16.78178,34543
16.78990,32453
16.79803,33293
16.80615,37247
16.81428,35230
16.82240,31657
16.83052,35499
16.83865,36551
16.84677,32609
16.85490,35487
16.86302,33933
16.87113,33670
16.87927,38013
16.88738,36713
16.89552,36322
16.90363,32285
16.91175,33795
16.91988,36157
16.92800,35099
16.93612,35490
16.94425,32918
16.95237,32984
16.96050,38056
16.96862,32936
16.97673,34516
16.98487,36922
16.99298,35151
17.00112,32444
17.00923,34334
17.01735,31192
17.02548,33946
17.03360,33400
17.04172,36405
17.04985,34174
17.05797,33307
17.06610,32663
17.07422,33686
17.08233,37444
17.09047,35162
17.09858,34085
17.10672,32801
17.11483,35204
17.12295,32901
17.13108,31942
17.13920,31238
17.14733,36813
17.15545,33322
17.16357,35403
17.17170,35974
17.17982,31513
17.18793,34478
17.19607,33018
17.20418,30378
17.21232,33777
17.22043,30469
17.22855,34168
17.23668,33431
17.24480,33603
17.25293,35008
17.26105,36845
17.26917,36414
17.27730,34031
17.28542,31868
17.29353,32864
17.30167,33854
17.30978,32573
17.31792,36951
17.32603,32306
17.33415,34590
17.34228,39690
17.35040,35027
17.35853,37340
17.36665,37493
17.37477,37324
17.38290,39134
17.39102,41427
17.39915,43224
17.40727,39911
17.41538,45355
17.42352,37278
17.43163,42286
17.43975,39684
17.44788,37304
17.45600,37884
17.46413,39066
17.47225,38140
17.48037,39866
17.48850,35402
17.49662,38782
17.50475,36772
17.51287,38600
17.52098,44441
17.52912,41541
17.53723,47906
17.54537,47135
17.55348,52547
17.56160,55078
17.56973,52367
17.57785,54129
17.58597,50753
17.59410,48460
17.60222,47656
17.61035,42739
17.61847,40371
17.62658,36922
17.63472,37742
17.64283,38342
17.65097,38661
17.65908,36440
17.66720,38848
17.67533,39427
17.68345,39041
17.69158,37382
17.69970,36661
17.70782,40379
17.71595,39863
17.72407,35852
17.73218,37737
17.74032,37417
17.74843,38091
17.75657,34975
17.76468,33033
17.77280,36070
17.78093,35625
17.78905,34339
17.79718,36086
17.80530,33115
17.81342,36128
17.82155,38569
17.82967,37446
17.83778,35641
17.84592,39728
17.85403,35738
17.86217,38466
17.87028,37169
17.87840,38420
17.88653,37584
17.89465,37953
17.90278,35234
17.91090,33826
17.91902,34701
17.92715,32935
17.93527,36437
17.94340,33051
17.95152,31231
17.95963,32463
17.96777,34519
17.97588,32657
17.98400,30526
17.99213,32127
18.00025,34713
18.00838,34092
18.01650,34115
18.02462,33001
18.03275,36311
18.04087,36234
18.04900,39151
18.05712,37291
18.06523,38380
18.07337,36903
18.08148,39151
18.08960,35178
18.09773,36848
18.10585,37918
18.11398,38362
18.12210,36539
18.13022,34364
18.13835,36148
18.14647,38787
18.15460,36372
18.16272,32968
18.17083,38119
18.17897,34445
18.18708,35411
18.19522,43809
18.20333,33825
18.21145,34230
18.21958,38662
18.22770,37419
18.23582,38406
18.24395,40031
18.25207,36314
18.26020,35652
18.26832,37196
18.27643,37320
18.28457,40603
18.29268,39237
18.30082,37974
18.30893,33825
18.31705,35336
18.32518,34376
18.33330,34631
18.34142,33240
18.34955,34109
18.35767,33960
18.36580,32908
18.37392,37987
18.38203,34474
18.39017,35744
18.39828,34140
18.40642,33611
18.41453,35198
18.42265,32272
18.43078,31882
18.43890,35558
18.44703,32741
18.45515,35384
18.46327,33862
18.47140,35032
18.47952,35295
18.48763,31788
18.49577,32929
18.50388,33657
18.51202,34452
18.52013,32442
18.52825,33437
18.53638,37337
18.54450,37068
18.55263,37393
18.56075,37164
18.56887,39322
18.57700,37621
18.58512,40991
18.59325,39620
18.60137,38908
18.60948,43397
18.61762,43396
18.62573,44566
18.63385,43848
18.64198,46037
18.65010,42854
18.65823,42450
18.66635,42923
18.67447,45562
18.68260,42550
18.69072,44224
18.69885,38252
18.70697,40456
18.71508,42422
18.72322,42209
18.73133,43873
18.73947,40633
18.74758,44792
18.75570,40228
18.76383,40847
18.77195,39608
18.78007,41061
18.78820,36816
18.79632,40300
18.80445,39320
18.81257,37032
18.82068,41258
18.82882,38791
18.83693,34433
18.84507,37492
18.85318,38341
18.86130,34075
18.86943,34573
18.87755,37065
18.88567,38232
18.89380,40986
18.90192,42021
18.91005,39419
18.91817,37379
18.92628,37524
18.93442,37479
18.94253,39727
18.95067,33448
18.95878,37181
18.96690,34431
18.97503,36044
18.98315,35605
18.99128,35701
18.99940,37153
19.00752,39503
19.01565,38572
19.02377,37799
19.03188,37988
19.04002,40790
19.04813,40199
19.05627,38361
19.06438,36404
19.07250,39401
19.08063,41009
19.08875,43692
19.09688,45124
19.10500,49651
19.11312,51792
19.12125,50559
19.12937,52011
19.13748,47692
19.14562,54870
19.15373,57393
19.16187,62825
19.16998,60200
19.17810,57004
19.18623,54813
19.19435,50983
19.20248,51776
19.21060,50105
19.21872,44648
19.22685,41054
19.23497,41032
19.24310,40408
19.25122,36451
19.25933,38473
19.26747,38749
19.27558,42899
19.28370,41340
19.29183,43005
19.29995,43069
19.30808,44767
19.31620,43995
19.32432,41850
19.33245,39415
19.34057,39467
19.34870,38213
19.35682,35139
19.36493,38823
19.37307,39912
19.38118,37858
19.38932,38157
19.39743,37581
19.40555,39130
19.41368,39132
19.42180,38842
19.42992,36670
19.43805,40970
19.44617,45110
19.45430,60984
19.46242,83204
19.47053,110946
19.47867,128153
19.48678,125756
19.49492,111956
19.50303,88653
19.51115,67937
19.51928,49529
19.52740,44592
19.53552,41138
19.54365,42215
19.55177,43708
19.55990,41959
19.56802,38580
19.57613,38919
19.58427,39138
19.59238,36950
19.60052,32642
19.60863,36300
19.61675,33961
19.62488,39110
19.63300,41635
19.64113,49893
19.64925,61115
19.65737,74170
19.66550,90104
19.67362,89323
19.68173,91307
19.68987,77748
19.69798,69655
19.70612,62152
19.71423,59528
19.72235,58249
19.73048,49084
19.73860,48111
19.74673,46391
19.75485,47952
19.76297,44059
19.77110,39866
19.77922,40512
19.78735,37615
19.79547,39697
19.80358,36201
19.81172,37371
19.81983,42118
19.82795,35889
19.83608,33733
19.84420,37894
19.85233,38133
19.86045,42936
19.86857,45046
19.87670,44285
19.88482,51332
19.89295,63003
19.90107,68004
19.90918,77692
19.91732,85394
19.92543,91026
19.93355,89975
19.94168,91311
19.94980,84381
19.95793,81691
19.96605,83624
19.97417,80744
19.98230,77579
19.99042,73873
19.99855,72987
20.00667,69009
20.01478,71417
20.02292,66981
20.03103,65902
20.03917,64103
20.04728,58487
20.05540,54798
20.06353,51850
20.07165,51507
20.07977,48186
20.08790,40454
20.09602,45448
20.10415,39983
20.11227,41449
20.12038,39723
20.12852,40305
20.13663,40238
20.14477,39923
20.15288,39557
20.16100,40184
20.16913,40122
20.17725,42959
20.18537,41304
20.19350,43021
20.20162,40767
20.20975,42359
20.21787,43636
20.22598,43261
20.23412,43821
20.24223,49831
20.25037,57367
20.25848,74389
20.26660,80168
20.27473,83906
20.28285,86000
20.29098,79611
20.29910,66242
20.30722,63281
20.31535,59527
20.32347,50746
20.33158,44682
20.33972,46530
20.34783,43634
20.35597,42537
20.36408,41647
20.37220,37904
20.38033,36248
20.38845,39672
20.39658,40786
20.40470,42770
20.41282,44636
20.42095,46495
20.42907,50616
20.43720,50200
20.44532,49242
20.45343,49745
20.46157,47963
20.46968,45772
20.47780,43389
20.48593,40784
20.49405,40281
20.50218,40894
20.51030,37204
20.51842,36471
20.52655,38978
20.53467,35196
20.54280,35343
20.55092,36501
20.55903,35173
20.56717,33614
20.57528,37810
20.58340,32600
20.59153,36041
20.59965,36090
20.60778,34743
20.61590,35017
20.62402,33560
20.63215,35605
20.64027,34084
20.64840,32732
20.65652,32865
20.66463,38125
20.67277,33174
20.68088,36442
20.68902,32955
20.69713,32775
20.70525,34524
20.71338,34734
20.72150,35555
20.72962,35456
20.73775,34302
20.74587,33437
20.75400,37325
20.76212,35627
20.77023,37971
20.77837,34909
20.78648,38011
20.79462,34928
20.80273,37169
20.81085,36036
20.81898,33237
20.82710,33253
20.83523,34953
20.84335,33933
20.85147,33232
20.85960,36134
20.86772,32903
20.87583,33419
20.88397,34409
20.89208,31749
20.90022,30480
20.90833,35861
20.91645,34253
20.92458,34300
20.93270,30866
20.94083,34788
20.94895,34077
20.95707,32271
20.96520,31194
20.97332,36328
20.98143,32002
20.98957,31548
20.99768,30497
21.00582,33524
21.01393,34089
21.02205,37346
21.03018,35276
21.03830,32712
21.04643,32781
21.05455,31540
21.06267,33922
21.07080,35625
21.07892,33496
21.08705,34686
21.09517,34148
21.10328,35952
21.11142,34094
21.11953,34157
21.12765,33192
21.13578,34148
21.14390,33227
21.15203,34978
21.16015,33861
21.16827,36525
21.17640,37725
21.18452,33009
21.19265,34763
21.20077,35335
21.20888,33796
21.21702,35820
21.22513,32496
21.23327,36881
21.24138,36149
21.24950,37525
21.25763,34628
21.26575,35148
21.27387,36706
21.28200,36523
21.29012,38852
21.29825,41163
21.30637,36856
21.31448,37240
21.32262,35893
21.33073,35158
21.33887,34717
21.34698,34731
21.35510,34588
21.36323,34893
21.37135,34561
21.37947,31595
21.38760,32204
21.39572,34448
21.40385,37181
21.41197,35109
21.42008,34035
21.42822,35964
21.43633,36385
21.44447,35816
21.45258,37052
21.46070,35040
21.46883,34323
21.47695,31715
21.48508,31943
21.49320,34233
21.50132,34137
21.50945,36004
21.51757,35060
21.52568,32154
21.53382,35447
21.54193,36066
21.55007,33169
21.55818,34652
21.56630,33571
21.57443,34092
21.58255,39633
21.59068,41853
21.59880,42806
21.60692,47457
21.61505,52198
21.62317,50262
21.63128,58527
21.63942,55008
21.64753,51834
21.65567,43315
21.66378,41939
21.67190,38812
21.68003,38978
21.68815,40586
21.69628,39408
21.70440,36172
21.71252,38862
21.72065,38006
21.72877,39542
21.73690,38570
21.74502,37281
21.75313,35905
21.76127,36824
21.76938,37386
21.77750,36410
21.78563,38575
21.79375,41610
21.80188,41824
21.81000,47746
21.81812,48379
21.82625,47390
21.83437,44852
21.84250,43896
21.85062,39657
21.85873,35162
21.86687,38377
21.87498,41339
21.88312,33151
21.89123,34241
21.89935,34643
21.90748,35007
21.91560,35071
21.92372,34888
21.93185,34738
21.93997,36292
21.94810,34814
21.95622,33139
21.96433,32559
21.97247,31201
21.98058,32211
21.98872,33154
21.99683,33867
22.00495,34936
22.01308,32155
22.02120,34125
22.02932,38180
22.03745,32366
22.04557,33835
22.05370,39773
22.06182,33301
22.06993,34148
22.07807,34259
22.08618,36586
22.09432,35961
22.10243,34908
22.11055,36787
22.11868,38083
22.12680,35011
22.13493,38755
22.14305,34436
22.15117,32962
22.15930,36594
22.16742,40384
22.17553,32765
22.18367,36336
22.19178,34667
22.19992,34494
22.20803,40400
22.21615,34926
22.22428,32714
22.23240,35123
22.24053,33820
22.24865,35887
22.25677,33409
22.26490,30211
22.27302,36491
22.28115,32007
22.28927,36724
22.29738,32851
22.30552,30660
22.31363,33044
22.32175,32164
22.32988,34648
22.33800,34693
22.34613,36623
22.35425,34165
22.36237,33013
22.37050,31515
22.37862,34307
22.38675,35467
22.39487,35101
22.40298,35108
22.41112,35330
22.41923,30918
22.42735,33029
22.43548,33515
22.44360,32865
22.45173,31521
22.45985,37477
22.46797,32413
22.47610,30841
22.48422,31692
22.49235,36342
22.50047,33016
22.50858,29368
22.51672,34146
22.52483,31295
22.53297,33641
22.54108,33334
22.54920,30647
22.55733,31554
22.56545,36260
22.57357,33648
22.58170,30239
22.58982,33978
22.59795,32864
22.60607,34378
22.61418,32728
22.62232,29528
22.63043,30901
22.63857,31427
22.64668,30976
22.65480,33867
22.66293,31442
22.67105,29418
22.67917,28795
22.68730,30116
22.69542,29365
22.70355,32375
22.71167,31194
22.71978,29819
22.72792,29846
22.73603,32297
22.74417,32039
22.75228,33497
22.76040,33564
22.76853,31822
22.77665,34094
22.78478,33449
22.79290,30456
22.80102,28418
22.80915,31277
22.81727,32275
22.82538,30992
22.83352,30793
22.84163,30302
22.84977,32004
22.85788,34153
22.86600,32621
22.87413,32471
22.88225,36254
22.89038,39347
22.89850,39074
22.90662,44720
22.91475,44263
22.92287,47206
22.93100,54599
22.93912,56268
22.94723,60619
22.95537,60445
22.96348,57207
22.97160,54903
22.97973,58418
22.98785,56136
22.99598,55765
23.00410,48258
23.01222,49347
23.02035,46440
23.02847,44222
23.03660,42950
23.04472,42359
23.05283,38473
23.06097,35044
23.06908,35938
23.07722,36297
23.08533,35094
23.09345,37830
23.10158,34592
23.10970,35301
23.11782,34480
23.12595,31378
23.13407,30729
23.14220,33919
23.15032,32266
23.15843,31789
23.16657,31970
23.17468,34906
23.18282,34087
23.19093,33445
23.19905,32798
23.20718,36078
23.21530,34899
23.22342,30234
23.23155,32877
23.23967,29799
23.24780,32614
23.25592,32655
23.26403,33823
23.27217,32988
23.28028,32238
23.28842,35126
23.29653,33285
23.30465,36674
23.31278,34603
23.32090,33031
23.32903,32420
23.33715,32666
23.34527,32339
23.35340,30953
23.36152,31981
23.36963,38033
23.37777,36335
23.38588,34056
23.39402,34908
23.40213,37173
23.41025,33092
23.41838,33925
23.42650,33989
23.43463,34082
23.44275,32106
23.45087,31732
23.45900,30819
23.46712,34841
23.47523,33421
23.48337,34885
23.49148,31216
23.49962,32566
23.50773,34377
23.51585,30853
23.52398,32755
23.53210,31419
23.54023,31795
23.54835,30907
23.55647,31621
23.56460,32227
23.57272,33145
23.58085,33190
23.58897,33146
23.59708,35481
23.60522,37919
23.61333,34157
23.62145,32307
23.62958,35788
23.63770,35277
23.64583,35344
23.65395,37476
23.66207,38721
23.67020,38815
23.67832,38510
23.68645,43429
23.69457,42488
23.70268,42960
23.71082,41355
23.71893,43045
23.72707,42681
23.73518,49534
23.74330,73883
23.75143,139591
23.75955,283574
23.76767,560751
23.77580,987639
23.78392,1477652
23.79205,1807962
23.80017,1812889
23.80828,1593719
23.81642,1279687
23.82453,946392
23.83267,708124
23.84078,543851
23.84890,435210
23.85703,354229
23.86515,297842
23.87327,257459
23.88140,226167
23.88952,201995
23.89765,176436
23.90577,165919
23.91388,157357
23.92202,141271
23.93013,132527
23.93827,125228
23.94638,123426
23.95450,117994
23.96263,108866
23.97075,108226
23.97888,98340
23.98700,94083
23.99512,91808
24.00325,87267
24.01137,82209
24.01948,80802
24.02762,81973
24.03573,77066
24.04387,77906
24.05198,74612
24.06010,74351
24.06823,69622
24.07635,72937
24.08448,74257
24.09260,74214
24.10072,73727
24.10885,68596
24.11697,68170
24.12510,67283
24.13322,67176
24.14133,64997
24.14947,63387
24.15758,67688
24.16570,64785
24.17383,64273
24.18195,72025
24.19008,76841
24.19820,79064
24.20632,80370
24.21445,72781
24.22257,73983
24.23070,72786
24.23882,67660
24.24693,65563
24.25507,63669
24.26318,58207
24.27130,55432
24.27943,55656
24.28755,53550
24.29568,52782
24.30380,51935
24.31192,51189
24.32005,52906
24.32817,54554
24.33630,64185
24.34442,82730
24.35253,102153
24.36067,118037
24.36878,113567
24.37692,99187
24.38503,85272
24.39315,66951
24.40128,56685
24.40940,51030
24.41752,47266
24.42565,49475
24.43377,47049
24.44190,51074
24.45002,53845
24.45813,54506
24.46627,59961
24.47438,58834
24.48252,58463
24.49063,57457
24.49875,51124
24.50688,49866
24.51500,48314
24.52312,49873
24.53125,46892
24.53937,42776
24.54750,44935
24.55562,42234
24.56373,44646
24.57187,40471
24.57998,43184
24.58812,42354
24.59623,38967
24.60435,39280
24.61248,41244
24.62060,39411
24.62873,40366
24.63685,45290
24.64497,43480
24.65310,42264
24.66122,41147
24.66933,40103
24.67747,44892
24.68558,45671
24.69372,39747
24.70183,40203
24.70995,37203
24.71808,40946
24.72620,40781
24.73433,39862
24.74245,37036
24.75057,37666
24.75870,39406
24.76682,37784
24.77495,37075
24.78307,39596
24.79118,35722
24.79932,37325
24.80743,42477
24.81555,37823
24.82368,37049
24.83180,41371
24.83993,37117
24.84805,37722
24.85617,36665
24.86430,37259
24.87242,37908
24.88055,35617
24.88867,35563
24.89678,33397
24.90492,34316
24.91303,36358
24.92115,32595
24.92928,38527
24.93740,35519
24.94553,34759
24.95365,32946
24.96177,37380
24.96990,34573
24.97802,36321
24.98615,33674
24.99427,35362
25.00238,35988
25.01052,36799
25.01863,39335
25.02677,34523
25.03488,35650
25.04300,35910
25.05113,34191
25.05925,34626
25.06737,35667
25.07550,38513
25.08362,34382
25.09175,35525
25.09987,34825
25.10798,34623
25.11612,35878
25.12423,33761
25.13237,36103
25.14048,39465
25.14860,39361
25.15673,37153
25.16485,37332
25.17298,38788
25.18110,36378
25.18922,36251
25.19735,35628
25.20547,35172
25.21358,35858
25.22172,36080
25.22983,31594
25.23797,39093
25.24608,33385
25.25420,35200
25.26233,36282
25.27045,38271
25.27858,34959
25.28670,39097
25.29482,38528
25.30295,41972
25.31107,45712
25.31918,44036
25.32732,43288
25.33543,39661
25.34357,42143
25.35168,39770
25.35980,40485
25.36793,34600
25.37605,33008
25.38418,35330
25.39230,32534
25.40042,35033
25.40855,34506
25.41667,35637
25.42480,35693
25.43292,37267
25.44103,36810
25.44917,34956
25.45728,33647
25.46540,36743
25.47353,32729
25.48165,35133
25.48978,36180
25.49790,36298
25.50602,33583
25.51415,37092
25.52227,33978
25.53040,32758
25.53852,33989
25.54663,36440
25.55477,34397
25.56288,31526
25.57100,32296
25.57913,30529
25.58725,31332
25.59538,31453
25.60350,36836
25.61162,32344
25.61975,30021
25.62787,33219
25.63600,30682
25.64412,31633
25.65223,29521
25.66037,29175
25.66848,30078
25.67662,29640
25.68473,31414
25.69285,28753
25.70098,33289
25.70910,32292
25.71722,33754
25.72535,31915
25.73347,37306
25.74160,32310
25.74972,33198
25.75783,35005
25.76597,33059
25.77408,34225
25.78222,32780
25.79033,31763
25.79845,32129
25.80658,32712
25.81470,31491
25.82283,32833
25.83095,33936
25.83907,33369
25.84720,32294
25.85532,33502
25.86343,31439
25.87157,30073
25.87968,28826
25.88782,31665
25.89593,26345
25.90405,30094
25.91218,29338
25.92030,28986
25.92843,27717
25.93655,31501
25.94467,34710
25.95280,31871
25.96092,30846
25.96903,29047
25.97717,32550
25.98528,27855
25.99342,33748
26.00153,29967
26.00965,31128
26.01778,28689
26.02590,30456
26.03403,28895
26.04215,30047
26.05027,29833
26.05840,30425
26.06652,28465
26.07465,28836
26.08277,29050
26.09088,30288
26.09902,31181
26.10713,31332
26.11525,34486
26.12338,33567
26.13150,34899
26.13963,40408
26.14775,38504
26.15587,39180
26.16400,42328
26.17212,42494
26.18025,40748
26.18837,37447
26.19648,38304
26.20462,35540
26.21273,35955
26.22087,33007
26.22898,32404
26.23710,32679
26.24523,29291
26.25335,32664
26.26147,31834
26.26960,35993
26.27772,32827
26.28585,32460
26.29397,27976
26.30208,26048
26.31022,25626
26.31833,26891
26.32647,33806
26.33458,30162
26.34270,27200
26.35083,31057
26.35895,28903
26.36707,29344
26.37520,30956
26.38332,29636
26.39145,30389
26.39957,28910
26.40768,28863
26.41582,27594
26.42393,31116
26.43207,30833
26.44018,30564
26.44830,27464
26.45643,28472
26.46455,31415
26.47268,30718
26.48080,32726
26.48892,33292
26.49705,29550
26.50517,25772
26.51328,28689
26.52142,31023
26.52953,26113
26.53767,30352
26.54578,32513
26.55390,29468
26.56203,27305
26.57015,28293
26.57828,28014
26.58640,28667
26.59452,31551
26.60265,29546
26.61077,29183
26.61890,31230
26.62702,29898
26.63513,29921
26.64327,28732
26.65138,28082
26.65950,27945
26.66763,28046
26.67575,28368
26.68388,28681
26.69200,30292
26.70012,32184
26.70825,30242
26.71637,31097
26.72450,31802
26.73262,29360
26.74073,29284
26.74887,30625
26.75698,27792
26.76510,28133
26.77323,28578
26.78135,29240
26.78948,27596
26.79760,33166
26.80572,33317
26.81385,34307
26.82197,37699
26.83010,31839
26.83822,29557
26.84633,34691
26.85447,31062
26.86258,31805
26.87072,33567
26.87883,28979
26.88695,29497
26.89508,28889
26.90320,30269
26.91132,32181
26.91945,31760
26.92757,28512
26.93570,30713
26.94382,35067
26.95193,45118
26.96007,62690
26.96818,98571
26.97632,142502
26.98443,207173
26.99255,284627
27.00068,346986
27.00880,378307
27.01692,375132
27.02505,340474
27.03317,288370
27.04130,231293
27.04942,197105
27.05753,159485
27.06567,136591
27.07378,109137
27.08192,100551
27.09003,91006
27.09815,80453
27.10628,73354
27.11440,70270
27.12253,67253
27.13065,61930
27.13877,59273
27.14690,54705
27.15502,54990
27.16313,57553
27.17127,56655
27.17938,57246
27.18752,57297
27.19563,52498
27.20375,49723
27.21188,49818
27.22000,48097
27.22813,49357
27.23625,45807
27.24437,45948
27.25250,45826
27.26062,47082
27.26875,45792
27.27687,40541
27.28498,40122
27.29312,40840
27.30123,39926
27.30935,37114
27.31748,40017
27.32560,38485
27.33373,39755
27.34185,41394
27.34997,40319
27.35810,37370
27.36622,38061
27.37435,34857
27.38247,36457
27.39058,39141
27.39872,34153
27.40683,42020
27.41495,34552
27.42308,34763
27.43120,36787
27.43933,36991
27.44745,34828
27.45557,37213
27.46370,37397
27.47182,36457
27.47995,35065
27.48807,37723
27.49618,38438
27.50432,38333
27.51243,37241
27.52057,35618
27.52868,36976
27.53680,36938
27.54493,32721
27.55305,36172
27.56117,34934
27.56930,37814
27.57742,36155
27.58555,32794
27.59367,33883
27.60178,35636
27.60992,35682
27.61803,30262
27.62617,35265
27.63428,33829
27.64240,31428
27.65053,31403
27.65865,35869
27.66678,33458
27.67490,32520
27.68302,29538
27.69115,32747
27.69927,31256
27.70738,31174
27.71552,32788
27.72363,34606
27.73177,37218
27.73988,38429
27.74800,42246
27.75613,34576
27.76425,34839
27.77238,35756
27.78050,31845
27.78862,34616
27.79675,32691
27.80487,33603
27.81298,30513
27.82112,33994
27.82923,32636
27.83737,29718
27.84548,32322
27.85360,34199
27.86173,34619
27.86985,33123
27.87798,29182
27.88610,31609
27.89422,32605
27.90235,30290
27.91047,31185
27.91860,31627
27.92672,31954
27.93483,29165
27.94297,28171
27.95108,32568
27.95920,33112
27.96733,31676
27.97545,34161
27.98358,35538
27.99170,35008
27.99982,35507
28.00795,31324
28.01607,33237
28.02420,36857
28.03232,34573
28.04043,32580
28.04857,33168
28.05668,33279
28.06480,34976
28.07293,33114
28.08105,37783
28.08918,42168
28.09730,51123
28.10542,53623
28.11355,55619
28.12167,60225
28.12980,59294
28.13792,54161
28.14603,50564
28.15417,47174
28.16228,46331
28.17042,40760
28.17853,39304
28.18665,34684
28.19478,40863
28.20290,34537
28.21102,32798
28.21915,32992
28.22727,34577
28.23540,31101
28.24352,32263
28.25163,36206
28.25977,46799
28.26788,57540
28.27602,76359
28.28413,98551
28.29225,122480
28.30038,158184
28.30850,188330
28.31663,201362
28.32475,216331
28.33287,218735
28.34100,208627
28.34912,206391
28.35723,191770
28.36537,185167
28.37348,154084
28.38162,145489
28.38973,126889
28.39785,117050
28.40598,99718
28.41410,92950
28.42223,84328
28.43035,82639
28.43847,74870
28.44660,70623
28.45472,65310
28.46285,64065
28.47097,65205
28.47908,56441
28.48722,57682
28.49533,56072
28.50345,56668
28.51158,53769
28.51970,50750
28.52783,50054
28.53595,49279
28.54407,47704
28.55220,52777
28.56032,46125
28.56845,48609
28.57657,48680
28.58468,46167
28.59282,41614
28.60093,46367
28.60905,43898
28.61718,43805
28.62530,43085
28.63343,45604
28.64155,48448
28.64967,48466
28.65780,47897
28.66592,50118
28.67405,54981
28.68217,50872
28.69028,49633
28.69842,49211
28.70653,56774
28.71467,69009
28.72278,75174
28.73090,77430
28.73903,76193
28.74715,63995
28.75527,55331
28.76340,48247
28.77152,45687
28.77965,38546
28.78777,40309
28.79588,41442
28.80402,40173
28.81213,38546
28.82027,38059
28.82838,38203
28.83650,37885
28.84463,39513
28.85275,37165
28.86087,38455
28.86900,39787
28.87712,39992
28.88525,39907
28.89337,36260
28.90148,39639
28.90962,35544
28.91773,37014
28.92587,37848
28.93398,38687
28.94210,36765
28.95023,35139
28.95835,41505
28.96648,39777
28.97460,39907
28.98272,40991
28.99085,36834
28.99897,39077
29.00708,39852
29.01522,33381
29.02333,32965
29.03147,39058
29.03958,35247
29.04770,37823
29.05583,37337
29.06395,34360
29.07208,35301
29.08020,34325
29.08832,36531
29.09645,33197
29.10457,31279
29.11268,33871
29.12082,34061
29.12893,35626
29.13707,32219
29.14518,35191
29.15330,40008
29.16143,36597
29.16955,37570
29.17768,35860
29.18580,35561
29.19392,36549
29.20205,36511
29.21017,38502
29.21830,39336
29.22642,37597
29.23453,36148
29.24267,35617
29.25078,36853
29.25890,37262
29.26703,37033
29.27515,35912
29.28328,32208
29.29140,36227
29.29952,32898
29.30765,35903
29.31577,35341
29.32390,32609
29.33202,34279
29.34013,34085
29.34827,34540
29.35638,32817
29.36452,36532
29.37263,34563
29.38075,31904
29.38888,36376
29.39700,32947
29.40512,35063
29.41325,36339
29.42137,36630
29.42950,37074
29.43762,38621
29.44573,33469
29.45387,33262
29.46198,33915
29.47012,32334
29.47823,35629
29.48635,36102
29.49448,38251
29.50260,39321
29.51073,37386
29.51885,36770
29.52697,36217
29.53510,35117
29.54322,35108
29.55133,33979
29.55947,34459
29.56758,36773
29.57572,38855
29.58383,39795
29.59195,39422
29.60008,39207
29.60820,41959
29.61633,39829
29.62445,41000
29.63257,35909
29.64070,36267
29.64882,36529
29.65693,34516
29.66507,33870
29.67318,33018
29.68132,35778
29.68943,33022
29.69755,33878
29.70568,33139
29.71380,32132
29.72193,33719
29.73005,32189
29.73817,32718
29.74630,30168
29.75442,32040
29.76255,31771
29.77067,30236
29.77878,31281
29.78692,31970
29.79503,31407
29.80315,30175
29.81128,31415
29.81940,33190
29.82753,33222
29.83565,31038
29.84377,30926
29.85190,29861
29.86002,31923
29.86815,37203
29.87627,40402
29.88438,42142
29.89252,54654
29.90063,61055
29.90875,77623
29.91688,88186
29.92500,105971
29.93313,116548
29.94125,124148
29.94937,133537
29.95750,139602
29.96562,144643
29.97375,151726
29.98187,149608
29.98998,140712
29.99812,134605
30.00623,122669
30.01437,112325
30.02248,111076
30.03060,108418
30.03873,96772
30.04685,90007
30.05497,84515
30.06310,80370
30.07122,73211
30.07935,69869
30.08747,65589
30.09558,66845
30.10372,66847
30.11183,60093
30.11997,61823
30.12808,54095
30.13620,56691
30.14433,54052
30.15245,54483
30.16058,52368
30.16870,52728
30.17682,51671
30.18495,47988
30.19307,48211
30.20118,47192
30.20932,47369
30.21743,48838
30.22557,45542
30.23368,46472
30.24180,41467
30.24993,39595
30.25805,44030
30.26618,41623
30.27430,46084
30.28242,40043
30.29055,43846
30.29867,43060
30.30678,42019
30.31492,40129
30.32303,40535
30.33117,38022
30.33928,41204
30.34740,39439
30.35553,43353
30.36365,41711
30.37178,38148
30.37990,37286
30.38802,36408
30.39615,39898
30.40427,39593
30.41240,37571
30.42052,38310
30.42863,40535
30.43677,40594
30.44488,38537
30.45300,38081
30.46113,37187
30.46925,36470
30.47738,38691
30.48550,35976
30.49362,36794
30.50175,38513
30.50987,39952
30.51800,36936
30.52612,39019
30.53423,37806
30.54237,36821
30.55048,36015
30.55862,34338
30.56673,38338
30.57485,34207
30.58298,41799
30.59110,36706
30.59922,35434
30.60735,34703
30.61547,37505
30.62360,36882
30.63172,33109
30.63983,34872
30.64797,35061
30.65608,32792
30.66422,34517
30.67233,36898
30.68045,34336
30.68858,36496
30.69670,34319
30.70482,35548
30.71295,34392
30.72107,35028
30.72920,36988
30.73732,36138
30.74543,39781
30.75357,36086
30.76168,32714
30.76982,36208
30.77793,37246
30.78605,36529
30.79418,38844
30.80230,33696
30.81043,38925
30.81855,34995
30.82667,36111
30.83480,37477
30.84292,36288
30.85103,34753
30.85917,36248
30.86728,36793
30.87542,33040
30.88353,38825
30.89165,32178
30.89978,30948
30.90790,35215
30.91603,33713
30.92415,30448
30.93227,36297
30.94040,34921
30.94852,34946
30.95663,34411
30.96477,33820
30.97288,33373
30.98102,31790
30.98913,33544
30.99725,34918
31.00538,37554
31.01350,36578
31.02163,34552
31.02975,34191
31.03787,39607
31.04600,37115
31.05412,37055
31.06225,34861
31.07037,37652
31.07848,37876
31.08662,40228
31.09473,38556
31.10285,39533
31.11098,40185
31.11910,40292
31.12723,35719
31.13535,37037
31.14347,41330
31.15160,43486
31.15972,39751
31.16785,42948
31.17597,52687
31.18408,68776
31.19222,85014
31.20033,106373
31.20847,128384
31.21658,128941
31.22470,122563
31.23283,114328
31.24095,87678
31.24907,68994
31.25720,55935
31.26532,42798
31.27345,39469
31.28157,40474
31.28968,37521
31.29782,37256
31.30593,37524
31.31407,34816
31.32218,34711
31.33030,38336
31.33843,35813
31.34655,37166
31.35467,35034
31.36280,36609
31.37092,37722
31.37905,35494
31.38717,35635
31.39528,36868
31.40342,38394
31.41153,35616
31.41967,34544
31.42778,35637
31.43590,35748
31.44403,38712
31.45215,35341
31.46028,34068
31.46840,37627
31.47652,32776
31.48465,36686
31.49277,36815
31.50088,36697
31.50902,32655
31.51713,36793
31.52527,36528
31.53338,36417
31.54150,32674
31.54963,32484
31.55775,33106
31.56588,32951
31.57400,34995
31.58212,35096
31.59025,33923
31.59837,32278
31.60650,33156
31.61462,31539
31.62273,36046
31.63087,34297
31.63898,32253
31.64710,36389
31.65523,37204
31.66335,36592
31.67148,38648
31.67960,38738
31.68772,37885
31.69585,38773
31.70397,39878
31.71210,39206
31.72022,38024
31.72833,36580
31.73647,34635
31.74458,40007
31.75270,37304
31.76083,34965
31.76895,28648
31.77708,36030
31.78520,38089
31.79332,35338
31.80145,37311
31.80957,39124
31.81770,40091
31.82582,41361
31.83393,50538
31.84207,52699
31.85018,62017
31.85832,80218
31.86643,88579
31.87455,100487
31.88268,109288
31.89080,108125
31.89892,117286
31.90705,117688
31.91517,117393
31.92330,108741
31.93142,101022
31.93953,99169
31.94767,95185
31.95578,88208
31.96392,84230
31.97203,80985
31.98015,75151
31.98828,70496
31.99640,75101
32.00452,70617
32.01265,67866
32.02077,70653
32.02890,69854
32.03702,67866
32.04513,59401
32.05327,55901
32.06138,62086
32.06952,55553
32.07763,52886
32.08575,50884
32.09388,49549
32.10200,50940
32.11013,45651
32.11825,47923
32.12637,49691
32.13450,46495
32.14262,43472
32.15073,40021
32.15887,47991
32.16698,45874
32.17512,41585
32.18323,42403
32.19135,39760
32.19948,42642
32.20760,41441
32.21573,42638
32.22385,41381
32.23197,41169
32.24010,40260
32.24822,42999
32.25635,42897
32.26447,39581
32.27258,40193
32.28072,40509
32.28883,39316
32.29695,39707
32.30508,41656
32.31320,42632
32.32133,39554
32.32945,41396
32.33757,45695
32.34570,43641
32.35382,42908
32.36195,45031
32.37007,42708
32.37818,40932
32.38632,41984
32.39443,39400
32.40255,39901
32.41068,39129
32.41880,37150
32.42693,39791
32.43505,35200
32.44317,37992
32.45130,37996
32.45942,39854
32.46755,39969
32.47567,40785
32.48378,37829
32.49192,36850
32.50003,38515
32.50817,38161
32.51628,40051
32.52440,35946
32.53253,36794
32.54065,39281
32.54877,37031
32.55690,37024
32.56502,44823
32.57315,38038
32.58127,43633
32.58938,44850
32.59752,48381
32.60563,62003
32.61377,66535
32.62188,70373
32.63000,66275
32.63813,61588
32.64625,55714
32.65438,48448
32.66250,42846
32.67062,42450
32.67875,41346
32.68687,43188
32.69498,45843
32.70312,42130
32.71123,45432
32.71937,43287
32.72748,40467
32.73560,43366
32.74373,39820
32.75185,39368
32.75998,36985
32.76810,37396
32.77622,38414
32.78435,38104
32.79247,37372
32.80058,36968
32.80872,36633
32.81683,38428
32.82497,39341
32.83308,34455
32.84120,39691
32.84933,38815
32.85745,34416
32.86558,36543
32.87370,35594
32.88182,37505
32.88995,33806
32.89807,38480
32.90620,41427
32.91432,42814
32.92243,40366
32.93057,37073
32.93868,39569
32.94680,36326
32.95493,38618
32.96305,39245
32.97118,40613
32.97930,40786
32.98742,38436
32.99555,39341
33.00367,38358
33.01180,36970
33.01992,35849
33.02803,38066
33.03617,38064
33.04428,36561
33.05242,35014
33.06053,38231
33.06865,37116
33.07678,37625
33.08490,44173
33.09302,45702
33.10115,46682
33.10927,55809
33.11740,61038
33.12552,57032
33.13363,57232
33.14177,49564
33.14988,51685
33.15802,46955
33.16613,47245
33.17425,42758
33.18238,42152
33.19050,42103
33.19862,39609
33.20675,36273
33.21487,37935
33.22300,34341
33.23112,36940
33.23923,41194
33.24737,41250
33.25548,40955
33.26362,40470
33.27173,37179
33.27985,41191
33.28798,40691
33.29610,36254
33.30423,39892
33.31235,38178
33.32047,37469
33.32860,37551
33.33672,33982
33.34483,39270
33.35297,38182
33.36108,38973
33.36922,38621
33.37733,41912
33.38545,39788
33.39358,38356
33.40170,35772
33.40983,39358
33.41795,38666
33.42607,37028
33.43420,35525
33.44232,37393
33.45043,35940
33.45857,40097
33.46668,37566
33.47482,34980
33.48293,37483
33.49105,38674
33.49918,35592
33.50730,35384
33.51543,37453
33.52355,39158
33.53167,39949
33.53980,41478
33.54792,38282
33.55605,38746
33.56417,35014
33.57228,39615
33.58042,42254
33.58853,39598
33.59665,40442
33.60478,37680
33.61290,38251
33.62103,39254
33.62915,35821
33.63727,41679
33.64540,39096
33.65352,40554
33.66165,37196
33.66977,37002
33.67788,37006
33.68602,39844
33.69413,41181
33.70227,37350
33.71038,36402
33.71850,39944
33.72663,37632
33.73475,34498
33.74287,36589
33.75100,41246
33.75912,40938
33.76725,40927
33.77537,38573
33.78348,38797
33.79162,41915
33.79973,42584
33.80787,42084
33.81598,41785
33.82410,37775
33.83223,44994
33.84035,39551
33.84847,39916
33.85660,38023
33.86472,42308
33.87285,43503
33.88097,42794
33.88908,48491
33.89722,46318
33.90533,42424
33.91347,43746
33.92158,42623
33.92970,41931
33.93783,44804
33.94595,42044
33.95408,43746
33.96220,44219
33.97032,46265
33.97845,43068
33.98657,43497
33.99468,42322
34.00282,44598
34.01093,41540
34.01907,40020
34.02718,46537
34.03530,42244
34.04343,40609
34.05155,43217
34.05968,43632
34.06780,42604
34.07592,44076
34.08405,43621
34.09217,42476
34.10030,41365
34.10842,42215
34.11653,41157
34.12467,39117
34.13278,43465
34.14090,42287
34.14903,43751
34.15715,41337
34.16528,38635
34.17340,41270
34.18152,40742
34.18965,40476
34.19777,38234
34.20590,41744
34.21402,43979
34.22213,42528
34.23027,39803
34.23838,38373
34.24650,40762
34.25463,39214
34.26275,41290
34.27088,40030
34.27900,41807
34.28712,42413
34.29525,39700
34.30337,39022
34.31150,39562
34.31962,44186
34.32773,44653
34.33587,45579
34.34398,44842
34.35212,41384
34.36023,42095
34.36835,44144
34.37648,42495
34.38460,41955
34.39272,44873
34.40085,41723
34.40897,39463
34.41710,40621
34.42522,41815
34.43333,42970
34.44147,43962
34.44958,50838
34.45772,63277
34.46583,73467
34.47395,92419
34.48208,112317
34.49020,122894
34.49832,134567
34.50645,135794
34.51457,131426
34.52270,119499
34.53082,109868
34.53893,106697
34.54707,95699
34.55518,86853
34.56332,80242
34.57143,80356
34.57955,73538
34.58768,68725
34.59580,68815
34.60393,66546
34.61205,67778
34.62017,61723
34.62830,58561
34.63642,58704
34.64453,56763
34.65267,57131
34.66078,62139
34.66892,57583
34.67703,58614
34.68515,56116
34.69328,55265
34.70140,56146
34.70953,57657
34.71765,54469
34.72577,53417
34.73390,55697
34.74202,55859
34.75015,56044
34.75827,57098
34.76638,54003
34.77452,54498
34.78263,48842
34.79075,57090
34.79888,48084
34.80700,52513
34.81513,51326
34.82325,49826
34.83137,49696
34.83950,51444
34.84762,49242
34.85575,45534
34.86387,48225
34.87198,50115
34.88012,47620
34.88823,49035
34.89637,52261
34.90448,47710
34.91260,45593
34.92073,48726
34.92885,50919
34.93697,49531
34.94510,49102
34.95322,48419
34.96135,50780
34.96947,47346
34.97758,48113
34.98572,48800
34.99383,44821
35.00197,49452
35.01008,47844
35.01820,48423
35.02633,47445
35.03445,53727
35.04257,46211
35.05070,46888
35.05882,46980
35.06695,49989
35.07507,50401
35.08318,50212
35.09132,50598
35.09943,51494
35.10757,50803
35.11568,52627
35.12380,49874
35.13193,49349
35.14005,48913
35.14818,50998
35.15630,48890
35.16442,50521
35.17255,50539
35.18067,53187
35.18878,47196
35.19692,47421
35.20503,50672
35.21317,49462
35.22128,53101
35.22940,48916
35.23753,52912
35.24565,48551
35.25378,53594
35.26190,48363
35.27002,50727
35.27815,49907
35.28627,53991
35.29438,52736
35.30252,49920
35.31063,49290
35.31877,47368
35.32688,46105
35.33500,45104
35.34313,49613
35.35125,49921
35.35938,48965
35.36750,47016
35.37562,46986
35.38375,51161
35.39187,47503
35.40000,45991
35.40812,46875
35.41623,49524
35.42437,53403
35.43248,48659
35.44060,49971
35.44873,49221
35.45685,54756
35.46498,53121
35.47310,55416
35.48122,56034
35.48935,51068
35.49747,51935
35.50560,54288
35.51372,51637
35.52183,48472
35.52997,52956
35.53808,52956
35.54622,51094
35.55433,55010
35.56245,51134
35.57058,52760
35.57870,52060
35.58682,50525
35.59495,58210
35.60307,54240
35.61120,57385
35.61932,57118
35.62743,57938
35.63557,58422
35.64368,58187
35.65182,51804
35.65993,54616
35.66805,51768
35.67618,51416
35.68430,47809
35.69242,51062
35.70055,49860
35.70867,54380
35.71680,51518
35.72492,49174
35.73303,53595
35.74117,47293
35.74928,51058
35.75742,48423
35.76553,48691
35.77365,49992
35.78178,50919
35.78990,50373
35.79803,51624
35.80615,54864
35.81427,54076
35.82240,50483
35.83052,51656
35.83863,47990
35.84677,51536
35.85488,48676
35.86302,48631
35.87113,52030
35.87925,48628
35.88738,49421
35.89550,51996
35.90363,50230
35.91175,52468
35.91987,53929
35.92800,49543
35.93612,51433
35.94425,52342
35.95237,47632
35.96048,50257
35.96862,55743
35.97673,50673
35.98485,50655
35.99298,56074
36.00110,53797
36.00923,53062
36.01735,57466
36.02547,58564
36.03360,56012
36.04172,54981
36.04985,55026
36.05797,53834
36.06608,50564
36.07422,56439
36.08233,56024
36.09045,54572
36.09858,54352
36.10670,52862
36.11483,49798
36.12295,49373
36.13107,52043
36.13920,52209
36.14732,53174
36.15545,56691
36.16357,54677
36.17168,52920
36.17982,53186
36.18793,53231
36.19607,56462
36.20418,51033
36.21230,53555
36.22043,51449
36.22855,61208
36.23667,67000
36.24480,74352
36.25292,83493
36.26105,91983
36.26917,95938
36.27728,84061
36.28542,76646
36.29353,67274
36.30167,60907
36.30978,61875
36.31790,55159
36.32603,53975
36.33415,55653
36.34227,55754
36.35040,51401
36.35852,53849
36.36665,52603
36.37477,59626
36.38288,56671
36.39102,58985
36.39913,58257
36.40727,63575
36.41538,60263
36.42350,60207
36.43163,56286
36.43975,53743
36.44788,58040
36.45600,51478
36.46412,57545
36.47225,53619
36.48037,52340
36.48848,51778
36.49662,54493
36.50473,50524
36.51287,56385
36.52098,51815
36.52910,56447
36.53723,56443
36.54535,54350
36.55348,52909
36.56160,54184
36.56972,55154
36.57785,55937
36.58597,61618
36.59410,56715
36.60222,65228
36.61033,58117
36.61847,58194
36.62658,59780
36.63470,56066
36.64283,58431
36.65095,54446
36.65908,58132
36.66720,59260
36.67532,52485
36.68345,54538
36.69157,58663
36.69970,56628
36.70782,58911
36.71593,60293
36.72407,54826
36.73218,55014
36.74030,56206
36.74843,57178
36.75655,54332
36.76468,56071
36.77280,58417
36.78092,59080
36.78905,58678
36.79717,54431
36.80530,53074
36.81342,54680
36.82153,55017
36.82967,55958
36.83778,57200
36.84592,58647
36.85403,59057
36.86215,56522
36.87028,57871
36.87840,60137
36.88652,52767
36.89465,54909
36.90277,56346
36.91090,56902
36.91902,59400
36.92713,56049
36.93527,53470
36.94338,55532
36.95152,53093
36.95963,56376
36.96775,56475
36.97588,54758
36.98400,59854
36.99213,65320
37.00025,74485
37.00837,78596
37.01650,92804
37.02462,100700
37.03273,101893
37.04087,98148
37.04898,90469
37.05712,80524
37.06523,76014
37.07335,69427
37.08148,65015
37.08960,63466
37.09773,64027
37.10585,60334
37.11397,61908
37.12210,65843
37.13022,71798
37.13833,64512
37.14647,67838
37.15458,67896
37.16272,63310
37.17083,67136
37.17895,60208
37.18708,64717
37.19520,58410
37.20333,57969
37.21145,60179
37.21957,64033
37.22770,65722
37.23582,60707
37.24395,65235
37.25207,72160
37.26018,77186
37.26832,87327
37.27643,108875
37.28455,122897
37.29268,135341
37.30080,145088
37.30893,151970
37.31705,137494
37.32517,126599
37.33330,116309
37.34142,104769
37.34955,100771
37.35767,94027
37.36578,94036
37.37392,86955
37.38203,85242
37.39015,82500
37.39828,82137
37.40640,84619
37.41453,81886
37.42265,79726
37.43077,76332
37.43890,76571
37.44702,71886
37.45515,76581
37.46327,69765
37.47138,71077
37.47952,71230
37.48763,77748
