Z:\data\JTB-E02\BACandBLUE\JTB-E02-203-17.D Fri Mar 08 17:59:02 2019
Start of data points
2.09535	70183
2.10347	69888
2.11158	70035
2.11972	69542
2.12783	65406
2.13597	77962
2.14408	67765
2.15220	69837
2.16033	67570
2.16845	65381
2.17658	65527
2.18470	63384
2.19282	61927
2.20095	62168
2.20907	63506
2.21718	59395
2.22532	57998
2.23343	58269
2.24157	60366
2.24968	59377
2.25780	54479
2.26593	187380
2.27405	1129659
2.28218	1936031
2.29030	1114205
2.29842	597693
2.30655	452893
2.31467	394247
2.32280	337701
2.33092	293549
2.33903	270162
2.34717	243526
2.35528	226512
2.36340	213328
2.37153	200658
2.37965	199741
2.38778	180993
2.39590	178253
2.40402	173824
2.41215	178313
2.42027	167842
2.42840	164400
2.43652	158525
2.44463	157247
2.45277	160554
2.46088	145756
2.46900	148074
2.47713	134638
2.48525	136508
2.49338	149961
2.50150	146785
2.50962	138595
2.51775	138852
2.52587	127754
2.53400	126091
2.54212	133925
2.55023	202161
2.55837	596727
2.56648	928161
2.57462	617106
2.58273	418306
2.59085	345353
2.59898	305450
2.60710	362814
2.61522	492431
2.62335	430248
2.63147	346333
2.63960	291631
2.64772	258773
2.65583	238993
2.66397	222331
2.67208	213643
2.68022	197338
2.68833	198424
2.69645	179237
2.70458	180914
2.71270	171042
2.72083	166484
2.72895	171773
2.73707	170507
2.74520	157596
2.75332	157387
2.76143	156555
2.76957	180365
2.77768	620251
2.78582	2192777
2.79393	2745740
2.80205	1672506
2.81018	1014481
2.81830	834339
2.82643	724347
2.83455	667019
2.84267	572716
2.85080	478761
2.85892	418573
2.86703	371312
2.87517	327591
2.88328	308643
2.89142	288252
2.89953	269180
2.90765	250889
2.91578	241054
2.92390	228748
2.93203	220990
2.94015	211534
2.94827	207920
2.95640	200573
2.96452	199462
2.97265	190556
2.98077	181788
2.98888	176636
2.99702	186906
3.00513	202054
3.01325	193411
3.02138	191889
3.02950	173746
3.03763	166514
3.04575	166071
3.05387	165576
3.06200	179578
3.07012	179233
3.07825	225564
3.08637	597300
3.09448	1556420
3.10262	3069177
3.11073	5237686
3.11887	5340960
3.12698	3530588
3.13510	2401818
3.14323	1902233
3.15135	1569337
3.15947	1305863
3.16760	1143241
3.17572	1060715
3.18385	1167725
3.19197	1852423
3.20008	2377661
3.20822	1929562
3.21633	1434988
3.22447	1165741
3.23258	1016361
3.24070	894089
3.24883	775075
3.25695	711195
3.26507	637430
3.27320	589681
3.28132	570390
3.28945	718136
3.29757	1632156
3.30568	3893105
3.31382	6012143
3.32193	6135735
3.33007	4678253
3.33818	3347752
3.34630	2611631
3.35443	2162638
3.36255	1809619
3.37068	1602451
3.37880	1407789
3.38692	1279588
3.39505	1168996
3.40317	1046844
3.41128	984489
3.41942	925858
3.42753	870560
3.43567	841576
3.44378	797623
3.45190	745770
3.46003	702728
3.46815	690309
3.47628	702977
3.48440	676161
3.49252	631449
3.50065	588367
3.50877	568205
3.51688	543733
3.52502	515848
3.53313	516592
3.54127	522252
3.54938	503959
3.55750	466269
3.56563	445225
3.57375	440625
3.58188	421773
3.59000	409893
3.59812	402145
3.60625	381063
3.61437	377193
3.62250	384740
3.63062	430433
3.63873	486680
3.64687	491890
3.65498	486173
3.66310	1324363
3.67123	6137425
3.67935	1.542388E+07
3.68748	1.928095E+07
3.69560	1.465751E+07
3.70372	9035172
3.71185	6268141
3.71997	5008586
3.72810	4225650
3.73622	3614639
3.74433	3187818
3.75247	2874203
3.76058	2607478
3.76872	2397835
3.77683	2184278
3.78495	2033227
3.79308	1951247
3.80120	2053592
3.80932	2926461
3.81745	4477163
3.82557	4903566
3.83370	3831780
3.84182	2850124
3.84993	2353157
3.85807	2104013
3.86618	1875196
3.87432	1719095
3.88243	1612603
3.89055	1514161
3.89868	1444240
3.90680	1346268
3.91492	1352257
3.92305	1437903
3.93117	1581410
3.93930	1586408
3.94742	1516956
3.95553	1915254
3.96367	3007610
3.97178	3794693
3.97992	3343408
3.98803	2357360
3.99615	1978194
4.00428	2963517
4.01240	5289693
4.02053	6816777
4.02865	5680451
4.03677	3628027
4.04490	2390150
4.05302	1778358
4.06113	1479609
4.06927	1313784
4.07738	1163672
4.08552	1091218
4.09363	1023453
4.10175	978009
4.10988	915469
4.11800	873812
4.12613	812726
4.13425	799531
4.14237	786746
4.15050	797134
4.15862	805542
4.16675	789110
4.17487	797778
4.18298	789548
4.19112	759666
4.19923	717511
4.20735	812281
4.21548	1988914
4.22360	6026314
4.23173	1.281754E+07
4.23985	1.779836E+07
4.24797	1.799998E+07
4.25610	1.366772E+07
4.26422	9229054
4.27235	6705494
4.28047	5138775
4.28858	3980971
4.29672	3167097
4.30483	2601902
4.31295	2216953
4.32108	1907882
4.32920	1671410
4.33733	1502643
4.34545	1331670
4.35357	1285885
4.36170	1302081
4.36982	1315723
4.37795	1255429
4.38607	1132887
4.39418	981938
4.40232	883071
4.41043	833098
4.41857	765231
4.42668	739172
4.43480	712612
4.44293	678232
4.45105	639438
4.45917	598053
4.46730	590647
4.47542	583755
4.48355	552732
4.49167	531654
4.49978	524650
4.50792	511844
4.51603	517174
4.52417	497869
4.53228	493790
4.54040	490726
4.54853	506651
4.55665	494851
4.56477	484735
4.57290	453178
4.58102	438051
4.58915	420662
4.59727	421658
4.60538	403807
4.61352	418796
4.62163	462591
4.62977	589796
4.63788	859778
4.64600	1127354
4.65413	1098736
4.66225	889210
4.67038	699482
4.67850	606614
4.68662	569989
4.69475	520510
4.70287	471726
4.71098	442523
4.71912	409262
4.72723	397470
4.73537	392761
4.74348	369374
4.75160	363065
4.75973	348653
4.76785	357886
4.77598	351605
4.78410	361196
4.79222	424953
4.80035	622508
4.80847	896721
4.81660	979569
4.82472	855762
4.83283	684960
4.84097	611662
4.84908	598192
4.85720	582270
4.86533	541443
4.87345	481611
4.88158	424429
4.88970	405854
4.89782	394438
4.90595	376660
4.91407	360627
4.92220	351526
4.93032	356191
4.93843	365538
4.94657	476560
4.95468	742002
4.96280	1188531
4.97093	1594866
4.97905	1761888
4.98718	1619769
4.99530	1391855
5.00342	1143073
5.01155	1018952
5.01967	920125
5.02780	863421
5.03592	940709
5.04403	996808
5.05217	997583
5.06028	901469
5.06842	796327
5.07653	735192
5.08465	686452
5.09278	635514
5.10090	591423
5.10902	582139
5.11715	558040
5.12527	534594
5.13340	495661
5.14152	492485
5.14963	504459
5.15777	572297
5.16588	668606
5.17402	747917
5.18213	709009
5.19025	649882
5.19838	620233
5.20650	670622
5.21463	714772
5.22275	708966
5.23087	638882
5.23900	577414
5.24712	542795
5.25523	495207
5.26337	457030
5.27148	409666
5.27962	379828
5.28773	369513
5.29585	373193
5.30398	355787
5.31210	343092
5.32023	350906
5.32835	370467
5.33647	410479
5.34460	464899
5.35272	470882
5.36083	416895
5.36897	384871
5.37708	366512
5.38522	368991
5.39333	393639
5.40145	425916
5.40958	434776
5.41770	414797
5.42583	364446
5.43395	344214
5.44207	337885
5.45020	349928
5.45832	360166
5.46645	384345
5.47457	357057
5.48268	327638
5.49082	303346
5.49893	308494
5.50705	287264
5.51518	296821
5.52330	302968
5.53143	308595
5.53955	294640
5.54767	293875
5.55580	361992
5.56392	518265
5.57205	807202
5.58017	1011528
5.58828	1057024
5.59642	888387
5.60453	678498
5.61267	519859
5.62078	421531
5.62890	370331
5.63703	334453
5.64515	324418
5.65327	306493
5.66140	289197
5.66952	291564
5.67765	305942
5.68577	333556
5.69388	389832
5.70202	430691
5.71013	409719
5.71827	377547
5.72638	339106
5.73450	306162
5.74263	289085
5.75075	269287
5.75887	269926
5.76700	249668
5.77512	244046
5.78325	244038
5.79137	233485
5.79948	237350
5.80762	231339
5.81573	232213
5.82387	224414
5.83198	233179
5.84010	234482
5.84823	227930
5.85635	235406
5.86448	219203
5.87260	221633
5.88072	225068
5.88885	220004
5.89697	214851
5.90508	217746
5.91322	217969
5.92133	223901
5.92947	225699
5.93758	228119
5.94570	218674
5.95383	228872
5.96195	250532
5.97008	353314
5.97820	536195
5.98632	750757
5.99445	846831
6.00257	777910
6.01068	612078
6.01882	467051
6.02693	357834
6.03507	307959
6.04318	272288
6.05130	251075
6.05943	236963
6.06755	238578
6.07568	233299
6.08380	224952
6.09192	218635
6.10005	216936
6.10817	216250
6.11630	234694
6.12442	260154
6.13253	322749
6.14067	451071
6.14878	617295
6.15690	665023
6.16503	607170
6.17315	457299
6.18128	359264
6.18940	308479
6.19752	293197
6.20565	275032
6.21377	266711
6.22190	255498
6.23002	238457
6.23813	238217
6.24627	242380
6.25438	266090
6.26252	287083
6.27063	308369
6.27875	304568
6.28688	274515
6.29500	242626
6.30312	236494
6.31125	227968
6.31937	221827
6.32750	225459
6.33562	231450
6.34373	234638
6.35187	238847
6.35998	243378
6.36812	225355
6.37623	223758
6.38435	219800
6.39248	228616
6.40060	222369
6.40872	217886
6.41685	214800
6.42497	209280
6.43310	209153
6.44122	213049
6.44933	219282
6.45747	228334
6.46558	227540
6.47372	221142
6.48183	216567
6.48995	217526
6.49808	223889
6.50620	213704
6.51433	215500
6.52245	230565
6.53057	231824
6.53870	232513
6.54682	224180
6.55493	243659
6.56307	278614
6.57118	396737
6.57932	607228
6.58743	823832
6.59555	841677
6.60368	692214
6.61180	482816
6.61993	373399
6.62805	295125
6.63617	286158
6.64430	389382
6.65242	950009
6.66055	2838111
6.66867	6309186
6.67678	9373460
6.68492	9662746
6.69303	7194684
6.70115	4442440
6.70928	2727851
6.71740	1896890
6.72553	1468412
6.73365	1244831
6.74177	1076168
6.74990	971203
6.75802	856694
6.76615	771442
6.77427	715944
6.78238	657297
6.79052	691865
6.79863	626737
6.80675	584983
6.81488	539133
6.82300	513904
6.83113	491923
6.83925	471358
6.84737	451421
6.85550	450722
6.86362	436619
6.87175	401591
6.87987	365102
6.88798	342847
6.89612	314759
6.90423	308426
6.91237	300589
6.92048	281628
6.92860	268848
6.93673	259019
6.94485	250734
6.95297	245012
6.96110	249045
6.96922	264493
6.97735	315215
6.98547	334489
6.99358	331811
7.00172	296407
7.00983	252229
7.01797	208007
7.02608	195091
7.03420	194113
7.04233	223702
7.05045	281991
7.05857	349344
7.06670	412880
7.07482	397207
7.08295	382486
7.09107	344652
7.09918	298175
7.10732	279243
7.11543	265326
7.12357	245964
7.13168	238863
7.13980	238401
7.14793	250092
7.15605	288574
7.16418	330744
7.17230	348845
7.18042	343923
7.18855	300136
7.19667	263881
7.20478	232749
7.21292	221381
7.22103	252418
7.22917	413144
7.23728	858902
7.24540	1739390
7.25353	2618567
7.26165	2933336
7.26978	2436449
7.27790	1599380
7.28602	1003101
7.29415	684867
7.30227	538599
7.31040	439265
7.31852	340687
7.32663	270732
7.33477	231709
7.34288	204212
7.35100	192294
7.35913	184556
7.36725	186537
7.37538	179004
7.38350	176910
7.39162	175540
7.39975	166587
7.40787	156835
7.41600	161980
7.42412	157862
7.43223	159064
7.44037	159232
7.44848	160103
7.45662	163526
7.46473	164265
7.47285	169264
7.48098	164087
7.48910	155911
7.49722	162699
7.50535	207549
7.51347	352268
7.52160	708202
7.52972	1399865
7.53783	2451671
7.54597	3544141
7.55408	4314563
7.56222	4374571
7.57033	3802979
7.57845	2776570
7.58658	1868737
7.59470	1189213
7.60282	772819
7.61095	548900
7.61907	426648
7.62720	337851
7.63532	291060
7.64343	265663
7.65157	233035
7.65968	213398
7.66782	191478
7.67593	178116
7.68405	171763
7.69218	174253
7.70030	168895
7.70843	174072
7.71655	167301
7.72467	165381
7.73280	145455
7.74092	138305
7.74903	129195
7.75717	128835
7.76528	125890
7.77342	137221
7.78153	150063
7.78965	165354
7.79778	200774
7.80590	220350
7.81403	231690
7.82215	232821
7.83027	218871
7.83840	192514
7.84652	184174
7.85463	185747
7.86277	185264
7.87088	193492
7.87902	219491
7.88713	219846
7.89525	227941
7.90338	199246
7.91150	173208
7.91963	169814
7.92775	205623
7.93587	283629
7.94400	425584
7.95212	535949
7.96025	564399
7.96837	489432
7.97648	369759
7.98462	266241
7.99273	199157
8.00085	173471
8.00898	147218
8.01710	132918
8.02523	132058
8.03335	128065
8.04147	124849
8.04960	131715
8.05772	126154
8.06585	119277
8.07397	122346
8.08208	117792
8.09022	116416
8.09833	106694
8.10647	111507
8.11458	110944
8.12270	113840
8.13083	122541
8.13895	135799
8.14707	147624
8.15520	167785
8.16332	175503
8.17145	159949
8.17957	153480
8.18768	126633
8.19582	115858
8.20393	110976
8.21207	114817
8.22018	107006
8.22830	109133
8.23643	112769
8.24455	110424
8.25267	106948
8.26080	92460
8.26892	101122
8.27705	90920
8.28517	99487
8.29328	94955
8.30142	104160
8.30953	110405
8.31767	131349
8.32578	122368
8.33390	125327
8.34203	109723
8.35015	105284
8.35828	107440
8.36640	100701
8.37452	105125
8.38265	107726
8.39077	107845
8.39888	103495
8.40702	96539
8.41513	90871
8.42327	83736
8.43138	83702
8.43950	78912
8.44763	86304
8.45575	89138
8.46388	99157
8.47200	97543
8.48012	92196
8.48825	95391
8.49637	85526
8.50450	84133
8.51262	81112
8.52073	85116
8.52887	99080
8.53698	144993
8.54510	272866
8.55323	505043
8.56135	784521
8.56948	927951
8.57760	852463
8.58572	622549
8.59385	400282
8.60197	247394
8.61010	178506
8.61822	157558
8.62633	142267
8.63447	127390
8.64258	121499
8.65070	113199
8.65883	111221
8.66695	107342
8.67508	108709
8.68320	104651
8.69132	103837
8.69945	103530
8.70757	108150
8.71570	98816
8.72382	104729
8.73193	93584
8.74007	92926
8.74818	91538
8.75632	100653
8.76443	115610
8.77255	159040
8.78068	257867
8.78880	386776
8.79692	484700
8.80505	515939
8.81317	462784
8.82130	359734
8.82942	287038
8.83753	234360
8.84567	194506
8.85378	195808
8.86192	192741
8.87003	192106
8.87815	200881
8.88628	200451
8.89440	181569
8.90252	183420
8.91065	164139
8.91877	167697
8.92690	160809
8.93502	161806
8.94313	178380
8.95127	202428
8.95938	218884
8.96752	224013
8.97563	226606
8.98375	216890
8.99188	208955
9.00000	212153
9.00813	191829
9.01625	172799
9.02437	154206
9.03250	137902
9.04062	137999
9.04873	133854
9.05687	132285
9.06498	120751
9.07312	117584
9.08123	132717
9.08935	137347
9.09748	161639
9.10560	187408
9.11373	237662
9.12185	255890
9.12997	255373
9.13810	230386
9.14622	193191
9.15435	158364
9.16247	150103
9.17058	127084
9.17872	128476
9.18683	120616
9.19495	116018
9.20308	110780
9.21120	114152
9.21933	115092
9.22745	118754
9.23557	125260
9.24370	124153
9.25182	132423
9.25995	126949
9.26807	126354
9.27618	124018
9.28432	117548
9.29243	117902
9.30055	117101
9.30868	108318
9.31680	102051
9.32493	102801
9.33305	100511
9.34117	100566
9.34930	104475
9.35742	104901
9.36555	106424
9.37367	114643
9.38178	124089
9.38992	137417
9.39803	147356
9.40617	160345
9.41428	195157
9.42240	243757
9.43053	298667
9.43865	331535
9.44677	332512
9.45490	296485
9.46302	242660
9.47115	189306
9.47927	153167
9.48738	128705
9.49552	125311
9.50363	122226
9.51177	131630
9.51988	154981
9.52800	183903
9.53613	192904
9.54425	170312
9.55238	155812
9.56050	134164
9.56862	127285
9.57675	110607
9.58487	104805
9.59298	104142
9.60112	103992
9.60923	94915
9.61737	89714
9.62548	83476
9.63360	81905
9.64173	76166
9.64985	78451
9.65798	82104
9.66610	75900
9.67422	73945
9.68235	77490
9.69047	72227
9.69858	69575
9.70672	69805
9.71483	70731
9.72297	69702
9.73108	67957
9.73920	73031
9.74733	67405
9.75545	71024
9.76358	66659
9.77170	70672
9.77982	60355
9.78795	63591
9.79607	63508
9.80420	66077
9.81232	60140
9.82043	63218
9.82857	62137
9.83668	66112
9.84480	62113
9.85293	68478
9.86105	71519
9.86918	69386
9.87730	68292
9.88542	72333
9.89355	73228
9.90167	72430
9.90980	74971
9.91792	82160
9.92603	110340
9.93417	146114
9.94228	186060
9.95040	219988
9.95853	222937
9.96665	205570
9.97478	165871
9.98290	132826
9.99102	113916
9.99915	91425
10.00727	89903
10.01540	93941
10.02352	93190
10.03163	88386
10.03977	87720
10.04788	75637
10.05602	74486
10.06413	70658
10.07225	78251
10.08038	79989
10.08850	86843
10.09662	93215
10.10475	95628
10.11287	93458
10.12100	84415
10.12912	86822
10.13723	82151
10.14537	80050
10.15348	73270
10.16162	74356
10.16973	69867
10.17785	77475
10.18598	68009
10.19410	65556
10.20223	65488
10.21035	65944
10.21847	74057
10.22660	71911
10.23472	74119
10.24283	82142
10.25097	89286
10.25908	100229
10.26722	144642
10.27533	307905
10.28345	761562
10.29158	1669743
10.29970	3080278
10.30783	4806060
10.31595	6789454
10.32407	9645980
10.33220	1.422281E+07
10.34032	2.074425E+07
10.34843	2.730704E+07
10.35657	3.076562E+07
10.36468	2.85385E+07
10.37282	2.071513E+07
10.38093	1.185706E+07
10.38905	6255243
10.39718	3499402
10.40530	2164230
10.41343	1464024
10.42155	1069500
10.42967	852968
10.43780	740836
10.44592	695314
10.45405	681598
10.46217	703042
10.47028	702404
10.47842	684321
10.48653	626892
10.49465	579597
10.50278	527255
10.51090	493839
10.51903	449669
10.52715	444343
10.53527	423753
10.54340	433034
10.55152	420362
10.55965	398829
10.56777	377058
10.57588	330562
10.58402	323948
10.59213	302636
10.60027	284142
10.60838	270857
10.61650	271621
10.62463	247890
10.63275	250754
10.64087	237849
10.64900	227490
10.65712	214128
10.66525	210319
10.67337	211340
10.68148	208405
10.68962	217609
10.69773	220923
10.70587	216889
10.71398	209787
10.72210	207563
10.73023	192695
10.73835	183409
10.74647	180518
10.75460	173036
10.76272	159642
10.77085	160634
10.77897	153663
10.78708	158791
10.79522	158478
10.80333	169425
10.81147	184704
10.81958	178859
10.82770	182357
10.83583	167203
10.84395	157017
10.85208	141933
10.86020	129316
10.86832	133007
10.87645	120149
10.88457	116882
10.89268	117996
10.90082	117095
10.90893	121542
10.91707	114819
10.92518	117689
10.93330	113484
10.94143	111333
10.94955	115889
10.95768	116639
10.96580	111497
10.97392	111838
10.98205	119454
10.99017	126085
10.99830	138062
11.00642	142952
11.01453	141324
11.02267	139705
11.03078	127844
11.03890	118586
11.04703	111157
11.05515	109369
11.06328	109212
11.07140	116871
11.07952	121831
11.08765	131324
11.09577	142338
11.10390	138150
11.11202	137133
11.12013	124821
11.12827	111388
11.13638	101288
11.14450	92916
11.15263	89979
11.16075	90797
11.16888	92636
11.17700	89900
11.18512	91424
11.19325	91396
11.20137	96420
11.20950	90060
11.21762	86332
11.22573	78691
11.23387	79929
11.24198	77316
11.25012	71234
11.25823	65557
11.26635	67220
11.27448	69712
11.28260	78996
11.29072	78198
11.29885	127475
11.30697	246818
11.31510	558918
11.32322	1148745
11.33133	1981747
11.33947	2836415
11.34758	3303674
11.35572	3192064
11.36383	2576739
11.37195	1817091
11.38008	1140468
11.38820	698793
11.39632	469795
11.40445	406147
11.41257	380546
11.42070	388350
11.42882	381154
11.43693	352673
11.44507	334267
11.45318	298106
11.46132	281124
11.46943	246725
11.47755	247188
11.48568	254546
11.49380	280129
11.50193	299930
11.51005	334811
11.51817	326574
11.52630	296987
11.53442	248775
11.54253	222151
11.55067	204780
11.55878	212265
11.56692	212846
11.57503	188966
11.58315	183165
11.59128	174053
11.59940	165614
11.60753	172826
11.61565	188086
11.62377	230746
11.63190	251075
11.64002	247002
11.64815	218403
11.65627	187934
11.66438	162644
11.67252	141223
11.68063	132848
11.68875	143069
11.69688	153239
11.70500	159259
11.71313	155072
11.72125	138151
11.72937	123901
11.73750	112026
11.74562	106731
11.75375	98342
11.76187	99819
11.76998	88635
11.77812	95848
11.78623	94033
11.79435	97659
11.80248	86586
11.81060	86498
11.81873	79735
11.82685	81948
11.83497	83672
11.84310	83867
11.85122	87511
11.85935	80371
11.86747	89049
11.87558	77577
11.88372	82967
11.89183	80401
11.89997	78152
11.90808	74181
11.91620	76147
11.92433	79150
11.93245	80495
11.94057	80304
11.94870	76871
11.95682	74719
11.96495	72785
11.97307	72408
11.98118	69875
11.98932	72574
11.99743	77646
12.00557	84517
12.01368	95657
12.02180	105999
12.02993	119651
12.03805	104445
12.04618	106551
12.05430	85385
12.06242	76013
12.07055	83119
12.07867	85863
12.08678	103669
12.09492	137594
12.10303	217590
12.11117	396212
12.11928	650527
12.12740	951942
12.13553	1149761
12.14365	1169288
12.15178	1008379
12.15990	720160
12.16802	455867
12.17615	274505
12.18427	177305
12.19238	145998
12.20052	149297
12.20863	167962
12.21677	174543
12.22488	177642
12.23300	170456
12.24113	158963
12.24925	159351
12.25738	148385
12.26550	138903
12.27362	137101
12.28175	132763
12.28987	128693
12.29800	111509
12.30612	112556
12.31423	107759
12.32237	105642
12.33048	106740
12.33860	99399
12.34673	108611
12.35485	98206
12.36298	105734
12.37110	109182
12.37922	104847
12.38735	100728
12.39547	100015
12.40360	99125
12.41172	102675
12.41983	124390
12.42797	138531
12.43608	159290
12.44420	166285
12.45233	159811
12.46045	144437
12.46858	131590
12.47670	118486
12.48482	110442
12.49295	110075
12.50107	100264
12.50920	100890
12.51732	93304
12.52543	89139
12.53357	96946
12.54168	99979
12.54982	118348
12.55793	138897
12.56605	171259
12.57418	211824
12.58230	230804
12.59042	217549
12.59855	185539
12.60667	154143
12.61480	130704
12.62292	110970
12.63103	111077
12.63917	101396
12.64728	93803
12.65542	91999
12.66353	78466
12.67165	86592
12.67978	79311
12.68790	81188
12.69603	74258
12.70415	77197
12.71227	76971
12.72040	78688
12.72852	81830
12.73663	84809
12.74477	78685
12.75288	81783
12.76102	83498
12.76913	75344
12.77725	66203
12.78538	68329
12.79350	66919
12.80163	68148
12.80975	70735
12.81787	63166
12.82600	64026
12.83412	61467
12.84225	57128
12.85037	60136
12.85848	51223
12.86662	48526
12.87473	50916
12.88285	49674
12.89098	50532
12.89910	52300
12.90723	54400
12.91535	49063
12.92347	54571
12.93160	58194
12.93972	52166
12.94785	49694
12.95597	52023
12.96408	52506
12.97222	50714
12.98033	53748
12.98845	58333
12.99658	58570
13.00470	53806
13.01283	57193
13.02095	50960
13.02907	51921
13.03720	52032
13.04532	53373
13.05345	50210
13.06157	53178
13.06968	52332
13.07782	52482
13.08593	51632
13.09407	47935
13.10218	50095
13.11030	49115
13.11843	50563
13.12655	52505
13.13467	51401
13.14280	46646
13.15092	48016
13.15905	53173
13.16717	47069
13.17528	50394
13.18342	55954
13.19153	60275
13.19967	56074
13.20778	60451
13.21590	64782
13.22403	65233
13.23215	66760
13.24027	67077
13.24840	64737
13.25652	60265
13.26465	57061
13.27277	57299
13.28088	58373
13.28902	53557
13.29713	52073
13.30527	51144
13.31338	50788
13.32150	50016
13.32963	50309
13.33775	45958
13.34588	48973
13.35400	46072
13.36212	51932
13.37025	51821
13.37837	45771
13.38648	44309
13.39462	45714
13.40273	41958
13.41087	46247
13.41898	43237
13.42710	43065
13.43523	43714
13.44335	47190
13.45148	47758
13.45960	47808
13.46772	52465
13.47585	61422
13.48397	57571
13.49210	52658
13.50022	56183
13.50833	49818
13.51647	46563
13.52458	49400
13.53270	50353
13.54083	49942
13.54895	61063
13.55708	53401
13.56520	59491
13.57332	61938
13.58145	67498
13.58957	68759
13.59770	77033
13.60582	71748
13.61393	70312
13.62207	73398
13.63018	65906
13.63830	69052
13.64643	65690
13.65455	61044
13.66268	59294
13.67080	48760
13.67892	49395
13.68705	49654
13.69517	49723
13.70330	51283
13.71142	45915
13.71953	46429
13.72767	50975
13.73578	52903
13.74392	54550
13.75203	61476
13.76015	72802
13.76828	100842
13.77640	143396
13.78452	195814
13.79265	232063
13.80077	271788
13.80890	312864
13.81702	362610
13.82513	430973
13.83327	520310
13.84138	570482
13.84952	578083
13.85763	511599
13.86575	415708
13.87388	310748
13.88200	244980
13.89013	191582
13.89825	164120
13.90637	141355
13.91450	115218
13.92262	110656
13.93073	101245
13.93887	88603
13.94698	85980
13.95512	83957
13.96323	93907
13.97135	113259
13.97948	156587
13.98760	178029
13.99573	205297
14.00385	198033
14.01197	178664
14.02010	149806
14.02822	129682
14.03633	106411
14.04447	105147
14.05258	88983
14.06072	82255
14.06883	85149
14.07695	80315
14.08508	86271
14.09320	78799
14.10133	69238
14.10945	70596
14.11757	67539
14.12570	67168
14.13382	67843
14.14195	69835
14.15007	78304
14.15818	83511
14.16632	96661
14.17443	89985
14.18255	88617
14.19068	91212
14.19880	96517
14.20693	123940
14.21505	155378
14.22317	194755
14.23130	211500
14.23942	221409
14.24755	218209
14.25567	220924
14.26378	219768
14.27192	192448
14.28003	180234
14.28815	148979
14.29628	129849
14.30440	118033
14.31253	104763
14.32065	106157
14.32877	93098
14.33690	96326
14.34502	93963
14.35315	86721
14.36127	82564
14.36938	78406
14.37752	77580
14.38563	66350
14.39377	66202
14.40188	63885
14.41000	74652
14.41813	72623
14.42625	83213
14.43437	82636
14.44250	82024
14.45062	81412
14.45875	75697
14.46687	67637
14.47498	67175
14.48312	67829
14.49123	66068
14.49937	64653
14.50748	72517
14.51560	61077
14.52373	67657
14.53185	64663
14.53998	66865
14.54810	65024
14.55622	68014
14.56435	61906
14.57247	58186
14.58058	60147
14.58872	58012
14.59683	54536
14.60497	50761
14.61308	51094
14.62120	45725
14.62933	49922
14.63745	48626
14.64558	44547
14.65370	47218
14.66182	43294
14.66995	47496
14.67807	53504
14.68618	50350
14.69432	43084
14.70243	44273
14.71057	44833
14.71868	44366
14.72680	44696
14.73493	47477
14.74305	50183
14.75118	51341
14.75930	55291
14.76742	55366
14.77555	53738
14.78367	67058
14.79180	73498
14.79992	122842
14.80803	312949
14.81617	800351
14.82428	1806995
14.83240	3165709
14.84053	4494742
14.84865	5201532
14.85678	4660768
14.86490	3435406
14.87302	2248421
14.88115	1357445
14.88927	872303
14.89740	631618
14.90552	481648
14.91363	413296
14.92177	372155
14.92988	340337
14.93802	312972
14.94613	300658
14.95425	269080
14.96238	253280
14.97050	231170
14.97862	228020
14.98675	211741
14.99487	192026
15.00300	186718
15.01112	188079
15.01923	176383
15.02737	174900
15.03548	175282
15.04362	165015
15.05173	154331
15.05985	148612
15.06798	141788
15.07610	139166
15.08422	136399
15.09235	126480
15.10047	121678
15.10860	119115
15.11672	115485
15.12483	113438
15.13297	116209
15.14108	120320
15.14922	133561
15.15733	130360
15.16545	131406
15.17358	114259
15.18170	96742
15.18983	87949
15.19795	79919
15.20607	70310
15.21420	69091
15.22232	63254
15.23043	69046
15.23857	68790
15.24668	62807
15.25482	65636
15.26293	56334
15.27105	61021
15.27918	62728
15.28730	57711
15.29543	57784
15.30355	56535
15.31167	55651
15.31980	54008
15.32792	49781
15.33603	55076
15.34417	53163
15.35228	52521
15.36042	52458
15.36853	50879
15.37665	49653
15.38478	49456
15.39290	51271
15.40103	50532
15.40915	52945
15.41727	54918
15.42540	61886
15.43352	55781
15.44165	49777
15.44977	52391
15.45788	60079
15.46602	74505
15.47413	107965
15.48225	187013
15.49038	270640
15.49850	366712
15.50663	455142
15.51475	472852
15.52287	470309
15.53100	424027
15.53912	391908
15.54725	367210
15.55537	364534
15.56348	320510
15.57162	269048
15.57973	210198
15.58787	161344
15.59598	128741
15.60410	107792
15.61223	105036
15.62035	96033
15.62847	91736
15.63660	88442
15.64472	86454
15.65285	82440
15.66097	73339
15.66908	68806
15.67722	74718
15.68533	75393
15.69347	72395
15.70158	64273
15.70970	66059
15.71783	60359
15.72595	61156
15.73407	60837
15.74220	59774
15.75032	70660
15.75845	70180
15.76657	88577
15.77468	134447
15.78282	196867
15.79093	280004
15.79907	354144
15.80718	367899
15.81530	323021
15.82343	263826
15.83155	178374
15.83968	137769
15.84780	109735
15.85592	99989
15.86405	97713
15.87217	87868
15.88028	83922
15.88842	84706
15.89653	84425
15.90467	84581
15.91278	80558
15.92090	77347
15.92903	76548
15.93715	74824
15.94528	75889
15.95340	73526
15.96152	80170
15.96965	79766
15.97777	86805
15.98590	95536
15.99402	97397
16.00213	100359
16.01027	101861
16.01838	100878
16.02650	100543
16.03463	100338
16.04275	96343
16.05088	98097
16.05900	86955
16.06712	74290
16.07525	72857
16.08337	69236
16.09150	67865
16.09962	64818
16.10773	60499
16.11587	62532
16.12398	66293
16.13210	70403
16.14023	80939
16.14835	78414
16.15648	84169
16.16460	83703
16.17272	81824
16.18085	66626
16.18897	71249
16.19710	68586
16.20522	70655
16.21333	62985
16.22147	67623
16.22958	61093
16.23772	66533
16.24583	58852
16.25395	60977
16.26208	62185
16.27020	57129
16.27832	63632
16.28645	69281
16.29457	71244
16.30270	77648
16.31082	85888
16.31893	83093
16.32707	81497
16.33518	78566
16.34332	75428
16.35143	70966
16.35955	71012
16.36768	80762
16.37580	96317
16.38393	109829
16.39205	115317
16.40017	113114
16.40830	96542
16.41642	85815
16.42453	75625
16.43267	67069
16.44078	70922
16.44892	82681
16.45703	107749
16.46515	175367
16.47328	339424
16.48140	575468
16.48953	809775
16.49765	947201
16.50577	857738
16.51390	656116
16.52202	433540
16.53013	277123
16.53827	193329
16.54638	147948
16.55452	130992
16.56263	111274
16.57075	105840
16.57888	107236
16.58700	101248
16.59513	100181
16.60325	104890
16.61137	109368
16.61950	112294
16.62762	110537
16.63575	106495
16.64387	96969
16.65198	90083
16.66012	83380
16.66823	77450
16.67635	72291
16.68448	70843
16.69260	67030
16.70073	70030
16.70885	64344
16.71697	64486
16.72510	59912
16.73322	63101
16.74135	56274
16.74947	57817
16.75758	60686
16.76572	64777
16.77383	73134
16.78195	70078
16.79008	68659
16.79820	63652
16.80633	60824
16.81445	64136
16.82257	56829
16.83070	50133
16.83882	53496
16.84695	52556
16.85507	52643
16.86318	48700
16.87132	46750
16.87943	51300
16.88757	45318
16.89568	44425
16.90380	47531
16.91193	47221
16.92005	47867
16.92817	47159
16.93630	48580
16.94442	44334
16.95255	51328
16.96067	47600
16.96878	46489
16.97692	46903
16.98503	39580
16.99317	49458
17.00128	48797
17.00940	52405
17.01753	49008
17.02565	50283
17.03378	49767
17.04190	52249
17.05002	54369
17.05815	55799
17.06627	57258
17.07438	54015
17.08252	56081
17.09063	56229
17.09877	56490
17.10688	62975
17.11500	61744
17.12313	65152
17.13125	61753
17.13938	67115
17.14750	66518
17.15562	62384
17.16375	59131
17.17187	58287
17.17998	57769
17.18812	54507
17.19623	50698
17.20437	60947
17.21248	49583
17.22060	48022
17.22873	48372
17.23685	45764
17.24498	49902
17.25310	46439
17.26122	55911
17.26935	53908
17.27747	45974
17.28560	46975
17.29372	45503
17.30183	50177
17.30997	47910
17.31808	56266
17.32620	52588
17.33433	57417
17.34245	67534
17.35058	67521
17.35870	72436
17.36682	76429
17.37495	75071
17.38307	69762
17.39120	74439
17.39932	77778
17.40743	80445
17.41557	79590
17.42368	79233
17.43182	80828
17.43993	77669
17.44805	74637
17.45618	73636
17.46430	71308
17.47242	66779
17.48055	62505
17.48867	53441
17.49680	51999
17.50492	55141
17.51303	57901
17.52117	53992
17.52928	48058
17.53742	50808
17.54553	51795
17.55365	52538
17.56178	59492
17.56990	80136
17.57802	104341
17.58615	169852
17.59427	278628
17.60240	408147
17.61052	538429
17.61863	623196
17.62677	619936
17.63488	529423
17.64302	437546
17.65113	351579
17.65925	323910
17.66738	318329
17.67550	340491
17.68363	343160
17.69175	325032
17.69987	274900
17.70800	225473
17.71612	172938
17.72423	151460
17.73237	140083
17.74048	122520
17.74862	124516
17.75673	110816
17.76485	111020
17.77298	105658
17.78110	94984
17.78923	94458
17.79735	83328
17.80547	79205
17.81360	82318
17.82172	73232
17.82983	84618
17.83797	93652
17.84608	94868
17.85422	92635
17.86233	104653
17.87045	116840
17.87858	122734
17.88670	114272
17.89483	100452
17.90295	80983
17.91107	73804
17.91920	74711
17.92732	62369
17.93545	62250
17.94357	56283
17.95168	60269
17.95982	61243
17.96793	56987
17.97605	53917
17.98418	54313
17.99230	53868
18.00043	52855
18.00855	54362
18.01667	62653
18.02480	65897
18.03292	77510
18.04105	98767
18.04917	115613
18.05728	113056
18.06542	112677
18.07353	98269
18.08167	93201
18.08978	86601
18.09790	96702
18.10603	108703
18.11415	124146
18.12227	135284
18.13040	145108
18.13852	152976
18.14665	144577
18.15477	135094
18.16288	124480
18.17102	104892
18.17913	104061
18.18727	95745
18.19538	90356
18.20350	86931
18.21163	82365
18.21975	80908
18.22788	71869
18.23600	67950
18.24412	62610
18.25225	61592
18.26037	67794
18.26848	61786
18.27662	60101
18.28473	63819
18.29287	60847
18.30098	58178
18.30910	49730
18.31723	55405
18.32535	49064
18.33348	50873
18.34160	51545
18.34972	49201
18.35785	49908
18.36597	51321
18.37408	47286
18.38222	46174
18.39033	49545
18.39847	53577
18.40658	51654
18.41470	58626
18.42283	74282
18.43095	92764
18.43908	100677
18.44720	123390
18.45532	143525
18.46345	160862
18.47157	175153
18.47970	203285
18.48782	233038
18.49593	248112
18.50407	233381
18.51218	199980
18.52030	164613
18.52843	126853
18.53655	101246
18.54468	90246
18.55280	80044
18.56092	73441
18.56905	66782
18.57717	65861
18.58530	65881
18.59342	68642
18.60153	73750
18.60967	76961
18.61778	82288
18.62590	92947
18.63403	93034
18.64215	93215
18.65028	93333
18.65840	86647
18.66652	79956
18.67465	68062
18.68277	65776
18.69090	61374
18.69902	62182
18.70713	57961
18.71527	65501
18.72338	62632
18.73152	65544
18.73963	53815
18.74775	53193
18.75588	54079
18.76400	51971
18.77212	50847
18.78025	51764
18.78837	52305
18.79650	53104
18.80462	52321
18.81273	53548
18.82087	53386
18.82898	49637
18.83712	54157
18.84523	57351
18.85335	52266
18.86148	58365
18.86960	61428
18.87773	64650
18.88585	67610
18.89397	70524
18.90210	75324
18.91022	67176
18.91833	58676
18.92647	59850
18.93458	63411
18.94272	58824
18.95083	62494
18.95895	69163
18.96708	71558
18.97520	69964
18.98333	64857
18.99145	63596
18.99957	59512
19.00770	53029
19.01582	60042
19.02393	55669
19.03207	56302
19.04018	55970
19.04832	59577
19.05643	53581
19.06455	52791
19.07268	57814
19.08080	70936
19.08893	102034
19.09705	145541
19.10517	190362
19.11330	226925
19.12142	244174
19.12955	247756
19.13767	235659
19.14578	228714
19.15392	221502
19.16203	215353
19.17015	209781
19.17828	216313
19.18640	216105
19.19453	216502
19.20265	214999
19.21077	218001
19.21890	213136
19.22702	195038
19.23515	191130
19.24327	186382
19.25138	176377
19.25952	171169
19.26763	175528
19.27577	175348
19.28388	187057
19.29200	188991
19.30013	198841
19.30825	204288
19.31637	202632
19.32450	196703
19.33262	186031
19.34075	184514
19.34887	192838
19.35698	192188
19.36512	198348
19.37323	225115
19.38137	228224
19.38948	233734
19.39760	228015
19.40573	217237
19.41385	197761
19.42197	182100
19.43010	179238
19.43822	178053
19.44635	169043
19.45447	168421
19.46258	162312
19.47072	166595
19.47883	168808
19.48697	173088
19.49508	167573
19.50320	186013
19.51133	199503
19.51945	228046
19.52758	260241
19.53570	273275
19.54382	268573
19.55195	245934
19.56007	232035
19.56818	190806
19.57632	185232
19.58443	167109
19.59257	166502
19.60068	155312
19.60880	156107
19.61693	144057
19.62505	156667
19.63318	154483
19.64130	175124
19.64942	221021
19.65755	308203
19.66567	432620
19.67378	607722
19.68192	725822
19.69003	778576
19.69817	741996
19.70628	647252
19.71440	519418
19.72253	422964
19.73065	351354
19.73878	294252
19.74690	264096
19.75502	243647
19.76315	218735
19.77127	213943
19.77940	213592
19.78752	227375
19.79563	243195
19.80377	267296
19.81188	276625
19.82000	266013
19.82813	252159
19.83625	225441
19.84438	200052
19.85250	184821
19.86062	172207
19.86875	170206
19.87687	197350
19.88500	239246
19.89312	320669
19.90123	431812
19.90937	561772
19.91748	696837
19.92562	758051
19.93373	798040
19.94185	815725
19.94998	753953
19.95810	724825
19.96622	691638
19.97435	646259
19.98247	627803
19.99060	594794
19.99872	589593
20.00683	560102
20.01497	551091
20.02308	536520
20.03122	504630
20.03933	472487
20.04745	450692
20.05558	414199
20.06370	403784
20.07182	388260
20.07995	373059
20.08807	390357
20.09620	394566
20.10432	377652
20.11243	354594
20.12057	321364
20.12868	277646
20.13682	263673
20.14493	276241
20.15305	330741
20.16118	485638
20.16930	713898
20.17743	1071166
20.18555	1437373
20.19367	1758832
20.20180	1946757
20.20992	1965114
20.21803	1803213
20.22617	1554884
20.23428	1303326
20.24242	1122734
20.25053	1083252
20.25865	1189701
20.26678	1299187
20.27490	1468265
20.28303	1623034
20.29115	1659738
20.29927	1540270
20.30740	1389260
20.31552	1140368
20.32365	923046
20.33177	698501
20.33988	531980
20.34802	420486
20.35613	344239
20.36425	290023
20.37238	241099
20.38050	218273
20.38863	191061
20.39675	178542
20.40487	175051
20.41300	156745
20.42112	155800
20.42925	158358
20.43737	176640
20.44548	185455
20.45362	197957
20.46173	201354
20.46985	216760
20.47798	197198
20.48610	182439
20.49423	171255
20.50235	150191
20.51047	139534
20.51860	127082
20.52672	120126
20.53485	112362
20.54297	115558
20.55108	119093
20.55922	112730
20.56733	105423
20.57547	106988
20.58358	102460
20.59170	106491
20.59983	102336
20.60795	98986
20.61607	97711
20.62420	100226
20.63232	98770
20.64045	98390
20.64857	103751
20.65668	110115
20.66482	102417
20.67293	105528
20.68107	104255
20.68918	97914
20.69730	99954
20.70543	92496
20.71355	102653
20.72167	92572
20.72980	85497
20.73792	86356
20.74605	91249
20.75417	93374
20.76228	93116
20.77042	102724
20.77853	105149
20.78667	118015
20.79478	151666
20.80290	212359
20.81103	319718
20.81915	437047
20.82728	532986
20.83540	563120
20.84352	489432
20.85165	376556
20.85977	280722
20.86788	196940
20.87602	152509
20.88413	126191
20.89227	121744
20.90038	115299
20.90850	120303
20.91663	125171
20.92475	129948
20.93288	131441
20.94100	139778
20.94912	135764
20.95725	136182
20.96537	122591
20.97350	122668
20.98162	114223
20.98973	108029
20.99787	94368
21.00598	87752
21.01410	92821
21.02223	90406
21.03035	96150
21.03848	94534
21.04660	88993
21.05472	93161
21.06285	97882
21.07097	83174
21.07910	82711
21.08722	78994
21.09533	77185
21.10347	79646
21.11158	79056
21.11970	77536
21.12783	79715
21.13595	89696
21.14408	111959
21.15220	141546
21.16032	167837
21.16845	205889
21.17657	222744
21.18470	212935
21.19282	190326
21.20093	161010
21.20907	127978
21.21718	114563
21.22532	102451
21.23343	92418
21.24155	96277
21.24968	90673
21.25780	87123
21.26592	84815
21.27405	78002
21.28217	81488
21.29030	80418
21.29842	83187
21.30653	84926
21.31467	75316
21.32278	80091
21.33092	75575
21.33903	74828
21.34715	75260
21.35528	73986
21.36340	72676
21.37153	74638
21.37965	74506
21.38777	72954
21.39590	83113
21.40402	81904
21.41213	94221
21.42027	107803
21.42838	122865
21.43652	141682
21.44463	144674
21.45275	125895
21.46088	115975
21.46900	107922
21.47713	96775
21.48525	87382
21.49337	89618
21.50150	81074
21.50962	81493
21.51773	78592
21.52587	79327
21.53398	80735
21.54212	74898
21.55023	70165
21.55835	69745
21.56648	74514
21.57460	76074
21.58273	78399
21.59085	80094
21.59897	89422
21.60710	88243
21.61522	93441
21.62335	87343
21.63147	93538
21.63958	98508
21.64772	112610
21.65583	123301
21.66395	135364
21.67208	143980
21.68020	143037
21.68833	135700
21.69645	126116
21.70457	117991
21.71270	109252
21.72082	93342
21.72895	89157
21.73707	77577
21.74518	76372
21.75332	79499
21.76143	73385
21.76957	74016
21.77768	73959
21.78580	69617
21.79393	72100
21.80205	73326
21.81017	78144
21.81830	81465
21.82642	81598
21.83455	93735
21.84267	106433
21.85078	112136
21.85892	126145
21.86703	125036
21.87517	126720
21.88328	114150
21.89140	102111
21.89953	99663
21.90765	84410
21.91577	78809
21.92390	73795
21.93202	73825
21.94015	63873
21.94827	65303
21.95638	58216
21.96452	64986
21.97263	60025
21.98077	57207
21.98888	53492
21.99700	55266
22.00513	53950
22.01325	53917
22.02138	53971
22.02950	55141
22.03762	57707
22.04575	56527
22.05387	63752
22.06198	60903
22.07012	64903
22.07823	60875
22.08637	61873
22.09448	62661
22.10260	63526
22.11073	64953
22.11885	62898
22.12698	60223
22.13510	58024
22.14322	52064
22.15135	57096
22.15947	57302
22.16758	59970
22.17572	55182
22.18383	59940
22.19197	58711
22.20008	56029
22.20820	58693
22.21633	58038
22.22445	59437
22.23258	62749
22.24070	64803
22.24882	68266
22.25695	69266
22.26507	71628
22.27320	72240
22.28132	62976
22.28943	75282
22.29757	79496
22.30568	88955
22.31380	107889
22.32193	130305
22.33005	172625
22.33818	200094
22.34630	221348
22.35442	218282
22.36255	207356
22.37067	174034
22.37880	139868
22.38692	125726
22.39503	119078
22.40317	120053
22.41128	142691
22.41942	164945
22.42753	189595
22.43565	183288
22.44378	166707
22.45190	149509
22.46002	129493
22.46815	103231
22.47627	95217
22.48440	81677
22.49252	93615
22.50063	92558
22.50877	106695
22.51688	113477
22.52502	124905
22.53313	117614
22.54125	116856
22.54938	100810
22.55750	91042
22.56562	84657
22.57375	77385
22.58187	72785
22.59000	71650
22.59812	74312
22.60623	77190
22.61437	81948
22.62248	78480
22.63062	83645
22.63873	82455
22.64685	83852
22.65498	85672
22.66310	91427
22.67123	95350
22.67935	106623
22.68747	112201
22.69560	116495
22.70372	121189
22.71183	127526
22.71997	123033
22.72808	117926
22.73622	111251
22.74433	110931
22.75245	106385
22.76058	101495
22.76870	95624
22.77683	93338
22.78495	92958
22.79307	93312
22.80120	96128
22.80932	104209
22.81745	100672
22.82557	108728
22.83368	103026
22.84182	105039
22.84993	100010
22.85805	100077
22.86618	116965
22.87430	119696
22.88243	153554
22.89055	175088
22.89867	188178
22.90680	202668
22.91492	208285
22.92305	207547
22.93117	207892
22.93928	224974
22.94742	226907
22.95553	219085
22.96365	207057
22.97178	174760
22.97990	165349
22.98803	149822
22.99615	143248
23.00427	135075
23.01240	126588
23.02052	109918
23.02865	107384
23.03677	94567
23.04488	87600
23.05302	79132
23.06113	78335
23.06927	75855
23.07738	83919
23.08550	80916
23.09363	80040
23.10175	79721
23.10987	72343
23.11800	70342
23.12612	66193
23.13425	67579
23.14237	62834
23.15048	63565
23.15862	61870
23.16673	63911
23.17487	60964
23.18298	59743
23.19110	59783
23.19923	56903
23.20735	53344
23.21547	56172
23.22360	55068
23.23172	57505
23.23985	63965
23.24797	72698
23.25608	89838
23.26422	92068
23.27233	99960
23.28047	100431
23.28858	103255
23.29670	99487
23.30483	105814
23.31295	106853
23.32108	114907
23.32920	121053
23.33732	130201
23.34545	142131
23.35357	167946
23.36168	203859
23.36982	226869
23.37793	230924
23.38607	215384
23.39418	206748
23.40230	188544
23.41043	176629
23.41855	161803
23.42668	142729
23.43480	138490
23.44292	131535
23.45105	125245
23.45917	133319
23.46730	127125
23.47542	127233
23.48353	120342
23.49167	116609
23.49978	126771
23.50790	118209
23.51603	116898
23.52415	124198
23.53228	118801
23.54040	123324
23.54852	125287
23.55665	124777
23.56477	132556
23.57290	149725
23.58102	172595
23.58913	211241
23.59727	252896
23.60538	295355
23.61350	316068
23.62163	314639
23.62975	314418
23.63788	299104
23.64600	348445
23.65412	424057
23.66225	579367
23.67037	729382
23.67850	802071
23.68662	794644
23.69473	676048
23.70287	528124
23.71098	399607
23.71912	301337
23.72723	235771
23.73535	210346
23.74348	174797
23.75160	169690
23.75972	201783
23.76785	362773
23.77597	719320
23.78410	1380426
23.79222	2324927
23.80033	3045015
23.80847	3519485
23.81658	3385746
23.82472	2823984
23.83283	2134760
23.84095	1593257
23.84908	1191915
23.85720	931382
23.86533	742844
23.87345	605687
23.88157	501396
23.88970	441835
23.89782	401515
23.90593	386861
23.91407	358350
23.92218	338683
23.93032	321709
23.93843	310236
23.94655	287459
23.95468	265586
23.96280	248465
23.97093	234847
23.97905	225909
23.98717	221257
23.99530	209548
24.00342	199059
24.01153	208600
24.01967	222011
24.02778	263839
24.03592	323086
24.04403	373583
24.05215	396405
24.06028	382988
24.06840	320417
24.07653	271413
24.08465	235849
24.09277	197902
24.10090	182377
24.10902	160599
24.11715	160239
24.12527	157092
24.13338	154846
24.14152	162483
24.14963	169481
24.15775	190374
24.16588	184627
24.17400	182791
24.18213	186475
24.19025	173953
24.19837	173417
24.20650	176348
24.21462	170596
24.22275	163825
24.23087	164422
24.23898	164609
24.24712	156413
24.25523	137140
24.26335	128589
24.27148	123405
24.27960	123567
24.28773	118402
24.29585	113395
24.30397	108312
24.31210	112606
24.32022	114964
24.32835	114771
24.33647	113695
24.34458	109292
24.35272	108358
24.36083	105908
24.36897	101887
24.37708	101515
24.38520	103852
24.39333	102932
24.40145	120384
24.40957	137386
24.41770	144102
24.42582	148021
24.43395	143488
24.44207	130682
24.45018	117455
24.45832	106265
24.46643	99426
24.47457	93991
24.48268	93649
24.49080	102679
24.49893	101553
24.50705	102146
24.51518	108770
24.52330	117768
24.53142	117228
24.53955	134502
24.54767	139939
24.55578	149164
24.56392	161062
24.57203	152877
24.58017	144257
24.58828	130958
24.59640	120805
24.60453	113344
24.61265	108298
24.62078	102249
24.62890	94513
24.63702	92036
24.64515	95233
24.65327	84254
24.66140	92283
24.66952	88442
24.67763	87383
24.68577	87293
24.69388	85065
24.70200	86494
24.71013	78114
24.71825	79066
24.72638	76053
24.73450	79009
24.74262	74739
24.75075	77020
24.75887	77284
24.76700	79944
24.77512	71432
24.78323	80279
24.79137	79786
24.79948	80792
24.80760	80785
24.81573	83681
24.82385	79605
24.83198	89587
24.84010	93697
24.84822	108989
24.85635	125712
24.86447	160373
24.87260	210248
24.88072	288737
24.88883	373177
24.89697	460613
24.90508	509551
24.91322	510663
24.92133	441127
24.92945	345445
24.93758	245122
24.94570	183438
24.95382	131736
24.96195	105213
24.97007	95218
24.97820	84171
24.98632	75942
24.99443	72015
25.00257	74011
25.01068	70023
25.01882	73906
25.02693	68265
25.03505	73022
25.04318	79410
25.05130	102898
25.05942	118094
25.06755	129593
25.07567	142361
25.08380	144417
25.09192	158072
25.10003	163984
25.10817	223616
25.11628	326803
25.12442	597891
25.13253	1058337
25.14065	1776804
25.14878	2538640
25.15690	3031398
25.16503	3144087
25.17315	2687358
25.18127	2043404
25.18940	1367129
25.19752	909755
25.20563	585798
25.21377	433454
25.22188	333237
25.23002	281916
25.23813	256539
25.24625	252452
25.25438	263595
25.26250	291553
25.27063	326212
25.27875	344338
25.28687	352101
25.29500	323898
25.30312	305171
25.31125	267294
25.31937	243896
25.32748	234926
25.33562	215905
25.34373	202993
25.35185	197594
25.35998	181973
25.36810	186098
25.37623	182808
25.38435	175637
25.39247	170253
25.40060	170377
25.40872	171205
25.41685	167651
25.42497	159367
25.43308	155257
25.44122	167112
25.44933	153927
25.45745	151559
25.46558	149800
25.47370	157327
25.48183	159398
25.48995	156667
25.49807	158999
25.50620	163206
25.51432	153549
25.52245	149275
25.53057	153015
25.53868	143799
25.54682	127513
25.55493	115464
25.56307	98120
25.57118	92526
25.57930	90481
25.58743	78764
25.59555	81957
25.60367	81429
25.61180	84041
25.61992	87100
25.62805	78463
25.63617	76362
25.64428	84257
25.65242	90097
25.66053	90169
25.66867	92008
25.67678	101470
25.68490	91624
25.69303	82117
25.70115	81473
25.70928	70604
25.71740	68282
25.72552	70126
25.73365	71993
25.74177	80272
25.74988	76117
25.75802	79586
25.76613	75606
25.77427	76037
25.78238	80394
25.79050	70356
25.79863	70245
25.80675	70075
25.81488	74782
25.82300	73723
25.83112	78707
25.83925	77276
25.84737	79626
25.85548	76685
25.86362	76747
25.87173	73193
25.87987	68765
25.88798	66164
25.89610	62715
25.90423	62421
25.91235	60955
25.92048	69120
25.92860	74631
25.93672	84546
25.94485	122155
25.95297	154844
25.96110	190769
25.96922	211800
25.97733	216778
25.98547	226524
25.99358	225186
26.00170	246800
26.00983	230176
26.01795	227466
26.02608	226588
26.03420	234703
26.04232	240472
26.05045	245465
26.05857	246913
26.06670	250851
26.07482	256075
26.08293	248637
26.09107	250796
26.09918	254852
26.10730	255047
26.11543	246069
26.12355	260647
26.13168	246280
26.13980	255368
26.14792	258478
26.15605	253879
26.16417	260485
26.17230	249066
26.18042	256537
26.18853	243305
26.19667	237587
26.20478	236466
26.21292	231868
26.22103	230942
26.22915	229301
26.23728	213740
26.24540	213082
26.25352	209789
26.26165	213581
26.26977	200933
26.27790	198641
26.28602	211406
26.29413	202789
26.30227	196409
26.31038	197812
26.31852	192487
26.32663	189194
26.33475	191333
26.34288	197914
26.35100	202308
26.35913	215144
26.36725	262811
26.37537	339754
26.38350	415565
26.39162	527450
26.39973	629490
26.40787	689486
26.41598	694833
26.42412	618322
26.43223	519752
26.44035	432710
26.44848	344415
26.45660	283678
26.46473	236815
26.47285	206796
26.48097	202758
26.48910	191415
26.49722	185954
26.50533	184738
26.51347	176934
26.52158	168882
26.52972	163963
26.53783	170772
26.54595	163039
26.55408	156681
26.56220	155952
26.57033	167146
26.57845	160343
26.58657	152300
26.59470	162101
26.60282	156537
26.61095	151989
26.61907	149286
26.62718	144887
26.63532	150030
26.64343	149995
26.65155	154707
26.65968	150708
26.66780	151138
26.67593	159123
26.68405	154936
26.69217	158373
26.70030	149950
26.70842	148566
26.71655	143346
26.72467	129906
26.73278	130970
26.74092	126472
26.74903	132383
26.75717	133198
26.76528	129698
26.77340	130690
26.78153	124777
26.78965	122959
26.79777	130356
26.80590	123307
26.81402	128703
26.82215	127375
26.83027	124939
26.83838	124370
26.84652	121672
26.85463	115866
26.86277	116273
26.87088	120305
26.87900	112991
26.88713	109279
26.89525	109058
26.90337	111066
26.91150	108995
26.91962	104990
26.92775	103686
26.93587	101316
26.94398	105886
26.95212	100208
26.96023	100104
26.96837	107613
26.97648	121962
26.98460	152350
26.99273	207745
27.00085	343506
27.00898	551386
27.01710	847704
27.02522	1176447
27.03335	1434132
27.04147	1467298
27.04958	1350527
27.05772	1131486
27.06583	895470
27.07397	732323
27.08208	540910
27.09020	439241
27.09833	372864
27.10645	327647
27.11458	300259
27.12270	261694
27.13082	252726
27.13895	225937
27.14707	210510
27.15518	195310
27.16332	205991
27.17143	203265
27.17957	223724
27.18768	222662
27.19580	226111
27.20393	227605
27.21205	208048
27.22018	197706
27.22830	177939
27.23642	162219
27.24455	151975
27.25267	151539
27.26080	142799
27.26892	133436
27.27703	127965
27.28517	121582
27.29328	124621
27.30140	120550
27.30953	109705
27.31765	117967
27.32578	113582
27.33390	118053
27.34202	113291
27.35015	108164
27.35827	109965
27.36640	118024
27.37452	109666
27.38263	108527
27.39077	107167
27.39888	108378
27.40702	107015
27.41513	106594
27.42325	102216
27.43138	105975
27.43950	105027
27.44762	98123
27.45575	104062
27.46387	95624
27.47200	95197
27.48012	84253
27.48823	89125
27.49637	86191
27.50448	90330
27.51262	85737
27.52073	88172
27.52885	89321
27.53698	93630
27.54510	91652
27.55322	98710
27.56135	93278
27.56947	92637
27.57760	94502
27.58572	96660
27.59383	99678
27.60197	111860
27.61008	114039
27.61822	113034
27.62633	117255
27.63445	99991
27.64258	105685
27.65070	89812
27.65883	88970
27.66695	84042
27.67507	86358
27.68320	84694
27.69132	88013
27.69943	89475
27.70757	90223
27.71568	82252
27.72382	83729
27.73193	82049
27.74005	76577
27.74818	75377
27.75630	78160
27.76443	73269
27.77255	66408
27.78067	71207
27.78880	73413
27.79692	78578
27.80505	76198
27.81317	77929
27.82128	76163
27.82942	78840
27.83753	81091
27.84565	73595
27.85378	79127
27.86190	73468
27.87003	66045
27.87815	68661
27.88627	74615
27.89440	65942
27.90252	69624
27.91065	72524
27.91877	72969
27.92688	63549
27.93502	68366
27.94313	64951
27.95125	67210
27.95938	63754
27.96750	66792
27.97563	66378
27.98375	72928
27.99187	63480
28.00000	68847
28.00812	70334
28.01625	71389
28.02437	76224
28.03248	86701
28.04062	100798
28.04873	104780
28.05687	116732
28.06498	115185
28.07310	112019
28.08123	103668
28.08935	90766
28.09747	85485
28.10560	72084
28.11372	70625
28.12185	71250
28.12997	70213
28.13808	69791
28.14622	63466
28.15433	62994
28.16247	64639
28.17058	65896
28.17870	66925
28.18683	71420
28.19495	67496
28.20308	74084
28.21120	86736
28.21932	91157
28.22745	100381
28.23557	111108
28.24368	108315
28.25182	95931
28.25993	97997
28.26807	78675
28.27618	69805
28.28430	68008
28.29243	65131
28.30055	65535
28.30868	73292
28.31680	82121
28.32492	89571
28.33305	90770
28.34117	108626
28.34928	123114
28.35742	147330
28.36553	165991
28.37367	184820
28.38178	191956
28.38990	201782
28.39803	202081
28.40615	205412
28.41428	200912
28.42240	189694
28.43052	168906
28.43865	152368
28.44677	149760
28.45490	132476
28.46302	130137
28.47113	128344
28.47927	114641
28.48738	114144
28.49550	109895
28.50363	110550
28.51175	108126
28.51988	119594
28.52800	100219
28.53612	112036
28.54425	96546
28.55237	83797
28.56050	80247
28.56862	81179
28.57673	81282
28.58487	80017
28.59298	79588
28.60110	68020
28.60923	73231
28.61735	78640
28.62548	75250
28.63360	79966
28.64172	85781
28.64985	91330
28.65797	83639
28.66610	87029
28.67422	93247
28.68233	100177
28.69047	86701
28.69858	87681
28.70672	85493
28.71483	75649
28.72295	72111
28.73108	69419
28.73920	72047
28.74732	66605
28.75545	69822
28.76357	64208
28.77170	75271
28.77982	77047
28.78793	85453
28.79607	86371
28.80418	89105
28.81232	91484
28.82043	87336
28.82855	78529
28.83668	81284
28.84480	73405
28.85293	73271
28.86105	72799
28.86917	69066
28.87730	70528
28.88542	72334
28.89353	73189
28.90167	77957
28.90978	80172
28.91792	80362
28.92603	77262
28.93415	78367
28.94228	74131
28.95040	77856
28.95853	81642
28.96665	82466
28.97477	81898
28.98290	83931
28.99102	71790
28.99913	71634
29.00727	75450
29.01538	65038
29.02352	65570
29.03163	62600
29.03975	67215
29.04788	63168
29.05600	62152
29.06413	70617
29.07225	62890
29.08037	62988
29.08850	63600
29.09662	68469
29.10475	70497
29.11287	65222
29.12098	66801
29.12912	66288
29.13723	56626
29.14535	63852
29.15348	62506
29.16160	60665
29.16973	67050
29.17785	60166
29.18597	64679
29.19410	72523
29.20222	75307
29.21035	86685
29.21847	102346
29.22658	107985
29.23472	110151
29.24283	99318
29.25097	94111
29.25908	94177
29.26720	94587
29.27533	100786
29.28345	91613
29.29157	78701
29.29970	76405
29.30782	72330
29.31595	65073
29.32407	65439
29.33218	58935
29.34032	59248
29.34843	60485
29.35657	60604
29.36468	59826
29.37280	57964
29.38093	63173
29.38905	57429
29.39717	58042
29.40530	58290
29.41342	60121
29.42155	60446
29.42967	62555
29.43778	68593
29.44592	60304
29.45403	59692
29.46217	61648
29.47028	57623
29.47840	59981
29.48653	57349
29.49465	58696
29.50278	61645
29.51090	62907
29.51902	67657
29.52715	66633
29.53527	63751
29.54338	61620
29.55152	58244
29.55963	61582
29.56777	59025
29.57588	56566
29.58400	54980
29.59213	54204
29.60025	56597
29.60838	54071
29.61650	51804
29.62462	52568
29.63275	53786
29.64087	53073
29.64898	60343
29.65712	56025
29.66523	57838
29.67337	60963
29.68148	57839
29.68960	58644
29.69773	63736
29.70585	57964
29.71398	63777
29.72210	61425
29.73022	61964
29.73835	58904
29.74647	58092
29.75460	60404
29.76272	59000
29.77083	53612
29.77897	56736
29.78708	59236
29.79520	60652
29.80333	52456
29.81145	51218
29.81958	55089
29.82770	47294
29.83582	52922
29.84395	59158
29.85207	52500
29.86020	56969
29.86832	84425
29.87643	129729
29.88457	255900
29.89268	420121
29.90082	660837
29.90893	849191
29.91705	923797
29.92518	823048
29.93330	627164
29.94142	390102
29.94955	235648
29.95767	152251
29.96580	105931
29.97392	85684
29.98203	92862
29.99017	104725
29.99828	107026
30.00642	121119
30.01453	122103
30.02265	134006
30.03078	138926
30.03890	131039
30.04703	132406
30.05515	128184
30.06327	122287
30.07140	122283
30.07952	117220
30.08763	115384
30.09577	116130
30.10388	109074
30.11202	107425
30.12013	102013
30.12825	99052
30.13638	89187
30.14450	90472
30.15263	90760
30.16075	86110
30.16887	87199
30.17700	82010
30.18512	82116
30.19323	85508
30.20137	89388
30.20948	90541
30.21762	92868
30.22573	81696
30.23385	84846
30.24198	79146
30.25010	73079
30.25823	71296
30.26635	69063
30.27447	65533
30.28260	62235
30.29072	68570
30.29885	64706
30.30697	58800
30.31508	64042
30.32322	66938
30.33133	63707
30.33945	60530
30.34758	66713
30.35570	59762
30.36383	62320
30.37195	59925
30.38007	64638
30.38820	57962
30.39632	59750
30.40445	60059
30.41257	61055
30.42068	61203
30.42882	55784
30.43693	54381
30.44505	61459
30.45318	56253
30.46130	55250
30.46943	53794
30.47755	54222
30.48567	52658
30.49380	57134
30.50192	56450
30.51005	55750
30.51817	56235
30.52628	54824
30.53442	58611
30.54253	58319
30.55067	52802
30.55878	52178
30.56690	54231
30.57503	56205
30.58315	57411
30.59127	55472
30.59940	56322
30.60752	57582
30.61565	57504
30.62377	56400
30.63188	59192
30.64002	60703
30.64813	54065
30.65627	60772
30.66438	53549
30.67250	55350
30.68063	55518
30.68875	52707
30.69688	54826
30.70500	51827
30.71312	53377
30.72125	59999
30.72937	53840
30.73748	52854
30.74562	54745
30.75373	56116
30.76187	55141
30.76998	60129
30.77810	59800
30.78623	66198
30.79435	81207
30.80248	95588
30.81060	114626
30.81872	133326
30.82685	132292
30.83497	134502
30.84308	110539
30.85122	89507
30.85933	76407
30.86747	70798
30.87558	65484
30.88370	79943
30.89183	66461
30.89995	64314
30.90808	64402
30.91620	65283
30.92432	63248
30.93245	58183
30.94057	58315
30.94870	60549
30.95682	57709
30.96493	54713
30.97307	58966
30.98118	56130
30.98930	54941
30.99743	55172
31.00555	56563
31.01368	61826
31.02180	67833
31.02992	77179
31.03805	86296
31.04617	89318
31.05430	91742
31.06242	90903
31.07053	81230
31.07867	83029
31.08678	87748
31.09492	112363
31.10303	149947
31.11115	194820
31.11928	216965
31.12740	219615
31.13552	203139
31.14365	159698
31.15177	119109
31.15990	96668
31.16802	79845
31.17613	71458
31.18427	69769
31.19238	72873
31.20052	75738
31.20863	87143
31.21675	105057
31.22488	105485
31.23300	110441
31.24112	108131
31.24925	104926
31.25737	92801
31.26550	73093
31.27362	64250
31.28173	61800
31.28987	59276
31.29798	53121
31.30612	49265
31.31423	52484
31.32235	52885
31.33048	55439
31.33860	56025
31.34673	58447
31.35485	57366
31.36297	53963
31.37110	62660
31.37922	71397
31.38733	69513
31.39547	69968
31.40358	75302
31.41172	74092
31.41983	70565
31.42795	68170
31.43608	70506
31.44420	65122
31.45233	60506
31.46045	53613
31.46857	54428
31.47670	51284
31.48482	52348
31.49293	56378
31.50107	58610
31.50918	54656
31.51732	59575
31.52543	58556
31.53355	62245
31.54168	58568
31.54980	64094
31.55793	59287
31.56605	66505
31.57417	66290
31.58230	60864
31.59042	61060
31.59855	62723
31.60667	65509
31.61478	65228
31.62292	67620
31.63103	68117
31.63915	69475
31.64728	69618
31.65540	75477
31.66353	71848
31.67165	76789
31.67977	71935
31.68790	69657
31.69602	77708
31.70415	70492
31.71227	80240
31.72038	70974
31.72852	67795
31.73663	69690
31.74477	70708
31.75288	67096
31.76100	63510
31.76913	69336
31.77725	73198
31.78537	70289
31.79350	67533
31.80162	67929
31.80975	73565
31.81787	70967
31.82598	73878
31.83412	72759
31.84223	71643
31.85037	75738
31.85848	76695
31.86660	75457
31.87473	80512
31.88285	84402
31.89097	78646
31.89910	79917
31.90722	78985
31.91535	85695
31.92347	83939
31.93158	91967
31.93972	92158
31.94783	88783
31.95597	90170
31.96408	94857
31.97220	95100
31.98033	96153
31.98845	100777
31.99658	102593
32.00470	110459
32.01282	101197
32.02095	99483
32.02907	100669
32.03718	93356
32.04532	88891
32.05343	83185
32.06157	81759
32.06968	83581
32.07780	79919
32.08593	80128
32.09405	80817
32.10218	77660
32.11030	78690
32.11842	78865
32.12655	76926
32.13467	70194
32.14280	64040
32.15092	67194
32.15903	65230
32.16717	62996
32.17528	64634
32.18340	62213
32.19153	60427
32.19965	63265
32.20778	63844
32.21590	65861
32.22402	61031
32.23215	62677
32.24027	64821
32.24840	61840
32.25652	60041
32.26463	64816
32.27277	67525
32.28088	68856
32.28900	68488
32.29713	66543
32.30525	67923
32.31338	62609
32.32150	55116
32.32962	59936
32.33775	64256
32.34587	61155
32.35400	63166
32.36212	64920
32.37023	66321
32.37837	66561
32.38648	62269
32.39462	61747
32.40273	62365
32.41085	63329
32.41898	58257
32.42710	57415
32.43522	56126
32.44335	51122
32.45147	55323
32.45960	52957
32.46772	56726
32.47583	58006
32.48397	58039
32.49208	51111
32.50022	54033
32.50833	55208
32.51645	51992
32.52458	52950
32.53270	57660
32.54083	51891
32.54895	60178
32.55707	54966
32.56520	55948
32.57332	55906
32.58143	53663
32.58957	51137
32.59768	55060
32.60582	53674
32.61393	49183
32.62205	52444
32.63018	52965
32.63830	49669
32.64643	55323
32.65455	54495
32.66267	54818
32.67080	57612
32.67892	63637
32.68703	68559
32.69517	64157
32.70328	66471
32.71142	63287
32.71953	66070
32.72765	64786
32.73578	60092
32.74390	56197
32.75203	59376
32.76015	54404
32.76827	51811
32.77640	60832
32.78452	49601
32.79265	49268
32.80077	56070
32.80888	51986
32.81702	53407
32.82513	53826
32.83325	52157
32.84138	54501
32.84950	52819
32.85763	50883
32.86575	55943
32.87387	56497
32.88200	49203
32.89012	56808
32.89825	58080
32.90637	57684
32.91448	61514
32.92262	57402
32.93073	62006
32.93885	56252
32.94698	54893
32.95510	53482
32.96323	55666
32.97135	56686
32.97947	52153
32.98760	57571
32.99572	60178
33.00385	63177
33.01197	68077
33.02008	72918
33.02822	69013
33.03633	67391
33.04447	60643
33.05258	59101
33.06070	60563
33.06883	60198
33.07695	66616
33.08507	74332
33.09320	81182
33.10132	91569
33.10945	101123
33.11757	119857
33.12568	122096
33.13382	124267
33.14193	121180
33.15007	103071
33.15818	84093
33.16630	73495
33.17443	61710
33.18255	60830
33.19068	60607
33.19880	57162
33.20692	54060
33.21505	58188
33.22317	58371
33.23128	56390
33.23942	55938
33.24753	56008
33.25567	54232
33.26378	55266
33.27190	56183
33.28003	56444
33.28815	58174
33.29628	51878
33.30440	54380
33.31252	56462
33.32065	49536
33.32877	56343
33.33688	57039
33.34502	59884
33.35313	53539
33.36127	59190
33.36938	61059
33.37750	58630
33.38563	58804
33.39375	57314
33.40188	54895
33.41000	56474
33.41812	53243
33.42625	48938
33.43437	52147
33.44250	52591
33.45062	53161
33.45873	49794
33.46687	51399
33.47498	50806
33.48310	50419
33.49123	50041
33.49935	51037
33.50748	53033
33.51560	53137
33.52372	52657
33.53185	52197
33.53997	54540
33.54810	51594
33.55622	55933
33.56433	60424
33.57247	57148
33.58058	56648
33.58872	62202
33.59683	58933
33.60495	54688
33.61308	53744
33.62120	55578
33.62932	51740
33.63745	58104
33.64557	54517
33.65370	57504
33.66182	63694
33.66993	56354
33.67807	56397
33.68618	56832
33.69432	52894
33.70243	49625
33.71055	51224
33.71868	49122
33.72680	54512
33.73492	50868
33.74305	48926
33.75117	53361
33.75930	48461
33.76742	50407
33.77553	51124
33.78367	53328
33.79178	55560
33.79992	48528
33.80803	53459
33.81615	54492
33.82428	52256
33.83240	53263
33.84053	49061
33.84865	51086
33.85677	53406
33.86490	53828
33.87302	54007
33.88113	57132
33.88927	64504
33.89738	59020
33.90552	54971
33.91363	58125
33.92175	49601
33.92988	52694
33.93800	54040
33.94613	51166
33.95425	60435
33.96237	52578
33.97050	56292
33.97862	48923
33.98673	48116
33.99487	46064
34.00298	48225
34.01112	54593
34.01923	52195
34.02735	51514
34.03548	51644
34.04360	52522
34.05173	52395
34.05985	54294
34.06797	57412
34.07610	52494
34.08422	51462
34.09235	55293
34.10047	53618
34.10858	58396
34.11672	61029
34.12483	54958
34.13295	55151
34.14108	50433
34.14920	50359
34.15733	51402
34.16545	50914
34.17357	51303
34.18170	55718
34.18982	49904
34.19795	51174
34.20607	45547
34.21418	51016
34.22232	47819
34.23043	49522
34.23857	51396
34.24668	57727
34.25480	51630
34.26293	49475
34.27105	46633
34.27917	49975
34.28730	51994
34.29542	50081
34.30355	50590
34.31167	50843
34.31978	46704
34.32792	52470
34.33603	51030
34.34417	54006
34.35228	52994
34.36040	58771
34.36853	55739
34.37665	51563
34.38478	54745
34.39290	49702
34.40102	52223
34.40915	52798
34.41727	51563
34.42538	51653
34.43352	49900
34.44163	51005
34.44977	54340
34.45788	49603
34.46600	50727
34.47413	53636
34.48225	48142
34.49038	54584
34.49850	51240
34.50662	48651
34.51475	53436
34.52287	52504
34.53098	57714
34.53912	56043
34.54723	63897
34.55537	67304
34.56348	68864
34.57160	76949
34.57973	79204
34.58785	76263
34.59598	72135
34.60410	72648
34.61222	75135
34.62035	65637
34.62847	67012
34.63660	61439
34.64472	56744
34.65283	57923
34.66097	55034
34.66908	55988
34.67720	60733
34.68533	57028
34.69345	57210
34.70158	60596
34.70970	60744
34.71782	53489
34.72595	54137
34.73407	54454
34.74220	55721
34.75032	55356
34.75843	52699
34.76657	58891
34.77468	55999
34.78280	52668
34.79093	57238
34.79905	56236
34.80718	56444
34.81530	55122
34.82342	52476
34.83155	52595
34.83967	55117
34.84780	54676
34.85592	55213
34.86403	55989
34.87217	55306
34.88028	56658
34.88842	54807
34.89653	55907
34.90465	58406
34.91278	56365
34.92090	61019
34.92902	56290
34.93715	60355
34.94527	68609
34.95340	85426
34.96152	124529
34.96963	183708
34.97777	268754
34.98588	344820
34.99402	362712
35.00213	334146
35.01025	248656
35.01838	171917
35.02650	115519
35.03463	87521
35.04275	75629
35.05087	68270
35.05900	63151
35.06712	68233
35.07523	64903
35.08337	62275
35.09148	63259
35.09962	64422
35.10773	61348
35.11585	67290
35.12398	56444
35.13210	59049
35.14023	57076
35.14835	60809
35.15647	56213
35.16460	60475
35.17272	63051
35.18083	65274
35.18897	60320
35.19708	60354
35.20522	60255
35.21333	58203
35.22145	59202
35.22958	58532
35.23770	54565
35.24583	62306
35.25395	60647
35.26207	59894
35.27020	64766
35.27832	62241
35.28645	66552
35.29457	59623
35.30268	61760
35.31082	63669
35.31893	55191
35.32705	57222
35.33518	55402
35.34330	56838
35.35143	53825
35.35955	53172
35.36767	50036
35.37580	52837
35.38392	55937
35.39205	53262
35.40017	55809
35.40828	57301
35.41642	63179
35.42453	60648
35.43267	63247
35.44078	66158
35.44890	61407
35.45703	64374
35.46515	64429
35.47327	65877
35.48140	67127
35.48952	58941
35.49765	64229
35.50577	63430
35.51388	60969
35.52202	57052
35.53013	58058
35.53827	60594
35.54638	61174
35.55450	58789
35.56263	51360
35.57075	57353
35.57887	59146
35.58700	58287
35.59512	59580
35.60325	55056
35.61137	58951
35.61948	56145
35.62762	59587
35.63573	54442
35.64387	52748
35.65198	59626
35.66010	54417
35.66823	57614
35.67635	54852
35.68448	59235
35.69260	56525
35.70072	57192
35.70885	60212
35.71697	55368
35.72508	61370
35.73322	59912
35.74133	66117
35.74947	64130
35.75758	65040
35.76570	66682
35.77383	67696
35.78195	72856
35.79008	74176
35.79820	70541
35.80632	61582
35.81445	65628
35.82257	58822
35.83068	67408
35.83882	61978
35.84693	60873
35.85507	60141
35.86318	57929
35.87130	60613
35.87943	56213
35.88755	57128
35.89568	60368
35.90380	62311
35.91192	62764
35.92005	58893
35.92817	57099
35.93630	55367
35.94442	60489
35.95253	59922
35.96067	59771
35.96878	55630
35.97690	56547
35.98503	51169
35.99315	54333
36.00128	54746
36.00940	60512
36.01752	61761
36.02565	62362
36.03377	62362
36.04190	58959
36.05002	64597
36.05813	58801
36.06627	59597
36.07438	65164
36.08252	54198
36.09063	60647
36.09875	56468
36.10688	57376
36.11500	62701
36.12312	57119
36.13125	63116
36.13937	63609
36.14750	65620
36.15562	67849
36.16373	66908
36.17187	59913
36.17998	66463
36.18812	63727
36.19623	61078
36.20435	58406
36.21248	60580
36.22060	59032
36.22872	61593
36.23685	59653
36.24497	53271
36.25310	58272
36.26122	58506
36.26933	63491
36.27747	56411
36.28558	55173
36.29372	60132
36.30183	55975
36.30995	63401
36.31808	61215
36.32620	65620
36.33433	66091
36.34245	64387
36.35057	72279
36.35870	65800
36.36682	61075
36.37493	59926
36.38307	60709
36.39118	62306
36.39932	58509
36.40743	56916
36.41555	57936
36.42368	59656
36.43180	61042
36.43993	59825
36.44805	57571
36.45617	62979
36.46430	60134
36.47242	58018
36.48055	54252
36.48867	58966
36.49678	62107
36.50492	55545
36.51303	57014
36.52115	58642
36.52928	55850
36.53740	56949
36.54553	59938
36.55365	59725
36.56177	57426
36.56990	61519
36.57802	62746
36.58615	58666
36.59427	56023
36.60238	56992
36.61052	57747
36.61863	62771
36.62675	58327
36.63488	57824
36.64300	63498
36.65113	60038
36.65925	55227
36.66737	59606
36.67550	59449
36.68362	63339
36.69175	59980
36.69987	60085
36.70798	58342
36.71612	60956
36.72423	56172
36.73237	58670
36.74048	63846
36.74860	58093
36.75673	57632
36.76485	59328
36.77297	63548
36.78110	58372
36.78922	57430
36.79735	55693
36.80547	57992
36.81358	63414
36.82172	55870
36.82983	59887
36.83797	54534
36.84608	59766
36.85420	59508
36.86233	60512
36.87045	58299
36.87857	59098
36.88670	62297
36.89482	59572
36.90295	56582
36.91107	61552
36.91918	54560
36.92732	59725
36.93543	61428
36.94357	59918
36.95168	62438
36.95980	71873
36.96793	74976
36.97605	82610
36.98418	82020
36.99230	80907
37.00042	81149
37.00855	81410
37.01667	70276
37.02478	72755
37.03292	78869
37.04103	78329
37.04917	77131
37.05728	71500
37.06540	68272
37.07353	73363
37.08165	76637
37.08978	76434
37.09790	76462
37.10602	75033
37.11415	76724
37.12227	74734
37.13040	76065
37.13852	76003
37.14663	77890
37.15477	79436
37.16288	70306
37.17100	75523
37.17913	76876
37.18725	79322
37.19538	76258
37.20350	77243
37.21162	77643
37.21975	79489
37.22787	79421
37.23600	80394
37.24412	88083
37.25223	74944
37.26037	73395
37.26848	74622
37.27660	77993
37.28473	72338
37.29285	70687
37.30098	76695
37.30910	69638
37.31722	76629
37.32535	74846
37.33347	74613
37.34160	74546
37.34972	77580
37.35783	75410
37.36597	86864
37.37408	80763
37.38222	77911
37.39033	81503
37.39845	78806
37.40658	78087
37.41470	85743
37.42282	92752
37.43095	81188
37.43907	75843
37.44720	78231
37.45532	76090
37.46343	79825
37.47157	79223
37.47968	78967
37.48782	84631
