C:\MassHunter\GCMS\1\data\JTB-E18\JTB-E18-026-05.D Tue Sep 17 11:32:23 2019
Start of data points
2.09513	153764
2.10327	152974
2.11138	153438
2.11952	151421
2.12763	152293
2.13575	151065
2.14388	150561
2.15200	154865
2.16012	143146
2.16825	143856
2.17637	133572
2.18450	133452
2.19262	135636
2.20073	127950
2.20887	134113
2.21698	130903
2.22512	129155
2.23323	122920
2.24135	119363
2.24948	132120
2.25760	125308
2.26572	150475
2.27385	723531
2.28197	2510865
2.29010	2140571
2.29822	934266
2.30633	560476
2.31447	447711
2.32258	409147
2.33072	373078
2.33883	341128
2.34695	317940
2.35508	283626
2.36320	266153
2.37133	246873
2.37945	248643
2.38757	352408
2.39570	321541
2.40382	253188
2.41193	241566
2.42007	238387
2.42818	240097
2.43632	232159
2.44443	217412
2.45255	224693
2.46068	204147
2.46880	196885
2.47693	188824
2.48505	194391
2.49317	221472
2.50130	259190
2.50942	220500
2.51755	196745
2.52567	199453
2.53378	193970
2.54192	192699
2.55003	197301
2.55815	205094
2.56628	200614
2.57440	184234
2.58253	176834
2.59065	179810
2.59877	181779
2.60690	178293
2.61502	200035
2.62315	213560
2.63127	204130
2.63938	184980
2.64752	175515
2.65563	182031
2.66375	185866
2.67188	190401
2.68000	234973
2.68813	245629
2.69625	204352
2.70437	184638
2.71250	174726
2.72062	163370
2.72875	163353
2.73687	164348
2.74498	166321
2.75312	164893
2.76123	161609
2.76937	167046
2.77748	159976
2.78560	160128
2.79373	153069
2.80185	154508
2.80997	170006
2.81810	187064
2.82622	368277
2.83435	881652
2.84247	976947
2.85058	563291
2.85872	353685
2.86683	335402
2.87497	295952
2.88308	243320
2.89120	210640
2.89933	202192
2.90745	194721
2.91557	183640
2.92370	177342
2.93182	174594
2.93995	166354
2.94807	162618
2.95618	159455
2.96432	165395
2.97243	163536
2.98057	161479
2.98868	169836
2.99680	172642
3.00493	180230
3.01305	179229
3.02118	230722
3.02930	418881
3.03742	822757
3.04555	1216613
3.05367	3323273
3.06178	8812803
3.06992	1.073303E+07
3.07803	6606017
3.08617	3099624
3.09428	1781281
3.10240	1222192
3.11053	933349
3.11865	753119
3.12678	636704
3.13490	554515
3.14302	494550
3.15115	440500
3.15927	405545
3.16740	384254
3.17552	383809
3.18363	345329
3.19177	322602
3.19988	303563
3.20800	291446
3.21613	281237
3.22425	276845
3.23238	290709
3.24050	280729
3.24862	266068
3.25675	248649
3.26487	235210
3.27300	236277
3.28112	320205
3.28923	915845
3.29737	3147536
3.30548	6747160
3.31362	8453191
3.32173	6749483
3.32985	4278185
3.33798	2680786
3.34610	1871609
3.35422	1470986
3.36235	1208938
3.37047	1197575
3.37860	1422376
3.38672	1547182
3.39483	1350944
3.40297	1576067
3.41108	3264482
3.41922	5498388
3.42733	5022418
3.43545	2914855
3.44358	1579989
3.45170	1087762
3.45982	881267
3.46795	785236
3.47607	707279
3.48420	624815
3.49232	577523
3.50043	520830
3.50857	501331
3.51668	478312
3.52482	444116
3.53293	440916
3.54105	419145
3.54918	398748
3.55730	385583
3.56543	373084
3.57355	381198
3.58167	366576
3.58980	349662
3.59792	350703
3.60603	358169
3.61417	446212
3.62228	881932
3.63042	1974849
3.63853	2950831
3.64665	2658197
3.65478	1669121
3.66290	947373
3.67103	664608
3.67915	542064
3.68727	474580
3.69540	439148
3.70352	404913
3.71163	396937
3.71977	376823
3.72788	378784
3.73602	360377
3.74413	359378
3.75225	368270
3.76038	372394
3.76850	357963
3.77663	336210
3.78475	317840
3.79287	316786
3.80100	313765
3.80912	313280
3.81725	301309
3.82537	310246
3.83348	308249
3.84162	309343
3.84973	298506
3.85785	285741
3.86598	273408
3.87410	271473
3.88223	274878
3.89035	275817
3.89847	280031
3.90660	269451
3.91472	268013
3.92285	265293
3.93097	267868
3.93908	258732
3.94722	251125
3.95533	249603
3.96347	248492
3.97158	250277
3.97970	238350
3.98783	231269
3.99595	234524
4.00407	235372
4.01220	238311
4.02032	236587
4.02845	237704
4.03657	233866
4.04468	230266
4.05282	237116
4.06093	247895
4.06907	245790
4.07718	257978
4.08530	240930
4.09343	236553
4.10155	230614
4.10967	233249
4.11780	232085
4.12592	248046
4.13405	306201
4.14217	469461
4.15028	714801
4.15842	768698
4.16653	606844
4.17467	425975
4.18278	336572
4.19090	295612
4.19903	275286
4.20715	276432
4.21528	422502
4.22340	1032690
4.23152	1972404
4.23965	2445545
4.24777	2023487
4.25588	1355648
4.26402	958331
4.27213	740854
4.28027	591660
4.28838	498298
4.29650	437132
4.30463	394981
4.31275	366246
4.32088	340512
4.32900	334366
4.33712	313253
4.34525	300941
4.35337	284401
4.36150	281936
4.36962	279600
4.37773	263624
4.38587	252306
4.39398	246104
4.40210	241327
4.41023	237429
4.41835	234618
4.42648	233484
4.43460	234451
4.44272	241853
4.45085	254036
4.45897	266159
4.46710	264962
4.47522	255775
4.48333	244548
4.49147	228511
4.49958	225822
4.50770	216489
4.51583	219009
4.52395	211858
4.53208	217004
4.54020	216434
4.54832	206659
4.55645	209948
4.56457	203814
4.57270	215262
4.58082	209123
4.58893	202262
4.59707	204596
4.60518	198018
4.61332	201779
4.62143	197904
4.62955	198834
4.63768	199856
4.64580	196444
4.65392	193599
4.66205	197414
4.67017	193907
4.67830	197695
4.68642	196769
4.69453	196186
4.70267	188922
4.71078	191132
4.71892	196879
4.72703	182522
4.73515	186233
4.74328	190544
4.75140	184013
4.75952	189245
4.76765	190717
4.77577	186359
4.78390	186955
4.79202	186934
4.80013	186956
4.80827	185956
4.81638	195139
4.82452	185165
4.83263	186915
4.84075	190119
4.84888	184001
4.85700	190451
4.86513	193026
4.87325	194218
4.88137	197161
4.88950	193303
4.89762	191819
4.90573	193410
4.91387	205731
4.92198	274488
4.93012	468717
4.93823	833315
4.94635	1265249
4.95448	1461070
4.96260	1355507
4.97073	1088807
4.97885	842002
4.98697	658383
4.99510	544169
5.00322	474102
5.01135	423508
5.01947	389686
5.02758	369736
5.03572	352139
5.04383	325697
5.05195	332061
5.06008	314190
5.06820	308612
5.07633	302463
5.08445	298890
5.09257	315172
5.10070	362213
5.10882	427282
5.11695	486962
5.12507	493862
5.13318	445569
5.14132	368479
5.14943	327864
5.15755	298546
5.16568	328294
5.17380	398542
5.18193	470804
5.19005	499772
5.19817	479409
5.20630	396377
5.21442	337785
5.22255	306281
5.23067	306957
5.23878	314647
5.24692	315599
5.25503	305842
5.26317	284378
5.27128	263838
5.27940	271114
5.28753	272547
5.29565	264597
5.30377	250576
5.31190	243624
5.32002	246608
5.32815	236609
5.33627	254230
5.34438	248066
5.35252	256136
5.36063	245153
5.36877	228499
5.37688	228335
5.38500	221230
5.39313	212322
5.40125	212398
5.40938	207703
5.41750	211712
5.42562	215896
5.43375	206130
5.44187	206547
5.44998	214816
5.45812	214839
5.46623	212948
5.47437	204963
5.48248	206746
5.49060	208747
5.49873	208036
5.50685	208029
5.51498	206591
5.52310	208395
5.53122	214327
5.53935	203319
5.54747	206179
5.55558	205485
5.56372	201198
5.57183	196761
5.57997	207837
5.58808	212316
5.59620	210112
5.60433	206422
5.61245	211515
5.62058	217770
5.62870	217910
5.63682	231706
5.64495	234121
5.65307	229462
5.66120	216196
5.66932	215876
5.67743	220008
5.68557	217532
5.69368	225550
5.70180	228310
5.70993	250278
5.71805	280430
5.72618	296342
5.73430	302871
5.74242	291962
5.75055	275638
5.75867	291347
5.76680	315330
5.77492	326347
5.78303	314961
5.79117	296933
5.79928	337745
5.80742	518868
5.81553	910226
5.82365	1443966
5.83178	1873103
5.83990	1883449
5.84802	1483556
5.85615	1003602
5.86427	668156
5.87240	470010
5.88052	376056
5.88863	333021
5.89677	338593
5.90488	362815
5.91302	486396
5.92113	688766
5.92925	881478
5.93738	919547
5.94550	772549
5.95362	582922
5.96175	414644
5.96987	330860
5.97800	300333
5.98612	274220
5.99423	257501
6.00237	238610
6.01048	210239
6.01862	200625
6.02673	195508
6.03485	186386
6.04298	180314
6.05110	183361
6.05923	173040
6.06735	161623
6.07547	165191
6.08360	171479
6.09172	158082
6.09983	161325
6.10797	161823
6.11608	157258
6.12422	158128
6.13233	156024
6.14045	158580
6.14858	157993
6.15670	155419
6.16483	169544
6.17295	177962
6.18107	191560
6.18920	204851
6.19732	229639
6.20543	244767
6.21357	234634
6.22168	206609
6.22982	195524
6.23793	174079
6.24605	181423
6.25418	182715
6.26230	188112
6.27043	183849
6.27855	188804
6.28667	183867
6.29480	190751
6.30292	191685
6.31105	189135
6.31917	197038
6.32728	201730
6.33542	205430
6.34353	214301
6.35165	217640
6.35978	227842
6.36790	228334
6.37603	218420
6.38415	211352
6.39227	217409
6.40040	221189
6.40852	217777
6.41665	220550
6.42477	220852
6.43288	226456
6.44102	234476
6.44913	239677
6.45727	241534
6.46538	232826
6.47350	236167
6.48163	237856
6.48975	249162
6.49787	250405
6.50600	252499
6.51412	248683
6.52225	253616
6.53037	257276
6.53848	266078
6.54662	271359
6.55473	270433
6.56287	266332
6.57098	267399
6.57910	212507
6.58723	188746
6.59535	187238
6.60347	181191
6.61160	172545
6.61972	173734
6.62785	155652
6.63597	159743
6.64408	153766
6.65222	153105
6.66033	151254
6.66847	147516
6.67658	148835
6.68470	155451
6.69283	171774
6.70095	190217
6.70908	237045
6.71720	296142
6.72532	321174
6.73345	313947
6.74157	272995
6.74968	230000
6.75782	189495
6.76593	169931
6.77407	147317
6.78218	139200
6.79030	138895
6.79843	130336
6.80655	134043
6.81468	144259
6.82280	174745
6.83092	261683
6.83905	429146
6.84717	704526
6.85530	1001547
6.86342	1260787
6.87153	1265083
6.87967	1050148
6.88778	744551
6.89590	469520
6.90403	294172
6.91215	199872
6.92028	162040
6.92840	136541
6.93652	120284
6.94465	117766
6.95277	110244
6.96090	107574
6.96902	111876
6.97713	118957
6.98527	140072
6.99338	199089
7.00150	302550
7.00963	428990
7.01775	550670
7.02588	572605
7.03400	511681
7.04212	383269
7.05025	285656
7.05837	200427
7.06650	159297
7.07462	137899
7.08273	131746
7.09087	139002
7.09898	142900
7.10712	153114
7.11523	148316
7.12335	149171
7.13148	139771
7.13960	126740
7.14772	121348
7.15585	122627
7.16397	115705
7.17210	115201
7.18022	116813
7.18833	118523
7.19647	119493
7.20458	116480
7.21272	116451
7.22083	131173
7.22895	141660
7.23708	160292
7.24520	188499
7.25332	215994
7.26145	236294
7.26957	238994
7.27770	212411
7.28582	197862
7.29393	170082
7.30207	169146
7.31018	179444
7.31832	186905
7.32643	186317
7.33455	178948
7.34268	163013
7.35080	151036
7.35893	174067
7.36705	227054
7.37517	297300
7.38330	366052
7.39142	426695
7.39953	392486
7.40767	324013
7.41578	262063
7.42392	194884
7.43203	169010
7.44015	147993
7.44828	137404
7.45640	137127
7.46453	151988
7.47265	172510
7.48077	222442
7.48890	263734
7.49702	293610
7.50515	278484
7.51327	246148
7.52138	197502
7.52952	162279
7.53763	139230
7.54575	124935
7.55388	124296
7.56200	119006
7.57013	116071
7.57825	114928
7.58637	116277
7.59450	111675
7.60262	112930
7.61075	108818
7.61887	105520
7.62698	100184
7.63512	107541
7.64323	100107
7.65137	109193
7.65948	110008
7.66760	108714
7.67573	108285
7.68385	108017
7.69197	107386
7.70010	99557
7.70822	101896
7.71635	98981
7.72447	97803
7.73258	95454
7.74072	96847
7.74883	90100
7.75697	87523
7.76508	88019
7.77320	89689
7.78133	89381
7.78945	89005
7.79757	89998
7.80570	90979
7.81382	83182
7.82195	85889
7.83007	81136
7.83818	83073
7.84632	85123
7.85443	87145
7.86257	90304
7.87068	84056
7.87880	88403
7.88693	86390
7.89505	84054
7.90318	85393
7.91130	84711
7.91942	83726
7.92755	78495
7.93567	78667
7.94378	84054
7.95192	86593
7.96003	82893
7.96817	86637
7.97628	85561
7.98440	88605
7.99253	87323
8.00065	85032
8.00878	81852
8.01690	82011
8.02502	80160
8.03315	85964
8.04127	79187
8.04938	80447
8.05752	82190
8.06563	78471
8.07377	79786
8.08188	81588
8.09000	76374
8.09813	76073
8.10625	78302
8.11438	84126
8.12250	81642
8.13062	80577
8.13875	76119
8.14687	83510
8.15500	82200
8.16312	83663
8.17123	79056
8.17937	80300
8.18748	81277
8.19560	79718
8.20373	74393
8.21185	76610
8.21998	71457
8.22810	79727
8.23622	77725
8.24435	76166
8.25247	79691
8.26060	73881
8.26872	72885
8.27683	75315
8.28497	76912
8.29308	74982
8.30122	72905
8.30933	80774
8.31745	75414
8.32558	82043
8.33370	86365
8.34182	84773
8.34995	88573
8.35807	84912
8.36620	84323
8.37432	74908
8.38243	77624
8.39057	73069
8.39868	75156
8.40682	74630
8.41493	76284
8.42305	75387
8.43118	73410
8.43930	73056
8.44742	69328
8.45555	70801
8.46367	73062
8.47180	74652
8.47992	69377
8.48803	73737
8.49617	72685
8.50428	77381
8.51242	84868
8.52053	89096
8.52865	85704
8.53678	82544
8.54490	78430
8.55303	77167
8.56115	75836
8.56927	72655
8.57740	72138
8.58552	72564
8.59363	73338
8.60177	71878
8.60988	72348
8.61802	67739
8.62613	68708
8.63425	67438
8.64238	70995
8.65050	69296
8.65863	69574
8.66675	73527
8.67487	70816
8.68300	71277
8.69112	70214
8.69925	69924
8.70737	75157
8.71548	79681
8.72362	84675
8.73173	101978
8.73985	151517
8.74798	243606
8.75610	353021
8.76423	414594
8.77235	401916
8.78047	333020
8.78860	247520
8.79672	206343
8.80485	179639
8.81297	163867
8.82108	154468
8.82922	159894
8.83733	142950
8.84545	139650
8.85358	136598
8.86170	132571
8.86983	124878
8.87795	119136
8.88607	125846
8.89420	120146
8.90232	114065
8.91045	113422
8.91857	113061
8.92668	107480
8.93482	114842
8.94293	112327
8.95107	108691
8.95918	105174
8.96730	110965
8.97543	102491
8.98355	102243
8.99167	102641
8.99980	97959
9.00792	101063
9.01605	100928
9.02417	100506
9.03228	100590
9.04042	103599
9.04853	103532
9.05667	98378
9.06478	98978
9.07290	104338
9.08103	93522
9.08915	97787
9.09727	99565
9.10540	97887
9.11352	97489
9.12165	95468
9.12977	96844
9.13788	93375
9.14602	94752
9.15413	94169
9.16227	94335
9.17038	89055
9.17850	82061
9.18663	91628
9.19475	91350
9.20288	86582
9.21100	80515
9.21912	80881
9.22725	84523
9.23537	88052
9.24348	85644
9.25162	83488
9.25973	84074
9.26787	82606
9.27598	86121
9.28410	84657
9.29223	84737
9.30035	81593
9.30848	78122
9.31660	82153
9.32472	83387
9.33285	81773
9.34097	82770
9.34910	91872
9.35722	92147
9.36533	89125
9.37347	83564
9.38158	83988
9.38970	82381
9.39783	76879
9.40595	89984
9.41408	87082
9.42220	81908
9.43032	77453
9.43845	76281
9.44657	77905
9.45470	76022
9.46282	78778
9.47093	72166
9.47907	74060
9.48718	76210
9.49530	74214
9.50343	85680
9.51155	76103
9.51968	73133
9.52780	76216
9.53592	76721
9.54405	73786
9.55217	63883
9.56030	64091
9.56842	64818
9.57653	59094
9.58467	56240
9.59278	57756
9.60092	59842
9.60903	54016
9.61715	54112
9.62528	54137
9.63340	56102
9.64152	53262
9.64965	53125
9.65777	52164
9.66590	49137
9.67402	52184
9.68213	45472
9.69027	50803
9.69838	49955
9.70652	53079
9.71463	50648
9.72275	52348
9.73088	52887
9.73900	54553
9.74713	51611
9.75525	52001
9.76337	47962
9.77150	47814
9.77962	50941
9.78773	54399
9.79587	50435
9.80398	47763
9.81212	50660
9.82023	49943
9.82835	49914
9.83648	55033
9.84460	53339
9.85273	52323
9.86085	54717
9.86897	52534
9.87710	51368
9.88522	50105
9.89333	51982
9.90147	50852
9.90958	51390
9.91772	47282
9.92583	52469
9.93395	50462
9.94208	49365
9.95020	55289
9.95833	57390
9.96645	58097
9.97457	57900
9.98270	60236
9.99082	58152
9.99895	63147
10.00707	59412
10.01518	56726
10.02332	57163
10.03143	51793
10.03955	55356
10.04768	53722
10.05580	56351
10.06393	56228
10.07205	52070
10.08017	52998
10.08830	52768
10.09642	51875
10.10455	47860
10.11267	51543
10.12078	53160
10.12892	46067
10.13703	50709
10.14515	51141
10.15328	47388
10.16140	48983
10.16953	48803
10.17765	51618
10.18577	49668
10.19390	50314
10.20202	51536
10.21015	52892
10.21827	54331
10.22638	54936
10.23452	55927
10.24263	57457
10.25077	55895
10.25888	60129
10.26700	64150
10.27513	61487
10.28325	64238
10.29137	64061
10.29950	62247
10.30762	62292
10.31575	59434
10.32387	58107
10.33198	57003
10.34012	57276
10.34823	55328
10.35637	57000
10.36448	57743
10.37260	60467
10.38073	61143
10.38885	67978
10.39698	69984
10.40510	68619
10.41322	67696
10.42135	59241
10.42947	58994
10.43758	59552
10.44572	54488
10.45383	54868
10.46197	53980
10.47008	57640
10.47820	53414
10.48633	57625
10.49445	59521
10.50258	60501
10.51070	60956
10.51882	69064
10.52695	70485
10.53507	70673
10.54318	72710
10.55132	66411
10.55943	63020
10.56757	59559
10.57568	60323
10.58380	57363
10.59193	58773
10.60005	56487
10.60818	59832
10.61630	57807
10.62442	57479
10.63255	59888
10.64067	59163
10.64880	62776
10.65692	60339
10.66503	55234
10.67317	59536
10.68128	59736
10.68940	65379
10.69753	67964
10.70565	68092
10.71378	65580
10.72190	64335
10.73002	68058
10.73815	60729
10.74627	65476
10.75440	61382
10.76252	59933
10.77063	65122
10.77877	58978
10.78688	60942
10.79502	57121
10.80313	56747
10.81125	53631
10.81938	54167
10.82750	54058
10.83562	52140
10.84375	54410
10.85187	53500
10.86000	51178
10.86812	51556
10.87623	52705
10.88437	55954
10.89248	53462
10.90062	54077
10.90873	50278
10.91685	49858
10.92498	54653
10.93310	56208
10.94122	54274
10.94935	53397
10.95747	51702
10.96560	52883
10.97372	56700
10.98183	59824
10.98997	53378
10.99808	54728
11.00622	51308
11.01433	50741
11.02245	51379
11.03058	52873
11.03870	54725
11.04683	55293
11.05495	50315
11.06307	54622
11.07120	60089
11.07932	62867
11.08743	62863
11.09557	67895
11.10368	71374
11.11182	83353
11.11993	86416
11.12805	90716
11.13618	98768
11.14430	93502
11.15243	92695
11.16055	95419
11.16867	102510
11.17680	94350
11.18492	98714
11.19305	95329
11.20117	93550
11.20928	97603
11.21742	98256
11.22553	97253
11.23365	96693
11.24178	95164
11.24990	91362
11.25803	89529
11.26615	102822
11.27427	122302
11.28240	156443
11.29052	195297
11.29865	235624
11.30677	267229
11.31488	274268
11.32302	247043
11.33113	211384
11.33925	185636
11.34738	169797
11.35550	166734
11.36363	161236
11.37175	146967
11.37987	135937
11.38800	131592
11.39612	112895
11.40425	117866
11.41237	103706
11.42048	103513
11.42862	100191
11.43673	91466
11.44487	93760
11.45298	90346
11.46110	93588
11.46923	88375
11.47735	86958
11.48547	83542
11.49360	85298
11.50172	89889
11.50985	90550
11.51797	93996
11.52608	104909
11.53422	120425
11.54233	123745
11.55047	123621
11.55858	122108
11.56670	115499
11.57483	110363
11.58295	103973
11.59107	97011
11.59920	96359
11.60732	95029
11.61545	88757
11.62357	92339
11.63168	87279
11.63982	82025
11.64793	87397
11.65607	85777
11.66418	83414
11.67230	81845
11.68043	86960
11.68855	87593
11.69668	93153
11.70480	96293
11.71292	103305
11.72105	115049
11.72917	120856
11.73728	127999
11.74542	129195
11.75353	128739
11.76167	123738
11.76978	125808
11.77790	125006
11.78603	112172
11.79415	121757
11.80228	107911
11.81040	100264
11.81852	101254
11.82665	95767
11.83477	92869
11.84290	88955
11.85102	85352
11.85913	84805
11.86727	82107
11.87538	77214
11.88350	75591
11.89163	76921
11.89975	71288
11.90788	74637
11.91600	75528
11.92412	81835
11.93225	92080
11.94037	107338
11.94850	112836
11.95662	113684
11.96473	109495
11.97287	100589
11.98098	101289
11.98910	92646
11.99723	87812
12.00535	91596
12.01348	83535
12.02160	80813
12.02972	77833
12.03785	74242
12.04597	75998
12.05410	73801
12.06222	72489
12.07033	67510
12.07847	68331
12.08658	71294
12.09472	72236
12.10283	68452
12.11095	65338
12.11908	62376
12.12720	62941
12.13532	66743
12.14345	66769
12.15157	68501
12.15970	67179
12.16782	69336
12.17593	66022
12.18407	65937
12.19218	67519
12.20032	67018
12.20843	63496
12.21655	62216
12.22468	63991
12.23280	65434
12.24093	69342
12.24905	63121
12.25717	68197
12.26530	65737
12.27342	65703
12.28153	67740
12.28967	71812
12.29778	74784
12.30592	77172
12.31403	88375
12.32215	83451
12.33028	79409
12.33840	71342
12.34653	73586
12.35465	75363
12.36277	74501
12.37090	71946
12.37902	73494
12.38713	74562
12.39527	83622
12.40338	85343
12.41152	80822
12.41963	83723
12.42775	85038
12.43588	78350
12.44400	74046
12.45213	74505
12.46025	71391
12.46837	66789
12.47650	65100
12.48462	64032
12.49275	72424
12.50087	63763
12.50898	65919
12.51712	64700
12.52523	60922
12.53335	63844
12.54148	61762
12.54960	65911
12.55773	64226
12.56585	62561
12.57397	66303
12.58210	59166
12.59022	62263
12.59835	61263
12.60647	60215
12.61458	60400
12.62272	60960
12.63083	60550
12.63895	59989
12.64708	60923
12.65520	60572
12.66333	62778
12.67145	63844
12.67957	58320
12.68770	61804
12.69582	60556
12.70395	59436
12.71207	60111
12.72018	61086
12.72832	62978
12.73643	62257
12.74457	61866
12.75268	63012
12.76080	64690
12.76893	61793
12.77705	64229
12.78517	70823
12.79330	70265
12.80142	81444
12.80955	77171
12.81767	84545
12.82578	76033
12.83392	81440
12.84203	77252
12.85017	76230
12.85828	74416
12.86640	72852
12.87453	65303
12.88265	66402
12.89078	63799
12.89890	56625
12.90702	57675
12.91515	55943
12.92327	59434
12.93138	62256
12.93952	71959
12.94763	91777
12.95577	111590
12.96388	136645
12.97200	175501
12.98013	190636
12.98825	191218
12.99638	182122
13.00450	174895
13.01262	160092
13.02075	146421
13.02887	137260
13.03700	122609
13.04512	106117
13.05323	93786
13.06137	84670
13.06948	85292
13.07760	76523
13.08573	74359
13.09385	73498
13.10198	68913
13.11010	70777
13.11822	72887
13.12635	66892
13.13447	66176
13.14260	68916
13.15072	66813
13.15883	71916
13.16697	66047
13.17508	68464
13.18320	74280
13.19133	68981
13.19945	71570
13.20758	69396
13.21570	73081
13.22382	70237
13.23195	70884
13.24007	73294
13.24820	74966
13.25632	75330
13.26443	86362
13.27257	92012
13.28068	93848
13.28882	95755
13.29693	103403
13.30505	89482
13.31318	96598
13.32130	92725
13.32942	95769
13.33755	95362
13.34567	99556
13.35380	91086
13.36192	81947
13.37003	83522
13.37817	83594
13.38628	71927
13.39442	71641
13.40253	68791
13.41065	64832
13.41878	67194
13.42690	64763
13.43502	66701
13.44315	64637
13.45127	63463
13.45940	63033
13.46752	62305
13.47563	60204
13.48377	61313
13.49188	57554
13.50002	59855
13.50813	56662
13.51625	58457
13.52438	57094
13.53250	63576
13.54063	66243
13.54875	74050
13.55687	74462
13.56500	80903
13.57312	86067
13.58123	80724
13.58937	85916
13.59748	88802
13.60562	95004
13.61373	96499
13.62185	98350
13.62998	103420
13.63810	108862
13.64623	112699
13.65435	112347
13.66247	106253
13.67060	97491
13.67872	95632
13.68685	91888
13.69497	83959
13.70308	79924
13.71122	76305
13.71933	80359
13.72745	77945
13.73558	79082
13.74370	70797
13.75183	72137
13.75995	69088
13.76807	73657
13.77620	72817
13.78432	68393
13.79245	66912
13.80057	70142
13.80868	61629
13.81682	64136
13.82493	60635
13.83305	63337
13.84118	62649
13.84930	65722
13.85743	62800
13.86555	57674
13.87367	64552
13.88180	69568
13.88992	74860
13.89805	74324
13.90617	82145
13.91428	85715
13.92242	90309
13.93053	87345
13.93867	86256
13.94678	86186
13.95490	85606
13.96303	79779
13.97115	79366
13.97927	76893
13.98740	74887
13.99552	73644
14.00365	72369
14.01177	75866
14.01988	79567
14.02802	79331
14.03613	76658
14.04427	75032
14.05238	73331
14.06050	68983
14.06863	67204
14.07675	63386
14.08488	62796
14.09300	61244
14.10112	62780
14.10925	58848
14.11737	59164
14.12548	62042
14.13362	71375
14.14173	84708
14.14987	115188
14.15798	145684
14.16610	187145
14.17423	202620
14.18235	195222
14.19048	177773
14.19860	157311
14.20672	143954
14.21485	125933
14.22297	121651
14.23108	115892
14.23922	107108
14.24733	102951
14.25547	95844
14.26358	91243
14.27170	91003
14.27983	86438
14.28795	78812
14.29608	77633
14.30420	75396
14.31232	68775
14.32045	62271
14.32857	57944
14.33670	51680
14.34482	44640
14.35293	47431
14.36107	45957
14.36918	45478
14.37730	46844
14.38543	42689
14.39355	48549
14.40168	42708
14.40980	41652
14.41792	45351
14.42605	44797
14.43417	45617
14.44230	47014
14.45042	43974
14.45853	46204
14.46667	45925
14.47478	44315
14.48290	44699
14.49103	43495
14.49915	37881
14.50728	44419
14.51540	39908
14.52352	42228
14.53165	39445
14.53977	45988
14.54790	47021
14.55602	40138
14.56413	44264
14.57227	41139
14.58038	44893
14.58852	41273
14.59663	40750
14.60475	39704
14.61288	41122
14.62100	39850
14.62912	39805
14.63725	38586
14.64537	41782
14.65350	39734
14.66162	37057
14.66973	38357
14.67787	37691
14.68598	43631
14.69412	40246
14.70223	41487
14.71035	44064
14.71848	37603
14.72660	39283
14.73473	39231
14.74285	39543
14.75097	40630
14.75910	41412
14.76722	40081
14.77533	37831
14.78347	39565
14.79158	43663
14.79972	38318
14.80783	39947
14.81595	40104
14.82408	37839
14.83220	45853
14.84033	42236
14.84845	46196
14.85657	46945
14.86470	44822
14.87282	42622
14.88093	42696
14.88907	42296
14.89718	40790
14.90532	44330
14.91343	41671
14.92155	42636
14.92968	41189
14.93780	42435
14.94593	37066
14.95405	39066
14.96217	37675
14.97030	39090
14.97842	42281
14.98655	38303
14.99467	41384
15.00278	41111
15.01092	41209
15.01903	36844
15.02715	34978
15.03528	39683
15.04340	39742
15.05153	40192
15.05965	40233
15.06777	37293
15.07590	37190
15.08402	37664
15.09215	38551
15.10027	39850
15.10838	39208
15.11652	42041
15.12463	35523
15.13277	40249
15.14088	38181
15.14900	37764
15.15713	36160
15.16525	35637
15.17337	37331
15.18150	34164
15.18962	35694
15.19775	34254
15.20587	38704
15.21398	38511
15.22212	35288
15.23023	36075
15.23837	38152
15.24648	35347
15.25460	36064
15.26273	34701
15.27085	33600
15.27897	34948
15.28710	35674
15.29522	35019
15.30335	34237
15.31147	37080
15.31958	35494
15.32772	36421
15.33583	34955
15.34397	31913
15.35208	35834
15.36020	38337
15.36833	33621
15.37645	35634
15.38458	34456
15.39270	39739
15.40082	36117
15.40895	32664
15.41707	32921
15.42518	34462
15.43332	34631
15.44143	32157
15.44957	33653
15.45768	31631
15.46580	35224
15.47393	34720
15.48205	34334
15.49018	36854
15.49830	38187
15.50642	32641
15.51455	37387
15.52267	34615
15.53078	35467
15.53892	35896
15.54703	35779
15.55517	37356
15.56328	37100
15.57140	32491
15.57953	36249
15.58765	34098
15.59578	33147
15.60390	43645
15.61202	34410
15.62015	35456
15.62827	33991
15.63640	35067
15.64452	36368
15.65263	34451
15.66077	35113
15.66888	36949
15.67700	35955
15.68513	36677
15.69325	33952
15.70138	33793
15.70950	34482
15.71762	35542
15.72575	35975
15.73387	34788
15.74200	35584
15.75012	38268
15.75823	37551
15.76637	34469
15.77448	34776
15.78262	35843
15.79073	33679
15.79885	38136
15.80698	37935
15.81510	33266
15.82322	36210
15.83135	36937
15.83947	35880
15.84760	34520
15.85572	36081
15.86383	34872
15.87197	37993
15.88008	35943
15.88822	37122
15.89633	39023
15.90445	35964
15.91258	35297
15.92070	36220
15.92882	36436
15.93695	36930
15.94507	40018
15.95320	35888
15.96132	38221
15.96943	36490
15.97757	36251
15.98568	40476
15.99382	37506
16.00193	40459
16.01005	39677
16.01818	44554
16.02630	45103
16.03443	43381
16.04255	39017
16.05067	43304
16.05880	43773
16.06692	39226
16.07503	40024
16.08317	40455
16.09128	40031
16.09942	37304
16.10753	41488
16.11565	43200
16.12378	43294
16.13190	43795
16.14003	37171
16.14815	38836
16.15627	38585
16.16440	39051
16.17252	37613
16.18065	37658
16.18877	38200
16.19688	36851
16.20502	39510
16.21313	40553
16.22125	39090
16.22938	39778
16.23750	42163
16.24563	41718
16.25375	40784
16.26187	42124
16.27000	40491
16.27812	40991
16.28625	39383
16.29437	41076
16.30248	40660
16.31062	42989
16.31873	42160
16.32685	46303
16.33498	43460
16.34310	41972
16.35123	39797
16.35935	41390
16.36747	39692
16.37560	39149
16.38372	40804
16.39185	41330
16.39997	40704
16.40808	40912
16.41622	41238
16.42433	38404
16.43247	39772
16.44058	38025
16.44870	39427
16.45683	39200
16.46495	35897
16.47307	40309
16.48120	41473
16.48932	38399
16.49745	40011
16.50557	43112
16.51368	37687
16.52182	37320
16.52993	38503
16.53807	37637
16.54618	37678
16.55430	38886
16.56243	38355
16.57055	39288
16.57868	39962
16.58680	36895
16.59492	42596
16.60305	43042
16.61117	40274
16.61928	42834
16.62742	43391
16.63553	36958
16.64367	38824
16.65178	36359
16.65990	33658
16.66803	38317
16.67615	41395
16.68428	36136
16.69240	35785
16.70052	37524
16.70865	38317
16.71677	40134
16.72488	37892
16.73302	36028
16.74113	36895
16.74927	38090
16.75738	39228
16.76550	41115
16.77363	36986
16.78175	40290
16.78988	39406
16.79800	39869
16.80612	37842
16.81425	36528
16.82237	37914
16.83050	39108
16.83862	42780
16.84673	42115
16.85487	41622
16.86298	40138
16.87110	42968
16.87923	38457
16.88735	41002
16.89548	39695
16.90360	41895
16.91172	39634
16.91985	38517
16.92797	38056
16.93610	41736
16.94422	40746
16.95233	40852
16.96047	39832
16.96858	40663
16.97670	42936
16.98483	42008
16.99295	41275
17.00108	37480
17.00920	37662
17.01732	39122
17.02545	42175
17.03357	38140
17.04170	38489
17.04982	39322
17.05793	43632
17.06607	40539
17.07418	38593
17.08232	40438
17.09043	40973
17.09855	39623
17.10668	40526
17.11480	39080
17.12292	40184
17.13105	42530
17.13917	42019
17.14730	42810
17.15542	43179
17.16353	42438
17.17167	40951
17.17978	43953
17.18792	41738
17.19603	39790
17.20415	39770
17.21228	40378
17.22040	40043
17.22853	36556
17.23665	40535
17.24477	41642
17.25290	41411
17.26102	40467
17.26913	38283
17.27727	41718
17.28538	41844
17.29352	41431
17.30163	39818
17.30975	40284
17.31788	36832
17.32600	39733
17.33413	47277
17.34225	44139
17.35037	40064
17.35850	46320
17.36662	47824
17.37473	47718
17.38287	46619
17.39098	48235
17.39912	49288
17.40723	47358
17.41535	45260
17.42348	49351
17.43160	41784
17.43973	46981
17.44785	46863
17.45597	44462
17.46410	46870
17.47222	47111
17.48035	41906
17.48847	42454
17.49658	44584
17.50472	44820
17.51283	45337
17.52095	45685
17.52908	50247
17.53720	52073
17.54533	50346
17.55345	58236
17.56157	55480
17.56970	55465
17.57782	54578
17.58595	50900
17.59407	48800
17.60218	42765
17.61032	42472
17.61843	41531
17.62657	40527
17.63468	42410
17.64280	43450
17.65093	43380
17.65905	43180
17.66717	40539
17.67530	48017
17.68342	44112
17.69155	47425
17.69967	45553
17.70778	43369
17.71592	48120
17.72403	41743
17.73217	41688
17.74028	42116
17.74840	44065
17.75653	40809
17.76465	39889
17.77277	41243
17.78090	40800
17.78902	40615
17.79715	40661
17.80527	42790
17.81338	42746
17.82152	43295
17.82963	45492
17.83777	42794
17.84588	43621
17.85400	41920
17.86213	44034
17.87025	43423
17.87838	47174
17.88650	44694
17.89462	42731
17.90275	41270
17.91087	42908
17.91898	42258
17.92712	40303
17.93523	43796
17.94337	42610
17.95148	45316
17.95960	42536
17.96773	42045
17.97585	41131
17.98398	42815
17.99210	46129
18.00022	41627
18.00835	42499
18.01647	44489
18.02458	44851
18.03272	43150
18.04083	46718
18.04897	41210
18.05708	45941
18.06520	42551
18.07333	46620
18.08145	46336
18.08958	50337
18.09770	50247
18.10582	48364
18.11395	51543
18.12207	46732
18.13020	46542
18.13832	46303
18.14643	48652
18.15457	50794
18.16268	47955
18.17080	50213
18.17893	46507
18.18705	44739
18.19518	47896
18.20330	51369
18.21142	45573
18.21955	48740
18.22767	46570
18.23580	45603
18.24392	49137
18.25203	48643
18.26017	46865
18.26828	48754
18.27642	45526
18.28453	46333
18.29265	43809
18.30078	42389
18.30890	43235
18.31702	41361
18.32515	44920
18.33327	45962
18.34140	44248
18.34952	44789
18.35763	43463
18.36577	43320
18.37388	47204
18.38202	43505
18.39013	42330
18.39825	46235
18.40638	47093
18.41450	48632
18.42263	48124
18.43075	51773
18.43887	53344
18.44700	55115
18.45512	56877
18.46323	55211
18.47137	54084
18.47948	55860
18.48762	56144
18.49573	50944
18.50385	53743
18.51198	57461
18.52010	54093
18.52823	58193
18.53635	57120
18.54447	49976
18.55260	51742
18.56072	54054
18.56883	53722
18.57697	52484
18.58508	58122
18.59322	58467
18.60133	57375
18.60945	57541
18.61758	56098
18.62570	56367
18.63383	55804
18.64195	53023
18.65007	55793
18.65820	54169
18.66632	53061
18.67445	56153
18.68257	61096
18.69068	54170
18.69882	50993
18.70693	55998
18.71505	53853
18.72318	55251
18.73130	50524
18.73943	50425
18.74755	51533
18.75567	47915
18.76380	49069
18.77192	45035
18.78005	45868
18.78817	47942
18.79628	49617
18.80442	49003
18.81253	45932
18.82065	51377
18.82878	50210
18.83690	47443
18.84503	50284
18.85315	46859
18.86127	46129
18.86940	45316
18.87752	48257
18.88565	49260
18.89377	48315
18.90188	47631
18.91002	49005
18.91813	49886
18.92627	46022
18.93438	47615
18.94250	48801
18.95063	46780
18.95875	48674
18.96687	50138
18.97500	47708
18.98312	47984
18.99125	52336
18.99937	48182
19.00748	52450
19.01562	56079
19.02373	58137
19.03187	60741
19.03998	65976
19.04810	71197
19.05623	81590
19.06435	80795
19.07248	84356
19.08060	92059
19.08872	103145
19.09685	103891
19.10497	107565
19.11308	109549
19.12122	106291
19.12933	111454
19.13747	104293
19.14558	105459
19.15370	106724
19.16183	101173
19.16995	106673
19.17808	109106
19.18620	102258
19.19432	101245
19.20245	103755
19.21057	96126
19.21868	96507
19.22682	98014
19.23493	92567
19.24307	95721
19.25118	91698
19.25930	93565
19.26743	99298
19.27555	92123
19.28368	92957
19.29180	94501
19.29992	94769
19.30805	96000
19.31617	93181
19.32430	95829
19.33242	92756
19.34053	93956
19.34867	99347
19.35678	97864
19.36490	97815
19.37303	97698
19.38115	100012
19.38928	98551
19.39740	98417
19.40552	97968
19.41365	102955
19.42177	99806
19.42990	103579
19.43802	111345
19.44613	124007
19.45427	146504
19.46238	167885
19.47052	184030
19.47863	170554
19.48675	151035
19.49488	123166
19.50300	99276
19.51112	80033
19.51925	69867
19.52737	66655
19.53550	59608
19.54362	63078
19.55173	62627
19.55987	65543
19.56798	61275
19.57612	60499
19.58423	58014
19.59235	53880
19.60048	59429
19.60860	64617
19.61672	64666
19.62485	71271
19.63297	90723
19.64110	107616
19.64922	131227
19.65733	141069
19.66547	146535
19.67358	145341
19.68172	123458
19.68983	110959
19.69795	94013
19.70608	88059
19.71420	80956
19.72233	77493
19.73045	76124
19.73857	70669
19.74670	66821
19.75482	67518
19.76293	62562
19.77107	63589
19.77918	61019
19.78732	58619
19.79543	63015
19.80355	58263
19.81168	56902
19.81980	59549
19.82793	57636
19.83605	58907
19.84417	56080
19.85230	56428
19.86042	62608
19.86853	69533
19.87667	77143
19.88478	96104
19.89292	105860
19.90103	133227
19.90915	145615
19.91728	155906
19.92540	160401
19.93353	159075
19.94165	156450
19.94977	159525
19.95790	148501
19.96602	146836
19.97415	141006
19.98227	142251
19.99038	133546
19.99852	134484
20.00663	126143
20.01475	129155
20.02288	121812
20.03100	116281
20.03913	107992
20.04725	101035
20.05537	89572
20.06350	78464
20.07162	75854
20.07975	71465
20.08787	70773
20.09598	73882
20.10412	70870
20.11223	66609
20.12037	66761
20.12848	74121
20.13660	67891
20.14473	66538
20.15285	68964
20.16097	66328
20.16910	61327
20.17722	65462
20.18535	65923
20.19347	67196
20.20158	69094
20.20972	65775
20.21783	71304
20.22597	70628
20.23408	77002
20.24220	93492
20.25033	105850
20.25845	114323
20.26657	121312
20.27470	116453
20.28282	103650
20.29095	97215
20.29907	82477
20.30718	74294
20.31532	71374
20.32343	68166
20.33157	59803
20.33968	58812
20.34780	53337
20.35593	51299
20.36405	53871
20.37218	51816
20.38030	52403
20.38842	53429
20.39655	55245
20.40467	57260
20.41278	60023
20.42092	59660
20.42903	57750
20.43717	60387
20.44528	58883
20.45340	57075
20.46153	55088
20.46965	52764
20.47778	50316
20.48590	45976
20.49402	45076
20.50215	44928
20.51027	47568
20.51840	47532
20.52652	42738
20.53463	45085
20.54277	42426
20.55088	41013
20.55900	41326
20.56713	44068
20.57525	42424
20.58338	42567
20.59150	43890
20.59962	41544
20.60775	39934
20.61587	41093
20.62400	38099
20.63212	38785
20.64023	43085
20.64837	41229
20.65648	40050
20.66460	43047
20.67273	44724
20.68085	39368
20.68898	39238
20.69710	38626
20.70522	45521
20.71335	44457
20.72147	42523
20.72960	43539
20.73772	41297
20.74583	44409
20.75397	44347
20.76208	40950
20.77022	41729
20.77833	40448
20.78645	42643
20.79458	39587
20.80270	45211
20.81082	44065
20.81895	41698
20.82707	43978
20.83520	39874
20.84332	43632
20.85143	40586
20.85957	42059
20.86768	41185
20.87582	47732
20.88393	41921
20.89205	41672
20.90018	43330
20.90830	38185
20.91642	40836
20.92455	40660
20.93267	43062
20.94080	42611
20.94892	41230
20.95703	39352
20.96517	39170
20.97328	41146
20.98142	38453
20.98953	42549
20.99765	41324
21.00578	41206
21.01390	38625
21.02203	41310
21.03015	40068
21.03827	38766
21.04640	41595
21.05452	42159
21.06263	42019
21.07077	41966
21.07888	40557
21.08702	38587
21.09513	45771
21.10325	41968
21.11138	42219
21.11950	44942
21.12763	41423
21.13575	44051
21.14387	42616
21.15200	44274
21.16012	42008
21.16825	44752
21.17637	44941
21.18448	45304
21.19262	44257
21.20073	45603
21.20885	46826
21.21698	42258
21.22510	42793
21.23323	45367
21.24135	47062
21.24947	48400
21.25760	49610
21.26572	46296
21.27385	47169
21.28197	54364
21.29008	50136
21.29822	48491
21.30633	50699
21.31445	47990
21.32258	51771
21.33070	47643
21.33883	44727
21.34695	48473
21.35507	50949
21.36320	48228
21.37132	48957
21.37945	48861
21.38757	51529
21.39568	50937
21.40382	47204
21.41193	50771
21.42007	46685
21.42818	52382
21.43630	55949
21.44443	48468
21.45255	50885
21.46067	54526
21.46880	53323
21.47692	52945
21.48505	56098
21.49317	57600
21.50128	55835
21.50942	58845
21.51753	57385
21.52567	59541
21.53378	57162
21.54190	58252
21.55003	53523
21.55815	53985
21.56628	55153
21.57440	61813
21.58252	66617
21.59065	69853
21.59877	73495
21.60688	80793
21.61502	77761
21.62313	81064
21.63127	71798
21.63938	69043
21.64750	65309
21.65563	59418
21.66375	61405
21.67188	56295
21.68000	55902
21.68812	57067
21.69625	56629
21.70437	56588
21.71248	56115
21.72062	55886
21.72873	57951
21.73687	53600
21.74498	53216
21.75310	56329
21.76123	54838
21.76935	62949
21.77748	61835
21.78560	61333
21.79372	64205
21.80185	65551
21.80997	66925
21.81810	62147
21.82622	63121
21.83433	60906
21.84247	56751
21.85058	49274
21.85870	47894
21.86683	51681
21.87495	48725
21.88308	48981
21.89120	45867
21.89932	45930
21.90745	47210
21.91557	48776
21.92370	44047
21.93182	47965
21.93993	45926
21.94807	42981
21.95618	47850
21.96432	43096
21.97243	44438
21.98055	46189
21.98868	48356
21.99680	48257
22.00492	49270
22.01305	45096
22.02117	49724
22.02930	49796
22.03742	48424
22.04553	48497
22.05367	53355
22.06178	51484
22.06992	60654
22.07803	54050
22.08615	55110
22.09428	56702
22.10240	57525
22.11052	55247
22.11865	53927
22.12677	53089
22.13490	49387
22.14302	50110
22.15113	50929
22.15927	53065
22.16738	48354
22.17552	51912
22.18363	49183
22.19175	53492
22.19988	52683
22.20800	50900
22.21613	47212
22.22425	48025
22.23237	42779
22.24050	44985
22.24862	44529
22.25673	45122
22.26487	46415
22.27298	43225
22.28112	46205
22.28923	44397
22.29735	47124
22.30548	44022
22.31360	48945
22.32173	46301
22.32985	46828
22.33797	46692
22.34610	45717
22.35422	44177
22.36233	48649
22.37047	46724
22.37858	41458
22.38672	44211
22.39483	44483
22.40295	47693
22.41108	47414
22.41920	45018
22.42733	45673
22.43545	43981
22.44357	44960
22.45170	41353
22.45982	44354
22.46795	43541
22.47607	44051
22.48418	44360
22.49232	49372
22.50043	44480
22.50855	48046
22.51668	42509
22.52480	43130
22.53293	46603
22.54105	46099
22.54917	41850
22.55730	44507
22.56542	41089
22.57355	40758
22.58167	42085
22.58978	39627
22.59792	44572
22.60603	46097
22.61417	46230
22.62228	42333
22.63040	42931
22.63853	44059
22.64665	40328
22.65477	43930
22.66290	42201
22.67102	40037
22.67915	40802
22.68727	43911
22.69538	41514
22.70352	45912
22.71163	47479
22.71977	48271
22.72788	46789
22.73600	47851
22.74413	45553
22.75225	43656
22.76037	49257
22.76850	45961
22.77662	44421
22.78475	43663
22.79287	46155
22.80098	41792
22.80912	44325
22.81723	42452
22.82537	42771
22.83348	44102
22.84160	42996
22.84973	45219
22.85785	47114
22.86598	48981
22.87410	47886
22.88222	48678
22.89035	54116
22.89847	57311
22.90658	64353
22.91472	63362
22.92283	70702
22.93097	72640
22.93908	77996
22.94720	80389
22.95533	80300
22.96345	73294
22.97158	73753
22.97970	68885
22.98782	67695
22.99595	66934
23.00407	64502
23.01220	64210
23.02032	57048
23.02843	57475
23.03657	57065
23.04468	56461
23.05280	51242
23.06093	54121
23.06905	57840
23.07718	56245
23.08530	53876
23.09342	55126
23.10155	55529
23.10967	55321
23.11780	50520
23.12592	53358
23.13403	57797
23.14217	59876
23.15028	60454
23.15840	58682
23.16653	62975
23.17465	71961
23.18278	72266
23.19090	68083
23.19902	73959
23.20715	72518
23.21527	70631
23.22340	71039
23.23152	70956
23.23963	75198
23.24777	75815
23.25588	76659
23.26402	79441
23.27213	76757
23.28025	78414
23.28838	77898
23.29650	74934
23.30462	79716
23.31275	77659
23.32087	78756
23.32900	79865
23.33712	83193
23.34523	82866
23.35337	86201
23.36148	80854
23.36962	83197
23.37773	85915
23.38585	87979
23.39398	84607
23.40210	89505
23.41022	83960
23.41835	83999
23.42647	84339
23.43460	83856
23.44272	88081
23.45083	87753
23.45897	85498
23.46708	87045
23.47522	90190
23.48333	89244
23.49145	89572
23.49958	87542
23.50770	88177
23.51583	88646
23.52395	89516
23.53207	90524
23.54020	92140
23.54832	91491
23.55643	88415
23.56457	90870
23.57268	93106
23.58082	92193
23.58893	96991
23.59705	87038
23.60518	90994
23.61330	93915
23.62143	88044
23.62955	92085
23.63767	95073
23.64580	100575
23.65392	99233
23.66205	97628
23.67017	101223
23.67828	107572
23.68642	95804
23.69453	107643
23.70265	104059
23.71078	104743
23.71890	101700
23.72703	123114
23.73515	192213
23.74327	372680
23.75140	813587
23.75952	1582817
23.76765	2539169
23.77577	3370259
23.78388	3705434
23.79202	3395769
23.80013	2791155
23.80825	2170267
23.81638	1579068
23.82450	1146806
23.83263	821433
23.84075	641678
23.84887	515283
23.85700	426116
23.86512	353659
23.87325	315594
23.88137	270262
23.88948	249948
23.89762	226314
23.90573	213398
23.91387	191381
23.92198	179143
23.93010	168531
23.93823	162094
23.94635	152591
23.95447	144932
23.96260	135545
23.97072	132710
23.97885	125386
23.98697	126469
23.99508	120329
24.00322	118782
24.01133	115397
24.01947	113512
24.02758	118004
24.03570	111239
24.04383	109391
24.05195	108288
24.06008	110177
24.06820	109488
24.07632	100886
24.08445	111355
24.09257	114633
24.10068	110519
24.10882	108688
24.11693	98120
24.12507	101524
24.13318	95681
24.14130	94378
24.14943	96672
24.15755	95899
24.16568	98891
24.17380	108533
24.18192	111634
24.19005	114425
24.19817	118031
24.20628	117517
24.21442	109022
24.22253	105859
24.23067	94340
24.23878	91326
24.24690	82975
24.25503	83072
24.26315	79923
24.27128	83634
24.27940	95396
24.28752	117213
24.29565	152528
24.30377	179955
24.31190	214112
24.32002	249452
24.32813	273429
24.33627	278522
24.34438	285532
24.35250	277280
24.36063	246232
24.36875	197274
24.37688	137498
24.38500	106239
24.39312	87060
24.40125	82864
24.40937	75937
24.41750	78409
24.42562	77191
24.43373	79182
24.44187	82993
24.44998	82106
24.45810	84053
24.46623	84070
24.47435	84293
24.48248	77497
24.49060	71703
24.49872	66696
24.50685	64890
24.51497	62549
24.52310	62802
24.53122	62544
24.53933	60731
24.54747	61813
24.55558	62569
24.56372	58049
24.57183	57282
24.57995	59615
24.58808	57361
24.59620	56238
24.60432	59832
24.61245	61131
24.62057	56425
24.62870	57218
24.63682	56423
24.64493	56578
24.65307	53486
24.66118	59206
24.66932	58640
24.67743	58001
24.68555	56197
24.69368	56474
24.70180	51827
24.70993	52748
24.71805	50253
24.72617	51323
24.73430	55099
24.74242	47373
24.75053	50944
24.75867	46811
24.76678	49052
24.77492	50576
24.78303	49624
24.79115	47013
24.79928	49775
24.80740	48380
24.81553	50167
24.82365	48424
24.83177	49541
24.83990	49395
24.84802	51922
24.85615	51021
24.86427	48496
24.87238	50313
24.88052	46538
24.88863	48528
24.89675	48574
24.90488	55423
24.91300	45983
24.92113	49159
24.92925	51660
24.93737	47690
24.94550	44345
24.95362	44033
24.96175	46825
24.96987	48642
24.97798	45522
24.98612	45202
24.99423	51480
25.00235	43389
25.01048	45533
25.01860	46072
25.02673	44452
25.03485	48462
25.04297	43647
25.05110	45885
25.05922	47189
25.06735	49152
25.07547	45324
25.08358	46685
25.09172	46010
25.09983	49320
25.10797	45825
25.11608	45914
25.12420	47703
25.13233	51004
25.14045	54021
25.14857	53316
25.15670	55825
25.16482	48099
25.17295	51816
25.18107	52619
25.18918	48513
25.19732	47019
25.20543	44733
25.21357	43599
25.22168	43834
25.22980	41473
25.23793	46304
25.24605	43918
25.25417	42519
25.26230	44307
25.27042	45739
25.27855	51207
25.28667	48471
25.29478	51231
25.30292	50856
25.31103	57389
25.31917	57925
25.32728	53570
25.33540	55498
25.34353	53101
25.35165	47571
25.35978	46575
25.36790	48731
25.37602	43006
25.38415	45775
25.39227	41623
25.40038	44624
25.40852	45326
25.41663	45194
25.42477	46629
25.43288	48323
25.44100	46826
25.44913	45625
25.45725	42604
25.46538	45599
25.47350	44627
25.48162	44206
25.48975	45405
25.49787	46947
25.50600	44626
25.51412	46354
25.52223	44071
25.53037	44895
25.53848	44576
25.54660	43205
25.55473	42850
25.56285	42153
25.57098	43003
25.57910	41407
25.58722	43231
25.59535	41391
25.60347	42407
25.61160	43869
25.61972	37249
25.62783	41025
25.63597	41713
25.64408	41658
25.65220	40993
25.66033	40861
25.66845	39065
25.67658	44033
25.68470	40893
25.69282	40603
25.70095	40719
25.70907	41298
25.71720	41801
25.72532	41949
25.73343	42037
25.74157	44448
25.74968	44802
25.75782	43841
25.76593	46010
25.77405	42766
25.78218	41512
25.79030	44900
25.79842	42073
25.80655	45837
25.81467	43689
25.82280	42465
25.83092	45699
25.83903	43595
25.84717	42885
25.85528	40592
25.86342	41401
25.87153	42199
25.87965	40010
25.88778	38831
25.89590	36673
25.90403	39947
25.91215	39343
25.92027	38695
25.92840	39304
25.93652	42558
25.94463	40820
25.95277	41250
25.96088	44046
25.96902	40455
25.97713	42929
25.98525	40536
25.99338	41218
26.00150	44140
26.00963	38958
26.01775	40510
26.02587	38164
26.03400	39160
26.04212	39158
26.05023	41392
26.05837	41773
26.06648	37615
26.07462	43139
26.08273	41465
26.09085	39480
26.09898	40054
26.10710	37738
26.11523	46281
26.12335	43723
26.13147	49547
26.13960	48662
26.14772	52167
26.15585	52789
26.16397	50041
26.17208	49025
26.18022	48846
26.18833	54838
26.19645	49307
26.20458	44825
26.21270	45099
26.22083	39866
26.22895	43554
26.23707	41961
26.24520	43838
26.25332	41837
26.26145	40292
26.26957	42833
26.27768	40001
26.28582	41880
26.29393	37244
26.30205	40019
26.31018	39874
26.31830	41817
26.32643	37107
26.33455	37416
26.34267	40424
26.35080	41755
26.35892	42764
26.36705	39138
26.37517	40188
26.38328	41866
26.39142	38750
26.39953	40978
26.40767	41600
26.41578	40354
26.42390	37518
26.43203	41629
26.44015	39061
26.44827	38697
26.45640	38331
26.46452	38733
26.47265	40355
26.48077	37037
26.48888	38897
26.49702	42855
26.50513	40012
26.51327	38959
26.52138	37722
26.52950	39724
26.53763	37920
26.54575	37479
26.55388	38809
26.56200	37486
26.57012	39877
26.57825	41231
26.58637	38330
26.59448	39333
26.60262	41336
26.61073	42318
26.61887	39559
26.62698	41157
26.63510	40404
26.64323	40259
26.65135	41117
26.65948	43234
26.66760	45974
26.67572	42574
26.68385	46703
26.69197	46096
26.70008	44470
26.70822	44236
26.71633	45208
26.72447	44703
26.73258	44330
26.74070	44525
26.74883	44661
26.75695	43682
26.76508	42383
26.77320	44960
26.78132	46768
26.78945	54216
26.79757	48800
26.80570	53418
26.81382	54190
26.82193	55739
26.83007	50279
26.83818	47762
26.84630	52666
26.85443	49248
26.86255	57529
26.87068	56243
26.87880	58779
26.88692	61596
26.89505	61669
26.90317	62736
26.91130	61042
26.91942	64677
26.92753	68647
26.93567	72193
26.94378	89011
26.95192	129541
26.96003	201990
26.96815	331033
26.97628	499682
26.98440	750165
26.99252	959703
27.00065	1121362
27.00877	1154972
27.01690	1043997
27.02502	861004
27.03313	650974
27.04127	517253
27.04938	382409
27.05752	299818
27.06563	237697
27.07375	200489
27.08188	175612
27.09000	148494
27.09812	137061
27.10625	123797
27.11437	118170
27.12250	109400
27.13062	101357
27.13873	100557
27.14687	96030
27.15498	89878
27.16312	88141
27.17123	85316
27.17935	82094
27.18748	83130
27.19560	79998
27.20373	75646
27.21185	74290
27.21997	62498
27.22810	71646
27.23622	69214
27.24433	65432
27.25247	62460
27.26058	66764
27.26872	61425
27.27683	66596
27.28495	64679
27.29308	58750
27.30120	60419
27.30933	65778
27.31745	59734
27.32557	57967
27.33370	55475
27.34182	53098
27.34995	54672
27.35807	56050
27.36618	52165
27.37432	52715
27.38243	50504
27.39055	51347
27.39868	53352
27.40680	51335
27.41493	50820
27.42305	49774
27.43117	56165
27.43930	55285
27.44742	56095
27.45555	50790
27.46367	48626
27.47178	56551
27.47992	53211
27.48803	54822
27.49615	53428
27.50428	50409
27.51240	51616
27.52053	48050
27.52865	46701
27.53677	53545
27.54490	52906
27.55302	52737
27.56115	51168
27.56927	51294
27.57738	49049
27.58552	48120
27.59363	49072
27.60177	49222
27.60988	45806
27.61800	46266
27.62613	45473
27.63425	49610
27.64237	46923
27.65050	45000
27.65862	48777
27.66675	44340
27.67487	46554
27.68298	47917
27.69112	44992
27.69923	47994
27.70737	45059
27.71548	49335
27.72360	53828
27.73173	53414
27.73985	55265
27.74797	56301
27.75610	58585
27.76422	55721
27.77235	49250
27.78047	49568
27.78858	49684
27.79672	45316
27.80483	45493
27.81297	51408
27.82108	46316
27.82920	45034
27.83733	45086
27.84545	47822
27.85358	46178
27.86170	45219
27.86982	44896
27.87795	43260
27.88607	41116
27.89418	44502
27.90232	46854
27.91043	44545
27.91857	41245
27.92668	43895
27.93480	40914
27.94293	45325
27.95105	44835
27.95918	43858
27.96730	46293
27.97542	47625
27.98355	46849
27.99167	44162
27.99980	44552
28.00792	45234
28.01603	45666
28.02417	44494
28.03228	43977
28.04040	43340
28.04853	42778
28.05665	44860
28.06478	47112
28.07290	52686
28.08102	70303
28.08915	85699
28.09727	109890
28.10540	121718
28.11352	124954
28.12163	119747
28.12977	108568
28.13788	89868
28.14600	79465
28.15413	74597
28.16225	63618
28.17038	57586
28.17850	53804
28.18662	46735
28.19475	49160
28.20287	48869
28.21100	45065
28.21912	50323
28.22723	45934
28.23537	49059
28.24348	57222
28.25162	63412
28.25973	74163
28.26785	95543
28.27598	131670
28.28410	176424
28.29222	214753
28.30035	262659
28.30847	284792
28.31660	314009
28.32472	324669
28.33283	318107
28.34097	309463
28.34908	273916
28.35722	258355
28.36533	226672
28.37345	200167
28.38158	172331
28.38970	150296
28.39783	136480
28.40595	125309
28.41407	113888
28.42220	102023
28.43032	90523
28.43843	89590
28.44657	84778
28.45468	85002
28.46282	74685
28.47093	76744
28.47905	71647
28.48718	72579
28.49530	74709
28.50343	70193
28.51155	66946
28.51967	65270
28.52780	62147
28.53592	63376
28.54403	63460
28.55217	61586
28.56028	65167
28.56842	60252
28.57653	56050
28.58465	55669
28.59278	54517
28.60090	53276
28.60903	53860
28.61715	57106
28.62527	56569
28.63340	54447
28.64152	61667
28.64965	60199
28.65777	61361
28.66588	63150
28.67402	66712
28.68213	68603
28.69025	81385
28.69838	110076
28.70650	148927
28.71463	180839
28.72275	196005
28.73087	181867
28.73900	148520
28.74712	113406
28.75525	81801
28.76337	64759
28.77148	56022
28.77962	52722
28.78773	53675
28.79585	50354
28.80398	48760
28.81210	55942
28.82023	48836
28.82835	49949
28.83647	50935
28.84460	46797
28.85272	54610
28.86085	52354
28.86897	51631
28.87708	46283
28.88522	50065
28.89333	46780
28.90147	48098
28.90958	47648
28.91770	46444
28.92583	43309
28.93395	50023
28.94207	50105
28.95020	52993
28.95832	49554
28.96645	48084
28.97457	53526
28.98268	46621
28.99082	45333
28.99893	43332
29.00707	45917
29.01518	46372
29.02330	44968
29.03143	52979
29.03955	49373
29.04768	44320
29.05580	48138
29.06392	47155
29.07205	51131
29.08017	46645
29.08828	45673
29.09642	41512
29.10453	44116
29.11267	45632
29.12078	46537
29.12890	49515
29.13703	46469
29.14515	48729
29.15328	47901
29.16140	48573
29.16952	47786
29.17765	48363
29.18577	48253
29.19388	49897
29.20202	48298
29.21013	51892
29.21827	51056
29.22638	53073
29.23450	54251
29.24263	52532
29.25075	54916
29.25888	54124
29.26700	50713
29.27512	53079
29.28325	54179
29.29137	52604
29.29950	51227
29.30762	50003
29.31573	52746
29.32387	55528
29.33198	51022
29.34010	52781
29.34823	56575
29.35635	54204
29.36448	52952
29.37260	54954
29.38072	48041
29.38885	51048
29.39697	49562
29.40510	54152
29.41322	54369
29.42133	56969
29.42947	61476
29.43758	58988
29.44572	60083
29.45383	55298
29.46195	58164
29.47008	58017
29.47820	58842
29.48632	60502
29.49445	59481
29.50257	59924
29.51070	60144
29.51882	60018
29.52693	58137
29.53507	57055
29.54318	53502
29.55132	53066
29.55943	59418
29.56755	56491
29.57568	65340
29.58380	63543
29.59192	68422
29.60005	60532
29.60817	60732
29.61630	59533
29.62442	57203
29.63253	58249
29.64067	51233
29.64878	53064
29.65692	54138
29.66503	46274
29.67315	45856
29.68128	47375
29.68940	48186
29.69753	49247
29.70565	43110
29.71377	48663
29.72190	47555
29.73002	47516
29.73813	45146
29.74627	44850
29.75438	45093
29.76252	44736
29.77063	46469
29.77875	46560
29.78688	46712
29.79500	48958
29.80313	49104
29.81125	47977
29.81937	43731
29.82750	52782
29.83562	47560
29.84373	46247
29.85187	44840
29.85998	48293
29.86812	51844
29.87623	58424
29.88435	61768
29.89248	75470
29.90060	90246
29.90873	96208
29.91685	111253
29.92497	124988
29.93310	131550
29.94122	154675
29.94935	161489
29.95747	174758
29.96558	173051
29.97372	167162
29.98183	164751
29.98995	153808
29.99808	133960
30.00620	126855
30.01433	122074
30.02245	111957
30.03057	108812
30.03870	95775
30.04682	94226
30.05495	85470
30.06307	80805
30.07118	79622
30.07932	81932
30.08743	75646
30.09557	75930
30.10368	71716
30.11180	66209
30.11993	68438
30.12805	65158
30.13617	61178
30.14430	67342
30.15242	59874
30.16055	57603
30.16867	57189
30.17678	54512
30.18492	57606
30.19303	52716
30.20117	54950
30.20928	52360
30.21740	53803
30.22553	49546
30.23365	50079
30.24178	48880
30.24990	49746
30.25802	51245
30.26615	52993
30.27427	50197
30.28238	49259
30.29052	51984
30.29863	51674
30.30677	56040
30.31488	50285
30.32300	48910
30.33113	49536
30.33925	50175
30.34738	51162
30.35550	52671
30.36362	48573
30.37175	48934
30.37987	49145
30.38798	46643
30.39612	45668
30.40423	49489
30.41237	48426
30.42048	47505
30.42860	47680
30.43673	51476
30.44485	48641
30.45298	58086
30.46110	46913
30.46922	45668
30.47735	45035
30.48547	50276
30.49360	44966
30.50172	46927
30.50983	45616
30.51797	45028
30.52608	41424
30.53420	45412
30.54233	44601
30.55045	51763
30.55858	48386
30.56670	49120
30.57482	45752
30.58295	45381
30.59107	47611
30.59920	46979
30.60732	46739
30.61543	46432
30.62357	47313
30.63168	48082
30.63980	42162
30.64793	44849
30.65605	46956
30.66418	42655
30.67230	42243
30.68042	40944
30.68855	45725
30.69667	41576
30.70480	43794
30.71292	45578
30.72103	44751
30.72917	45371
30.73728	45792
30.74542	47036
30.75353	47114
30.76165	48026
30.76978	45889
30.77790	43829
30.78602	49898
30.79415	49056
30.80227	48400
30.81040	50997
30.81852	50824
30.82663	43242
30.83477	51659
30.84288	41928
30.85102	45305
30.85913	47309
30.86725	46647
30.87538	44158
30.88350	46987
30.89163	45580
30.89975	45445
30.90787	43609
30.91600	45313
30.92412	44301
30.93223	41220
30.94037	41302
30.94848	45964
30.95662	43378
30.96473	44407
30.97285	44075
30.98098	43191
30.98910	44121
30.99723	46583
31.00535	43659
31.01347	49101
31.02160	46317
31.02972	45300
31.03783	44556
31.04597	46362
31.05408	45789
31.06222	48523
31.07033	51884
31.07845	50878
31.08658	54557
31.09470	55702
31.10283	54607
31.11095	55946
31.11907	57271
31.12720	54679
31.13532	54258
31.14345	53375
31.15157	54740
31.15968	59580
31.16782	64026
31.17593	82639
31.18405	98552
31.19218	130387
31.20030	140724
31.20843	161874
31.21655	157563
31.22467	146177
31.23280	126308
31.24092	102287
31.24905	82414
31.25717	71887
31.26528	64499
31.27342	62701
31.28153	57337
31.28967	55324
31.29778	56994
31.30590	57654
31.31403	47567
31.32215	51064
31.33027	55373
31.33840	52362
31.34652	53804
31.35465	53821
31.36277	58855
31.37088	55352
31.37902	54987
31.38713	56175
31.39527	48564
31.40338	49907
31.41150	50593
31.41963	53297
31.42775	53208
31.43587	50311
31.44400	52740
31.45212	50135
31.46025	47239
31.46837	49529
31.47648	49244
31.48462	48423
31.49273	50018
31.50087	45422
31.50898	50538
31.51710	50889
31.52523	52358
31.53335	49578
31.54148	48682
31.54960	47318
31.55772	52191
31.56585	47265
31.57397	50946
31.58208	48310
31.59022	55569
31.59833	51221
31.60647	51325
31.61458	48297
31.62270	49696
31.63083	47623
31.63895	46420
31.64708	50383
31.65520	45226
31.66332	48285
31.67145	49389
31.67957	50653
31.68768	47908
31.69582	50886
31.70393	52577
31.71207	50646
31.72018	51302
31.72830	46847
31.73643	44812
31.74455	48730
31.75268	49201
31.76080	44265
31.76892	49090
31.77705	48514
31.78517	51590
31.79330	50779
31.80142	47423
31.80953	46804
31.81767	49100
31.82578	53429
31.83390	60379
31.84203	65125
31.85015	81604
31.85828	85984
31.86640	92861
31.87452	103364
31.88265	113361
31.89077	109960
31.89890	116241
31.90702	115621
31.91513	114834
31.92327	109659
31.93138	103488
31.93952	100713
31.94763	91981
31.95575	88283
31.96388	84300
31.97200	81935
31.98012	76995
31.98825	75332
31.99637	76417
32.00450	76406
32.01262	73137
32.02073	72187
32.02887	68461
32.03698	69976
32.04512	64567
32.05323	68087
32.06135	58042
32.06948	58227
32.07760	61438
32.08572	54124
32.09385	53747
32.10197	54261
32.11010	56698
32.11822	55775
32.12633	55630
32.13447	51523
32.14258	50352
32.15072	53039
32.15883	54852
32.16695	54203
32.17508	54565
32.18320	49775
32.19133	50730
32.19945	47795
32.20757	50501
32.21570	50742
32.22382	55881
32.23193	52370
32.24007	56567
32.24818	51982
32.25632	53403
32.26443	50478
32.27255	53196
32.28068	49256
32.28880	52920
32.29693	54080
32.30505	53089
32.31317	53151
32.32130	50987
32.32942	50038
32.33755	51958
32.34567	51658
32.35378	52090
32.36192	54441
32.37003	50921
32.37815	51755
32.38628	51550
32.39440	51457
32.40253	49152
32.41065	49504
32.41877	53145
32.42690	49828
32.43502	48998
32.44315	52460
32.45127	51020
32.45938	54386
32.46752	54780
32.47563	49441
32.48375	52711
32.49188	50929
32.50000	52616
32.50813	52158
32.51625	52592
32.52437	48397
32.53250	49320
32.54062	54917
32.54875	56363
32.55687	56605
32.56498	55840
32.57312	55954
32.58123	66776
32.58937	78243
32.59748	99866
32.60560	126842
32.61373	139247
32.62185	142108
32.62997	115122
32.63810	92507
32.64622	74732
32.65435	64201
32.66247	61054
32.67058	58340
32.67872	52581
32.68683	57050
32.69497	55687
32.70308	51971
32.71120	51946
32.71933	57051
32.72745	57211
32.73558	52129
32.74370	50624
32.75182	52819
32.75995	52276
32.76807	49825
32.77618	54737
32.78432	52881
32.79243	49105
32.80057	52479
32.80868	50063
32.81680	52773
32.82493	49176
32.83305	49221
32.84118	53005
32.84930	50716
32.85742	51677
32.86555	52189
32.87367	54181
32.88178	48717
32.88992	47435
32.89803	50206
32.90617	49509
32.91428	51019
32.92240	46185
32.93053	53995
32.93865	50146
32.94678	47176
32.95490	47981
32.96302	48466
32.97115	46744
32.97927	52032
32.98740	51485
32.99552	51907
33.00363	50127
33.01177	51471
33.01988	52399
33.02800	54822
33.03613	53784
33.04425	58692
33.05238	59951
33.06050	62231
33.06862	64224
33.07675	64627
33.08487	65348
33.09300	69927
33.10112	75283
33.10923	74179
33.11737	78617
33.12548	75913
33.13360	63623
33.14173	61624
33.14985	59428
33.15798	56662
33.16610	59822
33.17422	52718
33.18235	49975
33.19047	51934
33.19860	53626
33.20672	53143
33.21483	49259
33.22297	50370
33.23108	52594
33.23922	48623
33.24733	52825
33.25545	54205
33.26358	50810
33.27170	51406
33.27982	49782
33.28795	51877
33.29607	52906
33.30420	52646
33.31232	51109
33.32043	47996
33.32857	50434
33.33668	48298
33.34482	50803
33.35293	50905
33.36105	50148
33.36918	46309
33.37730	49859
33.38543	50607
33.39355	49564
33.40167	51007
33.40980	53330
33.41792	50291
33.42603	48093
33.43417	47877
33.44228	48557
33.45042	52920
33.45853	52137
33.46665	51285
33.47478	52311
33.48290	51561
33.49103	51392
33.49915	52363
33.50727	56218
33.51540	53710
33.52352	57031
33.53163	60938
33.53977	60758
33.54788	59191
33.55602	61335
33.56413	67603
33.57225	70266
33.58038	76646
33.58850	75459
33.59663	83668
33.60475	88860
33.61287	93798
33.62100	103136
33.62912	108272
33.63725	108894
33.64537	121996
33.65348	130985
33.66162	134712
33.66973	149232
33.67785	164364
33.68598	164593
33.69410	176815
33.70223	189812
33.71035	187096
33.71847	189350
33.72660	201312
33.73472	209834
33.74285	208185
33.75097	207029
33.75908	199435
33.76722	198351
33.77533	208986
33.78347	191817
33.79158	194873
33.79970	187511
33.80783	181999
33.81595	179870
33.82407	180315
33.83220	177499
33.84032	171534
33.84845	163115
33.85657	162555
33.86468	165759
33.87282	161640
33.88093	165952
33.88907	158793
33.89718	169059
33.90530	167911
33.91343	151867
33.92155	165246
33.92967	156071
33.93780	150638
33.94592	150269
33.95405	143504
33.96217	147321
33.97028	138095
33.97842	135201
33.98653	131229
33.99467	122585
34.00278	124528
34.01090	123487
34.01903	119652
34.02715	120582
34.03528	109998
34.04340	113584
34.05152	113586
34.05965	109083
34.06777	101970
34.07588	103012
34.08402	103393
34.09213	104143
34.10027	103065
34.10838	102585
34.11650	98233
34.12463	97965
34.13275	101693
34.14088	91732
34.14900	100495
34.15712	97150
34.16525	91439
34.17337	89629
34.18148	88762
34.18962	89304
34.19773	88952
34.20587	84600
34.21398	85051
34.22210	84312
34.23023	84801
34.23835	81945
34.24648	80967
34.25460	79228
34.26272	81403
34.27085	85492
34.27897	83473
34.28710	82189
34.29522	88340
34.30333	81198
34.31147	92008
34.31958	89177
34.32770	87736
34.33583	85076
34.34395	84215
34.35208	81649
34.36020	79905
34.36832	86869
34.37645	79085
34.38457	79990
34.39270	83546
34.40082	82182
34.40893	82506
34.41707	81188
34.42518	79702
34.43332	83104
34.44143	87132
34.44955	91515
34.45768	109209
34.46580	116293
34.47392	128355
34.48205	138280
34.49017	155661
34.49830	160217
34.50642	163137
34.51453	160633
34.52267	152562
34.53078	152657
34.53892	146289
34.54703	144674
34.55515	146338
34.56328	147049
34.57140	141989
34.57953	148041
34.58765	146087
34.59577	147095
34.60390	146602
34.61202	145084
34.62013	153789
34.62827	148671
34.63638	154488
34.64452	145875
34.65263	145859
34.66075	137719
34.66888	133406
34.67700	132168
34.68513	130449
34.69325	125965
34.70137	120430
34.70950	111317
34.71762	112736
34.72573	103130
34.73387	104913
34.74198	98705
34.75012	102171
34.75823	102791
34.76635	95722
34.77448	101321
34.78260	89547
34.79073	91452
34.79885	89106
34.80697	88079
34.81510	88042
34.82322	90647
34.83135	85006
34.83947	85350
34.84758	80805
34.85572	83298
34.86383	83728
34.87195	83860
34.88008	80121
34.88820	84026
34.89633	81961
34.90445	84623
34.91257	81619
34.92070	84078
34.92882	83697
34.93695	81794
34.94507	83110
34.95318	83383
34.96132	80527
34.96943	85037
34.97755	77601
34.98568	79889
34.99380	74089
35.00193	76291
35.01005	78010
35.01817	78483
35.02630	79495
35.03442	72357
35.04255	74614
35.05067	75698
35.05878	73795
35.06692	73096
35.07503	75124
35.08317	76142
35.09128	76508
35.09940	73615
35.10753	79830
35.11565	79642
35.12377	74260
35.13190	78688
35.14002	78383
35.14815	78597
35.15627	76104
35.16438	78786
35.17252	73670
35.18063	72014
35.18877	73229
35.19688	74722
35.20500	76705
35.21313	77994
35.22125	74351
35.22938	81945
35.23750	77366
35.24562	79377
35.25375	81450
35.26187	80056
35.26998	84553
35.27812	81507
35.28623	77375
35.29437	76234
35.30248	79086
35.31060	73001
35.31873	76407
35.32685	75084
35.33498	71096
35.34310	74481
35.35122	75975
35.35935	72973
35.36747	79703
35.37558	80415
35.38372	74689
35.39183	79300
35.39997	81342
35.40808	77179
35.41620	77247
35.42433	76805
35.43245	79947
35.44058	84940
35.44870	83506
35.45682	82567
35.46495	87651
35.47307	83705
35.48120	85660
35.48932	79357
35.49743	77782
35.50557	76629
35.51368	82970
35.52180	84560
35.52993	85125
35.53805	78405
35.54618	76044
35.55430	80344
35.56242	83459
35.57055	76314
35.57867	84011
35.58680	81603
35.59492	77528
35.60303	82484
35.61117	85587
35.61928	87303
35.62742	87038
35.63553	86181
35.64365	83674
35.65178	79448
35.65990	81101
35.66802	73957
35.67615	76751
35.68427	76092
35.69240	78220
35.70052	78038
35.70863	75504
35.71677	76123
35.72488	78381
35.73302	75818
35.74113	79876
35.74925	79683
35.75738	80874
35.76550	75212
35.77362	74842
35.78175	76056
35.78987	76804
35.79800	80288
35.80612	77461
35.81423	80812
35.82237	78872
35.83048	79950
35.83862	78979
35.84673	77931
35.85485	79579
35.86298	79398
35.87110	76495
35.87923	80224
35.88735	78611
35.89547	78886
35.90360	81178
35.91172	77545
35.91983	75127
35.92797	81487
35.93608	77207
35.94422	81344
35.95233	75150
35.96045	78302
35.96858	79876
35.97670	80018
35.98483	82299
35.99295	83414
36.00107	81189
36.00920	90097
36.01732	86258
36.02543	81889
36.03357	77828
36.04168	81533
36.04982	87550
36.05793	79831
36.06605	79575
36.07418	83301
36.08230	80264
36.09043	79356
36.09855	75833
36.10667	81723
36.11480	77850
36.12292	81467
36.13105	80916
36.13917	78801
36.14728	77247
36.15542	83926
36.16353	75106
36.17165	73564
36.17978	78561
36.18790	77440
36.19603	74870
36.20415	78546
36.21227	77895
36.22040	85531
36.22852	91684
36.23665	110940
36.24477	131308
36.25288	159495
36.26102	164937
36.26913	162947
36.27727	138844
36.28538	120837
36.29350	104015
36.30163	91195
36.30975	90196
36.31787	84583
36.32600	90500
36.33412	84026
36.34225	86013
36.35037	77599
36.35848	77460
36.36662	81286
36.37473	79497
36.38287	80117
36.39098	83491
36.39910	84479
36.40723	89929
36.41535	84690
36.42347	83881
36.43160	83863
36.43972	79339
36.44785	80758
36.45597	76999
36.46408	78640
36.47222	79309
36.48033	76691
36.48847	77271
36.49658	75933
36.50470	78465
36.51283	78248
36.52095	75658
36.52908	82707
36.53720	76259
36.54532	79134
36.55345	77917
36.56157	76449
36.56968	80099
36.57782	77173
36.58593	81236
36.59407	83607
36.60218	83460
36.61030	81722
36.61843	81825
36.62655	80031
36.63468	80869
36.64280	76592
36.65092	78444
36.65905	79984
36.66717	76076
36.67530	75379
36.68342	79674
36.69153	82553
36.69967	76790
36.70778	77954
36.71590	85598
36.72403	79751
36.73215	78416
36.74028	80549
36.74840	84064
36.75652	80956
36.76465	81560
36.77277	81455
36.78090	77032
36.78902	81043
36.79713	79536
36.80527	77572
36.81338	77887
36.82150	82247
36.82963	81322
36.83775	81994
36.84588	79702
36.85400	78643
36.86212	80245
36.87025	81146
36.87837	82381
36.88650	85979
36.89462	79362
36.90273	80749
36.91087	77798
36.91898	80043
36.92712	80452
36.93523	82870
36.94335	80553
36.95148	82177
36.95960	84794
36.96772	84684
36.97585	83491
36.98397	87022
36.99210	88722
37.00022	93759
37.00833	92590
37.01647	97073
37.02458	102462
37.03272	104054
37.04083	99702
37.04895	98784
37.05708	94317
37.06520	89559
37.07332	84753
37.08145	88146
37.08957	90333
37.09770	86783
37.10582	91128
37.11393	87688
37.12207	87523
37.13018	92596
37.13832	92618
37.14643	88825
37.15455	91492
37.16268	89779
37.17080	89174
37.17893	88381
37.18705	86091
37.19517	91059
37.20330	83384
37.21142	88707
37.21953	82059
37.22767	86676
37.23578	85676
37.24392	86925
37.25203	91473
37.26015	97253
37.26828	106598
37.27640	116601
37.28453	135612
37.29265	136765
37.30077	142186
37.30890	145833
37.31702	135142
37.32515	128440
37.33327	121818
37.34138	118427
37.34952	113242
37.35763	112966
37.36575	109815
37.37388	98481
37.38200	101723
37.39013	99534
37.39825	110175
37.40637	101546
37.41450	98619
37.42262	100103
37.43075	96039
37.43887	93782
37.44698	96535
37.45512	101968
37.46323	99660
37.47135	100014
37.47948	92710
37.48760	94570
