Z:\data\JTB-E02\BACandBLUE\JTB-E02-200-13.D Thu Feb 28 12:02:18 2019
Start of data points
2.09535	76556
2.10347	73924
2.11158	74571
2.11972	77267
2.12783	79753
2.13597	76943
2.14408	72817
2.15220	76205
2.16033	69914
2.16845	69694
2.17657	73081
2.18470	65165
2.19282	70036
2.20095	63535
2.20907	69127
2.21718	70113
2.22532	65622
2.23343	63688
2.24157	58290
2.24968	63496
2.25780	73098
2.26593	277628
2.27405	860543
2.28217	1256096
2.29030	808046
2.29842	462088
2.30655	357244
2.31467	628341
2.32278	1919097
2.33092	2381951
2.33903	1356153
2.34717	847956
2.35528	649886
2.36340	507739
2.37153	432113
2.37965	372057
2.38778	324422
2.39590	298329
2.40402	285176
2.41215	272545
2.42027	298376
2.42838	304143
2.43652	249882
2.44463	209849
2.45277	206017
2.46088	196947
2.46900	182740
2.47713	177254
2.48525	170519
2.49338	168648
2.50150	162111
2.50962	156333
2.51775	161516
2.52587	150225
2.53400	146099
2.54212	145585
2.55023	160591
2.55837	199810
2.56648	269238
2.57460	237800
2.58273	198092
2.59085	171801
2.59898	219661
2.60710	573942
2.61522	1220418
2.62335	1130114
2.63147	665330
2.63960	444569
2.64772	344264
2.65583	277732
2.66397	239501
2.67208	213800
2.68020	186572
2.68833	188860
2.69645	174820
2.70458	160740
2.71270	148624
2.72082	145455
2.72895	141863
2.73707	145219
2.74520	140253
2.75332	142350
2.76143	132393
2.76957	137430
2.77768	259550
2.78582	689601
2.79393	1066331
2.80205	819821
2.81018	564700
2.81830	477491
2.82642	412315
2.83455	350938
2.84267	299918
2.85080	259231
2.85892	255886
2.86703	278907
2.87517	280658
2.88328	238269
2.89142	241763
2.89953	248938
2.90765	222167
2.91578	175640
2.92390	159806
2.93203	158405
2.94015	143639
2.94827	145196
2.95640	138093
2.96452	155725
2.97263	164232
2.98077	152125
2.98888	139733
2.99702	149858
3.00513	244152
3.01325	436530
3.02138	429890
3.02950	294886
3.03763	210836
3.04575	166115
3.05387	162073
3.06200	176714
3.07012	179347
3.07823	223101
3.08637	672580
3.09448	2202689
3.10262	4025755
3.11073	5582356
3.11885	6450194
3.12698	5366795
3.13510	3689653
3.14323	2727139
3.15135	2110820
3.15947	1710194
3.16760	1444152
3.17572	1253803
3.18385	1147208
3.19197	1334262
3.20008	1809750
3.20822	1922605
3.21633	1506045
3.22445	1164611
3.23258	1011509
3.24070	877501
3.24883	764896
3.25695	700799
3.26507	627097
3.27320	575536
3.28132	532029
3.28945	551051
3.29757	906620
3.30568	2552883
3.31382	5768673
3.32193	8429639
3.33005	8004837
3.33818	5807890
3.34630	4031145
3.35443	2970984
3.36255	2381385
3.37067	2041285
3.37880	1745588
3.38692	1620155
3.39505	1536942
3.40317	1420446
3.41128	1331735
3.41942	1255362
3.42753	1181730
3.43567	1063821
3.44378	976916
3.45190	894510
3.46003	831220
3.46815	801519
3.47627	802367
3.48440	789409
3.49252	758267
3.50065	759495
3.50877	761042
3.51688	711114
3.52502	692126
3.53313	710212
3.54127	698873
3.54938	668562
3.55750	613447
3.56563	540789
3.57375	579331
3.58188	712011
3.59000	759353
3.59812	660532
3.60625	539153
3.61437	479637
3.62248	458685
3.63062	460326
3.63873	429374
3.64687	416147
3.65498	405963
3.66310	481238
3.67123	1394868
3.67935	5494185
3.68748	1.236074E+07
3.69560	1.510484E+07
3.70372	1.146501E+07
3.71185	7270267
3.71997	5231600
3.72808	4216267
3.73622	3530264
3.74433	3031205
3.75247	2662628
3.76058	2399428
3.76870	2153641
3.77683	1982832
3.78495	1851802
3.79308	1746173
3.80120	1728785
3.80932	1943494
3.81745	2776183
3.82557	4161002
3.83370	4468756
3.84182	3549530
3.84993	2622625
3.85807	2165182
3.86618	1897864
3.87430	1702154
3.88243	1568876
3.89055	1458123
3.89868	1350438
3.90680	1296210
3.91492	1197755
3.92305	1185745
3.93117	1249818
3.93930	1302386
3.94742	1277321
3.95553	1428718
3.96367	2520079
3.97178	4917349
3.97992	6770370
3.98803	5984048
3.99615	4158748
4.00428	4323615
4.01240	1.005812E+07
4.02052	2.198547E+07
4.02865	3.05898E+07
4.03677	2.785527E+07
4.04490	1.761005E+07
4.05302	9877507
4.06113	6155790
4.06927	4451048
4.07738	3531197
4.08552	2865128
4.09363	2404318
4.10175	2084872
4.10988	1848965
4.11800	1637196
4.12612	1513284
4.13425	1375310
4.14237	1278336
4.15050	1210247
4.15862	1198250
4.16673	1206889
4.17487	1156154
4.18298	1140942
4.19112	1061547
4.19923	978409
4.20735	916662
4.21548	930389
4.22360	1659512
4.23173	4471164
4.23985	9637161
4.24797	1.457639E+07
4.25610	1.545986E+07
4.26422	1.229202E+07
4.27233	8045075
4.28047	5526035
4.28858	4178354
4.29672	3238735
4.30483	2627575
4.31295	2207507
4.32108	1902256
4.32920	1636975
4.33733	1450815
4.34545	1327165
4.35357	1205919
4.36170	1155187
4.36982	1133248
4.37793	1114250
4.38607	1076127
4.39418	1007416
4.40232	911428
4.41043	816670
4.41855	767132
4.42668	723190
4.43480	695405
4.44293	671990
4.45105	648866
4.45917	607810
4.46730	584507
4.47542	578185
4.48355	540985
4.49167	521289
4.49978	489385
4.50792	475090
4.51603	454799
4.52415	450492
4.53228	452678
4.54040	445744
4.54853	437187
4.55665	451099
4.56477	459308
4.57290	449033
4.58102	445970
4.58915	435541
4.59727	423179
4.60538	417195
4.61352	401500
4.62163	395108
4.62977	415279
4.63788	475554
4.64600	634792
4.65413	818263
4.66225	846057
4.67037	713930
4.67850	580497
4.68662	509371
4.69475	481849
4.70287	441089
4.71098	426813
4.71912	387391
4.72723	361127
4.73537	355118
4.74348	342370
4.75160	342100
4.75973	333186
4.76785	322163
4.77598	317858
4.78410	313529
4.79222	301315
4.80035	314833
4.80847	374759
4.81658	461698
4.82472	514928
4.83283	496779
4.84097	447779
4.84908	412001
4.85720	435091
4.86533	442918
4.87345	428946
4.88158	399412
4.88970	367396
4.89782	362539
4.90595	332629
4.91407	315755
4.92218	305222
4.93032	292970
4.93843	288174
4.94657	302866
4.95468	399716
4.96280	723333
4.97093	1434854
4.97905	2483089
4.98718	3163207
4.99530	3190660
5.00342	2619911
5.01155	1958842
5.01967	1517964
5.02780	1209633
5.03592	1061013
5.04403	988946
5.05217	983284
5.06028	1020367
5.06840	935745
5.07653	862002
5.08465	747593
5.09278	703536
5.10090	637922
5.10902	604483
5.11715	568768
5.12527	539551
5.13340	500272
5.14152	478288
5.14963	455523
5.15777	450503
5.16588	477690
5.17400	541249
5.18213	607337
5.19025	613757
5.19838	579991
5.20650	550083
5.21462	562348
5.22275	583902
5.23087	588075
5.23900	546090
5.24712	506017
5.25523	484177
5.26337	456191
5.27148	417433
5.27962	389198
5.28773	359458
5.29585	351325
5.30398	337249
5.31210	332562
5.32022	328030
5.32835	321883
5.33647	326333
5.34460	348982
5.35272	394614
5.36083	405136
5.36897	388419
5.37708	346299
5.38522	328768
5.39333	319717
5.40145	330227
5.40958	343887
5.41770	356196
5.42583	356839
5.43395	320678
5.44207	305845
5.45020	288255
5.45832	299721
5.46643	313781
5.47457	323843
5.48268	323928
5.49082	319620
5.49893	297812
5.50705	272820
5.51518	276804
5.52330	263374
5.53143	276493
5.53955	275557
5.54767	273035
5.55580	269850
5.56392	287069
5.57203	321356
5.58017	429121
5.58828	538225
5.59642	594642
5.60453	546198
5.61265	440359
5.62078	358660
5.62890	319874
5.63703	296764
5.64515	298756
5.65327	292849
5.66140	296041
5.66952	282831
5.67765	275331
5.68577	269111
5.69388	284140
5.70202	324797
5.71013	370269
5.71825	379429
5.72638	362433
5.73450	333566
5.74263	294124
5.75075	261932
5.75887	256078
5.76700	249601
5.77512	238157
5.78325	233927
5.79137	232080
5.79948	231959
5.80762	235475
5.81573	219532
5.82387	220034
5.83198	211847
5.84010	216661
5.84823	215564
5.85635	216037
5.86447	224035
5.87260	213821
5.88072	207467
5.88885	217215
5.89697	202430
5.90508	201853
5.91322	193622
5.92133	180026
5.92947	185294
5.93758	188974
5.94570	191430
5.95383	191225
5.96195	189251
5.97007	244705
5.97820	427614
5.98632	907678
5.99445	1605492
6.00257	2167035
6.01068	2254504
6.01882	1807836
6.02693	1229932
6.03507	847904
6.04318	636922
6.05130	517899
6.05943	456852
6.06755	411474
6.07568	381935
6.08380	352954
6.09192	339674
6.10005	322739
6.10817	307731
6.11628	295686
6.12442	301251
6.13253	283083
6.14067	302917
6.14878	369502
6.15690	480680
6.16503	580774
6.17315	607777
6.18128	510120
6.18940	419622
6.19752	362990
6.20565	331978
6.21377	324350
6.22188	297974
6.23002	289191
6.23813	281499
6.24627	274533
6.25438	279553
6.26250	269751
6.27063	279045
6.27875	297756
6.28688	301250
6.29500	276238
6.30312	275650
6.31125	262448
6.31937	256730
6.32750	251909
6.33562	248141
6.34373	246188
6.35187	259308
6.35998	260094
6.36810	268610
6.37623	265995
6.38435	256703
6.39248	254401
6.40060	259713
6.40872	255685
6.41685	256225
6.42497	251840
6.43310	250261
6.44122	250655
6.44933	242957
6.45747	248189
6.46558	243245
6.47372	251153
6.48183	255614
6.48995	255381
6.49808	261449
6.50620	253107
6.51432	253267
6.52245	254486
6.53057	255674
6.53870	253491
6.54682	262555
6.55493	257734
6.56307	249898
6.57118	256749
6.57932	286966
6.58743	339470
6.59555	431457
6.60368	503252
6.61180	484555
6.61992	425080
6.62805	330380
6.63617	299048
6.64430	286056
6.65242	289182
6.66053	308209
6.66867	431938
6.67678	797466
6.68492	1339069
6.69303	1726999
6.70115	1596973
6.70928	1160688
6.71740	793288
6.72553	583325
6.73365	483745
6.74177	437691
6.74990	408748
6.75802	389579
6.76613	367078
6.77427	355854
6.78238	334559
6.79052	308415
6.79863	286093
6.80675	258638
6.81488	245973
6.82300	230242
6.83113	219197
6.83925	220405
6.84737	217681
6.85550	223015
6.86362	239857
6.87175	254281
6.87987	278730
6.88798	284999
6.89612	261009
6.90423	227437
6.91235	193307
6.92048	169440
6.92860	157850
6.93673	148938
6.94485	143169
6.95297	145126
6.96110	147270
6.96922	145474
6.97735	150910
6.98547	186363
6.99358	218420
7.00172	234488
7.00983	230896
7.01795	209161
7.02608	168453
7.03420	155624
7.04233	141412
7.05045	146207
7.05857	143013
7.06670	160464
7.07482	179434
7.08295	178577
7.09107	173665
7.09918	162466
7.10732	159257
7.11543	139264
7.12357	138373
7.13168	135475
7.13980	141096
7.14793	135272
7.15605	135158
7.16417	155689
7.17230	207298
7.18042	247141
7.18855	277265
7.19667	263233
7.20478	221133
7.21292	184142
7.22103	156751
7.22917	162905
7.23728	228099
7.24540	480854
7.25353	1080252
7.26165	1861535
7.26977	2356545
7.27790	2122039
7.28602	1455191
7.29415	849546
7.30227	527966
7.31038	386615
7.31852	281738
7.32663	217059
7.33477	171189
7.34288	155513
7.35100	146570
7.35913	140707
7.36725	136491
7.37538	133598
7.38350	127575
7.39162	126585
7.39975	136010
7.40787	133515
7.41598	130608
7.42412	125422
7.43223	125035
7.44037	117111
7.44848	117593
7.45660	111024
7.46473	116071
7.47285	116973
7.48098	114927
7.48910	117842
7.49722	114196
7.50535	112154
7.51347	117797
7.52160	120380
7.52972	161203
7.53783	252917
7.54597	441922
7.55408	730545
7.56220	1077104
7.57033	1307489
7.57845	1378899
7.58658	1221721
7.59470	933758
7.60282	636733
7.61095	436916
7.61907	292232
7.62720	236048
7.63532	196826
7.64343	166211
7.65157	164225
7.65968	140472
7.66780	129267
7.67593	117372
7.68405	119223
7.69218	121263
7.70030	113437
7.70842	109733
7.71655	111644
7.72467	110750
7.73280	109661
7.74092	105877
7.74903	103267
7.75717	97164
7.76528	98644
7.77342	94506
7.78153	97798
7.78965	102717
7.79778	110676
7.80590	108408
7.81402	126080
7.82215	141959
7.83027	143903
7.83840	141113
7.84652	132443
7.85463	124088
7.86277	114234
7.87088	116596
7.87902	114152
7.88713	128092
7.89525	135079
7.90338	147110
7.91150	143083
7.91963	137286
7.92775	118835
7.93587	118602
7.94400	152038
7.95212	221443
7.96023	316282
7.96837	397024
7.97648	388764
7.98462	332121
7.99273	236951
8.00085	182779
8.00898	152257
8.01710	118639
8.02523	110305
8.03335	98006
8.04147	95133
8.04960	103644
8.05772	93148
8.06583	95814
8.07397	94857
8.08208	97007
8.09022	83870
8.09833	90694
8.10645	83182
8.11458	84369
8.12270	85153
8.13083	90028
8.13895	86936
8.14707	90847
8.15520	99397
8.16332	113541
8.17145	128112
8.17957	124921
8.18768	115844
8.19582	103049
8.20393	95837
8.21205	93141
8.22018	92524
8.22830	83296
8.23643	80592
8.24455	82433
8.25267	77772
8.26080	79479
8.26892	78893
8.27705	74557
8.28517	77354
8.29328	79585
8.30142	72083
8.30953	81744
8.31767	77719
8.32578	92566
8.33390	90620
8.34203	89336
8.35015	91486
8.35827	86012
8.36640	81552
8.37452	82468
8.38265	74831
8.39077	79627
8.39888	85955
8.40702	81262
8.41513	83904
8.42327	82036
8.43138	75941
8.43950	70284
8.44763	72679
8.45575	72864
8.46387	69661
8.47200	74289
8.48012	72564
8.48825	73439
8.49637	72638
8.50448	66942
8.51262	72770
8.52073	74696
8.52887	73232
8.53698	73964
8.54510	85201
8.55323	116665
8.56135	193923
8.56948	316504
8.57760	428981
8.58572	443466
8.59385	377852
8.60197	276782
8.61008	186658
8.61822	140210
8.62633	123133
8.63447	108482
8.64258	103338
8.65070	100541
8.65883	92940
8.66695	88658
8.67508	83808
8.68320	90419
8.69132	83194
8.69945	82309
8.70757	82724
8.71568	86915
8.72382	88677
8.73193	86144
8.74007	85252
8.74818	76466
8.75630	77397
8.76443	72203
8.77255	82849
8.78068	110140
8.78880	188534
8.79692	337269
8.80505	553701
8.81317	749388
8.82130	780339
8.82942	711421
8.83753	550149
8.84567	410629
8.85378	308540
8.86190	257198
8.87003	233482
8.87815	232584
8.88628	229289
8.89440	217644
8.90252	213745
8.91065	208633
8.91877	192081
8.92690	189759
8.93502	184903
8.94313	178039
8.95127	172672
8.95938	194287
8.96752	202293
8.97563	221346
8.98375	219667
8.99188	211229
9.00000	198542
9.00812	202579
9.01625	183100
9.02437	180395
9.03250	166243
9.04062	151990
9.04873	148767
9.05687	135931
9.06498	129187
9.07312	129200
9.08123	124704
9.08935	136111
9.09748	123825
9.10560	133590
9.11372	149037
9.12185	169875
9.12997	181553
9.13810	207604
9.14622	196160
9.15433	184118
9.16247	162974
9.17058	144552
9.17872	135403
9.18683	132200
9.19495	125468
9.20308	120374
9.21120	121445
9.21933	116170
9.22745	115521
9.23557	113084
9.24370	114021
9.25182	116603
9.25993	115270
9.26807	116080
9.27618	119237
9.28432	104654
9.29243	106876
9.30055	108352
9.30868	102710
9.31680	111503
9.32493	103375
9.33305	100440
9.34117	94881
9.34930	99341
9.35742	100318
9.36555	103267
9.37367	99321
9.38178	98962
9.38992	107521
9.39803	98431
9.40615	101303
9.41428	106483
9.42240	113584
9.43053	124175
9.43865	139510
9.44677	154746
9.45490	171864
9.46302	181719
9.47115	167081
9.47927	137020
9.48738	121884
9.49552	113437
9.50363	103123
9.51175	102872
9.51988	106109
9.52800	107748
9.53613	118497
9.54425	135202
9.55237	132602
9.56050	125231
9.56862	117361
9.57675	102589
9.58487	108564
9.59298	95639
9.60112	98632
9.60923	98977
9.61737	102199
9.62548	92206
9.63360	82192
9.64173	74343
9.64985	70331
9.65797	64554
9.66610	65050
9.67422	67155
9.68235	66320
9.69047	66856
9.69858	63428
9.70672	63414
9.71483	64953
9.72297	65534
9.73108	64498
9.73920	65363
9.74733	66375
9.75545	63372
9.76357	58585
9.77170	62803
9.77982	67116
9.78795	58788
9.79607	60214
9.80418	58871
9.81232	58272
9.82043	60239
9.82857	60062
9.83668	60792
9.84480	58003
9.85293	60208
9.86105	62464
9.86918	61939
9.87730	59238
9.88542	67602
9.89355	72022
9.90167	75482
9.90978	69717
9.91792	62863
9.92603	64796
9.93417	68505
9.94228	74746
9.95040	84392
9.95853	105185
9.96665	135805
9.97478	165304
9.98290	168986
9.99102	151344
9.99915	135844
10.00727	112915
10.01540	97196
10.02352	90227
10.03163	96130
10.03977	92238
10.04788	88595
10.05600	86976
10.06413	78005
10.07225	77393
10.08038	73678
10.08850	77093
10.09662	76437
10.10475	78107
10.11287	87224
10.12100	84137
10.12912	77484
10.13723	78710
10.14537	78210
10.15348	70027
10.16162	67807
10.16973	66311
10.17785	68865
10.18598	63129
10.19410	67345
10.20222	62420
10.21035	60023
10.21847	69317
10.22660	65733
10.23472	63660
10.24283	64283
10.25097	71919
10.25908	70050
10.26722	78670
10.27533	84455
10.28345	125013
10.29158	247438
10.29970	574760
10.30782	1163583
10.31595	2033400
10.32407	2950639
10.33220	4037126
10.34032	5737604
10.34843	8240305
10.35657	1.091457E+07
10.36468	1.21295E+07
10.37282	1.083513E+07
10.38093	7652591
10.38905	4485853
10.39718	2599665
10.40530	1487491
10.41343	935922
10.42155	617382
10.42967	443827
10.43780	352304
10.44592	291194
10.45403	278813
10.46217	259365
10.47028	256932
10.47842	260396
10.48653	241368
10.49465	222884
10.50278	207897
10.51090	189215
10.51903	183526
10.52715	176352
10.53527	162771
10.54340	161197
10.55152	164096
10.55963	149576
10.56777	154244
10.57588	147706
10.58402	146477
10.59213	138902
10.60025	141786
10.60838	136243
10.61650	120806
10.62463	121797
10.63275	114692
10.64087	120670
10.64900	115151
10.65712	106500
10.66525	110853
10.67337	101473
10.68148	106235
10.68962	103745
10.69773	108471
10.70585	107512
10.71398	108059
10.72210	109922
10.73023	106763
10.73835	103829
10.74647	98342
10.75460	98094
10.76272	98871
10.77085	99319
10.77897	102638
10.78708	99694
10.79522	91800
10.80333	86774
10.81147	93874
10.81958	87635
10.82770	97563
10.83583	94206
10.84395	93289
10.85207	91464
10.86020	82986
10.86832	82640
10.87645	77775
10.88457	76342
10.89268	75364
10.90082	79080
10.90893	74607
10.91707	73130
10.92518	79526
10.93330	77732
10.94143	79865
10.94955	72513
10.95767	69718
10.96580	66047
10.97392	71449
10.98205	71659
10.99017	75404
10.99828	68902
11.00642	74815
11.01453	76677
11.02267	76910
11.03078	74788
11.03890	70221
11.04703	68801
11.05515	63793
11.06328	62108
11.07140	65576
11.07952	65155
11.08765	69581
11.09577	73692
11.10388	76284
11.11202	74889
11.12013	76479
11.12827	70755
11.13638	69747
11.14450	62500
11.15263	63397
11.16075	62322
11.16888	64710
11.17700	63423
11.18512	63017
11.19325	65156
11.20137	64968
11.20950	75834
11.21762	73225
11.22573	71723
11.23387	72126
11.24198	65252
11.25010	55905
11.25823	61862
11.26635	55159
11.27448	56741
11.28260	52842
11.29072	51588
11.29885	51806
11.30697	58492
11.31510	80199
11.32322	123999
11.33133	215815
11.33947	360148
11.34758	570277
11.35570	766692
11.36383	879576
11.37195	809803
11.38008	669950
11.38820	457624
11.39632	307531
11.40445	207698
11.41257	167067
11.42070	158249
11.42882	143981
11.43693	146302
11.44507	134492
11.45318	125713
11.46132	116344
11.46943	105694
11.47755	103869
11.48568	101690
11.49380	117460
11.50192	135933
11.51005	160620
11.51817	193576
11.52630	196434
11.53442	190531
11.54253	169758
11.55067	135086
11.55878	117048
11.56692	116103
11.57503	112792
11.58315	109055
11.59128	102330
11.59940	100723
11.60752	95761
11.61565	93503
11.62377	111880
11.63190	137527
11.64002	167968
11.64813	181436
11.65627	173233
11.66438	145540
11.67252	119462
11.68063	96771
11.68875	90686
11.69688	80165
11.70500	79605
11.71313	82333
11.72125	87402
11.72937	81763
11.73750	80233
11.74562	75398
11.75373	72806
11.76187	76107
11.76998	71592
11.77812	71260
11.78623	73044
11.79435	66712
11.80248	69197
11.81060	66801
11.81873	57100
11.82685	58085
11.83497	67075
11.84310	66217
11.85122	71797
11.85935	73828
11.86747	78291
11.87558	91338
11.88372	97145
11.89183	111383
11.89995	100552
11.90808	84589
11.91620	68120
11.92433	64865
11.93245	60878
11.94057	62724
11.94870	64540
11.95682	67801
11.96495	61698
11.97307	61944
11.98118	59841
11.98932	59712
11.99743	54582
12.00555	58421
12.01368	62228
12.02180	77750
12.02993	90083
12.03805	93924
12.04617	91840
12.05430	85933
12.06242	69358
12.07055	67284
12.07867	65994
12.08678	59482
12.09492	59547
12.10303	64870
12.11117	69549
12.11928	89732
12.12740	127551
12.13553	175495
12.14365	226941
12.15177	252634
12.15990	256237
12.16802	213522
12.17615	161148
12.18427	116660
12.19238	85966
12.20052	80864
12.20863	75974
12.21677	72501
12.22488	79887
12.23300	79753
12.24113	78809
12.24925	78370
12.25738	82221
12.26550	74800
12.27362	77542
12.28175	70915
12.28987	69772
12.29798	70940
12.30612	66605
12.31423	70284
12.32237	62757
12.33048	62677
12.33860	65223
12.34673	63309
12.35485	63559
12.36298	65125
12.37110	59037
12.37922	62146
12.38735	58297
12.39547	58703
12.40358	65424
12.41172	74799
12.41983	71231
12.42797	82329
12.43608	106190
12.44420	127378
12.45233	144674
12.46045	145227
12.46858	130301
12.47670	111814
12.48482	105503
12.49295	82477
12.50107	79818
12.50920	69192
12.51732	69534
12.52543	71701
12.53357	67835
12.54168	64819
12.54980	67049
12.55793	68650
12.56605	76362
12.57418	84536
12.58230	82524
12.59042	92848
12.59855	95247
12.60667	90023
12.61480	86060
12.62292	71989
12.63103	70442
12.63917	66486
12.64728	66775
12.65540	60491
12.66353	64746
12.67165	58842
12.67978	60021
12.68790	54879
12.69602	53471
12.70415	55583
12.71227	57298
12.72040	58607
12.72852	57531
12.73663	62332
12.74477	63974
12.75288	65311
12.76102	70191
12.76913	62956
12.77725	59636
12.78538	62916
12.79350	59641
12.80162	56598
12.80975	53318
12.81787	56577
12.82600	51963
12.83412	50705
12.84223	51210
12.85037	49201
12.85848	44710
12.86662	41797
12.87473	47220
12.88285	46260
12.89098	48478
12.89910	45006
12.90723	44514
12.91535	44596
12.92347	43541
12.93160	46032
12.93972	44680
12.94783	43448
12.95597	44458
12.96408	46431
12.97222	46680
12.98033	41615
12.98845	45673
12.99658	50675
13.00470	56821
13.01283	58658
13.02095	50684
13.02907	43714
13.03720	47335
13.04532	43220
13.05343	46819
13.06157	47387
13.06968	48726
13.07782	47100
13.08593	47928
13.09405	52236
13.10218	46971
13.11030	47561
13.11843	49014
13.12655	47939
13.13467	46698
13.14280	42127
13.15092	45197
13.15905	41261
13.16717	39199
13.17528	47702
13.18342	46261
13.19153	48038
13.19965	50292
13.20778	50559
13.21590	49436
13.22403	52041
13.23215	57858
13.24027	57267
13.24840	54678
13.25652	49785
13.26465	51733
13.27277	51823
13.28088	49203
13.28902	48013
13.29713	45334
13.30527	44231
13.31338	41631
13.32150	44420
13.32963	44610
13.33775	43441
13.34587	43593
13.35400	44235
13.36212	44126
13.37025	48815
13.37837	47573
13.38648	42318
13.39462	40621
13.40273	44810
13.41087	38583
13.41898	38912
13.42710	42218
13.43523	41373
13.44335	41397
13.45147	38669
13.45960	42788
13.46772	43317
13.47585	45017
13.48397	44390
13.49208	42964
13.50022	43183
13.50833	41540
13.51647	44290
13.52458	42511
13.53270	41328
13.54083	50119
13.54895	45099
13.55708	47888
13.56520	47732
13.57332	48000
13.58145	48147
13.58957	46632
13.59768	50815
13.60582	53380
13.61393	50851
13.62207	54829
13.63018	59991
13.63830	56503
13.64643	57784
13.65455	53998
13.66268	53881
13.67080	50100
13.67892	42186
13.68705	43058
13.69517	41096
13.70330	41944
13.71142	40035
13.71953	42136
13.72767	40236
13.73578	42096
13.74390	40312
13.75203	44459
13.76015	49276
13.76828	57022
13.77640	75015
13.78452	102475
13.79265	132919
13.80077	170140
13.80890	208355
13.81702	214825
13.82513	230982
13.83327	233199
13.84138	246920
13.84950	279098
13.85763	273864
13.86575	260976
13.87388	227042
13.88200	184671
13.89012	150799
13.89825	126883
13.90637	99780
13.91450	92199
13.92262	81696
13.93073	75077
13.93887	71267
13.94698	69473
13.95512	69121
13.96323	65738
13.97135	73776
13.97948	81026
13.98760	105522
13.99572	145717
14.00385	156717
14.01197	176118
14.02010	153129
14.02822	143856
14.03633	109433
14.04447	90515
14.05258	81111
14.06072	75726
14.06883	75096
14.07695	72736
14.08508	71238
14.09320	69959
14.10132	61013
14.10945	68929
14.11757	63950
14.12570	63417
14.13382	56157
14.14193	56616
14.15007	55013
14.15818	60528
14.16632	60409
14.17443	66605
14.18255	69471
14.19068	68541
14.19880	76707
14.20693	91002
14.21505	122794
14.22317	175697
14.23130	220488
14.23942	258437
14.24753	276307
14.25567	257536
14.26378	239941
14.27192	211377
14.28003	188746
14.28815	175301
14.29628	164128
14.30440	135907
14.31253	122901
14.32065	117710
14.32877	114751
14.33690	103483
14.34502	99489
14.35315	97236
14.36127	94600
14.36938	84528
14.37752	83765
14.38563	75682
14.39375	68554
14.40188	55994
14.41000	61555
14.41813	60118
14.42625	62244
14.43437	75276
14.44250	73765
14.45062	76244
14.45875	75774
14.46687	67215
14.47498	62287
14.48312	56978
14.49123	61076
14.49935	59859
14.50748	55060
14.51560	59592
14.52373	54564
14.53185	57181
14.53997	58060
14.54810	59672
14.55622	56862
14.56435	57089
14.57247	51154
14.58058	53593
14.58872	48326
14.59683	48211
14.60497	47084
14.61308	44236
14.62120	45945
14.62933	44655
14.63745	42780
14.64557	47476
14.65370	48482
14.66182	43948
14.66995	44464
14.67807	43532
14.68618	43344
14.69432	38140
14.70243	42806
14.71057	45217
14.71868	39508
14.72680	43332
14.73493	43057
14.74305	46212
14.75118	46165
14.75930	48212
14.76742	49191
14.77555	50622
14.78367	46908
14.79178	50529
14.79992	57519
14.80803	83307
14.81617	190697
14.82428	469723
14.83240	1135760
14.84053	2238716
14.84865	3551704
14.85678	4326244
14.86490	4217292
14.87302	3339779
14.88115	2262416
14.88927	1362477
14.89738	806634
14.90552	543592
14.91363	409176
14.92177	337723
14.92988	293849
14.93800	260115
14.94613	246182
14.95425	217379
14.96238	211328
14.97050	184444
14.97862	174625
14.98675	168747
14.99487	162612
15.00300	153214
15.01112	144833
15.01923	139116
15.02737	143330
15.03548	138633
15.04360	129845
15.05173	120501
15.05985	116332
15.06798	115454
15.07610	105401
15.08422	104203
15.09235	106334
15.10047	101924
15.10860	102143
15.11672	93511
15.12483	91489
15.13297	87820
15.14108	98761
15.14920	98108
15.15733	102290
15.16545	109874
15.17358	110536
15.18170	101443
15.18982	91451
15.19795	83135
15.20607	73145
15.21420	70431
15.22232	57837
15.23043	62380
15.23857	58645
15.24668	61317
15.25482	60623
15.26293	53787
15.27105	55289
15.27918	57313
15.28730	52368
15.29542	52644
15.30355	47427
15.31167	55326
15.31980	51034
15.32792	51664
15.33603	47727
15.34417	50818
15.35228	47249
15.36042	51680
15.36853	50672
15.37665	53033
15.38478	46974
15.39290	45490
15.40103	52170
15.40915	49809
15.41727	48875
15.42540	53746
15.43352	49481
15.44163	52702
15.44977	47953
15.45788	47223
15.46602	51703
15.47413	49476
15.48225	58127
15.49038	70383
15.49850	83439
15.50663	112509
15.51475	129477
15.52287	140136
15.53100	139909
15.53912	129467
15.54725	121077
15.55537	122194
15.56348	111968
15.57162	105232
15.57973	100127
15.58785	86639
15.59598	75299
15.60410	63835
15.61223	65355
15.62035	60802
15.62847	56904
15.63660	56584
15.64472	55801
15.65285	53649
15.66097	57024
15.66908	58455
15.67722	52342
15.68533	50871
15.69345	56375
15.70158	52515
15.70970	49642
15.71783	51967
15.72595	48705
15.73407	51488
15.74220	55553
15.75032	53149
15.75845	52109
15.76657	52558
15.77468	71466
15.78282	94737
15.79093	146158
15.79907	223525
15.80718	282883
15.81530	313921
15.82343	288569
15.83155	233795
15.83967	167499
15.84780	123576
15.85592	95398
15.86405	86654
15.87217	79587
15.88028	72102
15.88842	67305
15.89653	67904
15.90467	64586
15.91278	60292
15.92090	64516
15.92903	62593
15.93715	59844
15.94527	61175
15.95340	57717
15.96152	68270
15.96965	62774
15.97777	65533
15.98588	74463
15.99402	83611
16.00213	84563
16.01027	92642
16.01838	87930
16.02650	87018
16.03463	88118
16.04275	86277
16.05088	86957
16.05900	78093
16.06712	79929
16.07525	71798
16.08337	73855
16.09148	59756
16.09962	56381
16.10773	60567
16.11587	59371
16.12398	59795
16.13210	62927
16.14023	58585
16.14835	58851
16.15648	62349
16.16460	65389
16.17272	65864
16.18085	62340
16.18897	59220
16.19710	58855
16.20522	58180
16.21333	55957
16.22147	61796
16.22958	58510
16.23770	56563
16.24583	54087
16.25395	50488
16.26208	57077
16.27020	55650
16.27832	49021
16.28645	54350
16.29457	54393
16.30270	52347
16.31082	58226
16.31893	58908
16.32707	60751
16.33518	58643
16.34330	56179
16.35143	53586
16.35955	58264
16.36768	59670
16.37580	68080
16.38392	83127
16.39205	94023
16.40017	105887
16.40830	101358
16.41642	93450
16.42453	79881
16.43267	72006
16.44078	64849
16.44892	61372
16.45703	66774
16.46515	84771
16.47328	146471
16.48140	283719
16.48952	502287
16.49765	731260
16.50577	894263
16.51390	889070
16.52202	695430
16.53013	467891
16.53827	299526
16.54638	193669
16.55452	150498
16.56263	110423
16.57075	99584
16.57888	91143
16.58700	92356
16.59513	91188
16.60325	86247
16.61137	82952
16.61950	91808
16.62762	93639
16.63573	88913
16.64387	91353
16.65198	86252
16.66012	78801
16.66823	75491
16.67635	70828
16.68448	69202
16.69260	65346
16.70073	57722
16.70885	59131
16.71697	69080
16.72510	56753
16.73322	54122
16.74133	51741
16.74947	51235
16.75758	54678
16.76572	55052
16.77383	58970
16.78195	67482
16.79008	64926
16.79820	60226
16.80633	64595
16.81445	58707
16.82257	54475
16.83070	51970
16.83882	46740
16.84695	47719
16.85507	49014
16.86318	45112
16.87132	48629
16.87943	44795
16.88755	47113
16.89568	45434
16.90380	44318
16.91193	47549
16.92005	44708
16.92817	44168
16.93630	43811
16.94442	45768
16.95255	44470
16.96067	47390
16.96878	46802
16.97692	45553
16.98503	40806
16.99315	45428
17.00128	43255
17.00940	44219
17.01753	43201
17.02565	49197
17.03377	45725
17.04190	43349
17.05002	49754
17.05815	48106
17.06627	56397
17.07438	55719
17.08252	55535
17.09063	52237
17.09877	56402
17.10688	48958
17.11500	53503
17.12313	50974
17.13125	48180
17.13937	50282
17.14750	50091
17.15562	50686
17.16375	52624
17.17187	50556
17.17998	49288
17.18812	48371
17.19623	49611
17.20437	55529
17.21248	48934
17.22060	42778
17.22873	44514
17.23685	46062
17.24498	42796
17.25310	46329
17.26122	45265
17.26935	45484
17.27747	47421
17.28558	51907
17.29372	44129
17.30183	44052
17.30997	51784
17.31808	45694
17.32620	47621
17.33433	49883
17.34245	54126
17.35058	61279
17.35870	61795
17.36682	64100
17.37495	64293
17.38307	66204
17.39118	63408
17.39932	68415
17.40743	65155
17.41557	66206
17.42368	64742
17.43180	65232
17.43993	64191
17.44805	63549
17.45618	59219
17.46430	60470
17.47242	57870
17.48055	60960
17.48867	54291
17.49680	55314
17.50492	55207
17.51303	55857
17.52117	48014
17.52928	52027
17.53740	52972
17.54553	56686
17.55365	58502
17.56178	50549
17.56990	54517
17.57802	64029
17.58615	87149
17.59427	130481
17.60240	209383
17.61052	311503
17.61863	415216
17.62677	524129
17.63488	524635
17.64302	454430
17.65113	374959
17.65925	290891
17.66738	264404
17.67550	261993
17.68362	277165
17.69175	278435
17.69987	277176
17.70800	237600
17.71612	189123
17.72423	155109
17.73237	128947
17.74048	110553
17.74862	100088
17.75673	93544
17.76485	86543
17.77298	82286
17.78110	76942
17.78922	70124
17.79735	73762
17.80547	73437
17.81360	72488
17.82172	82425
17.82983	101725
17.83797	117251
17.84608	135195
17.85422	141448
17.86233	147396
17.87045	133394
17.87858	120556
17.88670	114266
17.89483	102761
17.90295	97190
17.91107	85511
17.91920	74279
17.92732	71249
17.93543	63042
17.94357	57578
17.95168	61897
17.95982	59118
17.96793	60479
17.97605	55578
17.98418	50862
17.99230	56682
18.00043	53470
18.00855	48948
18.01667	52085
18.02480	55108
18.03292	63434
18.04105	67940
18.04917	78383
18.05728	86563
18.06542	110988
18.07353	151748
18.08165	250040
18.08978	497262
18.09790	882143
18.10603	1331033
18.11415	1646490
18.12227	1697201
18.13040	1473446
18.13852	1156400
18.14665	852074
18.15477	607040
18.16288	466678
18.17102	405928
18.17913	348026
18.18725	309543
18.19538	279309
18.20350	251126
18.21163	244196
18.21975	223132
18.22787	201620
18.23600	188975
18.24412	184622
18.25225	175252
18.26037	157355
18.26848	145368
18.27662	143011
18.28473	132801
18.29287	119595
18.30098	98447
18.30910	87980
18.31723	77626
18.32535	68443
18.33347	64283
18.34160	62208
18.34972	67564
18.35785	58716
18.36597	57523
18.37408	55570
18.38222	64183
18.39033	58345
18.39847	54874
18.40658	53199
18.41470	55463
18.42283	55867
18.43095	56389
18.43907	58514
18.44720	68368
18.45532	74449
18.46345	80379
18.47157	101075
18.47968	123162
18.48782	160031
18.49593	175572
18.50407	203872
18.51218	195282
18.52030	175231
18.52843	143415
18.53655	113376
18.54468	94526
18.55280	81930
18.56092	68993
18.56905	70420
18.57717	61754
18.58528	57375
18.59342	57673
18.60153	61549
18.60967	59834
18.61778	64081
18.62590	62253
18.63403	73850
18.64215	64901
18.65028	64069
18.65840	59637
18.66652	59037
18.67465	59469
18.68277	55457
18.69090	57093
18.69902	53431
18.70713	49530
18.71527	48527
18.72338	47101
18.73150	48172
18.73963	53142
18.74775	49715
18.75588	45562
18.76400	43088
18.77212	48244
18.78025	46307
18.78837	43838
18.79650	44982
18.80462	47888
18.81273	44748
18.82087	45209
18.82898	42780
18.83710	48144
18.84523	44089
18.85335	42733
18.86148	49926
18.86960	65084
18.87772	91411
18.88585	126788
18.89397	150033
18.90210	175446
18.91022	184727
18.91833	192307
18.92647	187223
18.93458	192037
18.94272	201127
18.95083	207572
18.95895	212816
18.96708	215706
18.97520	218280
18.98332	223816
18.99145	220846
18.99957	223583
19.00770	209658
19.01582	206351
19.02393	208281
19.03207	212784
19.04018	209604
19.04832	204149
19.05643	199983
19.06455	201400
19.07268	200293
19.08080	207770
19.08893	204671
19.09705	209102
19.10517	222625
19.11330	230479
19.12142	242925
19.12953	245963
19.13767	249652
19.14578	244340
19.15392	238256
19.16203	217576
19.17015	218818
19.17828	209218
19.18640	219615
19.19453	216369
19.20265	215566
19.21077	216664
19.21890	205163
19.22702	210223
19.23513	202175
19.24327	199908
19.25138	198610
19.25952	195382
19.26763	182739
19.27575	190167
19.28388	187185
19.29200	198458
19.30013	190363
19.30825	195430
19.31637	187971
19.32450	189786
19.33262	185510
19.34075	187256
19.34887	188907
19.35698	183146
19.36512	188235
19.37323	201788
19.38135	211751
19.38948	232344
19.39760	238845
19.40573	226338
19.41385	220084
19.42197	210250
19.43010	189804
19.43822	187073
19.44635	172112
19.45447	171359
19.46258	164673
19.47072	173610
19.47883	163894
19.48695	174007
19.49508	167378
19.50320	189364
19.51133	193431
19.51945	239452
19.52757	288851
19.53570	325305
19.54382	324776
19.55195	317207
19.56007	289591
19.56818	236372
19.57632	199907
19.58443	185544
19.59257	166244
19.60068	164703
19.60880	164742
19.61693	144255
19.62505	148099
19.63317	152818
19.64130	154980
19.64942	174972
19.65755	207629
19.66567	279672
19.67378	403154
19.68192	529579
19.69003	655420
19.69817	682879
19.70628	655574
19.71440	558267
19.72253	464106
19.73065	371742
19.73878	317287
19.74690	283215
19.75502	239538
19.76315	226430
19.77127	206790
19.77938	195541
19.78752	188956
19.79563	186553
19.80377	189992
19.81188	193385
19.82000	191689
19.82813	201996
19.83625	180431
19.84438	177594
19.85250	199327
19.86062	269979
19.86875	628586
19.87687	1658328
19.88498	4302010
19.89312	9734649
19.90123	1.810952E+07
19.90937	2.70553E+07
19.91748	3.345744E+07
19.92560	3.64138E+07
19.93373	3.500401E+07
19.94185	2.913393E+07
19.94998	2.089335E+07
19.95810	1.386246E+07
19.96622	9564612
19.97435	7044007
19.98247	5621114
19.99060	4847733
19.99872	4445555
20.00683	4063329
20.01497	3658000
20.02308	3355341
20.03120	3081315
20.03933	2874259
20.04745	2582789
20.05558	2306358
20.06370	1972552
20.07182	1593250
20.07995	1230817
20.08807	953096
20.09620	746180
20.10432	641928
20.11243	564324
20.12057	523240
20.12868	489196
20.13682	447181
20.14493	446790
20.15305	418524
20.16118	429930
20.16930	415657
20.17742	422513
20.18555	437585
20.19367	452960
20.20180	472041
20.20992	492970
20.21803	479665
20.22617	447016
20.23428	415637
20.24242	399282
20.25053	374561
20.25865	383266
20.26678	397676
20.27490	440457
20.28302	527816
20.29115	590305
20.29927	668362
20.30740	689266
20.31552	662497
20.32363	600330
20.33177	516669
20.33988	447463
20.34802	381409
20.35613	308083
20.36425	263634
20.37238	222619
20.38050	190308
20.38863	166045
20.39675	154504
20.40487	149367
20.41300	144417
20.42112	138872
20.42923	153322
20.43737	151631
20.44548	164911
20.45362	171704
20.46173	184124
20.46985	201904
20.47798	203629
20.48610	191845
20.49423	178554
20.50235	159757
20.51047	144637
20.51860	139206
20.52672	134325
20.53483	120697
20.54297	121578
20.55108	126838
20.55922	118128
20.56733	115392
20.57545	115546
20.58358	115632
20.59170	113822
20.59983	110116
20.60795	109010
20.61607	106095
20.62420	100495
20.63232	106909
20.64045	106066
20.64857	97605
20.65668	112123
20.66482	109584
20.67293	109147
20.68105	100567
20.68918	99522
20.69730	96580
20.70543	99757
20.71355	95678
20.72167	97446
20.72980	94366
20.73792	100817
20.74605	98924
20.75417	94973
20.76228	96820
20.77042	102195
20.77853	97671
20.78667	103968
20.79478	113275
20.80290	127752
20.81103	159371
20.81915	209624
20.82727	275859
20.83540	312681
20.84352	323677
20.85165	293802
20.85977	234905
20.86788	184511
20.87602	151210
20.88413	120060
20.89227	107179
20.90038	99256
20.90850	98352
20.91663	102701
20.92475	90264
20.93288	97953
20.94100	94787
20.94912	97298
20.95725	97882
20.96537	100262
20.97348	94548
20.98162	86532
20.98973	89132
20.99787	82039
21.00598	85714
21.01410	83595
21.02223	84860
21.03035	86843
21.03848	88075
21.04660	85324
21.05472	84221
21.06285	90033
21.07097	88905
21.07908	84073
21.08722	84333
21.09533	83870
21.10347	80033
21.11158	86836
21.11970	84235
21.12783	84587
21.13595	84775
21.14408	90583
21.15220	100423
21.16032	110762
21.16845	128302
21.17657	142305
21.18470	148502
21.19282	142819
21.20093	136073
21.20907	112892
21.21718	108108
21.22530	101556
21.23343	102541
21.24155	96148
21.24968	98998
21.25780	91593
21.26592	92712
21.27405	90555
21.28217	81609
21.29030	95950
21.29842	82478
21.30653	88877
21.31467	80437
21.32278	83169
21.33090	86231
21.33903	77962
21.34715	79460
21.35528	75518
21.36340	86228
21.37152	82973
21.37965	81728
21.38777	78366
21.39590	82583
21.40402	84154
21.41213	97132
21.42027	106638
21.42838	122324
21.43652	123810
21.44463	122563
21.45275	118033
21.46088	113549
21.46900	101176
21.47712	88704
21.48525	88263
21.49337	87444
21.50150	81282
21.50962	83030
21.51773	82772
21.52587	76896
21.53398	75894
21.54212	74343
21.55023	73142
21.55835	76509
21.56648	73964
21.57460	77509
21.58273	70498
21.59085	70541
21.59897	83411
21.60710	88236
21.61522	84770
21.62333	85588
21.63147	86167
21.63958	98416
21.64772	110800
21.65583	121426
21.66395	143249
21.67208	147298
21.68020	147382
21.68833	148352
21.69645	132995
21.70457	123158
21.71270	113885
21.72082	100882
21.72893	91711
21.73707	85977
21.74518	79867
21.75332	75489
21.76143	77135
21.76955	73776
21.77768	73399
21.78580	70099
21.79393	68217
21.80205	72944
21.81017	67185
21.81830	69045
21.82642	65137
21.83455	75653
21.84267	86220
21.85078	96533
21.85892	111831
21.86703	119877
21.87515	120586
21.88328	113405
21.89140	97443
21.89953	92938
21.90765	80025
21.91577	73974
21.92390	73961
21.93202	72453
21.94015	64746
21.94827	65566
21.95638	60449
21.96452	61204
21.97263	60943
21.98077	59270
21.98888	54941
21.99700	56426
22.00513	56081
22.01325	56358
22.02137	52053
22.02950	57632
22.03762	53827
22.04575	52201
22.05387	63719
22.06198	56533
22.07012	54139
22.07823	59902
22.08637	56712
22.09448	53628
22.10260	57155
22.11073	56238
22.11885	53555
22.12697	55429
22.13510	54946
22.14322	53846
22.15135	52101
22.15947	51343
22.16758	53328
22.17572	53367
22.18383	50895
22.19197	49044
22.20008	55929
22.20820	52986
22.21633	56158
22.22445	54355
22.23258	54590
22.24070	54982
22.24882	57759
22.25695	62000
22.26507	65604
22.27318	63563
22.28132	62047
22.28943	57480
22.29757	58534
22.30568	59609
22.31380	68916
22.32193	76501
22.33005	90571
22.33818	116329
22.34630	132679
22.35442	150025
22.36255	149381
22.37067	140862
22.37878	119037
22.38692	105718
22.39503	89855
22.40317	92691
22.41128	95026
22.41940	103355
22.42753	120882
22.43565	128490
22.44378	133442
22.45190	124529
22.46002	107935
22.46815	96548
22.47627	83386
22.48440	83216
22.49252	91311
22.50063	97201
22.50877	105567
22.51688	114663
22.52500	117261
22.53313	126731
22.54125	131267
22.54938	117766
22.55750	118170
22.56562	113961
22.57375	108827
22.58187	110306
22.59000	107330
22.59812	112304
22.60623	103646
22.61437	107008
22.62248	105283
22.63062	102355
22.63873	97427
22.64685	105168
22.65498	98407
22.66310	97076
22.67122	104541
22.67935	109780
22.68747	108485
22.69560	113690
22.70372	125517
22.71183	127867
22.71997	130298
22.72808	134089
22.73622	127024
22.74433	125645
22.75245	114803
22.76058	107066
22.76870	106031
22.77682	105775
22.78495	108149
22.79307	103655
22.80120	117869
22.80932	117421
22.81743	126364
22.82557	135709
22.83368	124909
22.84182	132973
22.84993	125659
22.85805	112827
22.86618	114253
22.87430	108086
22.88243	114495
22.89055	113016
22.89867	116649
22.90680	127436
22.91492	140559
22.92303	138576
22.93117	148788
22.93928	162332
22.94742	174536
22.95553	180822
22.96365	167554
22.97178	156507
22.97990	140579
22.98803	122974
22.99615	110751
23.00427	104656
23.01240	95611
23.02052	89736
23.02865	79012
23.03677	75170
23.04488	71056
23.05302	74641
23.06113	69132
23.06925	64942
23.07738	66941
23.08550	68846
23.09363	67762
23.10175	62889
23.10987	62470
23.11800	60527
23.12612	58359
23.13425	60757
23.14237	57929
23.15048	60919
23.15862	57781
23.16673	57382
23.17485	58862
23.18298	56482
23.19110	56863
23.19923	54652
23.20735	52632
23.21547	52946
23.22360	62875
23.23172	53545
23.23985	54751
23.24797	68088
23.25608	83319
23.26422	109658
23.27233	132520
23.28047	139975
23.28858	152917
23.29670	147297
23.30483	137098
23.31295	132906
23.32107	125920
23.32920	131409
23.33732	129905
23.34545	134317
23.35357	147692
23.36168	157998
23.36982	196797
23.37793	230122
23.38607	273072
23.39418	329240
23.40230	410793
23.41043	467564
23.41855	545688
23.42668	596025
23.43480	611613
23.44292	621867
23.45105	617472
23.45917	590692
23.46728	571257
23.47542	557837
23.48353	514564
23.49167	495217
23.49978	456616
23.50790	411008
23.51603	400117
23.52415	365800
23.53228	352317
23.54040	321940
23.54852	307467
23.55665	301479
23.56477	276362
23.57288	278007
23.58102	289577
23.58913	282138
23.59727	285494
23.60538	293287
23.61350	300469
23.62163	301602
23.62975	295324
23.63788	289497
23.64600	300891
23.65412	333437
23.66225	423369
23.67037	552209
23.67850	665070
23.68662	715600
23.69473	711809
23.70287	617564
23.71098	492437
23.71910	384279
23.72723	308704
23.73535	262504
23.74348	227963
23.75160	211432
23.75972	230198
23.76785	328222
23.77597	604227
23.78410	1214219
23.79222	2274517
23.80033	3515626
23.80847	4496650
23.81658	4857270
23.82470	4375233
23.83283	3419731
23.84095	2577977
23.84908	1807023
23.85720	1329624
23.86532	1054294
23.87345	854314
23.88157	679706
23.88970	596185
23.89782	536205
23.90593	484663
23.91407	450044
23.92218	419588
23.93032	396057
23.93843	375172
23.94655	362974
23.95468	338944
23.96280	313398
23.97092	297339
23.97905	280487
23.98717	279229
23.99530	265118
24.00342	249342
24.01153	243020
24.01967	229627
24.02778	239451
24.03592	234450
24.04403	240991
24.05215	247397
24.06028	247027
24.06840	239506
24.07653	237616
24.08465	224323
24.09277	215816
24.10090	202271
24.10902	190226
24.11713	182975
24.12527	182014
24.13338	182295
24.14152	184137
24.14963	187812
24.15775	193034
24.16588	188936
24.17400	198227
24.18213	193821
24.19025	187614
24.19837	184762
24.20650	180602
24.21462	175447
24.22273	178092
24.23087	182955
24.23898	181190
24.24712	181734
24.25523	166306
24.26335	161740
24.27148	155220
24.27960	156386
24.28773	146935
24.29585	135402
24.30397	138835
24.31210	137102
24.32022	135065
24.32835	136186
24.33647	140853
24.34458	141798
24.35272	133629
24.36083	124936
24.36895	123932
24.37708	119651
24.38520	128777
24.39333	125986
24.40145	140922
24.40957	160441
24.41770	187520
24.42582	197407
24.43395	197003
24.44207	183517
24.45018	160276
24.45832	127070
24.46643	113835
24.47457	107051
24.48268	112103
24.49080	114975
24.49893	132932
24.50705	127787
24.51517	140897
24.52330	148110
24.53142	171127
24.53955	207543
24.54767	251843
24.55578	292578
24.56392	313763
24.57203	312517
24.58017	292443
24.58828	254889
24.59640	229860
24.60453	193985
24.61265	170295
24.62077	145660
24.62890	133973
24.63702	122678
24.64515	119154
24.65327	113858
24.66138	108085
24.66952	110726
24.67763	104096
24.68577	104714
24.69388	93840
24.70200	98822
24.71013	96060
24.71825	88497
24.72638	88680
24.73450	82195
24.74262	86654
24.75075	88446
24.75887	81812
24.76698	84628
24.77512	82480
24.78323	88114
24.79137	87215
24.79948	84638
24.80760	83270
24.81573	91165
24.82385	81852
24.83198	85172
24.84010	87380
24.84822	95838
24.85635	105795
24.86447	127054
24.87258	154750
24.88072	200238
24.88883	265248
24.89697	347309
24.90508	416064
24.91320	442013
24.92133	433422
24.92945	372452
24.93758	328875
24.94570	285827
24.95382	250568
24.96195	230686
24.97007	225021
24.97820	230516
24.98632	231835
24.99443	228656
25.00257	234151
25.01068	233137
25.01880	242330
25.02693	235356
25.03505	242177
25.04318	242082
25.05130	239054
25.05942	233562
25.06755	244330
25.07567	249434
25.08380	245699
25.09192	244271
25.10003	240643
25.10817	258545
25.11628	295662
25.12442	389549
25.13253	625370
25.14065	1036324
25.14878	1592666
25.15690	2183010
25.16502	2499431
25.17315	2455124
25.18127	2083466
25.18940	1553371
25.19752	1047015
25.20563	702208
25.21377	481636
25.22188	371967
25.23002	316910
25.23813	287167
25.24625	277093
25.25438	276264
25.26250	287051
25.27063	300924
25.27875	312083
25.28687	330430
25.29500	315388
25.30312	319241
25.31123	293397
25.31937	259380
25.32748	244726
25.33562	228907
25.34373	217168
25.35185	208739
25.35998	204455
25.36810	193254
25.37623	189192
25.38435	188984
25.39247	179771
25.40060	181061
25.40872	181082
25.41683	177671
25.42497	184986
25.43308	174680
25.44122	172810
25.44933	172929
25.45745	162468
25.46558	170801
25.47370	170325
25.48183	166391
25.48995	160073
25.49807	166241
25.50620	167059
25.51432	158523
25.52245	151174
25.53057	133447
25.53868	112541
25.54682	102312
25.55493	98470
25.56305	84522
25.57118	90915
25.57930	87573
25.58743	87645
25.59555	82404
25.60367	82904
25.61180	79966
25.61992	87553
25.62805	77493
25.63617	84082
25.64428	77385
25.65242	79408
25.66053	80602
25.66865	85098
25.67678	85874
25.68490	84919
25.69303	85558
25.70115	82754
25.70927	77790
25.71740	73049
25.72552	77667
25.73365	80063
25.74177	77071
25.74988	74708
25.75802	74387
25.76613	79429
25.77427	74007
25.78238	69186
25.79050	74184
25.79863	69921
25.80675	70431
25.81487	71570
25.82300	71838
25.83112	70996
25.83925	76010
25.84737	81367
25.85548	82645
25.86362	75576
25.87173	78700
25.87987	76197
25.88798	69936
25.89610	72478
25.90423	75178
25.91235	90979
25.92048	120191
25.92860	167931
25.93672	210569
25.94485	233502
25.95297	241247
25.96108	247036
25.96922	257019
25.97733	258991
25.98547	266628
25.99358	262665
26.00170	266402
26.00983	262942
26.01795	260673
26.02608	264682
26.03420	271243
26.04232	262232
26.05045	258052
26.05857	256834
26.06668	261786
26.07482	265998
26.08293	263215
26.09107	250090
26.09918	267011
26.10730	262062
26.11543	261958
26.12355	253924
26.13168	267308
26.13980	265101
26.14792	260171
26.15605	263045
26.16417	260912
26.17230	274239
26.18042	265844
26.18853	257154
26.19667	257495
26.20478	260539
26.21290	248319
26.22103	246809
26.22915	247818
26.23728	235816
26.24540	239054
26.25352	230892
26.26165	224560
26.26977	221176
26.27790	222185
26.28602	223685
26.29413	211897
26.30227	220760
26.31038	212243
26.31852	212493
26.32663	213959
26.33475	206991
26.34288	200791
26.35100	205357
26.35912	200193
26.36725	202835
26.37537	205456
26.38350	209529
26.39162	221814
26.39973	234768
26.40787	244109
26.41598	242009
26.42412	247702
26.43223	235240
26.44035	234668
26.44848	222787
26.45660	206358
26.46472	195782
26.47285	191292
26.48097	186706
26.48910	181811
26.49722	176091
26.50533	183990
26.51347	176515
26.52158	175450
26.52972	163955
26.53783	167293
26.54595	164113
26.55408	161446
26.56220	162105
26.57033	161756
26.57845	153396
26.58657	154648
26.59470	160676
26.60282	160252
26.61093	153313
26.61907	156037
26.62718	152836
26.63532	143911
26.64343	156939
26.65155	144348
26.65968	146598
26.66780	146366
26.67593	153446
26.68405	151831
26.69217	157857
26.70030	151943
26.70842	147251
26.71653	152670
26.72467	141402
26.73278	137113
26.74092	135697
26.74903	133490
26.75715	133034
26.76528	136023
26.77340	140086
26.78153	130039
26.78965	132294
26.79777	136295
26.80590	135616
26.81402	139970
26.82215	133037
26.83027	139169
26.83838	144451
26.84652	135391
26.85463	137766
26.86275	132120
26.87088	130721
26.87900	124075
26.88713	128171
26.89525	124251
26.90337	116650
26.91150	126715
26.91962	123366
26.92775	123609
26.93587	122235
26.94398	120795
26.95212	119969
26.96023	121452
26.96837	122763
26.97648	134603
26.98460	166094
26.99273	247554
27.00085	414485
27.00897	707285
27.01710	1159265
27.02522	1737121
27.03335	2208602
27.04147	2357779
27.04958	2195891
27.05772	1859742
27.06583	1474532
27.07397	1153093
27.08208	842906
27.09020	664088
27.09833	535066
27.10645	445069
27.11457	383540
27.12270	337495
27.13082	319106
27.13895	301692
27.14707	281184
27.15518	251028
27.16332	238113
27.17143	251619
27.17957	240208
27.18768	234639
27.19580	237313
27.20393	239463
27.21205	231446
27.22018	213012
27.22830	203355
27.23642	193233
27.24455	178433
27.25267	176063
27.26078	161136
27.26892	157196
27.27703	154494
27.28517	150280
27.29328	153302
27.30140	139245
27.30953	137130
27.31765	132430
27.32578	129478
27.33390	135648
27.34202	130697
27.35015	131212
27.35827	129099
27.36640	120293
27.37452	128306
27.38263	128448
27.39077	128151
27.39888	121572
27.40700	116564
27.41513	114862
27.42325	115891
27.43138	116214
27.43950	104164
27.44762	114650
27.45575	108385
27.46387	103364
27.47200	108890
27.48012	105973
27.48823	100937
27.49637	100912
27.50448	105938
27.51260	106437
27.52073	95675
27.52885	107209
27.53698	99880
27.54510	100499
27.55322	101600
27.56135	103399
27.56947	99713
27.57760	98894
27.58572	102766
27.59383	105016
27.60197	108790
27.61008	113305
27.61822	116911
27.62633	120745
27.63445	114949
27.64258	105026
27.65070	98016
27.65882	89569
27.66695	95707
27.67507	86333
27.68320	91018
27.69132	87327
27.69943	80628
27.70757	83882
27.71568	90558
27.72382	81719
27.73193	82798
27.74005	81025
27.74818	77235
27.75630	82163
27.76442	81444
27.77255	78865
27.78067	77115
27.78880	90182
27.79692	84711
27.80503	83318
27.81317	85851
27.82128	89391
27.82942	79669
27.83753	85714
27.84565	84209
27.85378	82624
27.86190	83074
27.87003	87978
27.87815	79857
27.88627	74967
27.89440	81723
27.90252	79064
27.91063	74153
27.91877	72249
27.92688	74793
27.93502	76161
27.94313	74088
27.95125	70098
27.95938	68967
27.96750	68708
27.97563	73206
27.98375	69262
27.99187	69704
28.00000	70020
28.00812	71981
28.01625	72238
28.02437	68469
28.03248	76910
28.04062	73125
28.04873	80525
28.05685	80896
28.06498	86166
28.07310	85089
28.08123	79474
28.08935	81289
28.09747	81918
28.10560	85481
28.11372	76657
28.12185	81605
28.12997	80776
28.13808	69612
28.14622	65104
28.15433	63469
28.16245	64935
28.17058	64280
28.17870	65077
28.18683	69011
28.19495	70643
28.20307	71840
28.21120	84594
28.21932	92445
28.22745	97022
28.23557	99269
28.24368	101326
28.25182	103190
28.25993	96461
28.26807	88082
28.27618	84185
28.28430	70979
28.29243	72194
28.30055	76230
28.30867	75388
28.31680	78739
28.32492	93026
28.33305	115907
28.34117	146017
28.34928	167495
28.35742	207597
28.36553	251714
28.37367	283375
28.38178	312895
28.38990	334585
28.39803	340120
28.40615	316800
28.41428	307724
28.42240	273871
28.43052	252050
28.43865	230827
28.44677	206905
28.45488	184932
28.46302	170367
28.47113	149126
28.47927	146366
28.48738	131430
28.49550	128328
28.50363	127252
28.51175	121208
28.51988	125059
28.52800	112737
28.53612	114733
28.54425	106183
28.55237	101132
28.56048	100347
28.56862	98349
28.57673	95340
28.58487	89273
28.59298	90314
28.60110	86349
28.60923	87661
28.61735	88896
28.62548	83278
28.63360	84800
28.64172	89142
28.64985	89094
28.65797	93317
28.66610	93020
28.67422	91212
28.68233	97323
28.69047	85609
28.69858	90560
28.70670	83709
28.71483	82437
28.72295	76138
28.73108	74771
28.73920	81663
28.74732	75176
28.75545	74316
28.76357	76636
28.77170	78286
28.77982	95947
28.78793	97835
28.79607	114511
28.80418	122882
28.81232	109989
28.82043	106414
28.82855	93398
28.83668	84808
28.84480	81704
28.85292	75764
28.86105	74393
28.86917	76280
28.87730	74936
28.88542	76081
28.89353	75838
28.90167	75075
28.90978	82998
28.91792	82200
28.92603	79159
28.93415	84697
28.94228	77226
28.95040	72202
28.95852	82516
28.96665	82218
28.97477	83140
28.98290	76414
28.99102	84294
28.99913	77245
29.00727	73802
29.01538	72633
29.02352	68412
29.03163	66335
29.03975	70703
29.04788	66898
29.05600	64462
29.06413	70020
29.07225	72835
29.08037	70469
29.08850	70750
29.09662	75171
29.10473	71715
29.11287	71813
29.12098	73616
29.12912	67533
29.13723	68652
29.14535	76846
29.15348	68943
29.16160	68315
29.16973	66911
29.17785	70950
29.18597	69524
29.19410	75486
29.20222	71384
29.21033	87559
29.21847	91962
29.22658	99359
29.23472	110824
29.24283	99070
29.25095	93227
29.25908	92758
29.26720	86985
29.27533	77789
29.28345	73286
29.29157	74914
29.29970	69424
29.30782	67380
29.31595	68377
29.32407	64445
29.33218	64976
29.34032	66637
29.34843	63934
29.35655	64168
29.36468	59434
29.37280	59772
29.38093	63061
29.38905	62952
29.39717	61393
29.40530	60096
29.41342	64017
29.42155	60489
29.42967	61722
29.43778	58814
29.44592	64400
29.45403	61100
29.46217	59695
29.47028	59127
29.47840	56571
29.48653	57641
29.49465	64270
29.50277	61909
29.51090	68018
29.51902	77258
29.52715	64056
29.53527	73267
29.54338	64641
29.55152	62497
29.55963	62717
29.56777	69307
29.57588	55780
29.58400	55806
29.59213	56864
29.60025	54248
29.60837	56240
29.61650	57109
29.62462	52608
29.63275	59288
29.64087	55888
29.64898	56087
29.65712	55570
29.66523	55748
29.67337	58010
29.68148	53236
29.68960	58235
29.69773	62900
29.70585	65489
29.71398	60377
29.72210	62755
29.73022	61491
29.73835	54795
29.74647	56189
29.75458	55641
29.76272	58864
29.77083	53727
29.77897	51719
29.78708	51728
29.79520	56608
29.80333	55561
29.81145	53418
29.81958	52953
29.82770	48555
29.83582	53077
29.84395	53023
29.85207	51298
29.86020	53387
29.86832	52952
29.87643	58910
29.88457	72261
29.89268	84468
29.90080	111622
29.90893	134607
29.91705	155247
29.92518	153081
29.93330	132307
29.94142	114121
29.94955	93516
29.95767	78019
29.96580	76802
29.97392	70275
29.98203	81679
29.99017	88424
29.99828	99750
30.00640	117651
30.01453	132814
30.02265	137409
30.03078	145470
30.03890	149894
30.04702	152028
30.05515	160082
30.06327	157450
30.07140	159390
30.07952	151483
30.08763	139241
30.09577	137347
30.10388	126831
30.11202	126050
30.12013	114934
30.12825	116084
30.13638	105344
30.14450	100772
30.15262	103196
30.16075	96217
30.16887	92867
30.17700	90916
30.18512	87988
30.19323	79886
30.20137	81007
30.20948	84216
30.21762	77766
30.22573	77922
30.23385	81106
30.24198	77586
30.25010	74239
30.25822	73078
30.26635	72649
30.27447	69419
30.28260	61118
30.29072	70017
30.29883	60633
30.30697	67993
30.31508	65389
30.32322	61887
30.33133	65616
30.33945	65433
30.34758	65949
30.35570	64704
30.36383	68675
30.37195	62431
30.38007	61138
30.38820	67575
30.39632	66730
30.40443	62424
30.41257	65766
30.42068	64970
30.42882	62704
30.43693	62965
30.44505	60819
30.45318	59957
30.46130	58771
30.46943	56344
30.47755	57981
30.48567	57627
30.49380	63091
30.50192	58330
30.51005	55147
30.51817	55641
30.52628	57657
30.53442	52900
30.54253	59139
30.55065	57650
30.55878	53876
30.56690	53419
30.57503	60673
30.58315	53740
30.59127	53823
30.59940	51464
30.60752	53439
30.61565	55327
30.62377	56629
30.63188	50584
30.64002	53192
30.64813	50231
30.65627	57072
30.66438	53562
30.67250	56094
30.68063	53298
30.68875	57554
30.69687	56800
30.70500	59887
30.71312	55637
30.72125	59058
30.72937	56539
30.73748	58549
30.74562	57064
30.75373	59280
30.76187	57629
30.76998	59808
30.77810	62389
30.78623	60377
30.79435	66172
30.80247	73142
30.81060	82563
30.81872	96498
30.82685	95945
30.83497	103100
30.84308	90036
30.85122	77630
30.85933	73477
30.86747	70618
30.87558	65701
30.88370	65269
30.89183	62685
30.89995	58459
30.90808	64154
30.91620	59006
30.92432	59322
30.93245	65126
30.94057	59276
30.94868	61088
30.95682	55271
30.96493	65481
30.97307	60340
30.98118	62258
30.98930	60623
30.99743	61130
31.00555	61986
31.01368	57665
31.02180	59241
31.02992	64740
31.03805	64183
31.04617	77316
31.05428	70075
31.06242	69939
31.07053	67153
31.07867	73088
31.08678	72039
31.09490	89065
31.10303	113472
31.11115	152451
31.11928	183241
31.12740	196542
31.13552	189221
31.14365	160990
31.15177	128033
31.15990	102074
31.16802	84545
31.17613	70418
31.18427	73291
31.19238	80455
31.20050	85789
31.20863	98360
31.21675	115662
31.22488	139507
31.23300	157489
31.24112	159994
31.24925	158261
31.25737	137455
31.26550	111162
31.27362	92692
31.28173	69855
31.28987	67290
31.29798	65744
31.30612	57904
31.31423	60351
31.32235	60374
31.33048	56285
31.33860	58406
31.34672	52739
31.35485	62777
31.36297	63291
31.37110	59554
31.37922	63395
31.38733	66940
31.39547	72425
31.40358	76120
31.41172	80068
31.41983	74534
31.42795	65862
31.43608	68688
31.44420	60364
31.45232	60717
31.46045	57029
31.46857	53816
31.47670	54145
31.48482	60820
31.49293	57959
31.50107	54461
31.50918	54924
31.51732	58904
31.52543	58338
31.53355	54436
31.54168	58048
31.54980	55012
31.55793	57073
31.56605	51771
31.57417	53004
31.58230	56242
31.59042	58300
31.59853	61715
31.60667	60728
31.61478	66911
31.62292	66944
31.63103	62025
31.63915	68370
31.64728	71082
31.65540	73124
31.66353	75369
31.67165	77489
31.67977	74524
31.68790	77612
31.69602	80267
31.70415	77864
31.71227	78510
31.72038	79833
31.72852	75394
31.73663	73431
31.74475	74527
31.75288	76429
31.76100	71106
31.76913	75053
31.77725	73549
31.78537	70463
31.79350	76816
31.80162	76044
31.80975	80495
31.81787	78774
31.82598	75346
31.83412	79007
31.84223	81170
31.85035	79435
31.85848	75205
31.86660	77960
31.87473	79616
31.88285	81783
31.89097	87830
31.89910	82160
31.90722	86626
31.91535	87672
31.92347	101131
31.93158	103802
31.93972	112324
31.94783	114292
31.95597	120604
31.96408	120950
31.97220	132035
31.98033	135696
31.98845	136002
31.99657	134293
32.00470	143121
32.01282	136798
32.02095	133537
32.02907	124449
32.03718	129259
32.04532	118972
32.05343	109777
32.06157	107345
32.06968	107163
32.07780	103389
32.08593	99964
32.09405	95938
32.10217	99864
32.11030	91329
32.11842	93778
32.12655	85472
32.13467	82641
32.14278	81243
32.15092	73026
32.15903	78108
32.16717	73327
32.17528	74852
32.18340	75021
32.19153	74897
32.19965	71660
32.20778	73886
32.21590	68656
32.22402	67000
32.23215	66825
32.24027	67602
32.24838	68698
32.25652	70339
32.26463	66199
32.27277	73442
32.28088	68905
32.28900	73331
32.29713	69284
32.30525	69202
32.31338	64380
32.32150	63044
32.32962	61907
32.33775	62716
32.34587	63662
32.35400	66220
32.36212	62821
32.37023	65844
32.37837	68311
32.38648	67913
32.39460	64666
32.40273	68430
32.41085	68558
32.41898	61935
32.42710	57563
32.43522	61452
32.44335	60371
32.45147	62578
32.45960	63255
32.46772	59675
32.47583	57872
32.48397	60055
32.49208	58713
32.50020	56918
32.50833	55555
32.51645	54509
32.52458	56498
32.53270	59052
32.54082	54500
32.54895	58038
32.55707	59139
32.56520	57046
32.57332	63966
32.58143	56654
32.58957	59597
32.59768	58994
32.60582	53491
32.61393	56176
32.62205	57533
32.63018	60538
32.63830	52615
32.64642	57065
32.65455	57847
32.66267	60046
32.67080	64641
32.67892	76658
32.68703	81584
32.69517	81939
32.70328	88268
32.71142	75088
32.71953	68269
32.72765	69907
32.73578	60270
32.74390	65021
32.75203	59038
32.76015	54772
32.76827	55120
32.77640	56550
32.78452	56071
32.79263	57241
32.80077	54116
32.80888	53468
32.81702	53749
32.82513	53549
32.83325	53123
32.84138	52136
32.84950	54682
32.85763	50516
32.86575	51123
32.87387	55152
32.88200	53382
32.89012	52066
32.89823	55206
32.90637	52187
32.91448	54302
32.92262	52584
32.93073	60094
32.93885	53121
32.94698	52663
32.95510	53671
32.96323	48708
32.97135	51519
32.97947	61171
32.98760	57895
32.99572	61074
33.00385	64123
33.01197	72682
33.02008	76009
33.02822	71961
33.03633	69201
33.04445	62971
33.05258	69898
33.06070	60614
33.06883	62391
33.07695	64465
33.08507	66841
33.09320	74230
33.10132	77092
33.10945	83209
33.11757	89767
33.12568	106502
33.13382	109364
33.14193	105694
33.15005	96424
33.15818	87903
33.16630	76215
33.17443	62724
33.18255	61884
33.19067	67783
33.19880	61299
33.20692	55918
33.21505	58587
33.22317	57242
33.23128	58783
33.23942	66443
33.24753	57812
33.25567	56642
33.26378	59470
33.27190	57551
33.28003	59272
33.28815	55099
33.29627	54209
33.30440	58386
33.31252	54901
33.32065	56239
33.32877	55674
33.33688	55840
33.34502	56167
33.35313	52790
33.36127	55706
33.36938	55530
33.37750	57178
33.38563	54942
33.39375	52048
33.40188	53822
33.41000	54064
33.41812	55517
33.42625	53435
33.43437	49277
33.44248	50394
33.45062	53668
33.45873	49758
33.46687	47344
33.47498	53664
33.48310	60205
33.49123	51954
33.49935	54586
33.50748	48902
33.51560	51931
33.52372	56272
33.53185	54662
33.53997	53070
33.54808	57124
33.55622	60500
33.56433	61464
33.57247	63843
33.58058	65632
33.58870	55402
33.59683	56925
33.60495	58446
33.61308	55605
33.62120	50940
33.62932	50023
33.63745	51893
33.64557	51432
33.65370	52333
33.66182	58909
33.66993	58293
33.67807	56427
33.68618	55386
33.69430	53022
33.70243	55582
33.71055	52606
33.71868	55430
33.72680	53905
33.73492	52653
33.74305	52682
33.75117	56065
33.75930	52381
33.76742	47458
33.77553	51922
33.78367	50184
33.79178	52248
33.79992	51275
33.80803	50415
33.81615	54526
33.82428	51203
33.83240	46592
33.84052	53557
33.84865	53586
33.85677	52938
33.86490	52023
33.87302	54855
33.88113	54730
33.88927	56938
33.89738	58547
33.90552	57530
33.91363	57367
33.92175	57397
33.92988	53925
33.93800	55500
33.94612	53625
33.95425	53472
33.96237	51031
33.97050	59376
33.97862	54191
33.98673	51284
33.99487	50238
34.00298	52219
34.01112	52963
34.01923	52298
34.02735	45423
34.03548	48898
34.04360	50505
34.05173	50057
34.05985	53730
34.06797	53367
34.07610	58593
34.08422	53399
34.09233	49084
34.10047	54592
34.10858	52550
34.11672	50305
34.12483	52647
34.13295	54255
34.14108	50255
34.14920	50362
34.15733	52226
34.16545	52673
34.17357	54192
34.18170	52069
34.18982	53116
34.19795	52260
34.20607	51227
34.21418	52011
34.22232	47262
34.23043	49168
34.23855	53234
34.24668	57506
34.25480	51641
34.26293	53600
34.27105	48880
34.27917	51966
34.28730	48558
34.29542	53284
34.30355	56261
34.31167	53413
34.31978	51975
34.32792	54594
34.33603	54754
34.34415	53093
34.35228	53392
34.36040	51620
34.36853	49655
34.37665	56510
34.38477	53559
34.39290	49238
34.40102	52296
34.40915	49714
34.41727	52359
34.42538	52409
34.43352	52389
34.44163	53992
34.44977	50009
34.45788	53012
34.46600	51144
34.47413	52652
34.48225	51319
34.49037	54341
34.49850	49885
34.50662	52469
34.51475	53326
34.52287	56186
34.53098	54601
34.53912	65733
34.54723	70068
34.55537	79224
34.56348	85637
34.57160	95780
34.57973	98006
34.58785	93577
34.59597	92673
34.60410	85198
34.61222	81917
34.62035	79560
34.62847	72140
34.63658	70176
34.64472	66229
34.65283	66230
34.66097	66138
34.66908	65195
34.67720	62600
34.68533	62444
34.69345	63376
34.70158	58158
34.70970	66891
34.71782	60296
34.72595	64965
34.73407	57836
34.74218	58667
34.75032	56303
34.75843	61262
34.76657	53706
34.77468	58017
34.78280	61097
34.79093	59125
34.79905	62047
34.80718	57473
34.81530	56010
34.82342	55929
34.83155	60572
34.83967	60456
34.84780	60564
34.85592	60269
34.86403	61169
34.87217	56504
34.88028	55970
34.88840	61088
34.89653	55553
34.90465	52664
34.91278	57304
34.92090	58280
34.92902	62469
34.93715	59507
34.94527	66910
34.95340	73870
34.96152	102906
34.96963	148163
34.97777	205214
34.98588	269193
34.99400	311027
35.00213	300248
35.01025	254321
35.01838	176606
35.02650	129208
35.03462	92387
35.04275	81317
35.05087	68711
35.05900	69292
35.06712	64820
35.07523	65301
35.08337	59870
35.09148	65333
35.09962	62240
35.10773	61197
35.11585	58551
35.12398	60545
35.13210	59580
35.14022	67467
35.14835	60141
35.15647	63252
35.16460	63126
35.17272	67557
35.18083	65588
35.18897	62685
35.19708	65651
35.20522	65186
35.21333	62561
35.22145	55918
35.22958	53896
35.23770	61811
35.24583	57505
35.25395	56432
35.26207	60661
35.27020	62414
35.27832	62177
35.28643	62131
35.29457	61864
35.30268	62838
35.31082	57382
35.31893	54119
35.32705	54854
35.33518	58460
35.34330	58018
35.35143	62330
35.35955	54682
35.36767	54631
35.37580	52102
35.38392	50023
35.39203	54317
35.40017	50808
35.40828	59912
35.41642	59934
35.42453	60434
35.43265	54953
35.44078	61448
35.44890	60973
35.45703	63809
35.46515	60133
35.47327	59232
35.48140	59559
35.48952	62604
35.49765	63988
35.50577	65657
35.51388	58388
35.52202	59360
35.53013	55256
35.53825	60132
35.54638	57167
35.55450	62339
35.56263	56686
35.57075	61061
35.57887	55387
35.58700	60984
35.59512	64321
35.60325	56869
35.61137	62405
35.61948	59817
35.62762	60182
35.63573	58696
35.64385	58473
35.65198	59945
35.66010	60090
35.66823	53419
35.67635	57541
35.68447	65109
35.69260	66970
35.70072	60305
35.70885	64108
35.71697	63398
35.72508	63375
35.73322	63693
35.74133	61512
35.74947	55983
35.75758	64420
35.76570	68296
35.77383	66068
35.78195	65197
35.79007	67192
35.79820	70270
35.80632	67817
35.81445	64506
35.82257	67582
35.83068	61744
35.83882	59314
35.84693	58674
35.85507	61764
35.86318	62173
35.87130	62932
35.87943	59043
35.88755	57975
35.89568	57903
35.90380	53856
35.91192	55711
35.92005	63750
35.92817	54835
35.93628	59312
35.94442	55775
35.95253	63023
35.96067	57047
35.96878	52768
35.97690	59661
35.98503	60197
35.99315	58379
36.00128	56727
36.00940	59756
36.01752	60391
36.02565	57467
36.03377	57410
36.04190	65173
36.05002	67989
36.05813	60825
36.06627	62877
36.07438	59606
36.08250	62360
36.09063	59197
36.09875	60697
36.10688	60620
36.11500	61318
36.12312	60390
36.13125	60718
36.13937	61493
36.14750	57351
36.15562	59213
36.16373	70184
36.17187	68043
36.17998	58716
36.18810	58440
36.19623	57465
36.20435	62533
36.21248	59976
36.22060	60915
36.22872	58255
36.23685	56087
36.24497	53417
36.25310	63991
36.26122	55094
36.26933	57184
36.27747	59540
36.28558	63131
36.29372	61575
36.30183	61381
36.30995	67731
36.31808	70373
36.32620	72151
36.33432	84406
36.34245	79634
36.35057	80545
36.35870	76972
36.36682	66168
36.37493	71760
36.38307	70118
36.39118	66230
36.39932	66008
36.40743	66414
36.41555	67155
36.42368	65521
36.43180	65440
36.43992	60876
36.44805	58616
36.45617	59646
36.46430	62382
36.47242	62168
36.48053	59283
36.48867	63131
36.49678	59307
36.50492	58829
36.51303	60611
36.52115	59348
36.52928	55788
36.53740	59246
36.54553	58780
36.55365	56073
36.56177	56143
36.56990	64574
36.57802	60175
36.58613	58320
36.59427	55858
36.60238	64494
36.61052	59019
36.61863	58847
36.62675	60541
36.63488	61436
36.64300	56661
36.65113	68523
36.65925	57172
36.66737	61113
36.67550	61703
36.68362	64114
36.69175	64074
36.69987	63906
36.70798	66497
36.71612	62118
36.72423	59913
36.73235	59719
36.74048	61433
36.74860	60751
36.75673	66204
36.76485	65688
36.77297	64064
36.78110	58771
36.78922	63606
36.79735	59520
36.80547	60222
36.81358	61384
36.82172	58640
36.82983	58112
36.83795	55033
36.84608	57734
36.85420	58217
36.86233	59532
36.87045	66071
36.87857	62517
36.88670	66587
36.89482	59431
36.90295	59019
36.91107	62086
36.91918	61938
36.92732	60359
36.93543	63006
36.94357	71185
36.95168	62969
36.95980	65278
36.96793	71183
36.97605	72538
36.98417	77841
36.99230	76348
37.00042	71771
37.00855	68505
37.01667	67934
37.02478	64900
37.03292	65758
37.04103	69125
37.04917	70544
37.05728	70020
37.06540	77287
37.07353	73305
37.08165	76228
37.08978	77779
37.09790	78876
37.10602	80682
37.11415	81427
37.12227	82364
37.13038	81120
37.13852	79278
37.14663	83082
37.15477	79196
37.16288	79295
37.17100	82926
37.17913	78906
37.18725	78471
37.19538	80033
37.20350	89106
37.21162	80305
37.21975	83263
37.22787	82759
37.23598	87010
37.24412	79677
37.25223	77816
37.26037	80591
37.26848	87914
37.27660	82786
37.28473	82031
37.29285	80827
37.30098	74171
37.30910	88016
37.31722	82093
37.32535	81350
37.33347	79751
37.34160	81143
37.34972	82940
37.35783	90240
37.36597	95853
37.37408	91586
37.38220	100857
37.39033	101137
37.39845	96067
37.40658	100339
37.41470	89648
37.42282	95838
37.43095	89670
37.43907	92260
37.44720	93914
37.45532	85840
37.46343	90703
37.47157	85248
37.47968	86369
37.48780	84151
