Z:\data\JTB-E02\BACandBLUE\JTB-E02-198-08.D Fri Feb 22 11:18:07 2019
Start of data points
2.09513,77810
2.10327,77303
2.11138,84835
2.11952,73761
2.12763,67880
2.13575,75163
2.14388,68358
2.15200,69087
2.16012,69815
2.16825,71001
2.17637,70204
2.18450,63803
2.19262,60867
2.20073,64492
2.20887,64898
2.21698,64134
2.22512,60545
2.23323,60344
2.24135,60897
2.24948,60723
2.25760,60590
2.26573,86897
2.27385,610532
2.28197,1810539
2.29010,2204111
2.29822,1317933
2.30633,796482
2.31447,575333
2.32258,506663
2.33072,502997
2.33883,410846
2.34695,379679
2.35508,307841
2.36320,271250
2.37133,252558
2.37945,221330
2.38757,248163
2.39570,250137
2.40382,217284
2.41193,215821
2.42007,212832
2.42818,223995
2.43632,212261
2.44443,187655
2.45255,181168
2.46068,175506
2.46880,161670
2.47693,147292
2.48505,141049
2.49317,139908
2.50130,135977
2.50942,130370
2.51755,136844
2.52567,128611
2.53378,128836
2.54192,132972
2.55003,133670
2.55815,135022
2.56628,137231
2.57440,129756
2.58253,113713
2.59065,106049
2.59877,104933
2.60690,106501
2.61502,119168
2.62315,124197
2.63127,123286
2.63938,118417
2.64752,109917
2.65563,112222
2.66377,109815
2.67188,110357
2.68000,105862
2.68813,106676
2.69625,104681
2.70437,104755
2.71250,105890
2.72062,98333
2.72875,97537
2.73687,96342
2.74498,99453
2.75312,94959
2.76123,94968
2.76937,87433
2.77748,88729
2.78560,87453
2.79373,89049
2.80185,91203
2.80997,95325
2.81810,100468
2.82622,95215
2.83435,94086
2.84247,94873
2.85058,90720
2.85872,90296
2.86683,88560
2.87497,93118
2.88308,88538
2.89120,92547
2.89933,92092
2.90745,86681
2.91558,89036
2.92370,85144
2.93182,85103
2.93995,81790
2.94807,84929
2.95618,83117
2.96432,84299
2.97243,85492
2.98057,87712
2.98868,85661
2.99680,83957
3.00493,85355
3.01305,92568
3.02118,93953
3.02930,85033
3.03742,83935
3.04555,86941
3.05367,84355
3.06178,81996
3.06992,83827
3.07803,78588
3.08617,83811
3.09428,86455
3.10240,86590
3.11053,87641
3.11865,99298
3.12678,109300
3.13490,109200
3.14302,99646
3.15115,96000
3.15927,88445
3.16740,82979
3.17552,80071
3.18363,85745
3.19177,84060
3.19988,82528
3.20800,79827
3.21613,80784
3.22425,79010
3.23238,76146
3.24050,76275
3.24862,78232
3.25675,78087
3.26487,76787
3.27300,71568
3.28112,76430
3.28923,81638
3.29737,145014
3.30548,554916
3.31362,1992082
3.32173,4571783
3.32985,6592658
3.33798,6287284
3.34610,4992802
3.35422,3748570
3.36235,2875770
3.37047,2315740
3.37860,1947941
3.38672,1661414
3.39483,1452730
3.40297,1273808
3.41108,1133023
3.41922,1030321
3.42733,970654
3.43545,857726
3.44358,799962
3.45170,742437
3.45983,705089
3.46795,657620
3.47607,612847
3.48420,591039
3.49232,557752
3.50043,536330
3.50857,489426
3.51668,466141
3.52482,428339
3.53293,397444
3.54105,375831
3.54918,356312
3.55730,333707
3.56543,322321
3.57355,316068
3.58167,310239
3.58980,322629
3.59792,313438
3.60603,318438
3.61417,313644
3.62228,320082
3.63042,327750
3.63853,329838
3.64665,320206
3.65478,311566
3.66290,303757
3.67103,293189
3.67915,282179
3.68727,275291
3.69540,269062
3.70352,265383
3.71165,251756
3.71977,247459
3.72788,241229
3.73602,236881
3.74413,228877
3.75225,231708
3.76038,216240
3.76850,222507
3.77663,225367
3.78475,218912
3.79287,227871
3.80100,233960
3.80912,237929
3.81725,225771
3.82537,215569
3.83348,220247
3.84162,223515
3.84973,215268
3.85785,206317
3.86598,208865
3.87410,194606
3.88223,199606
3.89035,192407
3.89847,201116
3.90660,191636
3.91472,190089
3.92285,187175
3.93097,198176
3.93908,187371
3.94722,186470
3.95533,184747
3.96347,180486
3.97158,180506
3.97970,180156
3.98783,183665
3.99595,176057
4.00407,172086
4.01220,170969
4.02032,180283
4.02845,177663
4.03657,172357
4.04468,173396
4.05282,177303
4.06093,173178
4.06907,176048
4.07718,176673
4.08530,163271
4.09343,168050
4.10155,163984
4.10968,166759
4.11780,160641
4.12592,160193
4.13405,166249
4.14217,160055
4.15028,165055
4.15842,176133
4.16653,190225
4.17467,188001
4.18278,184378
4.19090,166387
4.19903,158096
4.20715,152049
4.21528,150611
4.22340,157823
4.23152,160173
4.23965,178883
4.24777,190264
4.25588,190319
4.26402,177689
4.27213,166610
4.28027,161842
4.28838,151229
4.29650,152591
4.30463,152084
4.31275,142040
4.32088,146068
4.32900,148014
4.33712,152729
4.34525,150015
4.35337,151982
4.36150,148300
4.36962,145711
4.37773,148096
4.38587,146648
4.39398,142927
4.40210,143662
4.41023,144798
4.41835,142907
4.42648,139429
4.43460,138095
4.44272,140024
4.45085,141158
4.45897,141076
4.46710,134906
4.47522,140401
4.48333,135166
4.49147,129971
4.49958,134770
4.50772,135630
4.51583,143295
4.52395,141140
4.53208,135171
4.54020,135081
4.54832,136498
4.55645,134257
4.56457,133509
4.57270,128864
4.58082,133406
4.58893,126041
4.59707,131634
4.60518,130754
4.61332,132663
4.62143,120025
4.62955,131034
4.63768,131813
4.64580,131240
4.65392,131815
4.66205,127431
4.67017,134355
4.67830,131084
4.68642,123558
4.69453,130706
4.70267,129216
4.71078,123642
4.71892,119056
4.72703,123449
4.73515,122906
4.74328,120301
4.75140,127323
4.75953,120529
4.76765,120541
4.77577,123658
4.78390,118344
4.79202,122332
4.80013,125123
4.80827,117193
4.81638,120119
4.82452,119196
4.83263,120262
4.84075,118172
4.84888,121518
4.85700,118884
4.86513,116865
4.87325,123108
4.88137,117862
4.88950,121669
4.89762,123070
4.90573,124014
4.91387,118767
4.92198,118724
4.93012,117990
4.93823,119997
4.94635,126170
4.95448,164973
4.96260,305829
4.97073,733174
4.97885,1524911
4.98697,2350472
4.99510,2734729
5.00322,2577602
5.01135,2064019
5.01947,1599112
5.02758,1229509
5.03572,1009294
5.04383,851454
5.05195,749053
5.06008,659043
5.06820,605809
5.07633,537148
5.08445,499770
5.09257,449056
5.10070,414350
5.10882,378075
5.11695,343609
5.12507,325310
5.13318,310981
5.14132,314990
5.14943,309614
5.15757,319969
5.16568,314073
5.17380,308482
5.18193,317084
5.19005,313930
5.19817,301060
5.20630,303593
5.21442,301790
5.22255,284830
5.23067,282330
5.23878,261580
5.24692,263710
5.25503,263106
5.26317,264151
5.27128,254430
5.27940,247035
5.28753,243123
5.29565,246496
5.30377,230897
5.31190,227888
5.32002,213926
5.32815,215587
5.33627,214203
5.34438,215838
5.35252,218077
5.36063,206311
5.36877,201849
5.37688,201270
5.38500,214934
5.39313,199390
5.40125,203167
5.40938,207339
5.41750,205363
5.42562,193281
5.43375,197559
5.44187,190068
5.44998,188950
5.45812,182819
5.46623,188307
5.47437,184842
5.48248,181748
5.49060,180068
5.49873,185076
5.50685,184779
5.51498,188158
5.52310,183638
5.53122,179381
5.53935,175670
5.54747,167886
5.55560,171665
5.56372,173776
5.57183,171586
5.57997,169752
5.58808,173396
5.59620,166912
5.60433,171985
5.61245,177365
5.62058,179177
5.62870,177865
5.63682,181265
5.64495,192288
5.65307,212998
5.66120,199836
5.66932,192425
5.67743,180671
5.68557,172929
5.69368,173710
5.70180,186926
5.70993,189924
5.71805,205341
5.72618,201307
5.73430,183167
5.74242,175358
5.75055,172766
5.75867,169552
5.76680,160090
5.77492,157744
5.78303,155391
5.79117,154912
5.79928,157311
5.80742,158733
5.81553,160387
5.82365,157875
5.83178,154103
5.83990,152280
5.84802,151347
5.85615,155182
5.86427,149502
5.87240,154186
5.88052,148779
5.88863,145993
5.89677,141064
5.90488,145281
5.91302,136532
5.92113,116547
5.92925,110606
5.93738,111534
5.94550,112671
5.95362,104300
5.96175,104880
5.96987,114049
5.97800,117315
5.98612,117531
5.99423,120412
6.00237,129359
6.01048,142021
6.01862,130924
6.02673,123903
6.03485,120870
6.04298,111796
6.05110,115913
6.05923,109871
6.06735,108074
6.07547,111338
6.08360,107104
6.09172,109075
6.09983,107659
6.10797,109076
6.11608,110235
6.12422,104711
6.13233,103148
6.14045,108922
6.14858,105839
6.15670,112155
6.16483,113446
6.17295,112360
6.18107,123722
6.18920,121862
6.19732,125304
6.20545,126119
6.21357,123650
6.22168,128979
6.22982,137832
6.23793,130392
6.24605,132102
6.25418,131850
6.26230,136553
6.27043,137225
6.27855,137055
6.28667,148457
6.29480,149179
6.30292,152478
6.31105,148979
6.31917,141648
6.32728,149484
6.33542,157576
6.34353,161328
6.35165,164534
6.35978,168034
6.36790,166517
6.37603,166102
6.38415,166496
6.39227,174131
6.40040,178731
6.40852,177258
6.41665,176028
6.42477,175783
6.43288,173380
6.44102,192565
6.44913,202830
6.45727,197289
6.46538,192265
6.47350,197078
6.48163,208551
6.48975,212955
6.49787,209153
6.50600,210689
6.51412,209706
6.52225,210099
6.53037,208879
6.53848,213151
6.54662,212058
6.55473,218712
6.56287,187588
6.57098,160141
6.57910,141356
6.58723,138237
6.59535,132326
6.60348,133941
6.61160,127758
6.61972,124903
6.62785,120559
6.63597,124576
6.64408,121909
6.65222,113978
6.66033,119163
6.66847,117889
6.67658,118644
6.68470,117879
6.69283,116780
6.70095,108381
6.70908,119916
6.71720,120384
6.72532,115142
6.73345,106133
6.74157,106480
6.74968,103825
6.75782,116170
6.76593,116377
6.77407,110824
6.78218,116469
6.79030,110215
6.79843,108201
6.80655,106434
6.81468,101958
6.82280,102425
6.83092,105046
6.83905,104051
6.84717,99123
6.85530,95703
6.86342,91060
6.87153,91554
6.87967,80124
6.88778,80115
6.89590,88486
6.90403,96790
6.91215,94161
6.92028,89198
6.92840,79593
6.93652,78059
6.94465,70821
6.95277,71684
6.96090,67094
6.96902,70717
6.97713,68708
6.98527,69867
6.99338,65642
7.00152,65008
7.00963,66548
7.01775,61771
7.02588,68565
7.03400,68754
7.04212,67596
7.05025,64720
7.05837,62815
7.06650,68761
7.07462,60734
7.08273,65929
7.09087,62416
7.09898,65830
7.10712,62384
7.11523,61249
7.12335,63792
7.13148,69608
7.13960,69656
7.14772,62780
7.15585,59953
7.16397,61725
7.17210,60012
7.18022,60783
7.18833,60734
7.19647,60610
7.20458,63403
7.21272,67575
7.22083,68694
7.22895,66798
7.23708,69970
7.24520,72011
7.25333,64566
7.26145,63419
7.26957,65751
7.27770,60049
7.28582,58143
7.29393,61567
7.30207,59422
7.31018,59251
7.31832,59535
7.32643,58223
7.33455,61808
7.34268,59950
7.35080,59535
7.35893,61453
7.36705,57090
7.37517,58883
7.38330,63378
7.39142,54535
7.39953,59610
7.40767,62590
7.41578,60483
7.42392,65655
7.43203,59399
7.44015,65090
7.44828,64021
7.45640,66059
7.46453,69218
7.47265,74247
7.48077,67773
7.48890,66353
7.49702,63539
7.50515,64612
7.51327,54512
7.52138,62545
7.52952,62990
7.53763,54146
7.54575,59456
7.55388,61245
7.56200,59698
7.57013,59503
7.57825,55221
7.58637,58307
7.59450,59221
7.60262,62898
7.61075,57774
7.61887,61313
7.62698,55471
7.63512,56852
7.64323,58455
7.65137,59923
7.65948,57382
7.66760,55366
7.67573,55518
7.68385,61741
7.69197,58824
7.70010,60472
7.70822,54504
7.71635,53899
7.72447,61214
7.73258,57988
7.74072,55540
7.74883,53119
7.75697,58294
7.76508,54281
7.77320,58069
7.78133,56701
7.78945,56831
7.79757,58261
7.80570,56836
7.81382,58293
7.82195,62549
7.83007,59348
7.83818,56071
7.84632,56045
7.85443,55432
7.86257,50970
7.87068,54619
7.87880,55333
7.88693,57094
7.89505,53833
7.90318,48494
7.91130,52517
7.91942,52762
7.92755,52378
7.93567,49085
7.94378,51385
7.95192,56084
7.96003,52760
7.96817,54758
7.97628,56783
7.98440,56511
7.99253,56541
8.00065,54608
8.00878,58152
8.01690,58250
8.02502,58851
8.03315,56094
8.04127,55066
8.04940,61040
8.05752,52187
8.06563,50264
8.07377,51395
8.08188,49128
8.09000,55858
8.09813,53323
8.10625,57310
8.11438,54826
8.12250,49789
8.13062,52192
8.13875,53788
8.14687,59332
8.15500,56334
8.16312,61547
8.17123,56053
8.17937,56413
8.18748,65292
8.19560,62889
8.20373,64308
8.21185,61073
8.21998,59264
8.22810,60223
8.23622,54909
8.24435,56764
8.25247,55995
8.26060,56700
8.26872,48595
8.27683,50185
8.28497,53878
8.29308,48543
8.30122,52708
8.30933,50147
8.31745,58822
8.32558,52116
8.33370,51234
8.34182,51281
8.34995,54812
8.35807,60173
8.36620,69933
8.37432,70354
8.38243,71221
8.39057,63719
8.39868,58988
8.40682,56597
8.41493,51390
8.42305,55385
8.43118,55213
8.43930,53253
8.44742,55698
8.45555,53389
8.46367,56088
8.47180,52875
8.47992,56405
8.48803,52907
8.49617,56929
8.50428,56661
8.51242,58820
8.52053,55700
8.52865,63971
8.53678,59199
8.54490,74030
8.55303,69770
8.56115,66476
8.56927,63442
8.57740,59957
8.58552,60774
8.59363,58777
8.60177,62806
8.60988,55168
8.61802,55106
8.62613,56072
8.63425,61039
8.64238,55453
8.65050,59507
8.65863,58574
8.66675,59817
8.67487,56940
8.68300,60765
8.69112,55027
8.69925,59348
8.70737,58321
8.71548,54785
8.72362,51111
8.73173,56308
8.73985,54602
8.74798,55005
8.75610,57860
8.76423,52973
8.77235,55381
8.78047,59053
8.78860,70841
8.79672,115643
8.80485,197772
8.81297,346729
8.82108,520337
8.82922,645513
8.83733,642662
8.84547,555226
8.85358,467516
8.86170,383490
8.86983,326673
8.87795,279254
8.88607,244959
8.89420,222920
8.90232,206328
8.91045,197618
8.91857,189047
8.92668,178602
8.93482,172885
8.94293,158742
8.95107,167935
8.95918,153329
8.96730,149788
8.97543,139299
8.98355,137446
8.99167,137070
8.99980,137144
9.00792,131921
9.01605,125007
9.02417,124013
9.03228,136002
9.04042,122378
9.04853,118407
9.05667,126681
9.06478,116586
9.07290,118425
9.08103,111437
9.08915,113420
9.09728,115599
9.10540,107232
9.11352,105842
9.12165,101116
9.12977,103613
9.13788,103194
9.14602,112180
9.15413,104091
9.16227,105549
9.17038,97402
9.17850,99490
9.18663,97008
9.19475,99505
9.20288,98210
9.21100,103863
9.21912,101635
9.22725,93045
9.23537,100051
9.24348,91665
9.25162,91280
9.25973,92555
9.26787,91318
9.27598,89293
9.28410,90475
9.29223,92427
9.30035,83276
9.30848,86300
9.31660,87297
9.32472,86954
9.33285,86063
9.34097,82640
9.34910,88945
9.35722,89041
9.36533,79317
9.37347,78402
9.38158,77401
9.38970,79573
9.39783,75869
9.40595,79956
9.41408,73136
9.42220,77964
9.43032,81758
9.43845,77675
9.44657,75282
9.45470,74434
9.46282,77023
9.47093,73728
9.47907,69613
9.48718,79515
9.49532,74435
9.50343,77094
9.51155,73973
9.51968,72140
9.52780,74445
9.53592,74971
9.54405,70764
9.55217,74606
9.56030,75025
9.56842,75445
9.57653,73850
9.58467,63551
9.59278,59431
9.60092,55713
9.60903,56996
9.61715,62010
9.62528,68793
9.63340,67674
9.64152,67200
9.64965,62459
9.65777,54374
9.66590,51892
9.67402,49541
9.68213,49808
9.69027,53315
9.69838,51597
9.70652,47012
9.71463,48960
9.72275,50989
9.73088,49700
9.73900,47802
9.74713,49037
9.75525,50392
9.76337,46962
9.77150,49330
9.77962,50137
9.78773,47660
9.79587,51608
9.80398,48358
9.81212,46261
9.82023,49907
9.82835,46330
9.83648,45695
9.84460,45377
9.85273,46752
9.86085,47202
9.86897,47534
9.87710,51484
9.88522,58156
9.89335,44836
9.90147,50011
9.90958,44672
9.91772,45580
9.92583,44342
9.93395,49258
9.94208,44317
9.95020,49046
9.95833,44122
9.96645,49042
9.97457,43347
9.98270,48200
9.99082,47606
9.99895,54337
10.00707,53015
10.01518,58022
10.02332,54139
10.03143,52843
10.03955,56140
10.04768,59409
10.05580,64986
10.06393,64174
10.07205,60271
10.08017,66769
10.08830,64746
10.09642,56765
10.10455,62500
10.11267,53851
10.12078,57471
10.12892,56589
10.13703,54214
10.14517,51473
10.15328,50965
10.16140,49247
10.16953,48665
10.17765,48100
10.18577,48160
10.19390,51563
10.20202,46637
10.21015,48677
10.21827,48841
10.22638,43337
10.23452,46764
10.24263,53223
10.25077,48525
10.25888,54132
10.26700,57563
10.27513,56151
10.28325,58398
10.29137,51974
10.29950,54836
10.30762,54465
10.31575,49611
10.32387,52114
10.33198,48379
10.34012,50477
10.34823,50156
10.35637,54437
10.36448,51223
10.37260,47457
10.38073,48052
10.38885,49527
10.39698,50240
10.40510,50495
10.41322,46711
10.42135,48764
10.42947,48733
10.43758,47694
10.44572,50600
10.45383,45953
10.46197,48369
10.47008,45152
10.47820,41456
10.48633,39887
10.49445,46777
10.50258,45355
10.51070,47088
10.51882,44975
10.52695,42586
10.53507,47409
10.54320,45622
10.55132,43807
10.55943,48468
10.56757,41221
10.57568,43426
10.58380,49574
10.59193,44703
10.60005,46354
10.60818,44978
10.61630,42514
10.62442,43409
10.63255,46966
10.64067,42673
10.64880,40477
10.65692,43451
10.66503,40526
10.67317,41630
10.68128,43101
10.68940,41437
10.69753,43564
10.70565,43756
10.71378,43019
10.72190,43661
10.73002,49007
10.73815,45912
10.74627,47218
10.75440,44039
10.76252,48882
10.77063,47235
10.77877,45247
10.78688,52534
10.79502,48952
10.80313,47705
10.81125,46701
10.81938,49608
10.82750,42200
10.83562,45513
10.84375,40586
10.85187,40049
10.86000,40169
10.86812,44761
10.87623,41069
10.88437,45397
10.89248,40201
10.90062,42276
10.90873,41615
10.91685,46531
10.92498,42143
10.93310,45228
10.94123,41655
10.94935,40729
10.95747,39399
10.96560,37285
10.97372,46550
10.98183,40185
10.98997,41915
10.99808,44250
11.00622,40672
11.01433,41662
11.02245,43492
11.03058,43398
11.03870,38428
11.04683,36960
11.05495,39900
11.06307,43587
11.07120,37857
11.07932,35524
11.08743,42080
11.09557,38415
11.10368,40127
11.11182,39469
11.11993,40821
11.12805,38404
11.13618,38847
11.14430,36410
11.15243,36524
11.16055,36053
11.16867,37031
11.17680,38615
11.18492,38053
11.19305,37215
11.20117,38624
11.20928,47706
11.21742,57181
11.22553,54858
11.23365,57263
11.24178,54772
11.24990,53005
11.25803,48439
11.26615,45192
11.27427,41036
11.28240,39333
11.29052,37830
11.29865,40248
11.30677,39894
11.31488,43793
11.32302,37616
11.33113,36387
11.33925,39524
11.34738,42678
11.35550,41076
11.36363,39759
11.37175,36180
11.37987,43521
11.38800,37486
11.39612,34284
11.40425,35726
11.41237,39246
11.42048,36948
11.42862,39939
11.43673,39268
11.44487,40782
11.45298,35980
11.46110,34892
11.46923,34801
11.47735,41139
11.48547,38019
11.49360,33341
11.50172,34697
11.50985,37307
11.51797,36004
11.52608,35976
11.53422,34482
11.54233,36491
11.55047,32998
11.55858,38069
11.56670,34670
11.57483,35310
11.58295,33442
11.59108,38773
11.59920,38163
11.60732,35570
11.61545,33574
11.62357,33935
11.63168,34788
11.63982,34771
11.64793,34915
11.65607,31041
11.66418,33774
11.67230,38151
11.68043,34451
11.68855,33864
11.69668,36276
11.70480,40298
11.71292,35259
11.72105,35087
11.72917,37503
11.73728,40011
11.74542,40136
11.75353,39477
11.76167,35151
11.76978,37320
11.77790,39327
11.78603,38120
11.79415,41713
11.80228,40741
11.81040,35912
11.81852,37254
11.82665,36826
11.83477,38060
11.84290,40911
11.85102,40822
11.85913,38877
11.86727,39712
11.87538,37440
11.88350,36209
11.89163,42200
11.89975,36534
11.90788,38115
11.91600,38387
11.92412,38846
11.93225,39135
11.94037,41318
11.94850,35027
11.95662,37438
11.96473,35271
11.97287,31909
11.98098,34468
11.98912,37042
11.99723,37205
12.00535,34829
12.01348,35826
12.02160,35186
12.02972,36129
12.03785,34117
12.04597,36714
12.05410,32695
12.06222,39475
12.07033,37815
12.07847,35476
12.08658,35538
12.09472,38181
12.10283,34208
12.11095,33633
12.11908,35750
12.12720,41402
12.13532,42262
12.14345,36171
12.15157,38521
12.15970,38064
12.16782,36731
12.17593,37010
12.18407,36246
12.19218,39024
12.20032,36358
12.20843,41330
12.21655,39832
12.22468,46446
12.23280,36704
12.24093,38690
12.24905,32147
12.25717,35973
12.26530,41550
12.27342,39936
12.28153,33504
12.28967,39258
12.29778,35872
12.30592,37233
12.31403,36409
12.32215,37343
12.33028,36975
12.33840,36014
12.34653,36516
12.35465,37557
12.36277,36180
12.37090,40517
12.37902,36483
12.38715,37168
12.39527,36303
12.40338,38286
12.41152,37804
12.41963,34528
12.42775,38528
12.43588,39987
12.44400,36454
12.45213,43006
12.46025,42973
12.46837,47116
12.47650,53423
12.48462,48188
12.49275,48442
12.50087,43943
12.50898,41955
12.51712,39830
12.52523,42848
12.53335,39488
12.54148,39033
12.54960,34740
12.55773,36986
12.56585,37028
12.57397,37866
12.58210,37260
12.59022,34196
12.59835,36472
12.60647,40173
12.61458,37515
12.62272,34741
12.63083,37006
12.63897,32939
12.64708,37720
12.65520,39325
12.66333,38966
12.67145,36075
12.67957,35357
12.68770,37395
12.69582,36156
12.70395,37525
12.71207,38587
12.72018,36472
12.72832,36266
12.73643,38090
12.74457,40787
12.75268,45111
12.76080,55893
12.76893,61789
12.77705,52161
12.78517,55478
12.79330,48321
12.80142,49158
12.80955,42021
12.81767,41696
12.82578,40268
12.83392,37967
12.84203,37973
12.85017,37934
12.85828,36893
12.86640,36194
12.87453,35295
12.88265,39370
12.89078,40955
12.89890,40560
12.90702,38217
12.91515,33919
12.92327,35787
12.93138,38655
12.93952,38972
12.94763,36897
12.95577,35013
12.96388,36837
12.97200,33554
12.98013,32698
12.98825,35132
12.99638,35456
13.00450,38348
13.01262,39004
13.02075,37246
13.02887,34682
13.03700,38625
13.04512,33726
13.05323,33609
13.06137,37878
13.06948,35375
13.07760,39194
13.08573,34879
13.09385,34319
13.10198,38249
13.11010,37721
13.11822,32708
13.12635,33107
13.13447,35232
13.14260,32934
13.15072,37721
13.15883,35170
13.16697,36769
13.17508,36971
13.18320,35758
13.19133,38563
13.19945,39265
13.20758,36109
13.21570,39845
13.22382,40270
13.23195,43952
13.24007,46220
13.24820,42859
13.25632,39541
13.26443,38879
13.27257,30945
13.28068,41375
13.28882,37733
13.29693,43096
13.30505,37804
13.31318,36101
13.32130,38707
13.32942,36479
13.33755,42413
13.34567,36573
13.35380,35658
13.36192,37933
13.37003,33123
13.37817,40406
13.38628,35243
13.39442,33946
13.40253,37319
13.41065,32990
13.41878,31929
13.42690,35751
13.43503,33747
13.44315,36725
13.45127,36552
13.45940,33035
13.46752,36328
13.47563,36569
13.48377,34122
13.49188,35205
13.50002,35074
13.50813,35447
13.51625,33283
13.52438,40331
13.53250,37227
13.54063,37226
13.54875,35937
13.55687,35205
13.56500,36715
13.57312,34028
13.58123,34431
13.58937,34888
13.59748,33724
13.60562,36092
13.61373,35777
13.62185,33749
13.62998,33380
13.63810,31259
13.64623,34590
13.65435,32301
13.66247,34004
13.67060,35933
13.67872,33853
13.68685,31803
13.69497,32966
13.70308,38412
13.71122,33877
13.71933,34132
13.72745,37079
13.73558,35118
13.74370,32632
13.75183,33827
13.75995,33146
13.76807,39070
13.77620,38312
13.78432,35410
13.79245,33264
13.80057,33499
13.80868,33939
13.81682,35493
13.82493,34488
13.83305,32829
13.84118,34373
13.84930,34763
13.85743,36908
13.86555,37956
13.87367,32902
13.88180,36150
13.88992,36454
13.89805,39403
13.90617,37624
13.91428,35948
13.92242,37787
13.93053,33817
13.93867,34756
13.94678,40366
13.95490,40700
13.96303,38967
13.97115,39179
13.97927,39269
13.98740,39523
13.99552,37906
14.00365,39550
14.01177,37652
14.01988,38976
14.02802,39527
14.03613,38137
14.04427,39791
14.05238,37319
14.06050,43011
14.06863,38503
14.07675,36987
14.08488,39365
14.09300,47617
14.10112,42949
14.10925,42544
14.11737,38210
14.12548,41403
14.13362,40972
14.14173,39241
14.14987,41704
14.15798,40021
14.16610,41261
14.17423,42144
14.18235,39491
14.19048,46077
14.19860,51775
14.20672,66564
14.21485,99210
14.22297,154135
14.23108,217231
14.23922,253385
14.24733,252957
14.25547,240058
14.26358,202647
14.27170,168536
14.27983,152241
14.28795,138024
14.29608,122228
14.30420,115626
14.31232,107711
14.32045,100087
14.32857,91461
14.33670,89699
14.34482,84556
14.35293,77184
14.36107,78869
14.36918,71132
14.37730,65130
14.38543,57221
14.39355,52236
14.40168,46613
14.40980,47353
14.41792,45488
14.42605,42405
14.43417,40627
14.44230,40940
14.45042,40853
14.45853,41535
14.46667,46798
14.47478,37608
14.48292,40628
14.49103,41984
14.49915,35672
14.50728,36193
14.51540,41579
14.52352,37566
14.53165,36039
14.53977,34734
14.54790,33706
14.55602,39061
14.56413,36986
14.57227,38489
14.58038,40721
14.58852,40632
14.59663,39436
14.60475,43157
14.61288,39327
14.62100,41483
14.62912,41504
14.63725,36655
14.64537,38388
14.65350,39703
14.66162,38228
14.66973,39298
14.67787,41354
14.68598,39403
14.69412,34710
14.70223,38316
14.71035,35879
14.71848,37674
14.72660,38812
14.73473,36022
14.74285,44205
14.75097,36177
14.75910,36006
14.76722,36314
14.77533,42607
14.78347,39504
14.79158,35043
14.79972,33482
14.80783,35760
14.81595,33349
14.82408,35163
14.83220,41385
14.84033,37957
14.84845,41934
14.85657,42808
14.86470,48009
14.87282,47908
14.88093,50348
14.88907,48508
14.89718,50471
14.90532,48044
14.91343,48562
14.92155,50156
14.92968,44134
14.93780,47585
14.94593,46584
14.95405,43753
14.96217,40456
14.97030,45499
14.97842,41568
14.98655,46210
14.99467,44052
15.00278,46561
15.01092,45144
15.01903,48852
15.02715,46247
15.03528,45451
15.04340,50721
15.05153,44318
15.05965,43320
15.06777,45843
15.07590,44708
15.08402,41975
15.09215,40533
15.10027,41994
15.10838,43229
15.11652,44639
15.12463,41871
15.13277,47750
15.14088,45104
15.14900,41400
15.15713,41614
15.16525,40288
15.17337,41987
15.18150,38214
15.18962,39466
15.19775,42467
15.20587,37922
15.21398,37155
15.22212,40988
15.23023,39660
15.23837,40287
15.24648,38169
15.25460,39690
15.26273,37774
15.27085,36554
15.27898,38596
15.28710,35859
15.29522,39343
15.30335,37674
15.31147,35242
15.31958,36021
15.32772,38160
15.33583,38773
15.34397,37327
15.35208,38391
15.36020,35979
15.36833,37071
15.37645,36946
15.38458,37491
15.39270,38177
15.40082,35730
15.40895,36777
15.41707,39630
15.42518,36471
15.43332,39830
15.44143,34735
15.44957,32541
15.45768,34231
15.46580,32026
15.47393,39076
15.48205,37766
15.49018,37426
15.49830,40009
15.50642,37900
15.51455,34739
15.52267,35288
15.53080,37477
15.53892,39923
15.54703,38058
15.55517,37665
15.56328,35552
15.57140,36867
15.57953,36686
15.58765,34681
15.59578,39015
15.60390,36716
15.61202,36297
15.62015,41743
15.62827,38573
15.63640,40645
15.64452,33811
15.65263,40548
15.66077,40753
15.66888,38790
15.67700,34512
15.68513,39597
15.69325,36508
15.70138,36055
15.70950,37589
15.71762,39109
15.72575,37142
15.73387,35657
15.74200,33681
15.75012,36597
15.75823,36766
15.76637,38061
15.77448,35026
15.78262,35546
15.79073,35978
15.79885,37588
15.80698,40340
15.81510,34989
15.82322,37768
15.83135,40364
15.83947,36782
15.84760,34788
15.85572,37967
15.86383,35960
15.87197,42211
15.88008,38748
15.88822,36565
15.89633,40804
15.90445,36098
15.91258,38530
15.92070,41263
15.92883,38918
15.93695,41981
15.94507,35885
15.95320,40811
15.96132,37832
15.96943,45012
15.97757,39498
15.98568,35252
15.99382,39569
16.00193,38594
16.01005,42938
16.01818,46960
16.02630,67808
16.03443,97973
16.04255,126252
16.05067,158569
16.05880,177416
16.06692,158603
16.07503,132438
16.08317,108261
16.09128,81691
16.09942,73781
16.10753,61118
16.11565,56493
16.12378,50555
16.13190,51456
16.14003,50195
16.14815,48941
16.15627,49577
16.16440,48508
16.17252,46126
16.18065,47834
16.18877,50387
16.19688,45365
16.20502,42398
16.21313,44592
16.22125,42476
16.22938,45158
16.23750,44042
16.24563,43374
16.25375,42629
16.26187,41151
16.27000,39953
16.27812,45352
16.28625,45261
16.29437,40824
16.30248,45707
16.31062,48368
16.31873,40079
16.32687,43105
16.33498,42139
16.34310,47392
16.35123,41286
16.35935,45197
16.36747,44659
16.37560,42349
16.38372,39591
16.39185,42167
16.39997,38408
16.40808,40982
16.41622,48376
16.42433,38213
16.43247,39173
16.44058,38946
16.44870,40262
16.45683,40087
16.46495,39852
16.47307,42943
16.48120,39357
16.48932,37754
16.49745,41906
16.50557,40291
16.51368,36838
16.52182,40552
16.52993,38055
16.53807,37069
16.54618,40113
16.55430,41703
16.56243,40911
16.57055,40134
16.57868,38037
16.58680,41466
16.59492,38229
16.60305,39842
16.61117,42323
16.61928,36632
16.62742,39245
16.63553,40202
16.64367,38177
16.65178,36128
16.65990,36870
16.66803,33702
16.67615,41981
16.68428,39069
16.69240,38734
16.70052,35972
16.70865,37762
16.71677,39715
16.72488,42181
16.73302,40238
16.74113,37346
16.74927,36791
16.75738,37044
16.76550,35897
16.77363,35381
16.78175,36801
16.78988,35775
16.79800,38186
16.80612,34470
16.81425,35783
16.82237,38831
16.83050,35145
16.83862,36807
16.84673,36865
16.85487,37304
16.86298,42098
16.87110,35655
16.87923,37885
16.88735,35415
16.89548,38034
16.90360,34248
16.91172,37330
16.91985,34141
16.92797,34939
16.93610,36737
16.94422,34821
16.95233,35155
16.96047,36615
16.96858,36731
16.97672,38954
16.98483,38421
16.99295,37202
17.00108,31854
17.00920,37045
17.01732,30332
17.02545,35123
17.03357,34861
17.04170,35615
17.04982,36011
17.05793,29909
17.06607,33757
17.07418,34091
17.08232,35111
17.09043,36504
17.09855,35110
17.10668,34549
17.11480,34851
17.12292,32644
17.13105,38002
17.13917,36633
17.14730,38433
17.15542,34416
17.16353,35072
17.17167,32878
17.17978,33558
17.18792,37637
17.19603,38247
17.20415,35573
17.21228,32481
17.22040,36484
17.22853,34130
17.23665,34406
17.24477,35425
17.25290,38212
17.26102,35138
17.26913,35561
17.27727,35607
17.28538,38125
17.29352,33184
17.30163,36883
17.30975,38033
17.31788,36430
17.32600,36199
17.33413,39390
17.34225,34065
17.35037,38229
17.35850,37515
17.36662,41105
17.37475,39937
17.38287,43566
17.39098,43279
17.39912,44382
17.40723,47924
17.41535,41218
17.42348,48791
17.43160,46320
17.43973,39433
17.44785,42027
17.45597,40811
17.46410,41879
17.47222,42267
17.48035,36473
17.48847,40810
17.49658,39075
17.50472,38352
17.51283,35409
17.52095,39912
17.52908,36235
17.53720,39230
17.54533,36958
17.55345,40012
17.56157,42323
17.56970,42942
17.57782,37941
17.58595,41966
17.59407,38472
17.60218,34213
17.61032,39279
17.61843,35361
17.62657,36720
17.63468,36967
17.64280,36351
17.65093,36060
17.65905,32337
17.66717,36986
17.67530,35941
17.68342,36700
17.69155,37970
17.69967,37358
17.70778,39984
17.71592,39954
17.72403,39045
17.73217,38169
17.74028,43099
17.74840,39917
17.75653,45833
17.76465,42020
17.77278,38336
17.78090,41239
17.78902,36465
17.79715,39391
17.80527,36268
17.81338,39283
17.82152,40351
17.82963,37708
17.83777,39006
17.84588,38219
17.85400,40867
17.86213,47443
17.87025,40708
17.87838,40695
17.88650,39229
17.89462,38831
17.90275,40706
17.91087,37291
17.91898,34539
17.92712,32865
17.93523,37905
17.94337,37303
17.95148,37085
17.95960,37354
17.96773,35173
17.97585,34534
17.98398,33859
17.99210,38051
18.00022,37591
18.00835,36172
18.01647,35505
18.02460,34347
18.03272,33259
18.04083,39978
18.04897,38094
18.05708,31830
18.06520,38335
18.07333,36045
18.08145,35323
18.08958,37572
18.09770,43948
18.10582,45278
18.11395,53931
18.12207,57531
18.13020,57275
18.13832,65849
18.14643,57640
18.15457,58975
18.16268,57596
18.17080,60777
18.17893,58240
18.18705,57044
18.19518,60066
18.20330,53281
18.21142,57673
18.21955,50934
18.22767,54036
18.23580,51681
18.24392,53357
18.25203,52111
18.26017,50344
18.26828,52735
18.27642,47487
18.28453,49662
18.29265,49426
18.30078,44094
18.30890,43836
18.31702,43827
18.32515,39926
18.33327,38056
18.34140,41331
18.34952,37728
18.35763,36726
18.36577,38797
18.37388,36271
18.38202,40576
18.39013,39553
18.39825,36851
18.40638,37863
18.41450,35783
18.42263,38471
18.43075,33801
18.43887,34087
18.44700,37591
18.45512,38014
18.46323,35590
18.47137,37301
18.47948,36824
18.48762,38943
18.49573,36496
18.50385,37020
18.51198,37532
18.52010,33808
18.52823,36164
18.53635,38082
18.54447,38466
18.55260,34051
18.56072,36980
18.56883,36705
18.57697,36883
18.58508,35495
18.59322,31803
18.60133,34939
18.60945,34604
18.61758,38284
18.62570,38000
18.63383,35607
18.64195,38942
18.65007,36152
18.65820,31482
18.66632,35423
18.67445,33459
18.68257,33837
18.69068,34601
18.69882,33666
18.70693,34343
18.71505,34395
18.72318,33266
18.73130,34678
18.73943,36236
18.74755,32586
18.75567,33560
18.76380,33132
18.77192,38129
18.78005,37494
18.78817,34704
18.79628,37871
18.80442,35493
18.81253,35286
18.82067,35751
18.82878,35482
18.83690,35626
18.84503,33977
18.85315,35798
18.86127,39639
18.86940,42208
18.87752,37153
18.88565,35799
18.89377,33608
18.90188,34011
18.91002,36434
18.91813,33320
18.92627,35712
18.93438,36451
18.94250,37065
18.95063,36476
18.95875,36533
18.96687,35097
18.97500,36676
18.98312,36935
18.99125,33244
18.99937,33462
19.00748,35107
19.01562,35368
19.02373,34934
19.03187,36498
19.03998,34227
19.04810,36560
19.05623,37088
19.06435,32398
19.07248,34642
19.08060,35053
19.08872,34304
19.09685,33913
19.10497,33836
19.11308,42742
19.12122,41823
19.12933,42410
19.13747,42112
19.14558,40453
19.15370,42463
19.16183,42429
19.16995,46253
19.17808,38324
19.18620,40682
19.19432,35828
19.20245,40070
19.21057,41685
19.21868,41790
19.22682,38947
19.23493,37342
19.24307,37994
19.25118,37098
19.25930,38404
19.26743,39143
19.27555,41097
19.28368,43605
19.29180,50771
19.29992,65197
19.30805,78011
19.31617,85822
19.32430,87198
19.33242,79216
19.34053,72332
19.34867,66907
19.35678,56542
19.36490,54586
19.37303,49728
19.38115,51743
19.38928,48545
19.39740,44384
19.40552,47514
19.41365,46299
19.42177,45262
19.42990,45299
19.43802,44061
19.44613,42880
19.45427,46037
19.46238,47490
19.47052,49854
19.47863,42743
19.48675,45710
19.49488,59252
19.50300,73175
19.51112,100536
19.51925,122759
19.52737,166363
19.53550,199621
19.54362,194971
19.55173,178508
19.55987,141727
19.56798,104385
19.57612,79391
19.58423,71163
19.59235,57785
19.60048,46719
19.60860,48284
19.61673,49104
19.62485,48108
19.63297,49083
19.64110,45085
19.64922,52668
19.65733,74457
19.66547,107365
19.67358,172331
19.68172,249776
19.68983,315577
19.69795,346842
19.70608,348848
19.71420,291807
19.72233,239943
19.73045,188640
19.73857,143771
19.74670,113464
19.75482,97408
19.76293,86247
19.77107,76115
19.77918,70443
19.78732,65127
19.79543,62642
19.80355,56766
19.81168,53707
19.81980,56074
19.82793,53660
19.83605,48293
19.84417,50354
19.85230,48919
19.86042,47551
19.86855,47799
19.87667,45902
19.88478,47095
19.89292,58710
19.90103,70255
19.90915,95726
19.91728,128127
19.92540,172390
19.93353,212806
19.94165,227514
19.94977,233941
19.95790,245123
19.96602,241810
19.97415,232909
19.98227,226410
19.99038,208701
19.99852,209810
20.00663,203765
20.01475,189542
20.02288,180047
20.03100,179314
20.03913,171825
20.04725,157405
20.05537,147308
20.06350,128596
20.07162,119836
20.07975,100576
20.08787,84722
20.09598,78720
20.10412,71700
20.11223,68269
20.12037,68157
20.12848,71433
20.13660,81244
20.14473,70526
20.15285,74730
20.16097,74686
20.16910,68417
20.17722,73672
20.18535,69618
20.19347,73644
20.20158,79921
20.20972,75780
20.21783,70876
20.22597,70486
20.23408,74747
20.24220,73571
20.25033,75173
20.25845,76399
20.26658,96966
20.27470,128520
20.28282,179368
20.29095,238793
20.29907,309821
20.30718,348208
20.31532,350989
20.32343,320700
20.33157,259153
20.33968,228044
20.34780,178110
20.35593,141135
20.36405,117508
20.37218,105992
20.38030,99499
20.38842,89775
20.39655,85202
20.40467,84828
20.41278,82988
20.42092,81123
20.42903,87768
20.43717,91387
20.44528,104803
20.45340,119706
20.46153,132796
20.46965,147650
20.47778,141542
20.48590,134524
20.49402,117928
20.50215,110064
20.51027,98342
20.51840,90588
20.52652,79283
20.53463,80629
20.54277,69727
20.55088,69013
20.55900,68391
20.56713,68455
20.57525,61625
20.58338,68127
20.59150,64558
20.59962,65586
20.60775,69975
20.61587,66554
20.62400,64090
20.63212,59309
20.64023,64734
20.64837,62152
20.65648,66564
20.66462,60997
20.67273,66957
20.68085,61664
20.68898,62527
20.69710,64593
20.70522,66220
20.71335,61157
20.72147,61732
20.72960,60480
20.73772,62702
20.74583,61600
20.75397,63543
20.76208,59838
20.77022,57955
20.77833,62868
20.78645,58414
20.79458,61056
20.80270,63091
20.81082,58758
20.81895,58252
20.82707,61078
20.83520,58524
20.84332,64169
20.85143,65743
20.85957,64916
20.86768,53531
20.87582,60807
20.88393,54654
20.89205,57583
20.90018,56363
20.90830,59196
20.91643,59196
20.92455,58298
20.93267,59361
20.94080,60410
20.94892,60569
20.95703,55462
20.96517,58394
20.97328,55771
20.98142,66044
20.98953,58851
20.99765,56706
21.00578,63111
21.01390,54311
21.02203,55005
21.03015,57986
21.03827,58022
21.04640,54385
21.05452,52286
21.06263,52654
21.07077,53313
21.07888,53218
21.08702,55103
21.09513,53483
21.10325,53640
21.11138,51342
21.11950,56230
21.12763,54047
21.13575,53781
21.14387,51576
21.15200,51809
21.16012,52345
21.16825,49421
21.17637,53090
21.18448,54310
21.19262,52478
21.20073,53010
21.20885,52191
21.21698,54491
21.22510,54686
21.23323,56063
21.24135,55067
21.24947,55810
21.25760,52027
21.26572,53596
21.27385,56967
21.28197,58273
21.29008,56325
21.29822,52138
21.30633,57780
21.31447,52852
21.32258,59151
21.33070,54071
21.33883,48099
21.34695,55431
21.35507,49833
21.36320,47296
21.37132,53033
21.37945,49325
21.38757,55611
21.39568,58759
21.40382,54350
21.41193,49867
21.42007,51359
21.42818,51933
21.43630,49006
21.44443,50849
21.45255,53364
21.46067,50431
21.46880,50592
21.47692,49437
21.48505,49926
21.49317,49791
21.50128,51577
21.50942,51453
21.51753,51890
21.52567,52478
21.53378,48407
21.54190,46687
21.55003,48478
21.55815,50844
21.56628,53894
21.57440,52736
21.58252,50848
21.59065,47927
21.59877,48843
21.60688,43807
21.61502,46840
21.62313,49095
21.63127,60451
21.63938,66648
21.64750,83202
21.65563,110037
21.66375,115930
21.67188,115566
21.68000,109357
21.68812,104919
21.69625,88797
21.70437,78681
21.71250,64523
21.72062,62681
21.72873,58277
21.73687,49678
21.74498,49383
21.75310,52011
21.76123,54706
21.76935,55603
21.77748,51278
21.78560,52596
21.79372,51141
21.80185,54917
21.80997,51539
21.81810,50390
21.82622,57184
21.83433,55496
21.84247,72785
21.85058,86982
21.85870,103696
21.86683,108432
21.87495,102240
21.88308,95874
21.89120,79727
21.89932,68124
21.90745,58343
21.91557,54382
21.92370,46296
21.93182,52511
21.93993,42820
21.94807,42778
21.95618,49485
21.96432,47826
21.97243,49460
21.98055,45180
21.98868,47060
21.99680,47072
22.00492,43145
22.01305,39428
22.02117,45113
22.02930,45409
22.03742,43755
22.04553,44033
22.05367,46068
22.06178,38486
22.06992,40135
22.07803,42260
22.08615,46173
22.09428,42945
22.10240,43427
22.11053,46758
22.11865,41145
22.12677,41758
22.13490,48236
22.14302,39872
22.15113,44555
22.15927,45680
22.16738,45596
22.17552,41620
22.18363,45131
22.19175,44090
22.19988,40495
22.20800,41677
22.21613,42994
22.22425,43248
22.23237,48504
22.24050,53442
22.24862,55730
22.25673,57125
22.26487,53969
22.27298,53151
22.28112,49045
22.28923,46257
22.29735,44621
22.30548,44654
22.31360,42198
22.32173,47062
22.32985,48616
22.33797,45356
22.34610,46429
22.35422,45979
22.36235,45338
22.37047,49051
22.37858,47022
22.38672,46648
22.39483,44579
22.40295,44980
22.41108,42090
22.41920,42220
22.42733,39231
22.43545,41120
22.44357,37353
22.45170,40897
22.45982,47183
22.46795,48115
22.47607,51279
22.48418,47470
22.49232,48307
22.50043,44274
22.50855,40629
22.51668,43750
22.52480,38547
22.53293,37565
22.54105,40742
22.54917,38428
22.55730,46791
22.56542,43916
22.57355,39602
22.58167,36593
22.58978,37826
22.59792,38424
22.60603,38006
22.61417,37429
22.62228,35123
22.63040,36630
22.63853,37596
22.64665,33628
22.65477,30787
22.66290,35236
22.67102,35570
22.67915,35744
22.68727,37139
22.69538,39722
22.70352,35553
22.71163,35574
22.71977,36114
22.72788,40796
22.73600,38871
22.74413,40132
22.75225,37593
22.76038,40225
22.76850,36752
22.77662,38816
22.78475,31884
22.79287,33655
22.80098,35866
22.80912,35632
22.81723,40788
22.82537,33416
22.83348,38300
22.84160,35957
22.84973,36572
22.85785,36883
22.86598,38923
22.87410,37871
22.88222,39190
22.89035,41520
22.89847,38115
22.90658,42898
22.91472,44355
22.92283,44921
22.93097,57094
22.93908,59719
22.94720,68774
22.95533,79790
22.96345,78370
22.97158,93246
22.97970,84369
22.98782,83249
22.99595,73762
23.00407,75014
23.01220,64119
23.02032,62414
23.02843,57700
23.03657,53173
23.04468,55042
23.05280,46214
23.06093,40476
23.06905,42502
23.07718,40538
23.08530,45457
23.09342,40897
23.10155,43084
23.10967,39723
23.11780,38975
23.12592,44821
23.13403,45241
23.14217,41442
23.15028,38886
23.15842,36614
23.16653,37508
23.17465,34800
23.18278,34974
23.19090,35544
23.19902,35779
23.20715,32876
23.21527,37664
23.22340,35517
23.23152,35660
23.23963,32916
23.24777,37173
23.25588,35109
23.26402,36908
23.27213,33084
23.28025,34160
23.28838,34962
23.29650,37615
23.30462,31725
23.31275,36800
23.32087,35910
23.32900,34524
23.33712,33771
23.34523,32808
23.35337,32448
23.36148,35225
23.36962,38673
23.37773,37161
23.38585,39308
23.39398,39747
23.40210,38148
23.41023,39009
23.41835,33550
23.42647,33395
23.43460,36550
23.44272,38325
23.45083,38439
23.45897,36245
23.46708,37922
23.47522,36372
23.48333,36325
23.49145,38926
23.49958,37293
23.50770,36671
23.51583,35749
23.52395,36978
23.53207,36772
23.54020,36206
23.54832,34990
23.55643,36765
23.56457,37216
23.57268,44802
23.58082,37401
23.58893,39189
23.59705,39603
23.60518,38139
23.61330,36654
23.62143,39528
23.62955,37710
23.63767,37092
23.64580,40150
23.65392,39771
23.66205,41864
23.67017,42850
23.67828,47118
23.68642,55276
23.69453,53304
23.70265,52662
23.71078,54029
23.71890,50256
23.72703,50529
23.73515,49617
23.74327,51750
23.75140,56010
23.75952,85299
23.76765,164926
23.77577,438249
23.78388,1045941
23.79202,2209690
23.80013,3596943
23.80827,4656551
23.81638,4938929
23.82450,4466150
23.83263,3375980
23.84075,2441414
23.84887,1665061
23.85700,1200774
23.86512,884861
23.87325,657064
23.88137,544691
23.88948,456604
23.89762,400661
23.90573,349567
23.91387,320311
23.92198,285343
23.93010,258185
23.93823,244252
23.94635,214419
23.95448,203974
23.96260,194275
23.97072,177622
23.97885,177318
23.98697,166342
23.99508,159315
24.00322,146193
24.01133,152166
24.01947,135462
24.02758,140017
24.03570,139117
24.04383,122641
24.05195,121694
24.06008,118931
24.06820,117086
24.07632,112347
24.08445,110744
24.09257,108605
24.10068,106255
24.10882,110641
24.11693,104275
24.12507,103876
24.13318,100185
24.14130,101425
24.14943,104111
24.15755,106012
24.16568,111214
24.17380,107448
24.18192,108629
24.19005,97898
24.19817,96212
24.20630,91269
24.21442,95094
24.22253,91998
24.23067,96672
24.23878,99515
24.24690,110725
24.25503,102251
24.26315,98904
24.27128,89967
24.27940,89263
24.28752,86050
24.29565,82299
24.30377,75658
24.31190,75679
24.32002,72737
24.32813,74258
24.33627,76259
24.34438,74813
24.35250,68448
24.36063,74689
24.36875,64528
24.37688,67116
24.38500,71516
24.39312,75612
24.40125,91511
24.40937,117553
24.41750,139921
24.42562,158567
24.43373,152459
24.44187,153563
24.44998,120440
24.45812,96892
24.46623,74618
24.47435,66672
24.48248,64941
24.49060,62664
24.49872,66195
24.50685,67068
24.51497,69945
24.52310,87090
24.53122,90925
24.53933,95726
24.54747,90140
24.55558,89402
24.56372,82945
24.57183,77135
24.57995,68817
24.58808,69093
24.59620,68889
24.60433,66135
24.61245,66287
24.62057,63024
24.62870,62633
24.63682,64409
24.64493,61335
24.65307,71965
24.66118,64451
24.66932,65185
24.67743,69603
24.68555,68320
24.69368,69974
24.70180,67474
24.70993,62411
24.71805,58557
24.72617,62146
24.73430,58166
24.74242,54932
24.75053,53903
24.75867,54918
24.76678,54290
24.77492,54551
24.78303,56226
24.79115,49820
24.79928,53038
24.80740,51054
24.81553,51758
24.82365,54686
24.83177,55751
24.83990,44979
24.84802,50813
24.85615,50363
24.86427,46828
24.87238,49140
24.88052,51258
24.88863,50801
24.89675,50146
24.90488,48966
24.91300,50369
24.92113,46982
24.92925,51288
24.93737,52383
24.94550,46405
24.95362,45823
24.96175,48477
24.96987,45465
24.97798,44563
24.98612,47755
24.99423,47335
25.00237,45890
25.01048,47514
25.01860,45974
25.02673,47642
25.03485,41977
25.04297,45780
25.05110,47543
25.05922,45349
25.06735,48531
25.07547,50059
25.08358,43421
25.09172,46244
25.09983,44992
25.10797,47522
25.11608,45489
25.12420,45436
25.13233,43503
25.14045,49690
25.14857,45838
25.15670,57776
25.16482,60228
25.17295,63631
25.18107,65100
25.18918,62876
25.19732,62552
25.20543,61692
25.21357,53976
25.22168,57678
25.22980,55992
25.23793,48879
25.24605,48012
25.25418,52229
25.26230,52261
25.27042,49548
25.27855,45277
25.28667,45378
25.29478,45166
25.30292,43638
25.31103,49157
25.31917,50687
25.32728,50963
25.33540,51962
25.34353,53982
25.35165,50457
25.35978,52733
25.36790,52129
25.37602,47349
25.38415,47298
25.39227,43344
25.40038,43400
25.40852,43719
25.41663,41052
25.42477,39297
25.43288,42835
25.44100,40817
25.44913,42370
25.45725,42928
25.46538,42496
25.47350,47330
25.48162,44726
25.48975,52797
25.49787,52078
25.50600,54300
25.51412,62665
25.52223,56109
25.53037,55169
25.53848,47689
25.54660,47049
25.55473,44233
25.56285,44740
25.57098,49470
25.57910,47744
25.58722,44130
25.59535,42271
25.60347,44089
25.61160,38161
25.61972,42612
25.62783,41273
25.63597,44964
25.64408,36227
25.65222,40214
25.66033,36476
25.66845,39484
25.67658,38073
25.68470,44096
25.69282,39950
25.70095,42145
25.70907,41798
25.71720,39514
25.72532,37577
25.73343,39813
25.74157,40654
25.74968,38472
25.75782,43710
25.76593,37166
25.77405,39977
25.78218,38529
25.79030,39164
25.79842,38713
25.80655,40848
25.81467,37465
25.82280,39377
25.83092,40452
25.83903,39876
25.84717,42475
25.85528,41522
25.86342,38206
25.87153,38818
25.87965,45405
25.88778,36971
25.89590,37485
25.90403,38361
25.91215,37867
25.92027,36810
25.92840,37680
25.93652,37489
25.94463,38933
25.95277,37113
25.96088,40820
25.96902,43549
25.97713,38726
25.98525,35260
25.99338,38770
26.00150,37649
26.00963,35409
26.01775,34917
26.02587,38265
26.03400,37054
26.04212,37679
26.05025,38942
26.05837,40889
26.06648,36754
26.07462,41247
26.08273,36132
26.09085,38499
26.09898,42777
26.10710,43844
26.11523,43139
26.12335,40297
26.13147,42313
26.13960,39809
26.14772,42196
26.15585,40874
26.16397,49885
26.17208,51888
26.18022,54793
26.18833,53185
26.19645,50435
26.20458,51820
26.21270,49139
26.22083,47149
26.22895,40445
26.23707,47438
26.24520,46852
26.25332,46445
26.26145,39728
26.26957,42529
26.27768,42608
26.28582,44193
26.29393,46144
26.30207,40429
26.31018,41152
26.31830,37682
26.32643,39208
26.33455,40451
26.34267,35867
26.35080,35079
26.35892,34965
26.36705,39445
26.37517,43152
26.38328,38839
26.39142,36309
26.39953,41614
26.40767,42665
26.41578,42959
26.42390,43770
26.43203,43075
26.44015,43542
26.44828,41109
26.45640,41253
26.46452,38066
26.47265,40967
26.48077,40551
26.48888,39961
26.49702,41842
26.50513,40753
26.51327,38267
26.52138,38256
26.52950,36970
26.53763,36860
26.54575,34663
26.55388,36231
26.56200,39003
26.57012,38431
26.57825,38788
26.58637,34700
26.59448,38872
26.60262,38529
26.61073,38337
26.61887,36461
26.62698,35207
26.63510,36487
26.64323,37445
26.65135,44795
26.65948,39799
26.66760,39386
26.67572,41736
26.68385,42473
26.69197,44640
26.70010,45724
26.70822,40843
26.71633,44597
26.72447,38610
26.73258,41489
26.74070,39594
26.74883,42376
26.75695,34921
26.76508,40402
26.77320,38643
26.78132,40703
26.78945,34358
26.79757,40888
26.80570,39952
26.81382,39717
26.82193,38565
26.83007,38892
26.83818,44398
26.84630,42322
26.85443,42212
26.86255,42418
26.87068,44227
26.87880,45517
26.88692,45621
26.89505,43300
26.90317,47982
26.91130,43252
26.91942,42091
26.92753,45011
26.93567,40307
26.94378,41328
26.95192,43943
26.96003,46752
26.96815,48127
26.97628,63335
26.98440,100774
26.99252,196727
27.00065,386762
27.00877,788251
27.01690,1465829
27.02502,2373324
27.03313,3142444
27.04127,3317739
27.04938,3058039
27.05752,2418511
27.06563,1841168
27.07375,1346866
27.08188,970800
27.09000,714214
27.09813,581097
27.10625,466037
27.11437,396157
27.12250,330583
27.13062,294125
27.13873,271767
27.14687,239995
27.15498,215000
27.16312,201370
27.17123,188223
27.17935,172007
27.18748,164720
27.19560,155981
27.20373,158809
27.21185,151704
27.21997,137207
27.22810,137635
27.23622,130660
27.24433,120337
27.25247,128185
27.26058,116130
27.26872,109342
27.27683,110412
27.28495,107407
27.29308,103579
27.30120,95671
27.30933,96519
27.31745,96344
27.32557,92191
27.33370,92181
27.34182,91954
27.34995,85084
27.35807,85255
27.36618,82361
27.37432,77187
27.38243,77483
27.39055,82773
27.39868,73515
27.40680,84828
27.41493,70554
27.42305,71677
27.43117,77768
27.43930,75291
27.44742,72587
27.45555,68927
27.46367,67583
27.47178,66850
27.47992,75187
27.48803,65315
27.49617,66176
27.50428,68129
27.51240,62296
27.52053,67044
27.52865,70239
27.53677,64660
27.54490,62749
27.55302,64241
27.56115,72924
27.56927,65285
27.57738,65539
27.58552,62794
27.59363,59409
27.60177,60119
27.60988,59678
27.61800,61036
27.62613,61288
27.63425,63219
27.64237,63621
27.65050,56481
27.65862,57016
27.66675,55319
27.67487,56172
27.68298,55351
27.69112,57205
27.69923,54249
27.70737,50676
27.71548,54846
27.72360,54777
27.73173,55772
27.73985,52692
27.74798,44989
27.75610,49417
27.76422,49139
27.77235,55308
27.78047,53623
27.78858,50053
27.79672,47100
27.80483,47931
27.81297,54053
27.82108,49332
27.82920,48474
27.83733,49367
27.84545,53195
27.85358,52771
27.86170,53630
27.86982,46946
27.87795,44576
27.88607,50536
27.89418,51338
27.90232,50135
27.91043,48451
27.91857,50206
27.92668,44850
27.93480,44352
27.94293,46195
27.95105,45221
27.95918,47860
27.96730,45067
27.97542,45085
27.98355,44844
27.99167,46745
27.99980,45843
28.00792,44344
28.01603,44873
28.02417,43250
28.03228,46948
28.04040,45185
28.04853,42323
28.05665,47836
28.06478,48377
28.07290,47099
28.08102,46523
28.08915,44838
28.09727,40141
28.10540,41312
28.11352,44295
28.12163,42388
28.12977,40507
28.13788,43952
28.14602,43233
28.15413,39382
28.16225,41981
28.17038,41633
28.17850,42735
28.18662,38321
28.19475,44222
28.20287,43652
28.21100,44389
28.21912,50622
28.22723,60329
28.23537,50926
28.24348,58479
28.25162,52154
28.25973,50342
28.26785,49466
28.27598,47616
28.28410,49206
28.29223,46117
28.30035,46669
28.30847,58596
28.31660,66407
28.32472,89159
28.33283,116263
28.34097,173794
28.34908,229969
28.35722,297994
28.36533,367630
28.37345,407073
28.38158,447247
28.38970,455145
28.39783,449779
28.40595,413485
28.41407,383282
28.42220,324551
28.43032,290719
28.43843,260515
28.44657,215727
28.45468,195587
28.46282,170552
28.47093,145638
28.47905,146270
28.48718,133711
28.49530,122600
28.50343,119403
28.51155,109005
28.51967,109030
28.52780,101001
28.53592,98619
28.54405,85687
28.55217,98795
28.56028,91768
28.56842,89188
28.57653,85705
28.58465,82560
28.59278,83283
28.60090,71151
28.60903,78777
28.61715,71731
28.62527,78755
28.63340,75287
28.64152,74590
28.64965,71322
28.65777,73626
28.66588,75230
28.67402,75977
28.68213,79313
28.69025,76275
28.69838,76210
28.70650,75543
28.71463,74061
28.72275,71093
28.73087,61740
28.73900,64331
28.74712,66882
28.75525,67329
28.76337,62390
28.77148,73926
28.77962,82662
28.78773,91943
28.79587,103917
28.80398,99529
28.81210,98383
28.82023,91692
28.82835,78254
28.83647,72891
28.84460,59406
28.85272,61146
28.86085,58865
28.86897,59707
28.87708,52868
28.88522,57804
28.89333,55186
28.90147,54281
28.90958,53805
28.91770,51230
28.92583,57904
28.93395,60056
28.94208,53272
28.95020,55038
28.95832,59659
28.96645,60776
28.97457,62057
28.98268,59097
28.99082,61947
28.99893,54281
29.00707,58844
29.01518,57196
29.02330,57318
29.03143,52175
29.03955,50989
29.04768,50510
29.05580,51161
29.06392,54720
29.07205,51637
29.08017,52862
29.08828,51167
29.09642,52854
29.10453,51665
29.11267,49387
29.12078,49652
29.12890,52679
29.13703,51637
29.14515,50464
29.15328,49980
29.16140,52564
29.16952,53164
29.17765,50754
29.18577,52941
29.19390,51214
29.20202,53450
29.21013,50205
29.21827,52814
29.22638,47784
29.23450,50735
29.24263,51905
29.25075,48443
29.25888,54460
29.26700,52407
29.27512,50835
29.28325,51690
29.29137,50404
29.29950,51405
29.30762,48780
29.31573,48184
29.32387,51680
29.33198,49736
29.34012,54230
29.34823,48792
29.35635,49864
29.36448,48290
29.37260,50058
29.38072,50369
29.38885,46903
29.39697,50059
29.40510,53468
29.41322,51620
29.42133,52216
29.42947,51006
29.43758,50602
29.44572,50761
29.45383,51520
29.46195,51702
29.47008,48207
29.47820,44250
29.48632,49032
29.49445,47625
29.50257,51124
29.51070,54009
29.51882,54422
29.52693,56550
29.53507,52406
29.54318,53736
29.55132,50773
29.55943,50958
29.56755,49085
29.57568,47617
29.58380,49081
29.59193,44751
29.60005,48425
29.60817,46370
29.61630,45386
29.62442,48390
29.63253,45543
29.64067,43985
29.64878,44635
29.65692,46419
29.66503,49637
29.67315,41490
29.68128,45771
29.68940,44597
29.69753,43334
29.70565,44225
29.71377,42432
29.72190,45701
29.73002,47283
29.73813,41217
29.74627,43604
29.75438,42640
29.76252,52681
29.77063,44933
29.77875,39690
29.78688,44989
29.79500,41772
29.80313,39905
29.81125,42443
29.81937,48215
29.82750,42133
29.83562,39803
29.84375,43804
29.85187,45053
29.85998,40448
29.86812,46609
29.87623,40437
29.88435,43519
29.89248,40967
29.90060,52723
29.90873,50547
29.91685,58618
29.92497,61914
29.93310,57446
29.94122,48098
29.94935,52411
29.95747,58129
29.96558,62058
29.97372,74648
29.98183,81447
29.98997,92369
29.99808,114948
30.00620,138508
30.01433,164254
30.02245,174386
30.03057,179756
30.03870,183934
30.04682,191332
30.05495,202562
30.06307,196669
30.07118,181608
30.07932,173951
30.08743,159515
30.09557,146004
30.10368,136119
30.11180,136320
30.11993,123859
30.12805,117190
30.13617,105002
30.14430,100566
30.15242,97094
30.16055,91182
30.16867,95194
30.17678,77589
30.18492,79444
30.19303,73299
30.20117,73361
30.20928,71609
30.21740,70111
30.22553,74172
30.23365,65728
30.24178,69528
30.24990,64050
30.25802,61853
30.26615,60161
30.27427,61781
30.28238,62919
30.29052,56585
30.29863,54488
30.30677,54927
30.31488,55294
30.32300,55267
30.33113,55006
30.33925,53088
30.34738,55586
30.35550,54634
30.36362,53682
30.37175,49841
30.37987,53885
30.38800,50809
30.39612,51520
30.40423,49945
30.41237,50268
30.42048,48137
30.42860,52146
30.43673,51179
30.44485,53318
30.45298,50125
30.46110,50777
30.46922,47407
30.47735,48726
30.48547,48524
30.49360,45349
30.50172,45511
30.50983,49822
30.51797,50122
30.52608,48295
30.53420,43364
30.54233,47569
30.55045,46610
30.55858,44009
30.56670,48318
30.57482,43240
30.58295,47043
30.59107,44720
30.59920,44862
30.60732,45027
30.61543,48952
30.62357,49288
30.63168,51231
30.63982,47020
30.64793,42743
30.65605,43696
30.66418,46659
30.67230,43017
30.68042,45502
30.68855,45842
30.69667,44174
30.70480,43665
30.71292,46206
30.72103,42797
30.72917,46336
30.73728,41951
30.74542,37585
30.75353,44081
30.76165,43840
30.76978,43528
30.77790,40161
30.78602,45674
30.79415,38796
30.80227,43667
30.81040,42547
30.81852,46735
30.82663,45388
30.83477,53597
30.84288,44576
30.85102,48119
30.85913,44864
30.86725,43906
30.87538,42832
30.88350,40408
30.89163,44129
30.89975,39866
30.90787,42371
30.91600,43026
30.92412,38230
30.93223,38935
30.94037,39975
30.94848,43757
30.95662,41247
30.96473,42387
30.97285,42988
30.98098,42607
30.98910,44362
30.99723,41024
31.00535,40472
31.01347,37763
31.02160,42705
31.02972,45009
31.03785,44702
31.04597,40532
31.05408,42758
31.06222,41455
31.07033,43415
31.07845,41432
31.08658,49425
31.09470,46171
31.10283,39284
31.11095,49076
31.11907,54171
31.12720,59011
31.13532,54412
31.14345,53014
31.15157,47216
31.15968,49082
31.16782,48557
31.17593,51749
31.18405,48902
31.19218,60829
31.20030,75526
31.20843,100189
31.21655,126046
31.22467,167948
31.23280,195552
31.24092,207162
31.24905,208568
31.25717,168520
31.26528,136069
31.27342,106420
31.28153,78007
31.28967,68078
31.29778,55868
31.30590,50213
31.31403,50160
31.32215,41813
31.33027,46958
31.33840,42198
31.34652,39928
31.35465,42853
31.36277,47198
31.37088,46822
31.37902,41857
31.38713,42977
31.39527,40643
31.40338,44177
31.41150,41097
31.41963,39730
31.42775,50064
31.43588,48118
31.44400,47355
31.45212,48117
31.46025,47779
31.46837,47317
31.47648,42066
31.48462,42224
31.49273,40883
31.50087,45195
31.50898,41091
31.51710,38402
31.52523,38416
31.53335,40035
31.54148,41612
31.54960,42201
31.55772,41364
31.56585,42182
31.57397,37384
31.58208,37207
31.59022,38994
31.59833,39727
31.60647,39665
31.61458,37113
31.62270,39194
31.63083,40369
31.63895,42092
31.64708,37306
31.65520,41459
31.66332,42363
31.67145,40258
31.67957,41062
31.68770,42603
31.69582,44478
31.70393,40761
31.71207,41612
31.72018,48465
31.72830,43123
31.73643,37508
31.74455,38157
31.75268,38110
31.76080,38007
31.76892,36918
31.77705,36816
31.78517,38344
31.79330,37272
31.80142,39353
31.80953,40003
31.81767,38927
31.82578,40704
31.83392,40592
31.84203,44187
31.85015,39139
31.85828,43802
31.86640,43493
31.87452,45107
31.88265,47412
31.89077,45802
31.89890,46980
31.90702,46066
31.91513,50111
31.92327,49651
31.93138,61576
31.93952,69184
31.94763,78020
31.95575,95676
31.96388,98737
31.97200,112419
31.98012,113903
31.98825,127744
31.99637,121092
32.00450,120096
32.01262,113405
32.02073,109965
32.02887,102550
32.03698,97730
32.04512,93943
32.05323,89768
32.06135,85706
32.06948,81266
32.07760,74515
32.08573,78067
32.09385,79201
32.10197,80078
32.11010,74820
32.11822,74531
32.12633,67859
32.13447,59360
32.14258,58824
32.15072,58467
32.15883,54456
32.16695,53133
32.17508,53182
32.18320,52140
32.19133,53648
32.19945,53811
32.20757,46034
32.21570,43113
32.22382,50384
32.23193,44274
32.24007,47939
32.24818,47724
32.25632,45552
32.26443,43826
32.27255,46649
32.28068,43778
32.28880,50986
32.29693,46851
32.30505,46505
32.31317,44501
32.32130,42429
32.32942,48423
32.33755,48976
32.34567,47766
32.35378,49317
32.36192,52311
32.37003,51887
32.37815,56848
32.38628,52894
32.39440,52425
32.40253,47959
32.41065,48709
32.41877,46598
32.42690,39748
32.43502,45050
32.44315,42183
32.45127,40695
32.45938,43204
32.46752,44055
32.47563,43981
32.48377,48005
32.49188,39820
32.50000,41960
32.50813,44739
32.51625,43265
32.52437,44957
32.53250,43992
32.54062,43699
32.54875,42158
32.55687,44140
32.56498,42658
32.57312,42493
32.58123,41565
32.58937,42736
32.59748,42191
32.60560,41676
32.61373,41921
32.62185,43481
32.62997,42199
32.63810,41181
32.64622,41628
32.65435,41965
32.66247,48720
32.67058,52003
32.67872,62866
32.68683,75307
32.69497,73737
32.70308,75399
32.71120,65785
32.71933,62091
32.72745,56662
32.73558,50205
32.74370,49943
32.75182,46757
32.75995,44344
32.76807,44910
32.77618,44559
32.78432,41594
32.79243,44041
32.80057,40793
32.80868,40975
32.81680,38501
32.82493,43032
32.83305,39527
32.84118,39834
32.84930,40095
32.85742,40944
32.86555,40644
32.87367,42317
32.88180,44536
32.88992,38110
32.89803,41652
32.90617,48244
32.91428,45443
32.92240,42608
32.93053,40224
32.93865,42978
32.94678,43795
32.95490,42977
32.96302,45199
32.97115,39778
32.97927,38094
32.98740,37542
32.99552,47459
33.00363,41266
33.01177,42325
33.01988,39375
33.02800,42422
33.03613,38977
33.04425,42899
33.05238,43644
33.06050,44219
33.06862,43652
33.07675,40707
33.08487,43669
33.09300,41198
33.10112,43723
33.10923,44445
33.11737,56631
33.12548,57456
33.13362,63714
33.14173,60248
33.14985,56054
33.15798,52512
33.16610,48318
33.17422,49008
33.18235,41529
33.19047,44449
33.19860,44854
33.20672,44209
33.21483,48155
33.22297,51034
33.23108,43157
33.23922,46288
33.24733,47356
33.25545,44211
33.26358,45012
33.27170,43318
33.27982,42512
33.28795,45292
33.29607,41878
33.30420,39180
33.31232,38623
33.32043,47106
33.32857,42432
33.33668,42189
33.34482,40747
33.35293,43667
33.36105,40434
33.36918,39134
33.37730,44000
33.38543,40367
33.39355,40843
33.40167,42403
33.40980,43919
33.41792,43330
33.42603,45207
33.43417,44959
33.44228,41266
33.45042,41295
33.45853,46834
33.46665,46504
33.47478,44424
33.48290,44936
33.49103,38981
33.49915,46987
33.50727,45341
33.51540,42782
33.52352,39594
33.53165,42057
33.53977,44057
33.54788,45530
33.55602,43429
33.56413,45272
33.57225,46692
33.58038,46916
33.58850,48651
33.59663,41249
33.60475,44281
33.61287,40785
33.62100,39834
33.62912,40971
33.63725,38021
33.64537,39848
33.65348,48883
33.66162,41758
33.66973,43776
33.67785,44900
33.68598,42340
33.69410,44350
33.70223,41336
33.71035,42495
33.71847,41712
33.72660,39460
33.73472,39820
33.74285,42779
33.75097,42156
33.75908,42971
33.76722,39485
33.77533,42569
33.78347,45839
33.79158,42659
33.79970,45865
33.80783,46157
33.81595,43520
33.82407,44951
33.83220,45691
33.84032,42059
33.84845,41034
33.85657,45829
33.86468,50406
33.87282,49389
33.88093,52086
33.88907,50233
33.89718,47751
33.90530,42274
33.91343,50615
33.92155,43119
33.92968,44528
33.93780,44094
33.94592,40107
33.95405,45690
33.96217,42110
33.97028,44852
33.97842,48671
33.98653,44854
33.99467,44173
34.00278,49983
34.01090,44245
34.01903,43698
34.02715,43466
34.03528,46420
34.04340,43438
34.05152,41576
34.05965,45626
34.06777,45011
34.07588,43275
34.08402,43739
34.09213,42155
34.10027,40153
34.10838,43231
34.11650,42790
34.12463,44377
34.13275,46411
34.14088,45849
34.14900,39645
34.15712,45808
34.16525,44301
34.17337,43753
34.18150,43165
34.18962,51347
34.19773,46901
34.20587,44912
34.21398,47589
34.22210,42243
34.23023,44874
34.23835,41744
34.24648,44997
34.25460,43887
34.26272,39958
34.27085,42507
34.27897,46615
34.28710,42933
34.29522,46243
34.30333,48587
34.31147,51251
34.31958,45696
34.32770,41698
34.33583,41018
34.34395,46779
34.35208,47689
34.36020,46052
34.36832,40699
34.37645,52910
34.38457,45328
34.39270,45823
34.40082,48765
34.40893,45320
34.41707,44538
34.42518,45047
34.43332,50520
34.44143,47345
34.44955,45028
34.45768,42564
34.46580,45119
34.47392,43243
34.48205,44746
34.49017,45408
34.49830,42569
34.50642,48777
34.51453,43092
34.52267,49741
34.53078,52330
34.53892,60037
34.54703,71519
34.55515,74872
34.56328,92123
34.57140,95696
34.57953,102047
34.58765,99774
34.59577,96382
34.60390,89932
34.61202,87628
34.62013,78740
34.62827,69808
34.63638,60243
34.64452,66565
34.65263,66100
34.66075,65714
34.66888,57762
34.67700,58386
34.68513,56444
34.69325,55915
34.70137,54198
34.70950,54586
34.71762,55792
34.72575,55763
34.73387,56179
34.74198,52012
34.75012,52407
34.75823,53249
34.76635,53637
34.77448,59814
34.78260,53341
34.79073,49819
34.79885,52833
34.80697,50330
34.81510,54874
34.82322,50961
34.83135,49110
34.83947,52806
34.84758,46478
34.85572,50041
34.86383,53527
34.87195,47751
34.88008,50686
34.88820,51304
34.89633,53496
34.90445,48515
34.91257,50512
34.92070,46307
34.92882,52060
34.93695,54313
34.94507,50228
34.95318,52641
34.96132,54177
34.96943,57356
34.97757,54402
34.98568,58233
34.99380,67387
35.00193,57471
35.01005,59396
35.01817,56336
35.02630,51180
35.03442,55914
35.04255,52541
35.05067,49740
35.05878,50320
35.06692,49409
35.07503,55168
35.08317,51285
35.09128,56011
35.09940,55403
35.10753,58346
35.11565,53873
35.12377,50546
35.13190,53961
35.14002,53831
35.14815,57523
35.15627,58373
35.16438,61722
35.17252,69670
35.18063,66620
35.18877,59492
35.19688,58576
35.20500,58054
35.21313,58048
35.22125,55371
35.22938,56074
35.23750,54133
35.24562,50101
35.25375,45163
35.26187,48821
35.26998,52264
35.27812,46845
35.28623,50232
35.29437,55632
35.30248,54269
35.31060,52848
35.31873,48746
35.32685,49814
35.33498,47940
35.34310,47127
35.35122,51478
35.35935,44626
35.36747,48994
35.37560,53428
35.38372,49496
35.39183,48078
35.39997,47890
35.40808,47980
35.41620,46581
35.42433,53393
35.43245,44863
35.44058,47410
35.44870,48642
35.45682,50915
35.46495,53304
35.47307,51899
35.48120,53335
35.48932,53716
35.49743,52585
35.50557,55724
35.51368,49058
35.52180,54354
35.52993,47294
35.53805,48913
35.54618,50179
35.55430,47217
35.56242,51985
35.57055,51307
35.57867,47837
35.58680,52069
35.59492,53259
35.60303,50477
35.61117,52275
35.61928,51133
35.62742,49324
35.63553,50470
35.64365,45701
35.65178,49340
35.65990,46229
35.66802,47817
35.67615,50116
35.68427,53710
35.69240,56214
35.70052,58495
35.70863,58752
35.71677,60345
35.72488,59571
35.73302,60676
35.74113,57531
35.74925,54509
35.75738,57583
35.76550,52442
35.77363,50454
35.78175,62355
35.78987,53711
35.79800,52435
35.80612,49348
35.81423,48198
35.82237,52126
35.83048,55011
35.83862,51014
35.84673,50830
35.85485,55155
35.86298,53923
35.87110,50484
35.87923,53161
35.88735,53504
35.89547,49381
35.90360,48095
35.91172,47864
35.91983,48763
35.92797,50098
35.93608,52462
35.94422,51126
35.95233,53797
35.96045,52151
35.96858,49552
35.97670,50824
35.98483,51665
35.99295,48315
36.00107,49447
36.00920,49002
36.01732,52542
36.02545,54021
36.03357,55509
36.04168,56024
36.04982,53892
36.05793,62191
36.06605,53590
36.07418,54767
36.08230,53501
36.09043,53882
36.09855,56516
36.10667,53338
36.11480,52529
36.12292,51130
36.13105,50529
36.13917,55112
36.14728,53782
36.15542,56778
36.16353,50162
36.17165,50312
36.17978,55770
36.18790,55269
36.19603,54321
36.20415,56486
36.21227,55205
36.22040,57120
36.22852,56056
36.23665,53347
36.24477,52096
36.25288,49983
36.26102,54936
36.26913,51008
36.27727,53735
36.28538,50345
36.29350,51955
36.30163,57292
36.30975,58784
36.31787,63209
36.32600,74734
36.33412,76914
36.34225,91467
36.35037,80517
36.35848,72169
36.36662,71714
36.37473,67423
36.38287,69128
36.39098,66660
36.39910,66746
36.40723,63178
36.41535,63086
36.42348,62464
36.43160,57063
36.43972,58590
36.44785,57987
36.45597,58804
36.46408,53833
36.47222,52729
36.48033,54468
36.48847,52344
36.49658,50264
36.50470,51803
36.51283,51905
36.52095,52155
36.52908,55085
36.53720,54946
36.54532,57482
36.55345,49958
36.56157,52216
36.56968,49326
36.57782,52906
36.58593,54691
36.59407,54359
36.60218,53063
36.61030,57127
36.61843,49463
36.62655,53182
36.63468,53719
36.64280,55020
36.65092,54195
36.65905,55530
36.66717,57357
36.67530,52639
36.68342,58293
36.69153,55653
36.69967,59235
36.70778,55793
36.71590,59740
36.72403,53514
36.73215,58879
36.74028,55127
36.74840,56879
36.75652,58367
36.76465,58455
36.77277,52604
36.78090,50337
36.78902,53586
36.79713,55617
36.80527,53585
36.81338,52384
36.82152,57256
36.82963,54575
36.83775,51295
36.84588,53191
36.85400,56583
36.86212,56879
36.87025,52767
36.87837,56322
36.88650,52670
36.89462,54268
36.90273,52703
36.91087,50370
36.91898,51800
36.92712,53716
36.93523,54358
36.94335,52269
36.95148,50881
36.95960,51893
36.96772,55236
36.97585,51515
36.98397,55536
36.99210,53570
37.00022,48651
37.00833,54278
37.01647,50997
37.02458,55661
37.03272,55785
37.04083,57869
37.04895,54850
37.05708,56333
37.06520,54112
37.07333,57928
37.08145,53716
37.08957,51356
37.09770,54277
37.10582,56595
37.11393,58505
37.12207,57315
37.13018,56232
37.13832,56940
37.14643,57406
37.15455,55747
37.16268,58920
37.17080,55948
37.17893,54284
37.18705,55040
37.19517,52049
37.20330,58185
37.21142,64173
37.21955,60517
37.22767,60309
37.23578,64432
37.24392,57774
37.25203,60083
37.26015,62590
37.26828,60187
37.27640,58589
37.28453,58139
37.29265,64405
37.30077,58301
37.30890,63124
37.31702,56769
37.32515,62307
37.33327,62988
37.34138,62727
37.34952,65202
37.35763,74898
37.36575,80132
37.37388,88697
37.38200,93959
37.39013,107240
37.39825,97420
37.40637,95734
37.41450,82214
37.42262,76678
37.43075,74869
37.43887,75143
37.44698,76609
37.45512,71996
37.46323,69784
37.47137,69596
37.47948,71710
37.48760,71628
