Z:\data\JTB-E02\BACandBLUE\JTB-E02-193-17.D Wed Dec 19 15:50:38 2018
Start of data points
2.09530	73573
2.10342	77003
2.11155	71321
2.11967	73757
2.12778	72682
2.13592	77861
2.14403	74742
2.15215	75354
2.16028	73318
2.16840	73913
2.17653	76556
2.18465	77818
2.19277	66262
2.20090	63856
2.20902	66595
2.21715	63580
2.22527	65124
2.23338	66702
2.24152	74656
2.24963	65498
2.25777	60401
2.26588	104701
2.27400	611135
2.28213	1746549
2.29025	1482676
2.29837	727775
2.30650	500216
2.31462	398095
2.32275	344409
2.33087	302930
2.33898	271829
2.34712	240996
2.35523	231268
2.36337	222536
2.37148	216418
2.37960	212851
2.38773	203695
2.39585	199035
2.40398	193374
2.41210	190007
2.42022	193125
2.42835	191824
2.43647	182966
2.44458	163460
2.45272	163656
2.46083	151770
2.46897	156116
2.47708	146851
2.48520	145015
2.49333	159296
2.50145	162764
2.50958	158573
2.51770	159389
2.52582	152543
2.53395	148392
2.54207	153668
2.55018	163220
2.55832	173518
2.56643	172004
2.57457	148839
2.58268	137583
2.59080	132423
2.59893	135728
2.60705	277035
2.61518	603210
2.62330	619016
2.63142	396088
2.63955	262920
2.64767	217959
2.65580	179457
2.66392	170591
2.67203	154630
2.68017	148335
2.68828	143848
2.69640	139817
2.70453	130260
2.71265	129027
2.72078	125948
2.72890	125376
2.73702	116609
2.74515	118773
2.75327	115893
2.76140	116331
2.76952	127105
2.77763	551518
2.78577	2430333
2.79388	3645995
2.80202	2386142
2.81013	1249270
2.81825	909841
2.82638	754838
2.83450	605037
2.84262	472314
2.85075	393551
2.85887	338425
2.86700	300417
2.87512	268797
2.88323	243849
2.89137	219081
2.89948	218737
2.90762	197640
2.91573	183783
2.92385	187079
2.93198	164143
2.94010	159716
2.94822	156885
2.95635	156484
2.96447	164606
2.97260	168681
2.98072	160063
2.98883	146255
2.99697	152354
3.00508	153317
3.01322	160030
3.02133	152737
3.02945	149774
3.03758	137136
3.04570	136248
3.05383	125569
3.06195	124281
3.07007	127510
3.07820	156767
3.08632	448371
3.09443	1308510
3.10257	2683855
3.11068	5053288
3.11882	6121754
3.12693	4336554
3.13505	2564592
3.14318	1776987
3.15130	1354874
3.15943	1081687
3.16755	947669
3.17567	993517
3.18380	1542321
3.19192	4273383
3.20003	7460771
3.20817	6968197
3.21628	4596285
3.22442	3206025
3.23253	2493158
3.24065	1989996
3.24878	1620064
3.25690	1362006
3.26503	1147239
3.27315	1004565
3.28127	886182
3.28940	879377
3.29752	1427111
3.30565	3127458
3.31377	5466276
3.32188	6141092
3.33002	5038191
3.33813	3610805
3.34625	2630882
3.35438	2092689
3.36250	1728276
3.37063	1489210
3.37875	1304119
3.38687	1171781
3.39500	1045232
3.40312	969526
3.41125	874114
3.41937	833558
3.42748	792152
3.43562	800824
3.44373	810881
3.45187	768878
3.45998	730908
3.46810	855580
3.47623	1121837
3.48435	1119996
3.49247	873687
3.50060	671447
3.50872	585432
3.51685	529616
3.52497	511790
3.53308	516287
3.54122	598265
3.54933	635677
3.55747	578719
3.56558	482196
3.57370	436148
3.58183	412368
3.58995	393266
3.59807	373186
3.60620	369878
3.61432	358972
3.62245	373423
3.63057	385307
3.63868	393127
3.64682	386399
3.65493	470631
3.66307	2210382
3.67118	1.352066E+07
3.67930	3.654668E+07
3.68743	5.241974E+07
3.69555	5.1728E+07
3.70368	3.843916E+07
3.71180	2.634636E+07
3.71992	1.971028E+07
3.72805	1.597457E+07
3.73617	1.336164E+07
3.74428	1.129174E+07
3.75242	9757515
3.76053	8506250
3.76867	7509717
3.77678	6658888
3.78490	6025042
3.79303	5463445
3.80115	5112348
3.80928	5035817
3.81740	5428978
3.82552	5708839
3.83365	5260788
3.84177	4494907
3.84990	3960320
3.85802	3593734
3.86613	3304850
3.87427	3080965
3.88238	2884768
3.89050	2716989
3.89863	2576112
3.90675	2442481
3.91488	2426686
3.92300	2732758
3.93112	3367660
3.93925	3674865
3.94737	3312578
3.95550	2886637
3.96362	3094920
3.97173	3632577
3.97987	3489635
3.98798	2817835
3.99610	2258681
4.00423	2333947
4.01235	3267940
4.02048	4306656
4.02860	4231508
4.03672	3137596
4.04485	2190972
4.05297	1728921
4.06110	1503743
4.06922	1375739
4.07733	1287303
4.08547	1244115
4.09358	1225194
4.10172	1180477
4.10983	1132571
4.11795	1096033
4.12608	1036335
4.13420	1006125
4.14232	996244
4.15045	1024920
4.15857	1033584
4.16670	999632
4.17482	995100
4.18293	1002446
4.19107	975786
4.19918	921741
4.20732	1029891
4.21543	2290080
4.22355	6952004
4.23168	1.590074E+07
4.23980	2.468666E+07
4.24792	3.091236E+07
4.25605	3.534531E+07
4.26417	3.765558E+07
4.27230	3.548924E+07
4.28042	2.143478E+07
4.28853	1.098394E+07
4.29667	7677867
4.30478	5946429
4.31292	4752178
4.32103	3938882
4.32915	3305972
4.33728	2906815
4.34540	2556280
4.35353	2291881
4.36165	2246044
4.36977	2355946
4.37790	2497225
4.38602	2362126
4.39413	2015970
4.40227	1659677
4.41038	1451606
4.41852	1309755
4.42663	1217241
4.43475	1148497
4.44288	1096137
4.45100	1034280
4.45913	985745
4.46725	947989
4.47537	914215
4.48350	888252
4.49162	863432
4.49975	841466
4.50787	819899
4.51598	808795
4.52412	786642
4.53223	780888
4.54035	776239
4.54848	810850
4.55660	849061
4.56473	837665
4.57285	766798
4.58097	713546
4.58910	681721
4.59722	656888
4.60535	656235
4.61347	654691
4.62158	683124
4.62972	941806
4.63783	1635907
4.64595	2652608
4.65408	3167295
4.66220	2721812
4.67033	1916288
4.67845	1384040
4.68657	1157131
4.69470	1030577
4.70282	871786
4.71095	769166
4.71907	690769
4.72718	630049
4.73532	581027
4.74343	586376
4.75157	554142
4.75968	538211
4.76780	526172
4.77593	518619
4.78405	504610
4.79217	532133
4.80030	656329
4.80842	852353
4.81655	987679
4.82467	901738
4.83278	799038
4.84092	745612
4.84903	819480
4.85717	950769
4.86528	940351
4.87340	838526
4.88153	691018
4.88965	627994
4.89778	560006
4.90590	527547
4.91402	516447
4.92215	494509
4.93027	476175
4.93838	500552
4.94652	605688
4.95463	974269
4.96277	1659319
4.97088	2353614
4.97900	2657287
4.98713	2422820
4.99525	1960309
5.00338	1532249
5.01150	1291016
5.01962	1133727
5.02775	1198090
5.03587	1566245
5.04398	2232273
5.05212	2639746
5.06023	2498303
5.06837	2022996
5.07648	1665527
5.08460	1406943
5.09273	1262032
5.10085	1137777
5.10898	1061586
5.11710	982980
5.12522	929869
5.13335	860693
5.14147	832221
5.14960	845044
5.15772	1001146
5.16583	1322481
5.17397	1667051
5.18208	1723151
5.19020	1502188
5.19833	1285092
5.20645	1303723
5.21458	1435626
5.22270	1482449
5.23082	1388720
5.23895	1111458
5.24707	978340
5.25520	857973
5.26332	736544
5.27143	638160
5.27957	575234
5.28768	551211
5.29582	543107
5.30393	519091
5.31205	500117
5.32018	491133
5.32830	491766
5.33642	508640
5.34455	549006
5.35267	537166
5.36080	535740
5.36892	500423
5.37703	464128
5.38517	468245
5.39328	486390
5.40142	554531
5.40953	603640
5.41765	610346
5.42578	556511
5.43390	481480
5.44202	462758
5.45015	500557
5.45827	588311
5.46640	660049
5.47452	670165
5.48263	569601
5.49077	484068
5.49888	423563
5.50702	400558
5.51513	379936
5.52325	376034
5.53138	379360
5.53950	381427
5.54763	380928
5.55575	466414
5.56387	725631
5.57200	1222053
5.58012	1785771
5.58823	1949273
5.59637	1657243
5.60448	1156375
5.61262	801380
5.62073	578375
5.62885	498914
5.63698	461226
5.64510	434138
5.65323	408861
5.66135	388838
5.66947	366602
5.67760	373459
5.68572	420665
5.69383	495439
5.70197	575486
5.71008	600614
5.71822	565173
5.72633	494457
5.73445	427281
5.74258	386492
5.75070	351116
5.75883	336614
5.76695	327497
5.77507	317874
5.78320	315273
5.79132	304880
5.79945	304441
5.80757	309039
5.81568	301552
5.82382	295616
5.83193	307462
5.84005	304613
5.84818	305907
5.85630	297956
5.86443	302555
5.87255	284193
5.88067	286787
5.88880	275168
5.89692	283114
5.90505	285898
5.91317	300461
5.92128	322285
5.92942	356159
5.93753	360898
5.94567	352243
5.95378	372583
5.96190	453696
5.97003	585044
5.97815	762465
5.98627	981285
5.99440	1254482
6.00252	1374408
6.01065	1268765
6.01877	1006529
6.02688	718740
6.03502	519262
6.04313	394693
6.05127	331923
6.05938	310040
6.06750	290192
6.07563	275370
6.08375	269025
6.09187	268436
6.10000	252174
6.10812	245112
6.11625	248532
6.12437	302043
6.13248	510297
6.14062	1018874
6.14873	1781878
6.15687	2277766
6.16498	2173602
6.17310	1640907
6.18123	1147301
6.18935	851614
6.19748	697501
6.20560	589077
6.21372	516899
6.22185	485914
6.22997	449795
6.23808	431168
6.24622	424244
6.25433	433603
6.26247	498232
6.27058	530909
6.27870	540305
6.28683	506159
6.29495	418024
6.30308	380716
6.31120	359340
6.31932	357605
6.32745	351236
6.33557	352899
6.34370	355287
6.35182	368960
6.35993	354247
6.36807	342122
6.37618	324854
6.38430	324931
6.39243	329216
6.40055	332658
6.40868	316210
6.41680	302877
6.42492	303819
6.43305	287247
6.44117	297104
6.44930	292652
6.45742	317941
6.46553	330673
6.47367	333371
6.48178	320464
6.48990	314349
6.49803	312044
6.50615	310045
6.51428	305973
6.52240	317811
6.53052	312088
6.53865	318473
6.54677	321836
6.55490	311816
6.56302	343698
6.57113	500687
6.57927	880514
6.58738	1362456
6.59552	1576545
6.60363	1373964
6.61175	972073
6.61988	660767
6.62800	488079
6.63612	409583
6.64425	372865
6.65237	344138
6.66050	336229
6.66862	328402
6.67673	323208
6.68487	277545
6.69298	266915
6.70112	238171
6.70923	236616
6.71735	230759
6.72548	228618
6.73360	226468
6.74172	218853
6.74985	220768
6.75797	215162
6.76610	214534
6.77422	205549
6.78233	214760
6.79047	207709
6.79858	203550
6.80672	186342
6.81483	177410
6.82295	178880
6.83108	185820
6.83920	173495
6.84733	172848
6.85545	187817
6.86357	208483
6.87170	239836
6.87982	259169
6.88793	261312
6.89607	245944
6.90418	207141
6.91232	177815
6.92043	165330
6.92855	150912
6.93668	144637
6.94480	141939
6.95293	140998
6.96105	142416
6.96917	149842
6.97730	165920
6.98542	197312
6.99355	222839
7.00167	214044
7.00978	193349
7.01792	173138
7.02603	177952
7.03415	174623
7.04228	175382
7.05040	169901
7.05853	186186
7.06665	240948
7.07477	307756
7.08290	389980
7.09102	417559
7.09915	384793
7.10727	330197
7.11538	258088
7.12352	210812
7.13163	190688
7.13977	195079
7.14788	208584
7.15600	230167
7.16413	272520
7.17225	313555
7.18037	340668
7.18850	377719
7.19662	707668
7.20475	1938244
7.21287	4645421
7.22098	8435657
7.22912	1.12335E+07
7.23723	1.117002E+07
7.24537	7762467
7.25348	4069855
7.26160	1805113
7.26973	789321
7.27785	375493
7.28597	240578
7.29410	199613
7.30222	195169
7.31035	186393
7.31847	196541
7.32658	224999
7.33472	279328
7.34283	327498
7.35097	375313
7.35908	380389
7.36720	351629
7.37533	298587
7.38345	228118
7.39158	190357
7.39970	172936
7.40782	162827
7.41595	157989
7.42407	156467
7.43218	158327
7.44032	150634
7.44843	146441
7.45657	152839
7.46468	156511
7.47280	165134
7.48093	169721
7.48905	168276
7.49718	162823
7.50530	137798
7.51342	135316
7.52155	151576
7.52967	221118
7.53778	428035
7.54592	954553
7.55403	2032565
7.56217	3752864
7.57028	5612704
7.57840	7151361
7.58653	7611316
7.59465	6724795
7.60278	5009137
7.61090	3226189
7.61902	1853390
7.62715	1070573
7.63527	641545
7.64340	426297
7.65152	339888
7.65963	275315
7.66777	226125
7.67588	188911
7.68400	165356
7.69213	149519
7.70025	140412
7.70838	135412
7.71650	139792
7.72462	154500
7.73275	178902
7.74087	201677
7.74900	207651
7.75712	211107
7.76523	208853
7.77337	205038
7.78148	178488
7.78962	181466
7.79773	172853
7.80585	205229
7.81398	258898
7.82210	303135
7.83022	322895
7.83835	292224
7.84647	238771
7.85460	206508
7.86272	190130
7.87083	201427
7.87897	226641
7.88708	281505
7.89522	343830
7.90333	405831
7.91145	424407
7.91958	375176
7.92770	323291
7.93582	280826
7.94395	272654
7.95207	292839
7.96020	318844
7.96832	315631
7.97643	290616
7.98457	268836
7.99268	211172
8.00082	168531
8.00893	143681
8.01705	134777
8.02518	123491
8.03330	130262
8.04143	126259
8.04955	124626
8.05767	124921
8.06580	125785
8.07392	118640
8.08203	126082
8.09017	114759
8.09828	113961
8.10642	111592
8.11453	112779
8.12265	104436
8.13078	124821
8.13890	156957
8.14703	235317
8.15515	347898
8.16327	421267
8.17140	437326
8.17952	369594
8.18765	286891
8.19577	217375
8.20388	182156
8.21202	154586
8.22013	140393
8.22825	127197
8.23638	122069
8.24450	116895
8.25263	114465
8.26075	107619
8.26887	106901
8.27700	101330
8.28512	98788
8.29325	106013
8.30137	96091
8.30948	103128
8.31762	116447
8.32573	128668
8.33385	144146
8.34198	146345
8.35010	144237
8.35823	128734
8.36635	117026
8.37447	103657
8.38260	98806
8.39072	92877
8.39885	92149
8.40697	89314
8.41508	91182
8.42322	84743
8.43133	84737
8.43947	80488
8.44758	83933
8.45570	82818
8.46383	90953
8.47195	83980
8.48007	83570
8.48820	84886
8.49632	79474
8.50445	82064
8.51257	82566
8.52068	93996
8.52882	128103
8.53693	191325
8.54507	278175
8.55318	330262
8.56130	301373
8.56943	232489
8.57755	165867
8.58567	116290
8.59380	103556
8.60192	105071
8.61005	131873
8.61817	156363
8.62628	189208
8.63442	209668
8.64253	197852
8.65067	175124
8.65878	145278
8.66690	118443
8.67503	99213
8.68315	89912
8.69128	87524
8.69940	86310
8.70752	82962
8.71565	86690
8.72377	86443
8.73188	84968
8.74002	80982
8.74813	82327
8.75627	76859
8.76438	84495
8.77250	99501
8.78063	164450
8.78875	289089
8.79688	470715
8.80500	630518
8.81312	709352
8.82125	643409
8.82937	522918
8.83750	401919
8.84562	322814
8.85373	292287
8.86187	267256
8.86998	259001
8.87810	253621
8.88623	234868
8.89435	235595
8.90248	223498
8.91060	209360
8.91872	225714
8.92685	253243
8.93497	327238
8.94310	449881
8.95122	541852
8.95933	556058
8.96747	462449
8.97558	372729
8.98370	341507
8.99183	348081
8.99995	362979
9.00808	368297
9.01620	329282
9.02432	268763
9.03245	232204
9.04057	194801
9.04870	173385
9.05682	164897
9.06493	164968
9.07307	163436
9.08118	156029
9.08932	160283
9.09743	184598
9.10555	231676
9.11368	317327
9.12180	424243
9.12992	522165
9.13805	526572
9.14617	450486
9.15430	367127
9.16242	276759
9.17053	230646
9.17867	205192
9.18678	189774
9.19492	174270
9.20303	167314
9.21115	165987
9.21928	167285
9.22740	165463
9.23553	159396
9.24365	180668
9.25177	174537
9.25990	173407
9.26802	167677
9.27613	158054
9.28427	150868
9.29238	147936
9.30052	148491
9.30863	141683
9.31675	138988
9.32488	141140
9.33300	142250
9.34113	138027
9.34925	128486
9.35737	128756
9.36550	129166
9.37362	125911
9.38173	134814
9.38987	146557
9.39798	184357
9.40612	240533
9.41423	287602
9.42235	361484
9.43048	414569
9.43860	497702
9.44673	575108
9.45485	632362
9.46297	607451
9.47110	508341
9.47922	394502
9.48735	289410
9.49547	215313
9.50358	173815
9.51172	158173
9.51983	178975
9.52795	208320
9.53608	243126
9.54420	262699
9.55233	242128
9.56045	217372
9.56857	188898
9.57670	152688
9.58482	137729
9.59295	123001
9.60107	121805
9.60918	115129
9.61732	112608
9.62543	106061
9.63357	100393
9.64168	94473
9.64980	97680
9.65793	89268
9.66605	86008
9.67417	89513
9.68230	92727
9.69042	97799
9.69855	93371
9.70667	89501
9.71478	89807
9.72292	98144
9.73103	104644
9.73917	99191
9.74728	99642
9.75540	95038
9.76353	88777
9.77165	83002
9.77977	79000
9.78790	80700
9.79602	79277
9.80415	79510
9.81227	78178
9.82038	77742
9.82852	76439
9.83663	76503
9.84477	74702
9.85288	76897
9.86100	77998
9.86913	79647
9.87725	85414
9.88538	81347
9.89350	70459
9.90162	80562
9.90975	76071
9.91787	79880
9.92598	89017
9.93412	107391
9.94223	157104
9.95037	249081
9.95848	416562
9.96660	586016
9.97473	700907
9.98285	682713
9.99098	593231
9.99910	417730
10.00722	289192
10.01535	193115
10.02347	157605
10.03158	135218
10.03972	132641
10.04783	137180
10.05597	133436
10.06408	152473
10.07220	163523
10.08033	171381
10.08845	178901
10.09658	170101
10.10470	171354
10.11282	160952
10.12095	156975
10.12907	151686
10.13720	140918
10.14532	136141
10.15343	137871
10.16157	137266
10.16968	130169
10.17780	129702
10.18593	125298
10.19405	123395
10.20218	124557
10.21030	114032
10.21842	117991
10.22655	113220
10.23467	116285
10.24280	121027
10.25092	136522
10.25903	163963
10.26717	281071
10.27528	715185
10.28342	1800565
10.29153	3840541
10.29965	6932784
10.30778	1.040548E+07
10.31590	1.406531E+07
10.32402	1.785014E+07
10.33215	2.251485E+07
10.34027	2.884085E+07
10.34840	3.701034E+07
10.35652	4.597529E+07
10.36463	5.349364E+07
10.37277	5.705937E+07
10.38088	5.122903E+07
10.38902	3.134387E+07
10.39713	1.371119E+07
10.40525	6354269
10.41338	3650822
10.42150	2293364
10.42962	1557013
10.43775	1199667
10.44587	1052200
10.45400	1019381
10.46212	1038511
10.47023	1087135
10.47837	1076512
10.48648	1012152
10.49462	888498
10.50273	750546
10.51085	632364
10.51898	570534
10.52710	526757
10.53523	519690
10.54335	538712
10.55147	564592
10.55960	569593
10.56772	554731
10.57583	500959
10.58397	466472
10.59208	455370
10.60022	446713
10.60833	420795
10.61645	383094
10.62458	363789
10.63270	363346
10.64083	326965
10.64895	307889
10.65707	306858
10.66520	297410
10.67332	279563
10.68145	277716
10.68957	273911
10.69768	282782
10.70582	297553
10.71393	301332
10.72205	301894
10.73018	306243
10.73830	294502
10.74643	278242
10.75455	257995
10.76267	252570
10.77080	250108
10.77892	233733
10.78705	218423
10.79517	214684
10.80328	214513
10.81142	230786
10.81953	264567
10.82765	277311
10.83578	268862
10.84390	259907
10.85203	227948
10.86015	200158
10.86827	193811
10.87640	175743
10.88452	173345
10.89265	171908
10.90077	171416
10.90888	168422
10.91702	161905
10.92513	166709
10.93327	166755
10.94138	161295
10.94950	162796
10.95763	153871
10.96575	159793
10.97387	151046
10.98200	155617
10.99012	159071
10.99825	158388
11.00637	163731
11.01448	179210
11.02262	194454
11.03073	196990
11.03887	187697
11.04698	174317
11.05510	162148
11.06323	155740
11.07135	161032
11.07947	180873
11.08760	193380
11.09572	217201
11.10385	230700
11.11197	231143
11.12008	223480
11.12822	197413
11.13633	167510
11.14447	151505
11.15258	138589
11.16070	131067
11.16883	126279
11.17695	126291
11.18508	128241
11.19320	127668
11.20132	116884
11.20945	115447
11.21757	108896
11.22568	104643
11.23382	98194
11.24193	94325
11.25007	90347
11.25818	84748
11.26630	91495
11.27443	79424
11.28255	80110
11.29068	87200
11.29880	96503
11.30692	127116
11.31505	252393
11.32317	569102
11.33130	1252346
11.33942	2404221
11.34753	3813704
11.35567	4808534
11.36378	5200638
11.37190	4583884
11.38003	3506232
11.38815	2424370
11.39628	1667697
11.40440	1200988
11.41252	962137
11.42065	809854
11.42877	681487
11.43690	582118
11.44502	487934
11.45313	410046
11.46127	357922
11.46938	316208
11.47750	278395
11.48563	288521
11.49375	313753
11.50188	381668
11.51000	464659
11.51812	544128
11.52625	587001
11.53437	572531
11.54250	513675
11.55062	469713
11.55873	405668
11.56687	372771
11.57498	344548
11.58312	338663
11.59123	319846
11.59935	336240
11.60748	407363
11.61560	580953
11.62372	799556
11.63185	921252
11.63997	891509
11.64810	744173
11.65622	555616
11.66433	387939
11.67247	281003
11.68058	209225
11.68872	182444
11.69683	170971
11.70495	165333
11.71308	168776
11.72120	165516
11.72933	163481
11.73745	162610
11.74557	159177
11.75370	145314
11.76182	135503
11.76993	122959
11.77807	115488
11.78618	114200
11.79432	98919
11.80243	98168
11.81055	96808
11.81868	99518
11.82680	97817
11.83493	96292
11.84305	90818
11.85117	93951
11.85930	90889
11.86742	90447
11.87553	85236
11.88367	85735
11.89178	81803
11.89992	81525
11.90803	79796
11.91615	88549
11.92428	88765
11.93240	94462
11.94053	104193
11.94865	102929
11.95677	96855
11.96490	90316
11.97302	80783
11.98115	79116
11.98927	73383
11.99738	74419
12.00552	73326
12.01363	69138
12.02175	69944
12.02988	72823
12.03800	69342
12.04613	70095
12.05425	70080
12.06237	69623
12.07050	80394
12.07862	84004
12.08675	92841
12.09487	105539
12.10298	132479
12.11112	201826
12.11923	367910
12.12735	697691
12.13548	1151755
12.14360	1582931
12.15173	1839963
12.15985	1741411
12.16797	1403133
12.17610	987898
12.18422	661071
12.19235	461976
12.20047	401002
12.20858	377357
12.21672	371898
12.22483	351099
12.23297	324210
12.24108	314539
12.24920	286364
12.25733	271352
12.26545	248734
12.27357	239281
12.28170	235411
12.28982	215199
12.29795	215593
12.30607	201924
12.31418	199676
12.32232	188024
12.33043	171789
12.33857	166400
12.34668	170017
12.35480	157856
12.36293	164612
12.37105	165097
12.37918	154536
12.38730	150896
12.39542	155254
12.40355	173303
12.41167	207727
12.41978	286917
12.42792	391329
12.43603	484939
12.44417	522968
12.45228	499967
12.46040	418728
12.46853	319272
12.47665	254036
12.48478	214261
12.49290	195114
12.50102	177652
12.50915	163233
12.51727	159979
12.52540	167036
12.53352	172433
12.54163	207272
12.54977	268356
12.55788	332592
12.56600	407671
12.57413	427193
12.58225	418682
12.59038	360218
12.59850	290995
12.60662	217734
12.61475	192376
12.62287	166479
12.63100	153588
12.63912	149680
12.64723	141523
12.65537	133466
12.66348	128472
12.67160	130979
12.67973	128418
12.68785	124254
12.69598	125071
12.70410	123375
12.71222	119367
12.72035	120401
12.72847	123578
12.73660	122769
12.74472	125639
12.75283	127939
12.76097	127430
12.76908	123179
12.77722	113694
12.78533	105666
12.79345	103179
12.80158	97700
12.80970	95678
12.81782	91721
12.82595	85912
12.83407	80014
12.84220	73747
12.85032	76202
12.85843	69767
12.86657	70093
12.87468	66854
12.88282	63588
12.89093	65457
12.89905	65654
12.90718	66137
12.91530	65419
12.92342	67795
12.93155	62351
12.93967	64730
12.94780	66106
12.95592	69630
12.96403	65731
12.97217	75902
12.98028	81520
12.98842	87173
12.99653	97732
13.00465	98487
13.01278	88455
13.02090	81001
13.02903	74324
13.03715	68217
13.04527	69782
13.05340	71111
13.06152	65015
13.06963	68356
13.07777	68982
13.08588	72015
13.09402	81314
13.10213	82658
13.11025	87993
13.11838	82922
13.12650	70845
13.13463	71770
13.14275	65978
13.15087	68041
13.15900	69788
13.16712	70439
13.17525	73685
13.18337	80532
13.19148	80707
13.19962	84592
13.20773	80228
13.21585	90994
13.22398	93268
13.23210	97331
13.24023	103091
13.24835	105805
13.25647	105340
13.26460	102571
13.27272	103101
13.28085	103576
13.28897	94937
13.29708	85865
13.30522	76946
13.31333	68768
13.32145	64087
13.32958	56283
13.33770	61464
13.34583	60668
13.35395	56776
13.36207	63260
13.37020	58230
13.37832	58759
13.38645	59166
13.39457	61349
13.40268	58662
13.41082	59951
13.41893	61981
13.42707	60009
13.43518	64913
13.44330	57914
13.45143	63657
13.45955	69334
13.46767	62025
13.47580	66258
13.48392	66953
13.49205	74548
13.50017	69091
13.50828	66871
13.51642	70025
13.52453	77811
13.53267	78552
13.54078	82511
13.54890	84210
13.55703	82359
13.56515	75251
13.57328	73268
13.58140	74091
13.58952	85982
13.59765	93544
13.60577	114990
13.61388	131650
13.62202	154839
13.63013	178769
13.63827	182064
13.64638	164237
13.65450	140463
13.66263	109111
13.67075	86315
13.67888	77658
13.68700	67478
13.69512	69120
13.70325	60743
13.71137	56783
13.71948	53306
13.72762	58858
13.73573	54941
13.74387	56296
13.75198	67707
13.76010	80910
13.76823	112194
13.77635	161397
13.78448	250654
13.79260	360277
13.80072	512778
13.80885	665131
13.81697	833297
13.82510	984997
13.83322	1163836
13.84133	1379653
13.84947	1559930
13.85758	1566054
13.86570	1394357
13.87383	1121450
13.88195	806065
13.89008	556632
13.89820	385676
13.90632	271815
13.91445	202164
13.92257	166353
13.93070	130558
13.93882	114317
13.94693	106892
13.95507	102004
13.96318	93947
13.97130	89288
13.97943	82256
13.98755	83462
13.99568	80614
14.00380	86094
14.01192	93506
14.02005	97948
14.02817	100408
14.03630	96546
14.04442	90181
14.05253	83875
14.06067	78623
14.06878	75737
14.07692	73948
14.08503	72067
14.09315	79071
14.10128	74878
14.10940	74073
14.11752	70731
14.12565	69494
14.13377	75047
14.14190	67448
14.15002	76519
14.15813	82291
14.16627	94144
14.17438	100081
14.18252	103488
14.19063	110220
14.19875	117498
14.20688	136527
14.21500	161509
14.22313	200013
14.23125	250639
14.23937	286262
14.24750	310335
14.25562	346442
14.26373	353209
14.27187	356307
14.27998	329607
14.28812	291021
14.29623	254327
14.30435	202714
14.31248	168414
14.32060	157172
14.32873	145737
14.33685	134771
14.34497	137026
14.35310	131907
14.36122	130213
14.36933	126506
14.37747	118854
14.38558	105265
14.39372	97161
14.40183	101135
14.40995	115148
14.41808	167250
14.42620	218654
14.43433	279938
14.44245	310107
14.45057	286975
14.45870	230865
14.46682	198931
14.47495	159195
14.48307	150431
14.49118	147756
14.49932	142944
14.50743	140081
14.51555	130993
14.52368	112051
14.53180	104435
14.53993	99810
14.54805	99193
14.55617	93939
14.56430	83880
14.57242	87152
14.58055	78910
14.58867	75828
14.59678	70981
14.60492	69855
14.61303	66351
14.62117	62757
14.62928	64326
14.63740	60928
14.64553	60427
14.65365	58780
14.66177	61381
14.66990	62980
14.67802	55818
14.68615	58970
14.69427	54864
14.70238	60835
14.71052	62048
14.71863	62726
14.72677	65324
14.73488	62959
14.74300	74911
14.75113	68488
14.75925	72558
14.76737	71458
14.77550	73810
14.78362	82192
14.79175	103437
14.79987	194246
14.80798	549428
14.81612	1652157
14.82423	4109034
14.83237	8334482
14.84048	1.41696E+07
14.84860	2.008116E+07
14.85673	2.464217E+07
14.86485	2.604156E+07
14.87298	2.243247E+07
14.88110	1.515199E+07
14.88922	8295232
14.89735	4439757
14.90547	2703127
14.91358	2001025
14.92172	1603136
14.92983	1385752
14.93797	1223882
14.94608	1104475
14.95420	994048
14.96233	913531
14.97045	827643
14.97858	766737
14.98670	734742
14.99482	679887
15.00295	621665
15.01107	612346
15.01918	570233
15.02732	526057
15.03543	509140
15.04357	483081
15.05168	467538
15.05980	437544
15.06793	398134
15.07605	391834
15.08418	373424
15.09230	350005
15.10042	346985
15.10855	330175
15.11667	325799
15.12480	310094
15.13292	329832
15.14103	372465
15.14917	432355
15.15728	490233
15.16540	509037
15.17353	471619
15.18165	376375
15.18978	300930
15.19790	208186
15.20602	169185
15.21415	148340
15.22227	135434
15.23040	130046
15.23852	118141
15.24663	120030
15.25477	114014
15.26288	105965
15.27102	104925
15.27913	102132
15.28725	98162
15.29538	88138
15.30350	90949
15.31162	86038
15.31975	92448
15.32787	88117
15.33600	83370
15.34412	84994
15.35223	73904
15.36037	79362
15.36848	82221
15.37662	86824
15.38473	92839
15.39285	101739
15.40098	103116
15.40910	104858
15.41722	97875
15.42535	95025
15.43347	85635
15.44160	82685
15.44972	83010
15.45783	83071
15.46597	91164
15.47408	106361
15.48222	151078
15.49033	243144
15.49845	387484
15.50658	555505
15.51470	710460
15.52283	731787
15.53095	714921
15.53907	621134
15.54720	515671
15.55532	402372
15.56343	299989
15.57157	224815
15.57968	187621
15.58782	148359
15.59593	132452
15.60405	130645
15.61218	114773
15.62030	107315
15.62843	104490
15.63655	103941
15.64467	99531
15.65280	100426
15.66092	95473
15.66905	90437
15.67717	90960
15.68528	83988
15.69342	80639
15.70153	77423
15.70965	73917
15.71778	71991
15.72590	67633
15.73403	65864
15.74215	63613
15.75027	78073
15.75840	101564
15.76652	179004
15.77465	366236
15.78277	761707
15.79088	1351898
15.79902	1929331
15.80713	2170751
15.81525	2077376
15.82338	1637239
15.83150	1098663
15.83963	692892
15.84775	448762
15.85587	328811
15.86400	254865
15.87212	213377
15.88025	201409
15.88837	192257
15.89648	182614
15.90462	173033
15.91273	159052
15.92087	147836
15.92898	138692
15.93710	137731
15.94523	129605
15.95335	131357
15.96147	120709
15.96960	126229
15.97772	115304
15.98585	109577
15.99397	112583
16.00208	114257
16.01022	128670
16.01833	140565
16.02647	164622
16.03458	178607
16.04270	184712
16.05083	180201
16.05895	163327
16.06708	150567
16.07520	124470
16.08332	108908
16.09145	97113
16.09957	84249
16.10768	88703
16.11582	86313
16.12393	85704
16.13207	103535
16.14018	127263
16.14830	135338
16.15643	158109
16.16455	170125
16.17268	175249
16.18080	154488
16.18892	141564
16.19705	119174
16.20517	110129
16.21328	103392
16.22142	100514
16.22953	106761
16.23767	107858
16.24578	105512
16.25390	101999
16.26203	91484
16.27015	83912
16.27828	83486
16.28640	89927
16.29452	100326
16.30265	119145
16.31077	136781
16.31890	152986
16.32702	157273
16.33513	150663
16.34327	135077
16.35138	121066
16.35950	114137
16.36763	106718
16.37575	104756
16.38388	109180
16.39200	98809
16.40012	91218
16.40825	88751
16.41637	86690
16.42450	79453
16.43262	88198
16.44073	98852
16.44887	128023
16.45698	239779
16.46510	574837
16.47323	1388757
16.48135	2837550
16.48948	4618890
16.49760	5995209
16.50572	6376653
16.51385	5504263
16.52197	3899319
16.53010	2394228
16.53822	1391257
16.54633	859365
16.55447	591568
16.56258	456049
16.57072	380404
16.57883	337816
16.58695	325284
16.59508	303058
16.60320	285465
16.61132	266774
16.61945	247811
16.62757	221425
16.63570	209791
16.64382	191607
16.65193	184514
16.66007	172862
16.66818	161706
16.67632	163212
16.68443	153479
16.69255	146144
16.70068	147350
16.70880	135484
16.71693	127232
16.72505	121404
16.73317	105989
16.74130	102713
16.74942	101853
16.75753	118698
16.76567	142634
16.77378	176190
16.78192	200643
16.79003	198411
16.79815	173603
16.80628	146612
16.81440	114736
16.82253	91066
16.83065	83820
16.83877	78348
16.84690	72390
16.85502	76814
16.86313	73168
16.87127	69897
16.87938	69863
16.88752	69422
16.89563	64003
16.90375	67538
16.91188	61653
16.92000	63241
16.92813	64806
16.93625	69071
16.94437	62988
16.95250	66866
16.96062	63757
16.96875	66899
16.97687	70517
16.98498	66924
16.99312	67252
17.00123	72486
17.00935	73777
17.01748	79699
17.02560	74466
17.03373	80433
17.04185	84904
17.04997	105208
17.05810	138142
17.06622	166996
17.07435	188073
17.08247	185840
17.09058	156650
17.09872	134029
17.10683	108270
17.11497	93633
17.12308	86183
17.13120	91861
17.13933	98542
17.14745	94589
17.15557	99137
17.16370	91152
17.17182	96974
17.17995	93517
17.18807	88825
17.19618	85651
17.20432	81721
17.21243	75385
17.22057	70985
17.22868	69781
17.23680	65292
17.24493	67866
17.25305	64200
17.26117	73617
17.26930	73398
17.27742	75509
17.28555	71180
17.29367	68862
17.30178	69420
17.30992	65093
17.31803	81281
17.32617	94329
17.33428	133046
17.34240	175916
17.35053	240798
17.35865	270695
17.36678	276377
17.37490	266119
17.38302	245099
17.39115	214912
17.39927	203377
17.40738	191381
17.41552	181311
17.42363	183438
17.43177	176653
17.43988	166554
17.44800	175757
17.45613	169135
17.46425	153837
17.47238	144648
17.48050	127939
17.48862	124967
17.49675	115961
17.50487	104431
17.51298	111302
17.52112	103110
17.52923	102060
17.53737	99101
17.54548	97272
17.55360	107164
17.56173	114182
17.56985	163222
17.57798	321823
17.58610	723108
17.59422	1612514
17.60235	2983819
17.61047	4625197
17.61860	5721923
17.62672	6136074
17.63483	5471992
17.64297	4250286
17.65108	2833065
17.65920	1711078
17.66733	940842
17.67545	546099
17.68358	351642
17.69170	266736
17.69982	221971
17.70795	203066
17.71607	188205
17.72420	188827
17.73232	178956
17.74043	167638
17.74857	156840
17.75668	144575
17.76482	129692
17.77293	117653
17.78105	112714
17.78918	104921
17.79730	94168
17.80542	90955
17.81355	92669
17.82167	92159
17.82980	89198
17.83792	101343
17.84603	112653
17.85417	134716
17.86228	173108
17.87042	229967
17.87853	289409
17.88665	317755
17.89478	290929
17.90290	239523
17.91103	181429
17.91915	131596
17.92727	109694
17.93540	97240
17.94352	88393
17.95163	84948
17.95977	83366
17.96788	74717
17.97602	78613
17.98413	76433
17.99225	79565
18.00038	71698
18.00850	77998
18.01663	86252
18.02475	113819
18.03287	170497
18.04100	257196
18.04912	382155
18.05723	489570
18.06537	642667
18.07348	1005796
18.08162	1936644
18.08973	3572278
18.09785	5923930
18.10598	8045657
18.11410	9217661
18.12223	8971938
18.13035	7505792
18.13847	5530410
18.14660	3924432
18.15472	3007254
18.16285	2434430
18.17097	2066015
18.17908	1784774
18.18722	1538075
18.19533	1317425
18.20345	1176790
18.21158	1061238
18.21970	964484
18.22783	885334
18.23595	825511
18.24407	741723
18.25220	704972
18.26032	657042
18.26845	607323
18.27657	564994
18.28468	490205
18.29282	419797
18.30093	332068
18.30905	250516
18.31718	209715
18.32530	171866
18.33343	148025
18.34155	141814
18.34967	130584
18.35780	132733
18.36592	123369
18.37405	114766
18.38217	111266
18.39028	110376
18.39842	105625
18.40653	114688
18.41467	115250
18.42278	123403
18.43090	144220
18.43903	169662
18.44715	220257
18.45527	287475
18.46340	445178
18.47152	731754
18.47965	1149886
18.48777	1673691
18.49588	2111406
18.50402	2210495
18.51213	1926559
18.52027	1456157
18.52838	978153
18.53650	592551
18.54463	358171
18.55275	229272
18.56088	166597
18.56900	134593
18.57712	121770
18.58525	113532
18.59337	105605
18.60148	109608
18.60962	117106
18.61773	121664
18.62587	131230
18.63398	152219
18.64210	154514
18.65023	153482
18.65835	141321
18.66648	130969
18.67460	112647
18.68272	103489
18.69085	95672
18.69897	88105
18.70708	79933
18.71522	77947
18.72333	79100
18.73147	80401
18.73958	75901
18.74770	77166
18.75583	81293
18.76395	74999
18.77208	72418
18.78020	67710
18.78832	72246
18.79645	72434
18.80457	70814
18.81270	77653
18.82082	76350
18.82893	90391
18.83707	135275
18.84518	192015
18.85330	235328
18.86143	270048
18.86955	290762
18.87768	291655
18.88580	307557
18.89392	320999
18.90205	320052
18.91017	311890
18.91830	323556
18.92642	327082
18.93453	331567
18.94267	345094
18.95078	368753
18.95892	386428
18.96703	406147
18.97515	435523
18.98328	412724
18.99140	419249
18.99952	380622
19.00765	364579
19.01577	335155
19.02390	315489
19.03202	305780
19.04013	300497
19.04827	300320
19.05638	292218
19.06452	288971
19.07263	287297
19.08075	283647
19.08888	288687
19.09700	305105
19.10512	341343
19.11325	373983
19.12137	397245
19.12950	400383
19.13762	383745
19.14573	350933
19.15387	309467
19.16198	296247
19.17012	282712
19.17823	262821
19.18635	269563
19.19448	269093
19.20260	261777
19.21073	252451
19.21885	257534
19.22697	257310
19.23510	259659
19.24322	257371
19.25133	250109
19.25947	262422
19.26758	252753
19.27572	255022
19.28383	264876
19.29195	263432
19.30008	277781
19.30820	274890
19.31633	282431
19.32445	288605
19.33257	272073
19.34070	259307
19.34882	258065
19.35693	280508
19.36507	312538
19.37318	389429
19.38132	502627
19.38943	579231
19.39755	617314
19.40568	585542
19.41380	517454
19.42193	428996
19.43005	351333
19.43817	328117
19.44630	299683
19.45442	293247
19.46255	275830
19.47067	272293
19.47878	265677
19.48692	275282
19.49503	268465
19.50315	276076
19.51128	309730
19.51940	324497
19.52753	366203
19.53565	402150
19.54377	432125
19.55190	428444
19.56002	413153
19.56815	382914
19.57627	335353
19.58438	290987
19.59252	269599
19.60063	247314
19.60877	228111
19.61688	219647
19.62500	208417
19.63313	214095
19.64125	220150
19.64937	253064
19.65750	318640
19.66562	423425
19.67375	616345
19.68187	816682
19.68998	1011517
19.69812	1056058
19.70623	1055283
19.71437	943408
19.72248	805323
19.73060	692720
19.73873	581103
19.74685	501980
19.75497	447590
19.76310	383145
19.77122	343767
19.77935	323995
19.78747	343569
19.79558	375432
19.80372	432515
19.81183	493232
19.81997	547264
19.82808	533415
19.83620	470317
19.84433	409236
19.85245	350904
19.86058	303468
19.86870	272827
19.87682	289311
19.88495	341532
19.89307	449919
19.90118	586712
19.90932	746012
19.91743	842805
19.92557	845224
19.93368	772598
19.94180	619967
19.94993	519621
19.95805	432541
19.96618	382175
19.97430	341550
19.98242	324013
19.99055	316633
19.99867	298141
20.00680	285764
20.01492	278109
20.02303	279513
20.03117	273363
20.03928	275741
20.04740	273324
20.05553	261891
20.06365	266214
20.07178	280980
20.07990	311783
20.08802	379800
20.09615	429297
20.10427	447771
20.11240	453692
20.12052	425780
20.12863	378579
20.13677	321634
20.14488	282865
20.15300	283940
20.16113	323129
20.16925	437515
20.17738	628910
20.18550	909703
20.19362	1166264
20.20175	1442096
20.20987	1581387
20.21800	1573189
20.22612	1386091
20.23423	1156784
20.24237	925596
20.25048	782175
20.25862	742170
20.26673	873051
20.27485	1068583
20.28298	1306917
20.29110	1504475
20.29922	1633837
20.30735	1562374
20.31547	1371068
20.32360	1132442
20.33172	850049
20.33983	636428
20.34797	485739
20.35608	370022
20.36422	308858
20.37233	265106
20.38045	234548
20.38858	218347
20.39670	218617
20.40482	199589
20.41295	200570
20.42107	188330
20.42920	195777
20.43732	211242
20.44543	227718
20.45357	264499
20.46168	285674
20.46982	315964
20.47793	312837
20.48605	297800
20.49418	265915
20.50230	239532
20.51043	217439
20.51855	201572
20.52667	186260
20.53480	188884
20.54292	180691
20.55103	187320
20.55917	201803
20.56728	196084
20.57542	194278
20.58353	182485
20.59165	176305
20.59978	168533
20.60790	169434
20.61603	159899
20.62415	150019
20.63227	155942
20.64040	159275
20.64852	170282
20.65665	173904
20.66477	182267
20.67288	187489
20.68102	181753
20.68913	183524
20.69725	171909
20.70538	160663
20.71350	152891
20.72163	145384
20.72975	144066
20.73787	144509
20.74600	150823
20.75412	148936
20.76225	173478
20.77037	187312
20.77848	199121
20.78662	237874
20.79473	307222
20.80285	474942
20.81098	841831
20.81910	1366708
20.82723	1892457
20.83535	2295900
20.84347	2237551
20.85160	1873963
20.85972	1333776
20.86785	822581
20.87597	495445
20.88408	319107
20.89222	250913
20.90033	215857
20.90847	200393
20.91658	208200
20.92470	214105
20.93283	225535
20.94095	238431
20.94907	241475
20.95720	264483
20.96532	249536
20.97345	242006
20.98157	211557
20.98968	191423
20.99782	171048
21.00593	162701
21.01407	152250
21.02218	148470
21.03030	155863
21.03843	165608
21.04655	158292
21.05468	169867
21.06280	170746
21.07092	165567
21.07905	153074
21.08717	146473
21.09528	147216
21.10342	145090
21.11153	141537
21.11967	143597
21.12778	139600
21.13590	152749
21.14403	180357
21.15215	249238
21.16028	353220
21.16840	474431
21.17652	582605
21.18465	639435
21.19277	598201
21.20088	495307
21.20902	398386
21.21713	314900
21.22527	254698
21.23338	225045
21.24150	204505
21.24963	180302
21.25775	168776
21.26588	162721
21.27400	148233
21.28212	139299
21.29025	134917
21.29837	130126
21.30650	130610
21.31462	121155
21.32273	125896
21.33087	124375
21.33898	127208
21.34710	124480
21.35523	120360
21.36335	127529
21.37148	130876
21.37960	136431
21.38772	146539
21.39585	159987
21.40397	191361
21.41210	254790
21.42022	304025
21.42833	347780
21.43647	360956
21.44458	365301
21.45272	314788
21.46083	290731
21.46895	234307
21.47708	207873
21.48520	193511
21.49332	174593
21.50145	171559
21.50957	154475
21.51770	145861
21.52582	137469
21.53393	134606
21.54207	123847
21.55018	126187
21.55832	120656
21.56643	123011
21.57455	120136
21.58268	143988
21.59080	153722
21.59892	181155
21.60705	221907
21.61517	225863
21.62330	221012
21.63142	206269
21.63953	197669
21.64767	206388
21.65578	225145
21.66392	262141
21.67203	302517
21.68015	355425
21.68828	392497
21.69640	391760
21.70453	382379
21.71265	337862
21.72077	286645
21.72890	232685
21.73702	190864
21.74513	164808
21.75327	149132
21.76138	145439
21.76952	136594
21.77763	136888
21.78575	128355
21.79388	125702
21.80200	131831
21.81013	128282
21.81825	132053
21.82637	144900
21.83450	139239
21.84262	161267
21.85073	176516
21.85887	206438
21.86698	232572
21.87512	249686
21.88323	246845
21.89135	212139
21.89948	199376
21.90760	169761
21.91573	166369
21.92385	154987
21.93197	152203
21.94010	148949
21.94822	133401
21.95635	120655
21.96447	113039
21.97258	113347
21.98072	108179
21.98883	98148
21.99695	99376
22.00508	99725
22.01320	89692
22.02133	99449
22.02945	109523
22.03757	111427
22.04570	119979
22.05382	131393
22.06195	142666
22.07007	136867
22.07818	130006
22.08632	125530
22.09443	119768
22.10257	110361
22.11068	107198
22.11880	105755
22.12693	104403
22.13505	99479
22.14317	97068
22.15130	94069
22.15942	94200
22.16755	90953
22.17567	96534
22.18378	94110
22.19192	89352
22.20003	93124
22.20817	87124
22.21628	92753
22.22440	101406
22.23253	96304
22.24065	109125
22.24877	115481
22.25690	124692
22.26502	123854
22.27315	127067
22.28127	131329
22.28938	137055
22.29752	137785
22.30563	151982
22.31377	159915
22.32188	154905
22.33000	148668
22.33813	140138
22.34625	130105
22.35438	127048
22.36250	117297
22.37062	112235
22.37875	109520
22.38687	107864
22.39498	137568
22.40312	185646
22.41123	277088
22.41937	403478
22.42748	564232
22.43560	674364
22.44373	706205
22.45185	656709
22.45998	538757
22.46810	395102
22.47622	286726
22.48435	233486
22.49247	211792
22.50060	227191
22.50872	270803
22.51683	292810
22.52497	309307
22.53308	319901
22.54120	315759
22.54933	279012
22.55745	245669
22.56558	207699
22.57370	179492
22.58182	163779
22.58995	139029
22.59807	127403
22.60620	125498
22.61432	111049
22.62243	109778
22.63057	101680
22.63868	99414
22.64680	100432
22.65493	110087
22.66305	104792
22.67118	110500
22.67930	117136
22.68742	127688
22.69555	138621
22.70367	167606
22.71180	222836
22.71992	281157
22.72803	348706
22.73617	379602
22.74428	377940
22.75242	347755
22.76053	287627
22.76865	249591
22.77678	210782
22.78490	216141
22.79302	253182
22.80115	336045
22.80927	444560
22.81740	577665
22.82552	682644
22.83363	694457
22.84177	650910
22.84988	532629
22.85802	448005
22.86613	355552
22.87425	296369
22.88238	294464
22.89050	294187
22.89862	321955
22.90675	339257
22.91487	357095
22.92300	375852
22.93112	428860
22.93923	488614
22.94737	522541
22.95548	505015
22.96362	437269
22.97173	362322
22.97985	271088
22.98798	223108
22.99610	168587
23.00423	154059
23.01235	131968
23.02047	117756
23.02860	107731
23.03672	109183
23.04483	100566
23.05297	96569
23.06108	96602
23.06922	105732
23.07733	114674
23.08545	120864
23.09358	121040
23.10170	123137
23.10983	117382
23.11795	107699
23.12607	97419
23.13420	99926
23.14232	97139
23.15045	98915
23.15857	101095
23.16668	99136
23.17482	93239
23.18293	86689
23.19105	89568
23.19918	86786
23.20730	81571
23.21543	81157
23.22355	78217
23.23167	76632
23.23980	81578
23.24792	86320
23.25605	102850
23.26417	127673
23.27228	161359
23.28042	190971
23.28853	203977
23.29667	192539
23.30478	176256
23.31290	145456
23.32103	127252
23.32915	115389
23.33727	122237
23.34540	140007
23.35352	201168
23.36165	265868
23.36977	351949
23.37788	422753
23.38602	457382
23.39413	446005
23.40227	383628
23.41038	310563
23.41850	241835
23.42663	187996
23.43475	165173
23.44287	138930
23.45100	124013
23.45912	118775
23.46725	113614
23.47537	105851
23.48348	106953
23.49162	105388
23.49973	99874
23.50787	96280
23.51598	96273
23.52410	97406
23.53223	95058
23.54035	93617
23.54848	97317
23.55660	106202
23.56472	115521
23.57285	129253
23.58097	156816
23.58908	204069
23.59722	268947
23.60533	343645
23.61347	388481
23.62158	429868
23.62970	398292
23.63783	327421
23.64595	259902
23.65408	195098
23.66220	157396
23.67032	132472
23.67845	127321
23.68657	127636
23.69468	126275
23.70282	115274
23.71093	113415
23.71907	101814
23.72718	97629
23.73530	88483
23.74343	91769
23.75155	84489
23.75968	95170
23.76780	129085
23.77592	240879
23.78405	508725
23.79217	1057334
23.80030	1727770
23.80842	2404611
23.81653	2643172
23.82467	2499548
23.83278	2139715
23.84090	1538628
23.84903	1136133
23.85715	877993
23.86528	657326
23.87340	530181
23.88152	451140
23.88965	405931
23.89777	364358
23.90590	360086
23.91402	385071
23.92213	438765
23.93027	500341
23.93838	529166
23.94650	505397
23.95463	427289
23.96275	365218
23.97088	292472
23.97900	245795
23.98712	213799
23.99525	203086
24.00337	181463
24.01150	188644
24.01962	194045
24.02773	218439
24.03587	257555
24.04398	303394
24.05212	342937
24.06023	339144
24.06835	295229
24.07648	248562
24.08460	196588
24.09272	164364
24.10085	140900
24.10897	135627
24.11710	134295
24.12522	130950
24.13333	128286
24.14147	142641
24.14958	157231
24.15772	173956
24.16583	207866
24.17395	222049
24.18208	238770
24.19020	237808
24.19833	235276
24.20645	237811
24.21457	224063
24.22270	206924
24.23082	206126
24.23893	197949
24.24707	182516
24.25518	177843
24.26332	169219
24.27143	162840
24.27955	138947
24.28768	136337
24.29580	135626
24.30393	133046
24.31205	132654
24.32017	134492
24.32830	147572
24.33642	153331
24.34455	150895
24.35267	146331
24.36078	140125
24.36892	129241
24.37703	122766
24.38515	124152
24.39328	118483
24.40140	115581
24.40953	127349
24.41765	145089
24.42577	154994
24.43390	171105
24.44202	171596
24.45015	160333
24.45827	134541
24.46638	133055
24.47452	118215
24.48263	118981
24.49075	116523
24.49888	119307
24.50700	124485
24.51513	124643
24.52325	133462
24.53137	149494
24.53950	165176
24.54762	195149
24.55575	211681
24.56387	245892
24.57198	275561
24.58012	291552
24.58823	288205
24.59637	261520
24.60448	235386
24.61260	212239
24.62073	182705
24.62885	157298
24.63697	146036
24.64510	133668
24.65322	128207
24.66135	128801
24.66947	128460
24.67758	121352
24.68572	127667
24.69383	133617
24.70197	126495
24.71008	136224
24.71820	126924
24.72633	129268
24.73445	136724
24.74257	140421
24.75070	152592
24.75882	142424
24.76695	150084
24.77507	156924
24.78318	166323
24.79132	186506
24.79943	209375
24.80757	213707
24.81568	210803
24.82380	206011
24.83193	209851
24.84005	223556
24.84818	280638
24.85630	379517
24.86442	552108
24.87255	804095
24.88067	1219052
24.88878	1770579
24.89692	2470864
24.90503	3044965
24.91317	3339070
24.92128	3093819
24.92940	2519923
24.93753	1742079
24.94565	1129591
24.95378	656382
24.96190	389438
24.97002	260292
24.97815	200524
24.98627	154471
24.99440	146919
25.00252	138878
25.01063	128553
25.01877	123691
25.02688	130308
25.03500	118336
25.04313	120081
25.05125	117184
25.05938	106455
25.06750	105036
25.07562	112051
25.08375	109292
25.09187	116460
25.10000	140129
25.10812	208713
25.11623	467064
25.12437	1098394
25.13248	2664634
25.14060	5496590
25.14873	9235225
25.15685	1.327198E+07
25.16498	1.618709E+07
25.17310	1.581313E+07
25.18122	1.363498E+07
25.18935	1.002945E+07
25.19747	6249674
25.20560	3444657
25.21372	1836101
25.22183	945369
25.22997	532119
25.23808	347918
25.24622	288893
25.25433	324843
25.26245	423779
25.27058	562206
25.27870	717789
25.28682	812578
25.29495	823145
25.30307	727092
25.31120	575804
25.31932	427602
25.32743	297913
25.33557	218552
25.34368	178147
25.35182	149536
25.35993	133320
25.36805	120673
25.37618	114172
25.38430	104752
25.39243	98868
25.40055	96858
25.40867	89495
25.41680	96340
25.42492	91908
25.43303	95172
25.44117	93020
25.44928	82363
25.45742	89239
25.46553	91017
25.47365	89353
25.48178	92389
25.48990	88697
25.49803	98395
25.50615	112421
25.51427	126602
25.52240	152208
25.53052	153694
25.53863	138523
25.54677	113983
25.55488	98789
25.56302	93498
25.57113	95099
25.57925	93540
25.58738	96942
25.59550	90397
25.60363	93201
25.61175	95823
25.61987	90638
25.62800	92679
25.63612	80966
25.64425	86064
25.65237	82041
25.66048	77836
25.66862	87448
25.67673	84818
25.68485	90539
25.69298	89432
25.70110	94264
25.70923	99190
25.71735	99207
25.72547	106499
25.73360	97495
25.74172	101002
25.74985	98067
25.75797	93829
25.76608	85743
25.77422	78777
25.78233	81440
25.79045	75746
25.79858	77174
25.80670	75387
25.81483	77554
25.82295	82011
25.83107	83160
25.83920	84117
25.84732	82628
25.85545	85172
25.86357	86854
25.87168	77538
25.87982	74858
25.88793	78936
25.89607	81905
25.90418	81660
25.91230	89539
25.92043	115761
25.92855	167757
25.93667	244859
25.94480	323716
25.95292	377184
25.96105	394260
25.96917	409832
25.97728	411862
25.98542	413634
25.99353	414071
26.00167	411753
26.00978	397257
26.01790	414338
26.02603	402987
26.03415	411390
26.04228	405142
26.05040	396372
26.05852	403528
26.06665	400101
26.07477	394529
26.08288	410361
26.09102	432662
26.09913	432482
26.10727	437303
26.11538	430405
26.12350	440667
26.13163	431519
26.13975	419748
26.14788	427254
26.15600	424091
26.16412	425453
26.17225	426085
26.18037	428644
26.18848	433310
26.19662	429647
26.20473	422614
26.21287	407703
26.22098	411030
26.22910	406650
26.23723	398801
26.24535	399046
26.25348	387797
26.26160	375363
26.26972	376613
26.27785	367924
26.28597	369079
26.29410	365305
26.30222	359063
26.31033	363205
26.31847	358663
26.32658	352947
26.33470	351370
26.34283	352767
26.35095	346563
26.35908	369545
26.36720	424267
26.37532	509327
26.38345	679644
26.39157	954943
26.39970	1252369
26.40782	1507191
26.41593	1626101
26.42407	1588095
26.43218	1416927
26.44032	1141044
26.44843	909515
26.45655	703232
26.46468	556705
26.47280	467448
26.48092	418891
26.48905	398049
26.49717	374078
26.50530	366126
26.51342	362271
26.52153	324647
26.52967	315626
26.53778	315492
26.54592	311304
26.55403	298258
26.56215	290713
26.57028	297770
26.57840	291750
26.58652	285436
26.59465	291318
26.60277	292348
26.61090	295344
26.61902	285114
26.62713	282487
26.63527	289119
26.64338	293229
26.65152	291236
26.65963	272351
26.66775	286054
26.67588	278462
26.68400	275725
26.69213	283651
26.70025	270999
26.70837	269933
26.71650	266162
26.72462	267288
26.73273	266990
26.74087	257269
26.74898	258901
26.75712	250466
26.76523	257200
26.77335	252495
26.78148	252384
26.78960	246675
26.79773	252558
26.80585	246252
26.81397	244280
26.82210	259366
26.83022	249402
26.83835	247791
26.84647	252024
26.85458	251713
26.86272	244446
26.87083	237744
26.87895	245386
26.88708	236683
26.89520	237626
26.90333	237622
26.91145	239406
26.91957	224880
26.92770	230306
26.93582	218528
26.94395	209180
26.95207	220759
26.96018	216776
26.96832	224877
26.97643	234831
26.98455	265703
26.99268	320272
27.00080	445653
27.00893	673117
27.01705	1031239
27.02517	1461103
27.03330	1871567
27.04142	2122594
27.04955	2033540
27.05767	1716822
27.06578	1354317
27.07392	1072583
27.08203	858721
27.09017	685248
27.09828	568428
27.10640	502114
27.11453	452922
27.12265	431531
27.13077	414348
27.13890	396216
27.14702	389756
27.15515	372124
27.16327	372316
27.17138	368258
27.17952	385877
27.18763	420355
27.19577	457711
27.20388	471291
27.21200	476267
27.22013	454651
27.22825	413698
27.23637	378451
27.24450	346742
27.25262	323035
27.26075	299665
27.26887	271234
27.27698	252020
27.28512	250570
27.29323	235655
27.30137	223609
27.30948	226526
27.31760	220253
27.32573	232361
27.33385	220591
27.34198	223779
27.35010	221973
27.35822	228134
27.36635	229344
27.37447	232495
27.38258	230941
27.39072	235150
27.39883	217306
27.40697	215837
27.41508	217121
27.42320	202141
27.43133	202785
27.43945	189469
27.44758	189187
27.45570	192489
27.46382	191239
27.47195	185778
27.48007	187789
27.48820	184212
27.49632	170638
27.50443	175885
27.51257	174223
27.52068	169163
27.52880	169283
27.53693	169459
27.54505	168496
27.55318	176692
27.56130	174260
27.56942	174447
27.57755	183194
27.58567	203487
27.59380	232157
27.60192	281647
27.61003	335564
27.61817	350645
27.62628	329707
27.63440	299045
27.64253	264392
27.65065	224511
27.65878	202683
27.66690	185625
27.67502	179539
27.68315	165965
27.69127	176874
27.69940	174842
27.70752	174359
27.71563	180121
27.72377	171662
27.73188	161318
27.74002	149616
27.74813	139257
27.75625	141040
27.76438	132783
27.77250	131045
27.78062	140053
27.78875	150554
27.79687	156488
27.80500	157886
27.81312	164435
27.82123	160237
27.82937	149587
27.83748	144526
27.84562	132291
27.85373	133725
27.86185	132844
27.86998	130331
27.87810	128494
27.88623	124081
27.89435	127606
27.90247	127151
27.91060	131787
27.91872	131479
27.92683	132191
27.93497	129174
27.94308	128267
27.95122	126678
27.95933	127915
27.96745	120889
27.97558	117876
27.98370	120141
27.99183	121559
27.99995	123320
28.00807	133569
28.01620	132850
28.02432	139587
28.03243	153878
28.04057	172542
28.04868	197274
28.05682	227748
28.06493	250762
28.07305	264688
28.08118	244499
28.08930	212574
28.09743	178035
28.10555	154585
28.11367	139046
28.12180	128166
28.12992	124533
28.13805	117373
28.14617	111787
28.15428	120327
28.16242	110634
28.17053	115333
28.17865	115544
28.18678	117707
28.19490	120607
28.20303	147695
28.21115	176672
28.21927	224118
28.22740	282742
28.23552	331540
28.24365	342604
28.25177	331671
28.25988	300408
28.26802	249013
28.27613	201152
28.28425	157176
28.29238	140486
28.30050	134977
28.30863	131087
28.31675	153683
28.32487	182563
28.33300	203195
28.34112	236045
28.34925	253633
28.35737	259997
28.36548	267533
28.37362	291482
28.38173	310143
28.38987	330624
28.39798	338797
28.40610	360026
28.41423	339495
28.42235	339355
28.43047	315835
28.43860	293334
28.44672	272365
28.45485	250554
28.46297	217705
28.47108	188203
28.47922	181890
28.48733	179324
28.49547	184011
28.50358	177413
28.51170	172140
28.51983	187869
28.52795	182106
28.53608	169796
28.54420	159521
28.55232	152881
28.56045	140582
28.56857	130571
28.57668	123947
28.58482	123776
28.59293	118415
28.60107	121164
28.60918	115687
28.61730	115737
28.62543	123759
28.63355	125626
28.64168	138650
28.64980	146033
28.65792	143015
28.66605	145195
28.67417	141074
28.68228	137484
28.69042	134680
28.69853	128396
28.70667	121757
28.71478	115739
28.72290	111334
28.73103	111227
28.73915	98766
28.74728	98831
28.75540	102800
28.76352	101174
28.77165	102493
28.77977	107864
28.78790	115892
28.79602	122983
28.80413	140458
28.81227	157910
28.82038	163108
28.82850	181414
28.83663	167459
28.84475	165178
28.85288	146987
28.86100	141555
28.86912	128086
28.87725	128322
28.88537	137764
28.89350	152705
28.90162	185016
28.90973	204193
28.91787	220799
28.92598	227711
28.93412	207624
28.94223	171612
28.95035	150241
28.95848	128008
28.96660	118805
28.97472	116256
28.98285	107182
28.99097	107976
28.99910	107396
29.00722	98114
29.01533	96807
29.02347	99918
29.03158	100263
29.03972	99240
29.04783	97321
29.05595	96697
29.06408	93773
29.07220	96259
29.08032	98236
29.08845	101327
29.09657	115978
29.10470	116224
29.11282	125410
29.12093	118804
29.12907	115284
29.13718	104601
29.14532	99552
29.15343	91632
29.16155	91894
29.16968	93084
29.17780	89972
29.18593	99784
29.19405	112943
29.20217	136569
29.21030	192078
29.21842	254065
29.22653	315316
29.23467	350568
29.24278	369998
29.25092	318707
29.25903	284662
29.26715	235552
29.27528	205306
29.28340	185356
29.29153	154651
29.29965	129099
29.30777	120857
29.31590	104037
29.32402	96589
29.33213	95801
29.34027	88389
29.34838	92641
29.35652	92534
29.36463	87136
29.37275	82718
29.38088	82892
29.38900	86460
29.39713	82244
29.40525	83395
29.41337	85824
29.42150	94867
29.42962	92787
29.43775	94545
29.44587	96357
29.45398	97983
29.46212	96062
29.47023	91478
29.47835	85572
29.48648	85502
29.49460	89036
29.50273	85701
29.51085	93680
29.51897	98333
29.52710	106925
29.53522	104246
29.54335	97918
29.55147	94420
29.55958	104965
29.56772	93244
29.57583	91093
29.58397	88817
29.59208	85430
29.60020	88795
29.60833	89761
29.61645	84301
29.62457	80276
29.63270	82195
29.64082	79696
29.64895	83445
29.65707	82069
29.66518	82722
29.67332	86736
29.68143	87926
29.68957	94691
29.69768	103285
29.70580	119596
29.71393	125136
29.72205	123646
29.73018	123212
29.73830	109281
29.74642	98991
29.75455	92242
29.76267	85992
29.77078	87620
29.77892	79809
29.78703	78750
29.79517	82769
29.80328	75552
29.81140	81215
29.81953	78780
29.82765	78215
29.83578	79147
29.84390	73810
29.85202	80412
29.86015	79527
29.86827	80270
29.87638	84463
29.88452	96209
29.89263	124203
29.90077	168926
29.90888	214698
29.91700	242215
29.92513	253689
29.93325	223826
29.94138	187376
29.94950	144610
29.95762	114411
29.96575	98411
29.97387	90149
29.98200	91841
29.99012	99357
29.99823	110931
30.00637	113855
30.01448	128260
30.02260	146757
30.03073	164184
30.03885	167428
30.04698	174658
30.05510	181252
30.06322	179304
30.07135	180793
30.07947	172566
30.08760	179748
30.09572	174339
30.10383	164043
30.11197	157762
30.12008	151879
30.12820	152292
30.13633	145621
30.14445	138017
30.15258	129025
30.16070	124603
30.16882	122163
30.17695	114988
30.18507	119758
30.19320	118668
30.20132	124342
30.20943	130438
30.21757	134724
30.22568	131161
30.23382	122655
30.24193	120209
30.25005	109737
30.25818	101577
30.26630	98387
30.27442	94333
30.28255	92181
30.29067	86077
30.29880	93325
30.30692	91872
30.31503	84777
30.32317	86336
30.33128	90859
30.33942	85286
30.34753	88135
30.35565	84785
30.36378	90347
30.37190	85738
30.38003	98340
30.38815	89783
30.39627	90362
30.40440	84723
30.41252	81183
30.42063	78316
30.42877	78934
30.43688	79060
30.44502	78587
30.45313	79324
30.46125	78986
30.46938	75378
30.47750	76648
30.48563	79430
30.49375	83330
30.50187	78474
30.51000	87836
30.51812	84679
30.52623	84232
30.53437	86478
30.54248	80739
30.55062	79403
30.55873	86235
30.56685	83862
30.57498	85724
30.58310	90481
30.59123	89133
30.59935	86097
30.60747	88360
30.61560	83808
30.62372	85791
30.63185	82478
30.63997	80312
30.64808	81589
30.65622	77090
30.66433	81920
30.67245	77920
30.68058	74078
30.68870	70880
30.69683	72557
30.70495	73517
30.71307	77460
30.72120	68908
30.72932	75031
30.73745	79872
30.74557	75324
30.75368	75018
30.76182	73743
30.76993	75271
30.77807	77932
30.78618	89875
30.79430	111876
30.80243	160757
30.81055	230010
30.81867	309018
30.82680	367045
30.83492	367631
30.84305	341634
30.85117	277089
30.85928	197546
30.86742	148646
30.87553	120813
30.88367	108366
30.89178	102704
30.89990	99423
30.90803	95984
30.91615	101824
30.92427	84465
30.93240	92200
30.94052	88668
30.94865	85790
30.95677	85505
30.96488	82645
30.97302	85565
30.98113	84242
30.98927	93789
30.99738	95552
31.00550	86432
31.01363	78475
31.02175	78354
31.02988	76412
31.03800	72744
31.04612	79062
31.05425	80365
31.06237	78871
31.07048	80338
31.07862	71329
31.08673	83694
31.09487	85454
31.10298	97864
31.11110	114297
31.11923	127922
31.12735	142499
31.13548	143401
31.14360	131424
31.15172	128935
31.15985	125437
31.16797	128868
31.17608	128679
31.18422	127888
31.19233	137046
31.20047	145599
31.20858	168220
31.21670	204941
31.22483	265541
31.23295	313273
31.24108	343890
31.24920	340330
31.25732	298603
31.26545	245750
31.27357	191012
31.28170	132479
31.28982	109619
31.29793	95971
31.30607	90794
31.31418	91951
31.32230	96710
31.33043	94220
31.33855	109213
31.34668	114581
31.35480	123436
31.36292	120626
31.37105	122512
31.37917	112422
31.38730	98174
31.39542	90707
31.40353	86040
31.41167	77483
31.41978	75859
31.42792	81779
31.43603	83121
31.44415	73389
31.45228	77207
31.46040	85632
31.46852	81884
31.47665	81582
31.48477	79837
31.49290	83027
31.50102	81571
31.50913	91679
31.51727	99945
31.52538	95879
31.53352	105305
31.54163	104103
31.54975	112825
31.55788	107423
31.56600	105461
31.57412	105070
31.58225	96331
31.59037	94085
31.59850	86738
31.60662	82844
31.61473	83808
31.62287	76210
31.63098	77489
31.63912	77995
31.64723	73823
31.65535	86872
31.66348	97513
31.67160	101968
31.67973	113564
31.68785	124182
31.69597	141341
31.70410	135260
31.71222	120063
31.72033	107254
31.72847	102388
31.73658	90139
31.74472	81907
31.75283	76602
31.76095	72422
31.76908	75620
31.77720	70402
31.78533	73356
31.79345	75521
31.80157	75987
31.80970	82417
31.81782	75320
31.82595	83366
31.83407	80950
31.84218	78891
31.85032	74230
31.85843	84511
31.86655	87112
31.87468	89735
31.88280	94131
31.89093	91440
31.89905	90759
31.90717	86640
31.91530	85706
31.92342	83034
31.93155	83393
31.93967	78162
31.94778	84189
31.95592	91485
31.96403	101728
31.97215	112423
31.98028	123148
31.98840	135956
31.99653	152233
32.00465	154968
32.01277	169664
32.02090	167211
32.02902	166622
32.03715	172164
32.04527	169843
32.05338	148568
32.06152	134808
32.06963	123003
32.07777	105799
32.08588	106484
32.09400	105010
32.10213	103351
32.11025	99067
32.11837	106765
32.12650	101312
32.13462	92541
32.14275	90158
32.15087	89211
32.15898	83886
32.16712	87456
32.17523	84809
32.18337	83792
32.19148	81198
32.19960	78708
32.20773	82486
32.21585	82463
32.22398	82059
32.23210	77708
32.24022	74243
32.24835	77488
32.25647	76434
32.26458	79205
32.27272	76652
32.28083	77015
32.28897	78632
32.29708	79413
32.30520	79138
32.31333	83157
32.32145	79823
32.32958	80801
32.33770	74948
32.34582	74759
32.35395	76709
32.36207	75346
32.37018	79251
32.37832	78818
32.38643	76268
32.39457	77248
32.40268	78452
32.41080	74612
32.41893	73655
32.42705	72480
32.43518	73458
32.44330	74438
32.45142	71825
32.45955	68061
32.46767	67714
32.47580	72409
32.48392	67838
32.49203	65542
32.50017	73371
32.50828	70931
32.51640	78237
32.52453	73574
32.53265	76299
32.54078	75672
32.54890	72412
32.55702	72275
32.56515	74891
32.57327	73672
32.58140	73279
32.58952	75881
32.59763	71076
32.60577	75401
32.61388	73338
32.62200	76414
32.63013	75953
32.63825	71027
32.64638	68405
32.65450	67459
32.66262	74599
32.67075	69977
32.67887	75905
32.68700	82391
32.69512	91737
32.70323	94603
32.71137	93363
32.71948	91992
32.72762	87511
32.73573	88197
32.74385	81182
32.75198	86858
32.76010	80033
32.76822	75846
32.77635	73246
32.78447	75477
32.79260	69837
32.80072	70594
32.80883	72576
32.81697	73283
32.82508	75210
32.83322	73670
32.84133	79102
32.84945	80717
32.85758	76191
32.86570	80900
32.87383	74535
32.88195	76253
32.89007	80135
32.89820	84308
32.90632	87666
32.91443	97431
32.92257	96724
32.93068	99797
32.93882	93671
32.94693	93498
32.95505	87987
32.96318	90398
32.97130	80836
32.97943	84280
32.98755	99397
32.99567	125177
33.00380	162775
33.01192	200000
33.02003	237046
33.02817	248545
33.03628	234225
33.04442	197929
33.05253	166842
33.06065	139434
33.06878	136141
33.07690	147688
33.08503	169382
33.09315	184784
33.10127	208820
33.10940	228134
33.11752	253000
33.12565	252272
33.13377	255936
33.14188	230146
33.15002	204542
33.15813	177931
33.16625	162421
33.17438	140903
33.18250	131442
33.19063	117450
33.19875	103840
33.20687	97284
33.21500	95245
33.22312	96217
33.23125	93187
33.23937	96205
33.24748	95609
33.25562	97278
33.26373	100052
33.27187	93440
33.27998	86879
33.28810	84665
33.29623	81259
33.30435	85493
33.31247	87745
33.32060	89001
33.32872	83870
33.33685	87571
33.34497	88282
33.35308	89396
33.36122	93650
33.36933	110983
33.37747	113847
33.38558	121742
33.39370	119659
33.40183	107405
33.40995	96549
33.41807	88413
33.42620	81899
33.43432	74687
33.44245	76242
33.45057	71641
33.45868	69636
33.46682	68921
33.47493	73231
33.48307	72934
33.49118	76985
33.49930	75594
33.50743	77382
33.51555	82891
33.52368	89461
33.53180	92718
33.53992	94287
33.54805	94825
33.55617	114850
33.56428	126051
33.57242	135269
33.58053	143048
33.58867	141670
33.59678	128122
33.60490	108906
33.61303	95890
33.62115	83090
33.62928	81791
33.63740	77965
33.64552	84155
33.65365	82082
33.66177	88839
33.66988	93614
33.67802	95755
33.68613	99220
33.69427	99401
33.70238	92211
33.71050	82486
33.71863	81359
33.72675	73082
33.73488	71571
33.74300	69751
33.75112	79150
33.75925	72127
33.76737	76333
33.77550	74904
33.78362	72261
33.79173	69856
33.79987	70810
33.80798	69368
33.81610	73711
33.82423	71915
33.83235	73398
33.84048	71774
33.84860	73166
33.85672	73708
33.86485	74062
33.87297	71493
33.88110	79328
33.88922	80528
33.89733	82573
33.90547	83176
33.91358	79724
33.92172	80392
33.92983	76533
33.93795	75062
33.94608	75576
33.95420	72633
33.96232	72303
33.97045	70112
33.97857	73275
33.98670	71453
33.99482	72417
34.00293	65131
34.01107	71936
34.01918	72825
34.02732	67028
34.03543	67931
34.04355	70484
34.05168	69296
34.05980	73891
34.06792	67654
34.07605	72185
34.08417	70116
34.09230	69390
34.10042	74884
34.10853	72040
34.11667	70467
34.12478	71812
34.13292	73522
34.14103	82699
34.14915	75200
34.15728	72593
34.16540	72478
34.17353	71697
34.18165	69895
34.18977	70782
34.19790	72304
34.20602	72506
34.21413	69421
34.22227	74083
34.23038	75684
34.23852	70839
34.24663	70708
34.25475	74048
34.26288	68498
34.27100	71287
34.27913	66969
34.28725	70957
34.29537	69048
34.30350	65919
34.31162	66482
34.31975	67401
34.32787	69581
34.33598	68579
34.34412	67399
34.35223	71445
34.36035	69564
34.36848	69946
34.37660	69371
34.38473	73924
34.39285	73015
34.40097	70568
34.40910	69763
34.41722	68304
34.42535	66891
34.43347	70201
34.44158	69722
34.44972	74005
34.45783	71877
34.46595	69078
34.47408	69459
34.48220	71208
34.49033	70587
34.49845	64529
34.50657	64352
34.51470	73966
34.52282	69061
34.53095	69718
34.53907	73421
34.54718	79833
34.55532	85722
34.56343	99926
34.57157	105136
34.57968	119784
34.58780	128104
34.59593	134620
34.60405	127013
34.61217	120465
34.62030	108739
34.62842	95754
34.63655	93815
34.64467	92178
34.65278	87376
34.66092	84229
34.66903	88013
34.67717	85656
34.68528	81671
34.69340	86682
34.70153	81171
34.70965	77524
34.71777	81465
34.72590	76985
34.73402	77682
34.74215	75750
34.75027	78048
34.75838	75320
34.76652	80332
34.77463	85943
34.78277	83389
34.79088	87775
34.79900	89079
34.80713	93849
34.81525	84923
34.82338	82583
34.83150	81227
34.83962	78234
34.84775	81359
34.85587	72698
34.86398	79014
34.87212	74328
34.88023	75703
34.88837	76332
34.89648	77418
34.90460	80778
34.91273	77681
34.92085	75664
34.92898	73882
34.93710	76920
34.94522	71071
34.95335	78226
34.96147	85056
34.96960	88472
34.97772	89146
34.98583	98694
34.99397	101328
35.00208	106218
35.01020	101761
35.01833	93397
35.02645	85452
35.03458	78935
35.04270	77896
35.05082	75986
35.05895	79469
35.06707	78869
35.07520	82720
35.08332	78334
35.09143	71443
35.09957	77022
35.10768	79630
35.11582	74770
35.12393	72951
35.13205	74262
35.14018	75758
35.14830	80004
35.15642	75353
35.16455	83045
35.17267	85733
35.18080	88919
35.18892	88180
35.19703	87060
35.20517	85303
35.21328	78206
35.22142	85152
35.22953	83200
35.23765	75463
35.24578	74355
35.25390	79664
35.26202	80377
35.27015	74811
35.27827	80922
35.28640	75855
35.29452	84626
35.30263	78151
35.31077	85128
35.31888	79878
35.32702	79396
35.33513	80020
35.34325	74075
35.35138	72747
35.35950	70873
35.36763	70067
35.37575	74604
35.38387	72008
35.39200	76808
35.40012	75814
35.40823	83645
35.41637	88790
35.42448	82654
35.43262	91748
35.44073	90770
35.44885	95344
35.45698	95744
35.46510	90091
35.47323	88432
35.48135	87987
35.48947	84528
35.49760	89463
35.50572	87707
35.51383	90148
35.52197	90336
35.53008	82425
35.53822	83127
35.54633	78600
35.55445	72706
35.56258	77953
35.57070	77232
35.57883	75971
35.58695	77208
35.59507	75727
35.60320	75048
35.61132	77653
35.61945	76483
35.62757	74251
35.63568	79725
35.64382	71376
35.65193	77612
35.66005	79012
35.66818	74388
35.67630	75661
35.68443	78723
35.69255	77369
35.70067	76561
35.70880	81996
35.71692	81842
35.72505	86171
35.73317	87920
35.74128	86859
35.74942	97837
35.75753	102498
35.76567	115188
35.77378	131476
35.78190	143533
35.79003	147293
35.79815	144060
35.80627	130830
35.81440	125481
35.82252	107700
35.83065	93682
35.83877	83076
35.84688	83990
35.85502	84677
35.86313	79253
35.87127	84340
35.87938	81492
35.88750	82518
35.89563	78583
35.90375	80002
35.91187	75486
35.92000	78534
35.92812	81067
35.93625	77334
35.94437	77678
35.95248	75290
35.96062	80864
35.96873	78929
35.97687	75484
35.98498	77260
35.99310	78798
36.00123	78334
36.00935	76497
36.01748	80885
36.02560	83110
36.03372	84610
36.04185	86507
36.04997	87120
36.05808	87434
36.06622	81699
36.07433	82961
36.08247	83631
36.09058	80044
36.09870	80413
36.10683	79094
36.11495	81536
36.12308	81097
36.13120	83233
36.13932	88533
36.14745	94668
36.15557	91919
36.16370	98226
36.17182	104340
36.17993	106235
36.18807	96179
36.19618	87989
36.20430	88733
36.21243	86173
36.22055	82976
36.22868	77872
36.23680	76665
36.24492	76786
36.25305	76797
36.26117	78364
36.26930	79572
36.27742	78362
36.28553	79578
36.29367	77241
36.30178	77005
36.30990	85134
36.31803	92702
36.32615	84879
36.33428	87429
36.34240	87618
36.35052	93872
36.35865	94396
36.36677	92494
36.37490	92194
36.38302	82431
36.39113	93864
36.39927	86055
36.40738	90095
36.41552	96811
36.42363	87725
36.43175	88575
36.43988	93150
36.44800	91317
36.45612	90604
36.46425	86583
36.47237	89121
36.48050	86921
36.48862	79459
36.49673	83599
36.50487	76677
36.51298	76125
36.52112	76057
36.52923	84422
36.53735	83879
36.54548	78254
36.55360	83120
36.56172	84211
36.56985	80555
36.57797	80572
36.58610	79814
36.59422	80389
36.60233	86477
36.61047	80881
36.61858	87869
36.62672	83232
36.63483	79603
36.64295	90538
36.65108	81240
36.65920	83078
36.66733	77129
36.67545	84951
36.68357	81510
36.69170	81439
36.69982	82047
36.70793	83575
36.71607	80381
36.72418	83049
36.73232	84272
36.74043	83634
36.74855	86866
36.75668	85694
36.76480	85557
36.77293	85937
36.78105	83569
36.78917	86629
36.79730	83895
36.80542	88520
36.81355	78589
36.82167	76688
36.82978	77722
36.83792	82600
36.84603	86995
36.85415	82144
36.86228	84588
36.87040	84223
36.87853	79835
36.88665	81212
36.89477	78823
36.90290	77987
36.91102	79198
36.91915	78382
36.92727	77636
36.93538	81600
36.94352	80178
36.95163	91260
36.95975	114283
36.96788	140936
36.97600	173821
36.98413	199264
36.99225	223642
37.00037	228774
37.00850	191987
37.01662	158946
37.02475	137090
37.03287	112949
37.04098	102038
37.04912	94978
37.05723	93399
37.06537	95068
37.07348	90958
37.08160	90949
37.08973	92535
37.09785	102935
37.10597	102052
37.11410	98232
37.12222	99004
37.13035	94476
37.13847	96341
37.14658	98582
37.15472	90758
37.16283	87997
37.17097	85480
37.17908	92596
37.18720	85548
37.19533	85322
37.20345	89955
37.21158	91330
37.21970	91291
37.22782	93288
37.23595	96551
37.24407	89844
37.25218	90931
37.26032	85608
37.26843	86346
37.27657	85852
37.28468	84634
37.29280	87198
37.30093	83773
37.30905	84950
37.31718	84517
37.32530	87349
37.33342	84134
37.34155	89194
37.34967	83926
37.35778	91684
37.36592	89068
37.37403	98393
37.38217	97748
37.39028	97987
37.39840	101819
37.40653	102384
37.41465	98833
37.42278	102961
37.43090	106626
37.43902	110834
37.44715	106037
37.45527	108491
37.46340	108020
37.47152	105919
37.47963	99113
37.48777	102895
