Z:\data\JTB-E02\BACandBLUE\JTB-E02-203-08.D Fri Mar 08 10:23:57 2019
Start of data points
2.09540,59218
2.10353,61071
2.11165,60251
2.11977,61290
2.12790,63845
2.13602,60484
2.14413,55634
2.15227,55399
2.16038,56369
2.16852,61339
2.17663,55284
2.18475,51323
2.19288,50535
2.20100,50034
2.20913,48239
2.21725,50184
2.22537,49427
2.23350,44620
2.24162,50249
2.24973,50351
2.25787,48768
2.26598,157722
2.27412,1460716
2.28223,3919350
2.29035,3381862
2.29848,1664844
2.30660,1053971
2.31473,793259
2.32285,710279
2.33097,627680
2.33910,625267
2.34722,560762
2.35535,461297
2.36347,414644
2.37158,365736
2.37972,341347
2.38783,353291
2.39595,339968
2.40408,328492
2.41220,393834
2.42033,429671
2.42845,615476
2.43657,526169
2.44470,419129
2.45282,406780
2.46095,380370
2.46907,328936
2.47718,286679
2.48532,260578
2.49343,254455
2.50155,246071
2.50968,234804
2.51780,226658
2.52593,224948
2.53405,221424
2.54217,212075
2.55030,247282
2.55842,267256
2.56655,294586
2.57467,267696
2.58278,224707
2.59092,199525
2.59903,192598
2.60717,195311
2.61528,220179
2.62340,229940
2.63153,199017
2.63965,188435
2.64777,177629
2.65590,176207
2.66402,167991
2.67215,166359
2.68027,159823
2.68838,160165
2.69652,160231
2.70463,155815
2.71277,150066
2.72088,147197
2.72900,135987
2.73713,139858
2.74525,141567
2.75338,137642
2.76150,134842
2.76962,129125
2.77775,132222
2.78587,132325
2.79398,124322
2.80212,136054
2.81023,142776
2.81837,145905
2.82648,142608
2.83460,135941
2.84273,133714
2.85085,125846
2.85898,138825
2.86710,143843
2.87522,143203
2.88335,131268
2.89147,133279
2.89960,136184
2.90772,128775
2.91583,121801
2.92397,126397
2.93208,114077
2.94020,111725
2.94833,113395
2.95645,109573
2.96458,119929
2.97270,122770
2.98082,118091
2.98895,115259
2.99707,116898
3.00520,120825
3.01332,129971
3.02143,122003
3.02957,116418
3.03768,111116
3.04580,113902
3.05393,108120
3.06205,103701
3.07018,113584
3.07830,105536
3.08642,109213
3.09455,111832
3.10267,127284
3.11080,177127
3.11892,221348
3.12703,209713
3.13517,182046
3.14328,160640
3.15142,154095
3.15953,139682
3.16765,132367
3.17578,122582
3.18390,119187
3.19202,117827
3.20015,116098
3.20827,113509
3.21640,110083
3.22452,110610
3.23263,107950
3.24077,99114
3.24888,99650
3.25702,102459
3.26513,98941
3.27325,99595
3.28138,124374
3.28950,504088
3.29762,3164500
3.30575,1.230904E+07
3.31387,2.431584E+07
3.32200,2.90326E+07
3.33012,2.61671E+07
3.33823,1.999703E+07
3.34637,1.476845E+07
3.35448,1.099613E+07
3.36262,8504995
3.37073,6858760
3.37885,5646501
3.38698,4757687
3.39510,4092072
3.40323,3547706
3.41135,3061018
3.41947,2759470
3.42760,2486693
3.43572,2231617
3.44383,2065327
3.45197,1916109
3.46008,1755751
3.46822,1639671
3.47633,1546459
3.48445,1460166
3.49258,1413114
3.50070,1332108
3.50883,1251102
3.51695,1184001
3.52507,1119958
3.53320,1066985
3.54132,1020298
3.54945,1001705
3.55757,940986
3.56568,904064
3.57382,888911
3.58193,876762
3.59005,856052
3.59818,836523
3.60630,805858
3.61443,794546
3.62255,783208
3.63067,771532
3.63880,725008
3.64692,722883
3.65505,678606
3.66317,659707
3.67128,652030
3.67942,640741
3.68753,641286
3.69565,629320
3.70378,599061
3.71190,610107
3.72003,579336
3.72815,553603
3.73627,548747
3.74440,547967
3.75252,538926
3.76065,533296
3.76877,515688
3.77688,514494
3.78502,509126
3.79313,499022
3.80127,501860
3.80938,492695
3.81750,496116
3.82563,502254
3.83375,504312
3.84187,490234
3.85000,472723
3.85812,467177
3.86625,446579
3.87437,436770
3.88248,436323
3.89062,423239
3.89873,413715
3.90687,403791
3.91498,404337
3.92310,402636
3.93123,392147
3.93935,397079
3.94748,371656
3.95560,389139
3.96372,381510
3.97185,369414
3.97997,356292
3.98808,355235
3.99622,355775
4.00433,346390
4.01247,360052
4.02058,363511
4.02870,367454
4.03683,362242
4.04495,356599
4.05308,348736
4.06120,348205
4.06932,338902
4.07745,330880
4.08557,337304
4.09368,319076
4.10182,309920
4.10993,311650
4.11807,311475
4.12618,305790
4.13430,319355
4.14243,359195
4.15055,505998
4.15868,678742
4.16680,718708
4.17492,636520
4.18305,534440
4.19117,462938
4.19930,408758
4.20742,381104
4.21553,358180
4.22367,362254
4.23178,376919
4.23990,375950
4.24803,367747
4.25615,338079
4.26428,329905
4.27240,302627
4.28052,302160
4.28865,298522
4.29677,289870
4.30490,283160
4.31302,279935
4.32113,291613
4.32927,311244
4.33738,334091
4.34550,338885
4.35363,325600
4.36175,308915
4.36988,311032
4.37800,311787
4.38612,304039
4.39425,299876
4.40237,285972
4.41050,283904
4.41862,274506
4.42673,263486
4.43487,269542
4.44298,271727
4.45112,252137
4.45923,244680
4.46735,248200
4.47548,236837
4.48360,250275
4.49172,245394
4.49985,250227
4.50797,239271
4.51610,235660
4.52422,236986
4.53233,236575
4.54047,235743
4.54858,233555
4.55672,225166
4.56483,225453
4.57295,220302
4.58108,228109
4.58920,225463
4.59733,217235
4.60545,222722
4.61357,220880
4.62170,227566
4.62982,207915
4.63793,221100
4.64607,211632
4.65418,217612
4.66232,212852
4.67043,214110
4.67855,215218
4.68668,220745
4.69480,212661
4.70293,204690
4.71105,211629
4.71917,203159
4.72730,198092
4.73542,196479
4.74353,194916
4.75167,199314
4.75978,195783
4.76792,185019
4.77603,189131
4.78415,189605
4.79228,194140
4.80040,192109
4.80853,193538
4.81665,198696
4.82477,193398
4.83290,195420
4.84102,195718
4.84915,197991
4.85727,194429
4.86538,198215
4.87352,198166
4.88163,197532
4.88975,193516
4.89788,190707
4.90600,185087
4.91413,184910
4.92225,191183
4.93037,203224
4.93850,326115
4.94662,916445
4.95475,2737946
4.96287,6214954
4.97098,9930951
4.97912,1.172635E+07
4.98723,1.094175E+07
4.99537,8535848
5.00348,6286263
5.01160,4610285
5.01973,3498907
5.02785,2832158
5.03597,2338095
5.04410,1992201
5.05222,1725114
5.06035,1526686
5.06847,1371434
5.07658,1273975
5.08472,1148742
5.09283,1086673
5.10097,1012471
5.10908,949713
5.11720,873338
5.12533,835961
5.13345,796933
5.14157,774517
5.14970,757108
5.15782,704385
5.16595,676473
5.17407,651061
5.18218,644890
5.19032,636494
5.19843,607655
5.20657,598385
5.21468,589420
5.22280,552695
5.23093,559791
5.23905,587148
5.24718,606813
5.25530,616769
5.26342,584594
5.27155,531953
5.27967,495727
5.28778,482185
5.29592,463380
5.30403,461070
5.31217,445028
5.32028,427140
5.32840,422067
5.33653,425754
5.34465,414558
5.35278,409168
5.36090,404474
5.36902,400251
5.37715,388902
5.38527,378305
5.39340,367994
5.40152,369865
5.40963,361313
5.41777,359510
5.42588,354917
5.43400,343642
5.44213,340029
5.45025,336816
5.45838,342373
5.46650,342771
5.47462,335624
5.48275,320370
5.49087,329545
5.49900,316433
5.50712,304785
5.51523,307278
5.52337,310207
5.53148,306257
5.53960,300624
5.54773,291497
5.55585,312113
5.56398,304249
5.57210,292854
5.58022,297121
5.58835,300556
5.59647,307163
5.60460,317280
5.61272,316855
5.62083,333557
5.62897,344143
5.63708,377802
5.64522,409202
5.65333,389348
5.66145,365458
5.66958,331811
5.67770,332252
5.68582,368201
5.69395,423260
5.70207,443994
5.71020,438804
5.71832,400135
5.72643,357182
5.73457,335886
5.74268,296098
5.75082,277068
5.75893,276023
5.76705,263215
5.77518,255063
5.78330,253541
5.79142,248645
5.79955,241874
5.80767,237123
5.81580,239820
5.82392,245106
5.83203,236574
5.84017,236248
5.84828,231597
5.85642,238342
5.86453,230453
5.87265,226197
5.88078,219228
5.88890,224102
5.89703,228948
5.90515,214763
5.91327,202596
5.92140,180886
5.92952,165132
5.93763,166973
5.94577,168393
5.95388,169134
5.96202,175811
5.97013,193893
5.97825,222863
5.98638,267332
5.99450,298693
6.00263,293740
6.01075,267185
6.01887,237513
6.02700,219675
6.03512,205885
6.04325,197931
6.05137,191019
6.05948,182414
6.06762,180268
6.07573,184185
6.08385,182300
6.09198,171558
6.10010,167391
6.10823,168724
6.11635,164494
6.12447,171016
6.13260,177403
6.14072,176223
6.14885,177879
6.15697,182406
6.16508,170897
6.17322,174714
6.18133,172739
6.18945,173987
6.19758,181539
6.20570,174907
6.21383,185092
6.22195,177419
6.23007,176938
6.23820,182096
6.24632,190361
6.25445,188420
6.26257,183753
6.27068,190704
6.27882,185054
6.28693,188595
6.29507,200027
6.30318,188625
6.31130,195036
6.31943,196244
6.32755,195406
6.33567,200616
6.34380,203118
6.35192,201699
6.36005,199305
6.36817,201277
6.37628,199117
6.38442,196237
6.39253,201257
6.40067,203278
6.40878,209070
6.41690,211058
6.42503,206055
6.43315,201613
6.44128,212588
6.44940,188344
6.45752,183768
6.46565,174981
6.47377,173779
6.48188,167400
6.49002,181422
6.49813,182038
6.50627,172865
6.51438,171395
6.52250,168582
6.53063,160523
6.53875,144329
6.54688,144713
6.55500,148176
6.56312,142317
6.57125,140718
6.57937,142768
6.58748,138458
6.59562,132201
6.60373,136001
6.61187,132659
6.61998,136378
6.62810,127856
6.63623,142811
6.64435,139161
6.65248,135778
6.66060,141163
6.66872,133547
6.67685,134830
6.68497,132497
6.69310,134087
6.70122,130053
6.70933,134104
6.71747,131975
6.72558,121684
6.73370,120998
6.74183,125427
6.74995,132744
6.75808,128196
6.76620,124759
6.77432,123437
6.78245,124737
6.79057,113090
6.79870,120428
6.80682,123699
6.81493,122474
6.82307,119448
6.83118,118770
6.83930,115119
6.84743,118008
6.85555,111661
6.86368,102360
6.87180,98029
6.87992,96904
6.88805,100118
6.89617,110443
6.90430,111443
6.91242,103829
6.92053,92997
6.92867,87778
6.93678,85353
6.94492,79972
6.95303,81608
6.96115,77754
6.96928,78025
6.97740,80385
6.98552,81601
6.99365,74499
7.00177,75431
7.00990,74860
7.01802,80975
7.02613,76699
7.03427,75364
7.04238,76666
7.05052,76112
7.05863,77473
7.06675,69676
7.07488,71786
7.08300,75873
7.09113,71474
7.09925,73780
7.10737,72512
7.11550,84261
7.12362,69449
7.13173,70070
7.13987,74914
7.14798,72917
7.15612,77588
7.16423,74408
7.17235,75612
7.18048,77120
7.18860,75299
7.19673,71374
7.20485,70912
7.21297,69018
7.22110,72235
7.22922,73386
7.23733,73645
7.24547,75721
7.25358,76975
7.26172,75153
7.26983,72539
7.27795,67243
7.28608,70474
7.29420,68917
7.30233,71500
7.31045,71744
7.31857,64675
7.32670,66582
7.33482,63829
7.34295,74981
7.35107,77235
7.35918,68341
7.36732,72920
7.37543,72016
7.38355,73867
7.39168,67926
7.39980,76109
7.40793,73715
7.41605,74314
7.42417,77271
7.43230,75683
7.44042,76405
7.44855,81125
7.45667,79144
7.46478,92781
7.47292,99854
7.48103,117098
7.48917,112759
7.49728,106493
7.50540,94980
7.51353,84311
7.52165,79150
7.52977,78078
7.53790,80414
7.54602,68157
7.55415,76220
7.56227,73462
7.57038,65365
7.57852,77801
7.58663,69932
7.59477,71203
7.60288,67031
7.61100,74610
7.61913,68374
7.62725,69317
7.63537,68675
7.64350,68854
7.65162,75026
7.65975,67297
7.66787,64781
7.67598,69700
7.68412,68727
7.69223,65096
7.70037,70542
7.70848,68218
7.71660,68269
7.72473,71083
7.73285,68613
7.74098,68175
7.74910,64184
7.75722,61609
7.76535,68996
7.77347,67670
7.78158,61433
7.78972,63012
7.79783,65543
7.80597,60706
7.81408,66921
7.82220,71060
7.83033,65831
7.83845,65174
7.84658,65301
7.85470,67672
7.86282,69346
7.87095,70217
7.87907,66807
7.88718,63384
7.89532,61862
7.90343,58933
7.91157,59989
7.91968,60549
7.92780,61284
7.93593,63504
7.94405,57054
7.95218,57043
7.96030,55503
7.96842,61369
7.97655,63221
7.98467,70002
7.99280,74349
8.00092,78518
8.00903,78375
8.01717,77557
8.02528,62200
8.03340,65338
8.04153,72139
8.04965,65864
8.05778,61290
8.06590,63194
8.07402,62325
8.08215,63362
8.09027,62265
8.09840,69990
8.10652,63922
8.11463,60859
8.12277,65637
8.13088,66682
8.13902,62769
8.14713,63044
8.15525,66299
8.16338,68022
8.17150,71737
8.17962,79539
8.18775,83011
8.19587,88097
8.20400,84462
8.21212,87790
8.22023,71418
8.22837,75542
8.23648,73626
8.24462,73919
8.25273,75836
8.26085,68265
8.26898,76165
8.27710,73991
8.28523,74168
8.29335,72783
8.30147,69791
8.30960,66419
8.31772,68801
8.32583,72232
8.33397,70016
8.34208,76997
8.35022,87003
8.35833,96379
8.36645,107288
8.37458,109781
8.38270,104049
8.39083,96088
8.39895,95299
8.40707,90273
8.41520,83639
8.42332,86424
8.43143,85055
8.43957,81399
8.44768,88722
8.45582,76482
8.46393,75774
8.47205,75930
8.48018,80668
8.48830,81144
8.49643,82542
8.50455,92733
8.51267,102636
8.52080,108254
8.52892,109985
8.53705,102160
8.54517,95804
8.55328,96542
8.56142,81238
8.56953,90705
8.57765,83657
8.58578,83450
8.59390,81525
8.60203,81826
8.61015,82442
8.61827,78936
8.62640,76840
8.63452,83806
8.64265,86378
8.65077,79395
8.65888,73042
8.66702,69501
8.67513,69444
8.68325,79366
8.69138,71808
8.69950,73637
8.70763,72558
8.71575,73758
8.72387,74767
8.73200,73475
8.74012,71862
8.74825,74259
8.75637,76670
8.76448,78496
8.77262,105753
8.78073,211918
8.78887,485065
8.79698,1029410
8.80510,1802087
8.81323,2415887
8.82135,2568033
8.82947,2303209
8.83760,1845071
8.84572,1408265
8.85385,1067592
8.86197,796836
8.87008,643938
8.87822,530839
8.88633,481129
8.89447,436656
8.90258,396157
8.91070,367148
8.91883,330236
8.92695,323461
8.93508,288946
8.94320,280434
8.95132,269911
8.95945,262363
8.96757,242904
8.97568,236882
8.98382,228415
8.99193,225720
9.00007,219990
9.00818,219907
9.01630,215812
9.02443,201079
9.03255,199119
9.04068,200589
9.04880,194395
9.05692,190009
9.06505,190677
9.07317,190669
9.08128,184913
9.08942,181020
9.09753,168783
9.10567,167438
9.11378,160766
9.12190,163178
9.13003,157373
9.13815,163821
9.14628,161759
9.15440,157110
9.16252,152893
9.17065,157677
9.17877,158065
9.18690,159067
9.19502,166659
9.20313,164088
9.21127,163964
9.21938,161521
9.22750,161573
9.23563,153027
9.24375,140424
9.25188,139931
9.26000,135384
9.26812,133801
9.27625,137491
9.28437,131100
9.29250,126420
9.30062,125722
9.30873,122999
9.31687,122532
9.32498,126679
9.33312,119794
9.34123,118854
9.34935,116767
9.35748,110497
9.36560,121121
9.37372,110756
9.38185,110404
9.38997,110649
9.39810,109162
9.40622,108356
9.41433,103421
9.42247,100182
9.43058,106548
9.43872,102935
9.44683,100844
9.45495,100340
9.46308,97631
9.47120,97355
9.47932,95119
9.48745,95260
9.49557,99396
9.50370,92227
9.51182,94700
9.51993,95992
9.52807,107600
9.53618,107689
9.54432,109800
9.55243,114053
9.56055,119922
9.56868,120409
9.57680,118810
9.58493,106924
9.59305,107442
9.60117,100010
9.60930,96735
9.61742,104857
9.62553,96593
9.63367,93632
9.64178,84014
9.64992,86065
9.65803,87028
9.66615,74614
9.67428,84766
9.68240,77620
9.69053,71969
9.69865,73121
9.70677,72127
9.71490,69508
9.72302,60442
9.73113,74653
9.73927,64241
9.74738,62460
9.75552,62897
9.76363,64431
9.77175,64691
9.77988,65108
9.78800,65586
9.79613,61245
9.80425,60617
9.81237,57746
9.82050,63102
9.82862,62219
9.83675,68575
9.84487,68274
9.85298,70935
9.86112,75033
9.86923,66289
9.87735,66417
9.88548,64339
9.89360,60303
9.90173,64901
9.90985,61548
9.91797,60654
9.92610,61597
9.93422,61623
9.94235,59177
9.95047,56167
9.95858,57612
9.96672,60927
9.97483,63150
9.98297,66945
9.99108,71013
9.99920,73389
10.00733,79279
10.01545,84468
10.02357,102553
10.03170,120271
10.03982,139761
10.04795,149541
10.05607,149231
10.06418,145984
10.07232,130930
10.08043,115144
10.08857,105895
10.09668,92853
10.10480,93863
10.11293,84260
10.12105,76099
10.12917,78310
10.13730,76184
10.14542,73194
10.15355,71640
10.16167,71348
10.16978,69702
10.17792,68460
10.18603,66766
10.19417,66574
10.20228,71861
10.21040,69666
10.21853,74010
10.22665,84999
10.23478,99931
10.24290,112901
10.25102,130912
10.25915,130158
10.26727,118579
10.27538,103300
10.28352,98829
10.29163,89162
10.29977,94118
10.30788,91465
10.31600,98016
10.32413,100609
10.33225,104236
10.34038,96393
10.34850,87213
10.35662,90568
10.36475,81660
10.37287,76381
10.38100,75105
10.38912,82713
10.39723,72385
10.40537,80423
10.41348,76902
10.42160,69585
10.42973,68218
10.43785,70636
10.44598,74289
10.45410,66538
10.46222,68458
10.47035,70685
10.47847,72371
10.48660,64574
10.49472,62711
10.50283,68047
10.51097,61819
10.51908,67539
10.52720,69636
10.53533,64414
10.54345,68779
10.55158,67123
10.55970,63730
10.56782,67389
10.57595,64223
10.58407,67469
10.59220,67434
10.60032,65152
10.60843,72046
10.61657,67213
10.62468,65330
10.63282,66440
10.64093,61032
10.64905,66780
10.65718,64767
10.66530,62149
10.67342,59958
10.68155,66602
10.68967,67772
10.69780,66760
10.70592,72054
10.71403,74333
10.72217,76059
10.73028,69272
10.73842,69474
10.74653,64138
10.75465,70502
10.76278,71684
10.77090,75136
10.77903,79971
10.78715,79175
10.79527,81045
10.80340,80450
10.81152,76570
10.81963,74890
10.82777,71645
10.83588,67998
10.84402,66125
10.85213,66307
10.86025,71274
10.86838,65945
10.87650,69352
10.88463,68204
10.89275,65081
10.90087,62650
10.90900,59364
10.91712,62050
10.92523,60621
10.93337,62088
10.94148,60922
10.94962,64934
10.95773,63844
10.96585,71384
10.97398,73146
10.98210,75649
10.99023,68720
10.99835,68910
11.00647,64117
11.01460,69086
11.02272,61410
11.03085,67520
11.03897,58880
11.04708,59729
11.05522,64951
11.06333,62796
11.07145,62140
11.07958,63326
11.08770,65259
11.09583,57162
11.10395,62858
11.11207,63999
11.12020,60523
11.12832,54983
11.13645,58770
11.14457,60824
11.15268,60496
11.16082,60749
11.16893,64340
11.17705,67003
11.18518,84308
11.19330,103711
11.20143,132914
11.20955,157142
11.21767,178020
11.22580,184174
11.23392,173469
11.24205,148908
11.25017,131451
11.25828,106040
11.26642,86859
11.27453,80731
11.28267,75893
11.29078,68935
11.29890,67572
11.30703,67681
11.31515,68624
11.32327,69319
11.33140,73269
11.33952,67882
11.34765,69493
11.35577,69721
11.36388,67951
11.37202,73967
11.38013,69700
11.38827,64090
11.39638,61877
11.40450,62251
11.41263,64258
11.42075,64325
11.42888,60862
11.43700,60244
11.44512,63733
11.45325,58283
11.46137,60079
11.46948,59209
11.47762,61436
11.48573,57128
11.49387,60144
11.50198,59787
11.51010,62098
11.51823,59271
11.52635,59179
11.53448,63997
11.54260,60881
11.55072,62723
11.55885,59903
11.56697,61753
11.57508,57401
11.58322,59829
11.59133,61307
11.59947,62071
11.60758,57931
11.61570,56991
11.62383,64155
11.63195,59303
11.64008,60419
11.64820,56945
11.65632,59842
11.66445,60245
11.67257,60894
11.68070,61688
11.68882,56113
11.69693,63186
11.70507,63655
11.71318,71935
11.72130,79228
11.72943,85800
11.73755,86976
11.74568,85291
11.75380,79476
11.76192,80487
11.77005,81648
11.77817,85457
11.78630,83772
11.79442,81972
11.80253,79594
11.81067,73617
11.81878,69538
11.82692,67484
11.83503,62392
11.84315,69900
11.85128,66583
11.85940,70367
11.86752,71212
11.87565,75725
11.88377,74655
11.89190,71810
11.90002,70514
11.90813,69860
11.91627,65237
11.92438,64839
11.93252,59383
11.94063,63931
11.94875,61484
11.95688,63294
11.96500,68875
11.97312,68716
11.98125,63704
11.98937,60653
11.99750,66666
12.00562,64362
12.01373,63155
12.02187,61917
12.02998,62721
12.03812,70888
12.04623,64677
12.05435,65262
12.06248,61902
12.07060,66315
12.07873,68610
12.08685,67686
12.09497,63054
12.10310,66003
12.11122,65955
12.11933,61948
12.12747,64021
12.13558,62314
12.14372,63656
12.15183,65190
12.15995,69118
12.16808,70969
12.17620,71418
12.18433,66348
12.19245,64511
12.20057,66019
12.20870,67861
12.21682,65703
12.22493,63475
12.23307,64300
12.24118,69834
12.24932,66497
12.25743,67405
12.26555,64121
12.27368,67003
12.28180,62814
12.28993,65246
12.29805,63512
12.30617,63392
12.31430,67862
12.32242,64299
12.33055,65087
12.33867,62567
12.34678,64554
12.35492,67268
12.36303,63106
12.37115,65414
12.37928,62826
12.38740,64695
12.39553,69187
12.40365,63307
12.41177,61634
12.41990,67716
12.42802,70412
12.43615,70950
12.44427,67656
12.45238,78481
12.46052,83382
12.46863,87646
12.47677,94667
12.48488,99690
12.49300,90972
12.50113,84713
12.50925,78442
12.51737,76136
12.52550,70319
12.53362,71782
12.54175,68573
12.54987,68903
12.55798,66164
12.56612,66267
12.57423,66479
12.58237,65482
12.59048,69330
12.59860,63281
12.60673,63027
12.61485,62870
12.62298,58900
12.63110,62020
12.63922,64088
12.64735,62558
12.65547,56440
12.66358,59280
12.67172,66677
12.67983,59577
12.68797,62709
12.69608,66057
12.70420,66996
12.71233,65288
12.72045,66703
12.72858,73050
12.73670,77717
12.74482,90680
12.75295,91369
12.76107,98933
12.76918,94363
12.77732,93543
12.78543,92066
12.79357,87943
12.80168,77735
12.80980,77048
12.81793,76077
12.82605,68052
12.83418,64279
12.84230,62522
12.85042,66067
12.85855,68123
12.86667,63466
12.87480,65625
12.88292,70422
12.89103,68054
12.89917,66530
12.90728,65323
12.91540,66539
12.92353,61907
12.93165,69633
12.93978,60579
12.94790,63920
12.95602,68618
12.96415,66486
12.97227,66994
12.98040,66989
12.98852,69364
12.99663,66229
13.00477,67030
13.01288,67571
13.02100,70278
13.02913,67734
13.03725,64932
13.04538,64956
13.05350,66688
13.06162,66230
13.06975,66410
13.07787,64244
13.08600,62812
13.09412,63017
13.10223,63792
13.11037,68673
13.11848,71802
13.12662,58645
13.13473,65649
13.14285,71343
13.15098,71378
13.15910,69973
13.16722,73045
13.17535,71670
13.18347,66035
13.19160,76205
13.19972,81161
13.20783,91402
13.21597,103249
13.22408,109274
13.23222,107749
13.24033,93406
13.24845,88364
13.25658,80055
13.26470,73538
13.27283,68071
13.28095,72657
13.28907,73201
13.29720,67924
13.30532,69190
13.31343,68477
13.32157,68729
13.32968,64962
13.33782,68931
13.34593,68055
13.35405,72377
13.36218,65245
13.37030,67277
13.37843,64095
13.38655,67452
13.39467,69441
13.40280,69925
13.41092,68499
13.41903,62866
13.42717,66286
13.43528,73178
13.44342,68124
13.45153,68654
13.45965,63213
13.46778,64183
13.47590,63273
13.48403,67143
13.49215,67884
13.50027,69239
13.50840,68919
13.51652,68077
13.52465,74127
13.53277,65434
13.54088,70534
13.54902,66789
13.55713,72487
13.56525,69700
13.57338,68131
13.58150,70355
13.58963,67184
13.59775,70007
13.60587,70011
13.61400,65812
13.62212,67386
13.63025,73526
13.63837,66837
13.64648,71107
13.65462,70018
13.66273,71628
13.67087,62432
13.67898,68014
13.68710,66808
13.69523,62077
13.70335,65208
13.71147,61381
13.71960,65932
13.72772,63126
13.73585,70163
13.74397,68487
13.75208,72854
13.76022,66861
13.76833,63445
13.77647,68708
13.78458,63919
13.79270,69201
13.80083,65578
13.80895,68911
13.81707,66051
13.82520,71108
13.83332,69766
13.84145,68758
13.84957,70093
13.85768,69482
13.86582,70560
13.87393,73077
13.88207,71416
13.89018,75720
13.89830,77335
13.90643,71833
13.91455,83783
13.92268,77172
13.93080,87810
13.93892,92211
13.94705,87065
13.95517,89086
13.96328,84175
13.97142,82771
13.97953,81078
13.98767,76544
13.99578,78711
14.00390,77854
14.01203,70806
14.02015,73519
14.02828,71922
14.03640,75233
14.04452,72236
14.05265,74545
14.06077,78343
14.06888,82053
14.07702,83205
14.08513,89734
14.09327,88008
14.10138,86888
14.10950,83915
14.11763,79796
14.12575,73584
14.13388,73288
14.14200,72041
14.15012,74054
14.15825,75815
14.16637,77248
14.17450,80518
14.18262,95209
14.19073,114225
14.19887,180167
14.20698,283487
14.21510,466044
14.22323,639919
14.23135,740831
14.23948,698292
14.24760,578327
14.25572,448197
14.26385,354407
14.27197,298919
14.28010,259115
14.28822,233374
14.29633,205128
14.30447,177871
14.31258,170964
14.32072,156788
14.32883,144698
14.33695,140461
14.34508,140350
14.35320,127826
14.36132,117376
14.36945,110898
14.37757,103766
14.38570,100466
14.39382,91161
14.40193,83395
14.41007,86519
14.41818,77196
14.42632,79849
14.43443,82053
14.44255,86385
14.45068,86742
14.45880,80196
14.46692,82602
14.47505,85701
14.48317,78700
14.49130,76519
14.49942,81571
14.50753,76184
14.51567,71033
14.52378,71328
14.53192,75128
14.54003,79836
14.54815,77286
14.55628,78819
14.56440,80712
14.57253,81318
14.58065,79849
14.58877,76093
14.59690,80068
14.60502,78883
14.61313,75067
14.62127,69512
14.62938,69441
14.63752,70961
14.64563,74507
14.65375,71340
14.66188,74605
14.67000,75613
14.67813,68343
14.68625,66970
14.69437,69717
14.70250,67087
14.71062,72817
14.71875,70988
14.72687,65839
14.73498,75604
14.74312,75024
14.75123,79625
14.75935,76455
14.76748,75527
14.77560,73322
14.78373,76210
14.79185,70327
14.79997,73760
14.80810,70975
14.81622,73323
14.82435,78173
14.83247,81770
14.84058,91210
14.84872,103144
14.85683,103369
14.86495,102180
14.87308,109915
14.88120,112610
14.88933,104409
14.89745,109470
14.90557,104042
14.91370,102247
14.92182,97383
14.92995,101737
14.93807,102165
14.94618,98699
14.95432,97949
14.96243,93636
14.97057,96241
14.97868,92459
14.98680,89109
14.99493,93285
15.00305,83105
15.01117,92312
15.01930,90378
15.02742,87762
15.03555,93849
15.04367,80680
15.05178,85167
15.05992,83639
15.06803,85773
15.07617,85666
15.08428,85342
15.09240,83206
15.10053,78532
15.10865,85401
15.11678,77667
15.12490,83963
15.13302,81842
15.14115,81073
15.14927,87726
15.15738,87790
15.16552,78181
15.17363,78829
15.18177,83660
15.18988,84451
15.19800,88941
15.20613,83228
15.21425,82388
15.22238,84129
15.23050,83890
15.23862,80611
15.24675,79210
15.25487,78697
15.26298,74983
15.27112,78089
15.27923,86631
15.28737,79329
15.29548,74067
15.30360,76267
15.31173,73120
15.31985,80540
15.32798,72516
15.33610,69744
15.34422,75213
15.35235,76192
15.36047,76162
15.36860,76908
15.37672,69853
15.38483,74405
15.39297,76580
15.40108,77218
15.40920,74638
15.41733,79150
15.42545,80964
15.43358,73408
15.44170,73939
15.44982,81955
15.45795,70502
15.46607,71190
15.47420,73221
15.48232,75691
15.49043,80177
15.49857,81183
15.50668,78085
15.51480,85522
15.52293,87549
15.53105,88270
15.53918,82653
15.54730,81576
15.55542,78805
15.56355,81247
15.57167,72237
15.57980,77716
15.58792,81883
15.59603,80388
15.60417,74172
15.61228,69818
15.62042,75133
15.62853,73241
15.63665,75379
15.64478,75254
15.65290,72324
15.66102,78684
15.66915,69685
15.67727,76134
15.68540,72931
15.69352,73624
15.70163,76015
15.70977,76230
15.71788,72690
15.72602,76433
15.73413,74849
15.74225,73999
15.75038,79251
15.75850,76181
15.76663,81040
15.77475,77002
15.78287,85274
15.79100,81530
15.79912,84054
15.80723,85503
15.81537,80030
15.82348,87437
15.83162,87278
15.83973,82319
15.84785,80840
15.85598,74572
15.86410,72556
15.87223,79237
15.88035,76695
15.88847,74174
15.89660,77205
15.90472,80894
15.91283,80114
15.92097,76764
15.92908,78338
15.93722,81237
15.94533,84694
15.95345,77625
15.96158,77134
15.96970,80872
15.97783,83024
15.98595,82354
15.99407,82451
16.00220,83993
16.01032,89334
16.01845,99668
16.02657,131300
16.03468,155251
16.04282,182585
16.05093,204469
16.05905,196843
16.06718,179845
16.07530,152089
16.08343,135764
16.09155,117923
16.09967,110678
16.10780,103635
16.11592,100107
16.12405,104832
16.13217,96928
16.14028,99662
16.14842,94813
16.15653,91104
16.16467,88535
16.17278,93275
16.18090,87843
16.18903,90036
16.19715,90675
16.20527,87227
16.21340,86622
16.22152,85456
16.22965,80604
16.23777,86252
16.24588,88161
16.25402,82776
16.26213,83959
16.27027,88939
16.27838,86772
16.28650,85560
16.29463,88802
16.30275,89742
16.31087,89796
16.31900,90225
16.32712,85687
16.33525,81279
16.34337,90776
16.35148,89164
16.35962,93924
16.36773,89908
16.37587,84249
16.38398,80993
16.39210,84359
16.40023,86773
16.40835,83581
16.41648,84941
16.42460,88239
16.43272,85947
16.44085,88934
16.44897,80699
16.45708,81319
16.46522,79371
16.47333,84862
16.48147,83581
16.48958,86068
16.49770,85093
16.50583,88329
16.51395,85672
16.52208,87174
16.53020,88271
16.53832,87403
16.54645,86564
16.55457,77584
16.56268,84420
16.57082,79636
16.57893,83491
16.58707,85866
16.59518,80229
16.60330,83113
16.61143,79430
16.61955,77363
16.62768,80957
16.63580,81083
16.64392,83308
16.65205,71854
16.66017,73992
16.66830,80070
16.67642,77016
16.68453,75374
16.69267,77864
16.70078,78356
16.70890,74843
16.71703,75278
16.72515,71904
16.73328,75492
16.74140,74432
16.74952,73935
16.75765,70933
16.76577,76740
16.77390,72098
16.78202,72270
16.79013,69908
16.79827,70689
16.80638,67397
16.81452,71237
16.82263,66938
16.83075,68443
16.83888,70144
16.84700,69552
16.85512,66556
16.86325,71516
16.87137,70152
16.87950,72156
16.88762,71155
16.89573,70646
16.90387,77876
16.91198,67245
16.92012,67707
16.92823,72463
16.93635,74846
16.94448,75822
16.95260,74747
16.96072,70757
16.96885,71240
16.97697,71196
16.98510,72830
16.99322,69104
17.00133,69047
17.00947,71913
17.01758,69069
17.02572,68010
17.03383,69172
17.04195,70315
17.05008,73851
17.05820,68120
17.06633,65862
17.07445,72078
17.08257,68388
17.09070,71775
17.09882,74084
17.10693,73148
17.11507,70763
17.12318,75783
17.13132,79092
17.13943,76870
17.14755,84396
17.15568,81300
17.16380,74095
17.17193,72449
17.18005,72094
17.18817,73026
17.19630,67484
17.20442,69119
17.21255,69014
17.22067,70465
17.22878,69481
17.23692,68446
17.24503,63898
17.25315,64725
17.26128,69956
17.26940,72597
17.27753,68672
17.28565,66847
17.29377,78716
17.30190,70930
17.31002,69932
17.31815,72432
17.32627,69922
17.33438,72610
17.34252,69825
17.35063,73886
17.35875,74566
17.36688,90006
17.37500,97722
17.38313,108038
17.39125,113974
17.39937,106577
17.40750,95850
17.41562,91792
17.42375,81807
17.43187,85159
17.43998,76523
17.44812,80797
17.45623,78593
17.46437,80424
17.47248,77286
17.48060,72609
17.48873,72584
17.49685,79828
17.50497,80296
17.51310,68157
17.52122,74332
17.52935,80833
17.53747,80324
17.54558,83853
17.55372,88524
17.56183,84095
17.56997,81466
17.57808,76261
17.58620,80894
17.59433,78531
17.60245,77682
17.61057,75043
17.61870,76901
17.62682,76432
17.63495,73607
17.64307,72489
17.65118,70185
17.65932,78335
17.66743,77051
17.67557,85311
17.68368,93920
17.69180,97716
17.69993,90905
17.70805,98008
17.71618,101306
17.72430,93513
17.73242,93258
17.74055,89210
17.74867,92339
17.75678,89702
17.76492,93760
17.77303,85948
17.78117,90309
17.78928,87574
17.79740,86203
17.80553,80528
17.81365,79104
17.82178,79317
17.82990,83945
17.83802,80950
17.84615,75782
17.85427,79404
17.86240,76789
17.87052,81662
17.87863,87459
17.88677,88628
17.89488,86371
17.90300,74434
17.91113,72668
17.91925,70634
17.92738,70701
17.93550,76032
17.94362,74854
17.95175,70836
17.95987,74176
17.96800,67502
17.97612,66987
17.98423,70410
17.99237,71490
18.00048,69851
18.00862,68041
18.01673,66734
18.02485,67774
18.03298,68774
18.04110,70368
18.04922,69808
18.05735,74904
18.06547,74746
18.07360,74928
18.08172,81600
18.08983,92959
18.09797,109952
18.10608,122413
18.11422,116334
18.12233,121402
18.13045,118345
18.13858,114238
18.14670,112311
18.15482,110458
18.16295,105663
18.17107,106421
18.17920,103436
18.18732,104926
18.19543,95141
18.20357,94928
18.21168,91180
18.21982,90971
18.22793,96210
18.23605,95846
18.24418,91471
18.25230,94827
18.26043,97842
18.26855,99207
18.27667,103053
18.28480,104725
18.29292,97298
18.30103,92769
18.30917,83711
18.31728,82447
18.32542,82075
18.33353,84048
18.34165,80220
18.34978,75997
18.35790,81325
18.36603,77374
18.37415,75694
18.38227,80716
18.39040,77849
18.39852,74949
18.40663,75103
18.41477,76896
18.42288,78095
18.43102,78007
18.43913,73551
18.44725,75448
18.45538,69294
18.46350,76450
18.47163,74063
18.47975,75884
18.48787,74539
18.49600,78544
18.50412,79313
18.51225,77122
18.52037,73682
18.52848,77638
18.53662,78424
18.54473,69406
18.55285,74519
18.56098,74725
18.56910,73767
18.57723,77442
18.58535,68044
18.59347,72365
18.60160,79418
18.60972,69752
18.61785,76217
18.62597,83463
18.63408,72742
18.64222,79428
18.65033,76436
18.65847,77622
18.66658,71062
18.67470,76006
18.68283,76643
18.69095,72278
18.69907,74351
18.70720,67809
18.71532,70095
18.72345,72992
18.73157,71468
18.73968,72866
18.74782,67477
18.75593,65551
18.76407,72136
18.77218,70014
18.78030,64652
18.78843,68920
18.79655,75832
18.80467,70787
18.81280,67339
18.82092,76373
18.82905,73189
18.83717,75200
18.84528,71609
18.85342,71604
18.86153,68158
18.86967,68896
18.87778,72254
18.88590,70184
18.89403,69654
18.90215,72343
18.91028,69353
18.91840,71260
18.92652,70108
18.93465,73096
18.94277,72449
18.95088,71176
18.95902,68569
18.96713,73296
18.97527,72672
18.98338,72094
18.99150,73454
18.99963,74919
19.00775,70464
19.01588,71611
19.02400,65668
19.03212,71091
19.04025,68872
19.04837,68873
19.05650,68515
19.06462,71222
19.07273,71184
19.08087,72221
19.08898,75060
19.09710,87718
19.10523,102505
19.11335,111056
19.12148,125624
19.12960,125673
19.13772,135371
19.14585,123470
19.15397,120149
19.16210,101656
19.17022,99190
19.17833,93494
19.18647,89466
19.19458,90340
19.20270,90803
19.21083,87662
19.21895,88080
19.22708,93280
19.23520,82483
19.24332,91702
19.25145,88728
19.25957,81740
19.26770,77468
19.27582,89816
19.28393,91148
19.29207,107503
19.30018,117233
19.30832,132150
19.31643,138438
19.32455,133195
19.33268,131053
19.34080,120492
19.34892,108282
19.35705,101967
19.36517,101051
19.37330,97305
19.38142,99110
19.38953,98247
19.39767,93435
19.40578,91320
19.41392,91257
19.42203,87680
19.43015,87740
19.43828,88463
19.44640,85271
19.45452,83506
19.46265,81998
19.47077,85928
19.47890,87821
19.48702,86077
19.49513,104221
19.50327,128665
19.51138,183502
19.51952,258317
19.52763,315564
19.53575,335906
19.54388,307544
19.55200,239525
19.56013,174072
19.56825,133437
19.57637,110369
19.58450,94197
19.59262,89720
19.60073,88049
19.60887,89252
19.61698,97607
19.62512,101114
19.63323,122420
19.64135,171773
19.64948,267399
19.65760,457764
19.66573,815202
19.67385,1339331
19.68197,1865442
19.69010,2209110
19.69822,2112803
19.70635,1760890
19.71447,1303931
19.72258,873852
19.73072,652841
19.73883,477393
19.74695,383091
19.75508,340337
19.76320,307334
19.77133,269493
19.77945,243077
19.78757,225795
19.79570,222979
19.80382,209435
19.81195,202562
19.82007,191791
19.82818,187296
19.83632,178636
19.84443,173888
19.85255,174538
19.86068,175365
19.86880,184534
19.87693,199210
19.88505,246570
19.89317,345031
19.90130,481614
19.90942,675234
19.91755,894789
19.92567,1060250
19.93378,1159040
19.94192,1192309
19.95003,1183088
19.95817,1149970
19.96628,1105301
19.97440,1055761
19.98253,984785
19.99065,959295
19.99877,904982
20.00690,870169
20.01502,855273
20.02315,812028
20.03127,773941
20.03938,754244
20.04752,689759
20.05563,604688
20.06377,511018
20.07188,427537
20.08000,357935
20.08813,307987
20.09625,269748
20.10438,250824
20.11250,242009
20.12062,238932
20.12875,226625
20.13687,225124
20.14498,222102
20.15312,234092
20.16123,215539
20.16937,214889
20.17748,207129
20.18560,203080
20.19373,199943
20.20185,199036
20.20998,195912
20.21810,202586
20.22622,193843
20.23435,195472
20.24247,204044
20.25058,233487
20.25872,317217
20.26683,486873
20.27497,776945
20.28308,1172646
20.29120,1599273
20.29933,1882753
20.30745,1833569
20.31558,1562213
20.32370,1187152
20.33182,810542
20.33995,581361
20.34807,436525
20.35620,357823
20.36432,295224
20.37243,266210
20.38057,248903
20.38868,236365
20.39680,229972
20.40493,219012
20.41305,225136
20.42118,223851
20.42930,258588
20.43742,328470
20.44555,393091
20.45367,482268
20.46180,517500
20.46992,505762
20.47803,459409
20.48617,399739
20.49428,324280
20.50242,273796
20.51053,230036
20.51865,197037
20.52678,186660
20.53490,169962
20.54302,166291
20.55115,157102
20.55927,155349
20.56740,148662
20.57552,156884
20.58363,143872
20.59177,138617
20.59988,143866
20.60802,139930
20.61613,137849
20.62425,136163
20.63238,134029
20.64050,126636
20.64862,134664
20.65675,133348
20.66487,132295
20.67300,131206
20.68112,137630
20.68923,131911
20.69737,134098
20.70548,123916
20.71362,127124
20.72173,129665
20.72985,124496
20.73798,132775
20.74610,119700
20.75423,125056
20.76235,123399
20.77047,124393
20.77860,129617
20.78672,120734
20.79483,126052
20.80297,121871
20.81108,117328
20.81922,125382
20.82733,123272
20.83545,121226
20.84358,127012
20.85170,121278
20.85983,117006
20.86795,115699
20.87607,114580
20.88420,118417
20.89232,118599
20.90043,110609
20.90857,113064
20.91668,117480
20.92482,107201
20.93293,110053
20.94105,114447
20.94918,112940
20.95730,113156
20.96543,108169
20.97355,106146
20.98167,107918
20.98980,116187
20.99792,104041
21.00605,106151
21.01417,106230
21.02228,110152
21.03042,108055
21.03853,107311
21.04665,102536
21.05478,101011
21.06290,101691
21.07103,108530
21.07915,103588
21.08727,105047
21.09540,110734
21.10352,98341
21.11165,103366
21.11977,102498
21.12788,106050
21.13602,102999
21.14413,103755
21.15227,106114
21.16038,113265
21.16850,109136
21.17663,116957
21.18475,107688
21.19287,112661
21.20100,115837
21.20912,105912
21.21725,108949
21.22537,109316
21.23348,108848
21.24162,113075
21.24973,115940
21.25787,114254
21.26598,115690
21.27410,118516
21.28223,117131
21.29035,117116
21.29847,111890
21.30660,110708
21.31472,112303
21.32285,107913
21.33097,112753
21.33908,100902
21.34722,104100
21.35533,100327
21.36347,103030
21.37158,100713
21.37970,100620
21.38783,101496
21.39595,97302
21.40408,105783
21.41220,103037
21.42032,103515
21.42845,108603
21.43657,110499
21.44468,100784
21.45282,102788
21.46093,96188
21.46907,101985
21.47718,93981
21.48530,101557
21.49343,105014
21.50155,95657
21.50968,104163
21.51780,102646
21.52592,99893
21.53405,92173
21.54217,101742
21.55030,99284
21.55842,114476
21.56653,99814
21.57467,105202
21.58278,101606
21.59090,102978
21.59903,95714
21.60715,106869
21.61528,117553
21.62340,140447
21.63152,183015
21.63965,239722
21.64777,335796
21.65590,399859
21.66402,418814
21.67213,390125
21.68027,343180
21.68838,276911
21.69650,205560
21.70463,168595
21.71275,150133
21.72088,138783
21.72900,128639
21.73712,118729
21.74525,112173
21.75337,116849
21.76150,111422
21.76962,114641
21.77773,117006
21.78587,117409
21.79398,119446
21.80212,110790
21.81023,114170
21.81835,130874
21.82648,159585
21.83460,201815
21.84272,261021
21.85085,323655
21.85897,346701
21.86710,341568
21.87522,286883
21.88333,228049
21.89147,171960
21.89958,153293
21.90772,134670
21.91583,122584
21.92395,115029
21.93208,116678
21.94020,103257
21.94832,108210
21.95645,102276
21.96457,102067
21.97270,98875
21.98082,101095
21.98893,98353
21.99707,85483
22.00518,94886
22.01332,87933
22.02143,94686
22.02955,86561
22.03768,84429
22.04580,84514
22.05393,86793
22.06205,87523
22.07017,86693
22.07830,89355
22.08642,85031
22.09453,91732
22.10267,92911
22.11078,91156
22.11892,87980
22.12703,87821
22.13515,86681
22.14328,90338
22.15140,90813
22.15953,89444
22.16765,99622
22.17577,88238
22.18390,101152
22.19202,87663
22.20015,89154
22.20827,94343
22.21638,99340
22.22452,114224
22.23263,117529
22.24075,123874
22.24888,135530
22.25700,129299
22.26513,114475
22.27325,102234
22.28137,93817
22.28950,88820
22.29762,87582
22.30575,87190
22.31387,82340
22.32198,82430
22.33012,84875
22.33823,88244
22.34635,89810
22.35448,84267
22.36260,87184
22.37073,82207
22.37885,86277
22.38697,83906
22.39510,82226
22.40322,82423
22.41135,86344
22.41947,78971
22.42758,79630
22.43572,81407
22.44383,74132
22.45197,78588
22.46008,77761
22.46820,78770
22.47633,78279
22.48445,75402
22.49257,77177
22.50070,76334
22.50882,72526
22.51695,72401
22.52507,66750
22.53318,70154
22.54132,71475
22.54943,65128
22.55757,70692
22.56568,65177
22.57380,67023
22.58193,69302
22.59005,66693
22.59818,72006
22.60630,75565
22.61442,64968
22.62255,64809
22.63067,65671
22.63878,68024
22.64692,67014
22.65503,64856
22.66317,64046
22.67128,67997
22.67940,62947
22.68753,68711
22.69565,69230
22.70378,70669
22.71190,69256
22.72002,80319
22.72815,73643
22.73627,75198
22.74438,67171
22.75252,67765
22.76063,68946
22.76877,65602
22.77688,65353
22.78500,64678
22.79313,66971
22.80125,64282
22.80938,63974
22.81750,61410
22.82562,64824
22.83375,70066
22.84187,68641
22.85000,70126
22.85812,77090
22.86623,77972
22.87437,82336
22.88248,87662
22.89060,90523
22.89873,85748
22.90685,84161
22.91498,88043
22.92310,100456
22.93122,114492
22.93935,130884
22.94747,134586
22.95560,136260
22.96372,136009
22.97183,130193
22.97997,134563
22.98808,114062
22.99620,129059
23.00433,113691
23.01245,102311
23.02058,97264
23.02870,87735
23.03682,85211
23.04495,80577
23.05307,78774
23.06120,79359
23.06932,72654
23.07743,77288
23.08557,72234
23.09368,77768
23.10182,71760
23.10993,67643
23.11805,72198
23.12618,68859
23.13430,60580
23.14242,66173
23.15055,62662
23.15867,65039
23.16680,59644
23.17492,62527
23.18303,68235
23.19117,68096
23.19928,66164
23.20742,68069
23.21553,68377
23.22365,67167
23.23178,65886
23.23990,64936
23.24803,65435
23.25615,63546
23.26427,68043
23.27240,66273
23.28052,67517
23.28863,75296
23.29677,63173
23.30488,70986
23.31302,68987
23.32113,70905
23.32925,72296
23.33738,64022
23.34550,66587
23.35363,69508
23.36175,69209
23.36987,67521
23.37800,65282
23.38612,66810
23.39425,75544
23.40237,73815
23.41048,72375
23.41862,72686
23.42673,74261
23.43485,74061
23.44298,75656
23.45110,73742
23.45923,68978
23.46735,68376
23.47547,70091
23.48360,66510
23.49172,70296
23.49985,69739
23.50797,66784
23.51608,73779
23.52422,73010
23.53233,74081
23.54045,73690
23.54858,70913
23.55670,73504
23.56483,82680
23.57295,80690
23.58107,84620
23.58920,77128
23.59732,82331
23.60545,81417
23.61357,76349
23.62168,78293
23.62982,80252
23.63793,76755
23.64607,74035
23.65418,84711
23.66230,90797
23.67043,105497
23.67855,127142
23.68667,128304
23.69480,133735
23.70292,126861
23.71105,122100
23.71917,112861
23.72728,116820
23.73542,105795
23.74353,121218
23.75167,174964
23.75978,362446
23.76790,895327
23.77603,2084745
23.78415,3959646
23.79227,5902916
23.80040,7099611
23.80852,7209551
23.81665,6047729
23.82477,4783784
23.83288,3555219
23.84102,2435832
23.84913,1716805
23.85727,1263503
23.86538,1013255
23.87350,810878
23.88163,671470
23.88975,596308
23.89788,512612
23.90600,459767
23.91412,423030
23.92225,392498
23.93037,367358
23.93848,345312
23.94662,318813
23.95473,301953
23.96287,283191
23.97098,273491
23.97910,261749
23.98723,260543
23.99535,245963
24.00348,238280
24.01160,232152
24.01972,209970
24.02785,218294
24.03597,203506
24.04410,201971
24.05222,198276
24.06033,194977
24.06847,192815
24.07658,177603
24.08470,184807
24.09283,176898
24.10095,169617
24.10908,169892
24.11720,169676
24.12532,175419
24.13345,183155
24.14157,204184
24.14970,213501
24.15782,221402
24.16593,224693
24.17407,216654
24.18218,198269
24.19030,185924
24.19843,181120
24.20655,172055
24.21468,170832
24.22280,197293
24.23092,214638
24.23905,235261
24.24717,225870
24.25530,208441
24.26342,198615
24.27153,191405
24.27967,192227
24.28778,201143
24.29592,209925
24.30403,233131
24.31215,232228
24.32028,223946
24.32840,209479
24.33652,181385
24.34465,163041
24.35277,148884
24.36090,146058
24.36902,138284
24.37713,137667
24.38527,151109
24.39338,162335
24.40152,180857
24.40963,233831
24.41775,278318
24.42588,284902
24.43400,279820
24.44213,225686
24.45025,184679
24.45837,158302
24.46650,136402
24.47462,132709
24.48273,127729
24.49087,127770
24.49898,142633
24.50712,151168
24.51523,185356
24.52335,219323
24.53148,236769
24.53960,238326
24.54773,231834
24.55585,205066
24.56397,175032
24.57210,166272
24.58022,143509
24.58833,136445
24.59647,141544
24.60458,144288
24.61272,158876
24.62083,189866
24.62895,204683
24.63708,219301
24.64520,226967
24.65333,217204
24.66145,204071
24.66957,191392
24.67770,167966
24.68582,161091
24.69395,157086
24.70207,136825
24.71018,126821
24.71832,128808
24.72643,118231
24.73455,111646
24.74268,112704
24.75080,104321
24.75893,110679
24.76705,105516
24.77517,102700
24.78330,106103
24.79142,104205
24.79955,102386
24.80767,102648
24.81578,105097
24.82392,103482
24.83203,95316
24.84015,100579
24.84828,94341
24.85640,100089
24.86453,96599
24.87265,101249
24.88077,96081
24.88890,102238
24.89702,103311
24.90515,104099
24.91327,98974
24.92138,100379
24.92952,105956
24.93763,98848
24.94577,100808
24.95388,94057
24.96200,91693
24.97013,91967
24.97825,92106
24.98637,93754
24.99450,91989
25.00262,89424
25.01075,88601
25.01887,92321
25.02698,88871
25.03512,87844
25.04323,84015
25.05137,88455
25.05948,86858
25.06760,83806
25.07573,86585
25.08385,84645
25.09198,80404
25.10010,86545
25.10822,85158
25.11635,85306
25.12447,94362
25.13258,101706
25.14072,122828
25.14883,146691
25.15697,161394
25.16508,181642
25.17320,188583
25.18133,189169
25.18945,168155
25.19758,152445
25.20570,136497
25.21382,135179
25.22195,119412
25.23007,112874
25.23818,109205
25.24632,102610
25.25443,103509
25.26257,97616
25.27068,97775
25.27880,106557
25.28693,98751
25.29505,114504
25.30318,118166
25.31130,147043
25.31942,158174
25.32755,167710
25.33567,165032
25.34380,148877
25.35192,133393
25.36003,121179
25.36817,110558
25.37628,95340
25.38440,89859
25.39253,89012
25.40065,85784
25.40878,83488
25.41690,83200
25.42502,82889
25.43315,81083
25.44127,81034
25.44940,80743
25.45752,83444
25.46563,82457
25.47377,93056
25.48188,98697
25.49002,100522
25.49813,100126
25.50625,108145
25.51438,100278
25.52250,96545
25.53062,89724
25.53875,89095
25.54687,82452
25.55500,79487
25.56312,79526
25.57123,80964
25.57937,79580
25.58748,77864
25.59562,78112
25.60373,80565
25.61185,76520
25.61998,74568
25.62810,74781
25.63622,76455
25.64435,76703
25.65247,78059
25.66060,73556
25.66872,69330
25.67683,72999
25.68497,70453
25.69308,73144
25.70122,75180
25.70933,72796
25.71745,74473
25.72558,74943
25.73370,77830
25.74183,78103
25.74995,83373
25.75807,74705
25.76620,78971
25.77432,84890
25.78243,74858
25.79057,75902
25.79868,81337
25.80682,76760
25.81493,89365
25.82305,85665
25.83118,88127
25.83930,83764
25.84743,85277
25.85555,88575
25.86367,84254
25.87180,87304
25.87992,83840
25.88803,83241
25.89617,81797
25.90428,75510
25.91242,80094
25.92053,81719
25.92865,76640
25.93678,78458
25.94490,79118
25.95303,76190
25.96115,80170
25.96927,80144
25.97740,70744
25.98552,77155
25.99365,77631
26.00177,75181
26.00988,74545
26.01802,71191
26.02613,68456
26.03425,72939
26.04238,72733
26.05050,72635
26.05863,70840
26.06675,69772
26.07487,71581
26.08300,71352
26.09112,78267
26.09925,74995
26.10737,82676
26.11548,88668
26.12362,100916
26.13173,102034
26.13987,117291
26.14798,125816
26.15610,129471
26.16423,139398
26.17235,127281
26.18047,116101
26.18860,104147
26.19672,94503
26.20485,90924
26.21297,84447
26.22108,79021
26.22922,72534
26.23733,69644
26.24547,74741
26.25358,70459
26.26170,75953
26.26983,77421
26.27795,76556
26.28607,78300
26.29420,78826
26.30232,82307
26.31045,83947
26.31857,80243
26.32668,74816
26.33482,76393
26.34293,80852
26.35107,76291
26.35918,72948
26.36730,73751
26.37543,70528
26.38355,71227
26.39168,66544
26.39980,76714
26.40792,66107
26.41605,77138
26.42417,79229
26.43228,76227
26.44042,77254
26.44853,73152
26.45667,68285
26.46478,68931
26.47290,70508
26.48103,72967
26.48915,64648
26.49728,67591
26.50540,68350
26.51352,66097
26.52165,67452
26.52977,67874
26.53790,72849
26.54602,61746
26.55413,56347
26.56227,67444
26.57038,66657
26.57850,66269
26.58663,65443
26.59475,67705
26.60288,66421
26.61100,67725
26.61912,65235
26.62725,64679
26.63537,65958
26.64350,62877
26.65162,66905
26.65973,68258
26.66787,71339
26.67598,67813
26.68410,72974
26.69223,67673
26.70035,71790
26.70848,70756
26.71660,68087
26.72472,66582
26.73285,69445
26.74097,66795
26.74910,65407
26.75722,68952
26.76533,71720
26.77347,69471
26.78158,76101
26.78972,68747
26.79783,71072
26.80595,67384
26.81408,80017
26.82220,80049
26.83032,79154
26.83845,78364
26.84657,81481
26.85470,83182
26.86282,87237
26.87093,89427
26.87907,90987
26.88718,91655
26.89532,86852
26.90343,88230
26.91155,88538
26.91968,87340
26.92780,85329
26.93593,88906
26.94405,110789
26.95217,170962
26.96030,361864
26.96842,939700
26.97653,2781358
26.98467,7484950
26.99278,1.555819E+07
27.00092,2.461301E+07
27.00903,3.028147E+07
27.01715,3.240011E+07
27.02528,3.014477E+07
27.03340,2.58035E+07
27.04153,2.01692E+07
27.04965,1.44924E+07
27.05777,1.026534E+07
27.06590,7292553
27.07402,5224487
27.08213,3857802
27.09027,2857314
27.09838,2346286
27.10652,1958615
27.11463,1683520
27.12275,1442972
27.13088,1278534
27.13900,1168076
27.14713,1026633
27.15525,940019
27.16337,877798
27.17150,808690
27.17962,768693
27.18775,711983
27.19587,681251
27.20398,659776
27.21212,618999
27.22023,586285
27.22835,551431
27.23648,528153
27.24460,512526
27.25273,492134
27.26085,467900
27.26897,449367
27.27710,424398
27.28522,408984
27.29335,386533
27.30147,394288
27.30958,364086
27.31772,375159
27.32583,352119
27.33395,330441
27.34208,340163
27.35020,316549
27.35833,312715
27.36645,304919
27.37457,301481
27.38270,289240
27.39082,289416
27.39895,290236
27.40707,279832
27.41518,289848
27.42332,272497
27.43143,262211
27.43957,261992
27.44768,256136
27.45580,246127
27.46393,238507
27.47205,245423
27.48017,243364
27.48830,243345
27.49642,235294
27.50455,228424
27.51267,226227
27.52078,224052
27.52892,221479
27.53703,234886
27.54517,244593
27.55328,253640
27.56140,242776
27.56953,249805
27.57765,222655
27.58578,211702
27.59390,209316
27.60202,210395
27.61015,215298
27.61827,220557
27.62638,215829
27.63452,222577
27.64263,211245
27.65077,216054
27.65888,196840
27.66700,197334
27.67513,191561
27.68325,188028
27.69138,187969
27.69950,185078
27.70762,187230
27.71575,178254
27.72387,178648
27.73198,172843
27.74012,175180
27.74823,173263
27.75637,167539
27.76448,172496
27.77260,164609
27.78073,169567
27.78885,175071
27.79698,168632
27.80510,176094
27.81322,170655
27.82135,165180
27.82947,171867
27.83760,165782
27.84572,176652
27.85383,165976
27.86197,167019
27.87008,163326
27.87820,158721
27.88633,163043
27.89445,154047
27.90258,153397
27.91070,155465
27.91882,143006
27.92695,148642
27.93507,146532
27.94320,142844
27.95132,141231
27.95943,141148
27.96757,142071
27.97568,129635
27.98382,136926
27.99193,135949
28.00005,136273
28.00818,132134
28.01630,132434
28.02442,132492
28.03255,130324
28.04067,131017
28.04880,130507
28.05692,123986
28.06503,134122
28.07317,130674
28.08128,126988
28.08942,133899
28.09753,135433
28.10565,127438
28.11378,129349
28.12190,125795
28.13002,121457
28.13815,126091
28.14627,131240
28.15440,122487
28.16252,121491
28.17063,120928
28.17877,115649
28.18688,118296
28.19502,116748
28.20313,126884
28.21125,144334
28.21938,162584
28.22750,170429
28.23563,172539
28.24375,157965
28.25187,158979
28.26000,145403
28.26812,147689
28.27623,155620
28.28437,182007
28.29248,277857
28.30062,449921
28.30873,789141
28.31685,1393197
28.32498,2286803
28.33310,3551029
28.34123,5028819
28.34935,6450566
28.35747,7418925
28.36560,7804062
28.37372,7583360
28.38183,7414914
28.38997,6536820
28.39808,5754785
28.40622,4836486
28.41433,4004654
28.42245,3365550
28.43058,2757263
28.43870,2275221
28.44683,1898334
28.45495,1582273
28.46307,1305145
28.47120,1123423
28.47932,994627
28.48745,870598
28.49557,785087
28.50368,719066
28.51182,647785
28.51993,592918
28.52805,562756
28.53618,527014
28.54430,498952
28.55243,465568
28.56055,448781
28.56867,424262
28.57680,411757
28.58492,381271
28.59305,370037
28.60117,365653
28.60928,347758
28.61742,325273
28.62553,331358
28.63367,315288
28.64178,319863
28.64990,314010
28.65803,326037
28.66615,316544
28.67427,325910
28.68240,318681
28.69052,304224
28.69865,294457
28.70677,278428
28.71488,277760
28.72302,250641
28.73113,239558
28.73927,233419
28.74738,225012
28.75550,241167
28.76363,232217
28.77175,253570
28.77988,265139
28.78800,277021
28.79612,291084
28.80425,291319
28.81237,265716
28.82048,252596
28.82862,219448
28.83673,216622
28.84487,212332
28.85298,194051
28.86110,195841
28.86923,188476
28.87735,188092
28.88548,182507
28.89360,174759
28.90172,181451
28.90985,177877
28.91797,181782
28.92608,178502
28.93422,175255
28.94233,176854
28.95047,174426
28.95858,182906
28.96670,171414
28.97483,188767
28.98295,177068
28.99108,175368
28.99920,175575
29.00732,169148
29.01545,166426
29.02357,164789
29.03170,154547
29.03982,170349
29.04793,149284
29.05607,157596
29.06418,155168
29.07230,154764
29.08043,165724
29.08855,154042
29.09668,149480
29.10480,154858
29.11292,151793
29.12105,147598
29.12917,153422
29.13730,146359
29.14542,147419
29.15353,151540
29.16167,146035
29.16978,149627
29.17790,148578
29.18603,146788
29.19415,144185
29.20228,141217
29.21040,141984
29.21852,145799
29.22665,145429
29.23477,144962
29.24290,142851
29.25102,144352
29.25913,149605
29.26727,147393
29.27538,150341
29.28352,150230
29.29163,139855
29.29975,146129
29.30788,148324
29.31600,143674
29.32412,134058
29.33225,139619
29.34037,140644
29.34850,140475
29.35662,136528
29.36473,136332
29.37287,135717
29.38098,142157
29.38912,129706
29.39723,132876
29.40535,134600
29.41348,128999
29.42160,131460
29.42973,129190
29.43785,132401
29.44597,126223
29.45410,125552
29.46222,123813
29.47033,124443
29.47847,121662
29.48658,124702
29.49472,134318
29.50283,140885
29.51095,147069
29.51908,145404
29.52720,159390
29.53533,148434
29.54345,138387
29.55157,129804
29.55970,115421
29.56782,120796
29.57593,117701
29.58407,109967
29.59218,110189
29.60032,108052
29.60843,106748
29.61655,110703
29.62468,109437
29.63280,113295
29.64093,114083
29.64905,113896
29.65717,116540
29.66530,110359
29.67342,113283
29.68155,107587
29.68967,103576
29.69778,106267
29.70592,112272
29.71403,106307
29.72215,102879
29.73028,105067
29.73840,104187
29.74653,108166
29.75465,104864
29.76277,99311
29.77090,100936
29.77902,98884
29.78715,100867
29.79527,103923
29.80338,103853
29.81152,101385
29.81963,97212
29.82777,95479
29.83588,104623
29.84400,93209
29.85213,95354
29.86025,92313
29.86837,88090
29.87650,98085
29.88462,103638
29.89275,117487
29.90087,136197
29.90898,144754
29.91712,156431
29.92523,157489
29.93337,169726
29.94148,176879
29.94960,214507
29.95773,275574
29.96585,377592
29.97397,501161
29.98210,651929
29.99022,802711
29.99835,1039750
30.00647,1203558
30.01458,1421666
30.02272,1588132
30.03083,1772074
30.03897,1841836
30.04708,1846447
30.05520,1776376
30.06333,1728015
30.07145,1598299
30.07958,1455885
30.08770,1360320
30.09582,1251900
30.10395,1123254
30.11207,994986
30.12018,866999
30.12832,783115
30.13643,690426
30.14457,608602
30.15268,547766
30.16080,512212
30.16893,465475
30.17705,418745
30.18518,383207
30.19330,348732
30.20142,314412
30.20955,299035
30.21767,288065
30.22578,269593
30.23392,255351
30.24203,242471
30.25017,222821
30.25828,217637
30.26640,215786
30.27453,203404
30.28265,196255
30.29078,194747
30.29890,184399
30.30702,187351
30.31515,176028
30.32327,172921
30.33140,172214
30.33952,173130
30.34763,163136
30.35577,161003
30.36388,166143
30.37200,159281
30.38013,157042
30.38825,145952
30.39638,147402
30.40450,142530
30.41262,142202
30.42075,144238
30.42887,138129
30.43700,138445
30.44512,130452
30.45323,134971
30.46137,134487
30.46948,126882
30.47762,131221
30.48573,129826
30.49385,123660
30.50198,124275
30.51010,131135
30.51822,121400
30.52635,131841
30.53447,122175
30.54260,122438
30.55072,122122
30.55883,119071
30.56697,118760
30.57508,113589
30.58322,111321
30.59133,116330
30.59945,116888
30.60758,117566
30.61570,111055
30.62382,109191
30.63195,106223
30.64007,115096
30.64820,108125
30.65632,105761
30.66443,99660
30.67257,98719
30.68068,99226
30.68882,100543
30.69693,103333
30.70505,108615
30.71318,100061
30.72130,103048
30.72943,99809
30.73755,104549
30.74567,102347
30.75380,102065
30.76192,104041
30.77003,107049
30.77817,104705
30.78628,104269
30.79442,111365
30.80253,114387
30.81065,120027
30.81878,124788
30.82690,133228
30.83503,129619
30.84315,117340
30.85127,109493
30.85940,106164
30.86752,105028
30.87565,104226
30.88377,96531
30.89188,94079
30.90002,95025
30.90813,91262
30.91625,89050
30.92438,95376
30.93250,86267
30.94063,92811
30.94875,93090
30.95687,91088
30.96500,87798
30.97312,103169
30.98125,90738
30.98937,90556
30.99748,92078
31.00562,92537
31.01373,90455
31.02185,90400
31.02998,91486
31.03810,88816
31.04623,94232
31.05435,87194
31.06247,88130
31.07060,86723
31.07872,103379
31.08685,99549
31.09497,117423
31.10308,134547
31.11122,170128
31.11933,170851
31.12747,166544
31.13558,152632
31.14370,137400
31.15183,129739
31.15995,118074
31.16807,106472
31.17620,113721
31.18432,113421
31.19245,123305
31.20057,140216
31.20868,164735
31.21682,199583
31.22493,211226
31.23307,222638
31.24118,224926
31.24930,216110
31.25743,186629
31.26555,161375
31.27368,140983
31.28180,115099
31.28992,108543
31.29805,100832
31.30617,94302
31.31428,90748
31.32242,90323
31.33053,90176
31.33867,90300
31.34678,88900
31.35490,81870
31.36303,76640
31.37115,82264
31.37928,85409
31.38740,82147
31.39552,85929
31.40365,89068
31.41177,84269
31.41988,83981
31.42802,95879
31.43613,96083
31.44427,97430
31.45238,94562
31.46050,92580
31.46863,89065
31.47675,86983
31.48488,79858
31.49300,83268
31.50112,89600
31.50925,80172
31.51737,79727
31.52550,81704
31.53362,77544
31.54173,80195
31.54987,86074
31.55798,78284
31.56610,87048
31.57423,81923
31.58235,81892
31.59048,84029
31.59860,79408
31.60672,79226
31.61485,76318
31.62297,75983
31.63110,83304
31.63922,86079
31.64733,80216
31.65547,79315
31.66358,81922
31.67170,77666
31.67983,80640
31.68795,74736
31.69608,78559
31.70420,75250
31.71232,76222
31.72045,72881
31.72857,75169
31.73670,69953
31.74482,72574
31.75293,68202
31.76107,69172
31.76918,72601
31.77732,68387
31.78543,75562
31.79355,75395
31.80168,81684
31.80980,82700
31.81792,82012
31.82605,83533
31.83417,83307
31.84230,85436
31.85042,76953
31.85853,82295
31.86667,85497
31.87478,91154
31.88292,100428
31.89103,104718
31.89915,104251
31.90728,125919
31.91540,155849
31.92353,209245
31.93165,254125
31.93977,330547
31.94790,390430
31.95602,458830
31.96413,536359
31.97227,581651
31.98038,619168
31.98852,634557
31.99663,627665
32.00475,616131
32.01288,577278
32.02100,539565
32.02913,506077
32.03725,453398
32.04537,405614
32.05350,368172
32.06162,337131
32.06973,306141
32.07787,283840
32.08598,267709
32.09412,257280
32.10223,251330
32.11035,237056
32.11848,215265
32.12660,198978
32.13473,177981
32.14285,158630
32.15097,158051
32.15910,159004
32.16722,138713
32.17535,131189
32.18347,134597
32.19158,131818
32.19972,125449
32.20783,118017
32.21595,120043
32.22408,119663
32.23220,115198
32.24033,115183
32.24845,108767
32.25657,107963
32.26470,109450
32.27282,110074
32.28095,107186
32.28907,106823
32.29718,100386
32.30532,100061
32.31343,100898
32.32157,93405
32.32968,104065
32.33780,92688
32.34593,97111
32.35405,101084
32.36217,101512
32.37030,102438
32.37842,103915
32.38655,94701
32.39467,97052
32.40278,96435
32.41092,85591
32.41903,97112
32.42717,90055
32.43528,90133
32.44340,88050
32.45153,91498
32.45965,84909
32.46777,86313
32.47590,87824
32.48402,83048
32.49215,84333
32.50027,86646
32.50838,86977
32.51652,80950
32.52463,76127
32.53277,82559
32.54088,80182
32.54900,82945
32.55713,76416
32.56525,85697
32.57338,82811
32.58150,77759
32.58962,81590
32.59775,84643
32.60587,76736
32.61398,72795
32.62212,73571
32.63023,76725
32.63837,79248
32.64648,78803
32.65460,82670
32.66273,89134
32.67085,97143
32.67898,99062
32.68710,114736
32.69522,115078
32.70335,112581
32.71147,102180
32.71958,95277
32.72772,94202
32.73583,87167
32.74397,84658
32.75208,81460
32.76020,81597
32.76833,78281
32.77645,76630
32.78458,70933
32.79270,72423
32.80082,75945
32.80895,71148
32.81707,70452
32.82520,71047
32.83332,71501
32.84143,73677
32.84957,66980
32.85768,71631
32.86580,72377
32.87393,73112
32.88205,68425
32.89018,69312
32.89830,70956
32.90642,71698
32.91455,74331
32.92267,71807
32.93080,74554
32.93892,71469
32.94703,72922
32.95517,72500
32.96328,71225
32.97142,72790
32.97953,70305
32.98765,70337
32.99578,75178
33.00390,75393
33.01202,75354
33.02015,72558
33.02827,72752
33.03640,74293
33.04452,71757
33.05263,69162
33.06077,75141
33.06888,68531
33.07702,69636
33.08513,67960
33.09325,71325
33.10138,84854
33.10950,86233
33.11763,92818
33.12575,101964
33.13387,114762
33.14200,116700
33.15012,105089
33.15823,99201
33.16637,87292
33.17448,84273
33.18262,83917
33.19073,82575
33.19885,78408
33.20698,79136
33.21510,89710
33.22323,85579
33.23135,83470
33.23947,80369
33.24760,80141
33.25572,73760
33.26383,73708
33.27197,69244
33.28008,73037
33.28822,75227
33.29633,67920
33.30445,75535
33.31258,70862
33.32070,71370
33.32883,68814
33.33695,65626
33.34507,67684
33.35320,67674
33.36132,67690
33.36945,69724
33.37757,66581
33.38568,68053
33.39382,68387
33.40193,69282
33.41005,69886
33.41818,72787
33.42630,69479
33.43443,62660
33.44255,68300
33.45067,67006
33.45880,63828
33.46692,65620
33.47505,67768
33.48317,66257
33.49128,71408
33.49942,69118
33.50753,67978
33.51565,69631
33.52378,68244
33.53190,64378
33.54003,69221
33.54815,71500
33.55627,68333
33.56440,68726
33.57252,64496
33.58065,66644
33.58877,71375
33.59688,64207
33.60502,72622
33.61313,71108
33.62127,62292
33.62938,63887
33.63750,67118
33.64563,63272
33.65375,63199
33.66187,63681
33.67000,64752
33.67812,63413
33.68625,64804
33.69437,70928
33.70248,64320
33.71062,64408
33.71873,62267
33.72687,62056
33.73498,61490
33.74310,61996
33.75123,63497
33.75935,61015
33.76748,61214
33.77560,63312
33.78372,60125
33.79185,60495
33.79997,64474
33.80808,59636
33.81622,64113
33.82433,65858
33.83247,67915
33.84058,63073
33.84870,67326
33.85683,71388
33.86495,72985
33.87308,72684
33.88120,68065
33.88932,71335
33.89745,66654
33.90557,65574
33.91368,62925
33.92182,63326
33.92993,70531
33.93807,68503
33.94618,63355
33.95430,67196
33.96243,68986
33.97055,66149
33.97868,67925
33.98680,66973
33.99492,63448
34.00305,60303
34.01117,60962
34.01930,64098
34.02742,61059
34.03553,63528
34.04367,64379
34.05178,61521
34.05990,67327
34.06803,65567
34.07615,58716
34.08428,68308
34.09240,67974
34.10052,69407
34.10865,70277
34.11677,69075
34.12490,66350
34.13302,65343
34.14113,65792
34.14927,75956
34.15738,72869
34.16552,67587
34.17363,63857
34.18175,65146
34.18988,65625
34.19800,70025
34.20612,58641
34.21425,63031
34.22237,63258
34.23050,65855
34.23862,62732
34.24673,66013
34.25487,59900
34.26298,65167
34.27112,63269
34.27923,59892
34.28735,64002
34.29548,63537
34.30360,59784
34.31172,58462
34.31985,64821
34.32797,66489
34.33610,64798
34.34422,59596
34.35233,62437
34.36047,58740
34.36858,63967
34.37672,63971
34.38483,65197
34.39295,60480
34.40108,63582
34.40920,61895
34.41733,63587
34.42545,66972
34.43357,59894
34.44170,57911
34.44982,61783
34.45793,67628
34.46607,64935
34.47418,58720
34.48232,58690
34.49043,65667
34.49855,64222
34.50668,69840
34.51480,81086
34.52293,107820
34.53105,134307
34.53917,175389
34.54730,238919
34.55542,298171
34.56353,324957
34.57167,359737
34.57978,359361
34.58792,336745
34.59603,282037
34.60415,264543
34.61228,232475
34.62040,200023
34.62853,166135
34.63665,162281
34.64477,144743
34.65290,132535
34.66102,122517
34.66915,123463
34.67727,111838
34.68538,115276
34.69352,107326
34.70163,101861
34.70975,106018
34.71788,99244
34.72600,93404
34.73413,96233
34.74225,98277
34.75037,98115
34.75850,94453
34.76662,93551
34.77475,87673
34.78287,90815
34.79098,86139
34.79912,81809
34.80723,85103
34.81537,82325
34.82348,77270
34.83160,80941
34.83973,85038
34.84785,81846
34.85597,81590
34.86410,78798
34.87222,80114
34.88035,75503
34.88847,79574
34.89658,76091
34.90472,75215
34.91283,73540
34.92097,74567
34.92908,77455
34.93720,75406
34.94533,79696
34.95345,78463
34.96157,85642
34.96970,87618
34.97782,101598
34.98595,101098
34.99407,104761
35.00218,98018
35.01032,93300
35.01843,82633
35.02657,79105
35.03468,81951
35.04280,75480
35.05093,78134
35.05905,75452
35.06718,80124
35.07530,78028
35.08342,77464
35.09155,74903
35.09967,68300
35.10778,73841
35.11592,75648
35.12403,75870
35.13217,76902
35.14028,81343
35.14840,84785
35.15653,85863
35.16465,94885
35.17278,93509
35.18090,98203
35.18902,96079
35.19715,89964
35.20527,83534
35.21340,74215
35.22152,76436
35.22963,76629
35.23777,73865
35.24588,71141
35.25400,76678
35.26213,72489
35.27025,75281
35.27838,72892
35.28650,76511
35.29462,72674
35.30275,70670
35.31087,73628
35.31900,73662
35.32712,70608
35.33523,68812
35.34337,74029
35.35148,69008
35.35960,64832
35.36773,66431
35.37585,67376
35.38398,70644
35.39210,67690
35.40022,68414
35.40835,65050
35.41647,69521
35.42460,69016
35.43272,70739
35.44083,65997
35.44897,69516
35.45708,73028
35.46522,80631
35.47333,85100
35.48145,83201
35.48958,84911
35.49770,85301
35.50582,83775
35.51395,73414
35.52207,76806
35.53020,74678
35.53832,75039
35.54643,70643
35.55457,70325
35.56268,76157
35.57082,78435
35.57893,76438
35.58705,73053
35.59518,74901
35.60330,74510
35.61142,73238
35.61955,64846
35.62767,71355
35.63580,72277
35.64392,72451
35.65203,68287
35.66017,68826
35.66828,67785
35.67642,73276
35.68453,79403
35.69265,87512
35.70078,92773
35.70890,89767
35.71703,87475
35.72515,85321
35.73327,82509
35.74140,79970
35.74952,73513
35.75763,71046
35.76577,76166
35.77388,75736
35.78202,77196
35.79013,70452
35.79825,71681
35.80638,67105
35.81450,78478
35.82263,73749
35.83075,70408
35.83887,76466
35.84700,87762
35.85512,77667
35.86325,78616
35.87137,75632
35.87948,76894
35.88762,75458
35.89573,74193
35.90385,70831
35.91198,67703
35.92010,67292
35.92823,68715
35.93635,67495
35.94447,71091
35.95260,70865
35.96072,74575
35.96885,68075
35.97697,71259
35.98508,68412
35.99322,72029
36.00133,80514
36.00945,81164
36.01758,78541
36.02570,84041
36.03383,89637
36.04195,86716
36.05007,90521
36.05820,81161
36.06632,78485
36.07445,78081
36.08257,75262
36.09068,71019
36.09882,72300
36.10693,78114
36.11507,70110
36.12318,71485
36.13130,75637
36.13943,68370
36.14755,70808
36.15567,70066
36.16380,70739
36.17192,75632
36.18005,72767
36.18817,76354
36.19628,76256
36.20442,75774
36.21253,73783
36.22067,71198
36.22878,79732
36.23690,77232
36.24503,73163
36.25315,73379
36.26128,68079
36.26940,69483
36.27752,67795
36.28565,66750
36.29377,70658
36.30188,73173
36.31002,80157
36.31813,88903
36.32627,92129
36.33438,100714
36.34250,98989
36.35063,100291
36.35875,99513
36.36688,91340
36.37500,82536
36.38312,85996
36.39125,93187
36.39937,91500
36.40748,88271
36.41562,90257
36.42373,85876
36.43187,82321
36.43998,77217
36.44810,70273
36.45623,67209
36.46435,75052
36.47248,68026
36.48060,68661
36.48872,65170
36.49685,71893
36.50497,65755
36.51310,70438
36.52122,71991
36.52933,71621
36.53747,65464
36.54558,73403
36.55370,65930
36.56183,70245
36.56995,75110
36.57808,65009
36.58620,71011
36.59432,71922
36.60245,68227
36.61057,72200
36.61870,68021
36.62682,68852
36.63493,68270
36.64307,69130
36.65118,68055
36.65932,69512
36.66743,71930
36.67555,69404
36.68368,73204
36.69180,79953
36.69992,77523
36.70805,75841
36.71617,68909
36.72430,66106
36.73242,70618
36.74053,65067
36.74867,67292
36.75678,68514
36.76492,70068
36.77303,66433
36.78115,75615
36.78928,71041
36.79740,72133
36.80552,64883
36.81365,71191
36.82177,70026
36.82990,66403
36.83802,68780
36.84613,66293
36.85427,69602
36.86238,69362
36.87052,72342
36.87863,67114
36.88675,65617
36.89488,67109
36.90300,68540
36.91113,66225
36.91925,72128
36.92737,65089
36.93550,67128
36.94362,72370
36.95173,68586
36.95987,69333
36.96798,67760
36.97612,75477
36.98423,68065
36.99235,68229
37.00048,69199
37.00860,69143
37.01673,72077
37.02485,68421
37.03297,70111
37.04110,66078
37.04922,64883
37.05733,68886
37.06547,71860
37.07358,66002
37.08172,68617
37.08983,64943
37.09795,64377
37.10608,70091
37.11420,70140
37.12233,71243
37.13045,64413
37.13857,71966
37.14670,71451
37.15482,77266
37.16295,69997
37.17107,74673
37.17918,73665
37.18732,72891
37.19543,73256
37.20355,78712
37.21168,84913
37.21980,72730
37.22793,75280
37.23605,80694
37.24417,76643
37.25230,78916
37.26042,75483
37.26855,76663
37.27667,73720
37.28478,73129
37.29292,71705
37.30103,71402
37.30917,68626
37.31728,75295
37.32540,85231
37.33353,97974
37.34165,111036
37.34977,139139
37.35790,166821
37.36602,196197
37.37415,206830
37.38227,202325
37.39038,196875
37.39852,178215
37.40663,157857
37.41477,143923
37.42288,134940
37.43100,126480
37.43913,117910
37.44725,111543
37.45537,101952
37.46350,103439
37.47162,105023
37.47975,100298
37.48787,99431
