C:\MassHunter\GCMS\1\data\JTB-E02\BACandBLUE\JTB-E18-019-12.D Fri Jul 05 14:29:48 2019
Start of data points
2.09532,59602
2.10345,58149
2.11157,56629
2.11968,58205
2.12782,58105
2.13593,62323
2.14405,59806
2.15218,62485
2.16030,60310
2.16843,58159
2.17655,61684
2.18467,60543
2.19280,57100
2.20092,58789
2.20905,55956
2.21717,56005
2.22528,49968
2.23342,55191
2.24153,53589
2.24967,52624
2.25778,52433
2.26590,62422
2.27403,304438
2.28215,1261563
2.29027,1139940
2.29840,450499
2.30652,289705
2.31465,222295
2.32277,191961
2.33088,173822
2.33902,156265
2.34713,151549
2.35527,137435
2.36338,126918
2.37150,115576
2.37963,116562
2.38775,108717
2.39587,104853
2.40400,111415
2.41212,103376
2.42025,98713
2.42837,95822
2.43648,103309
2.44462,96556
2.45273,101617
2.46087,94609
2.46898,93105
2.47710,90395
2.48523,90527
2.49335,112637
2.50148,139144
2.50960,111387
2.51772,98000
2.52585,92642
2.53397,90067
2.54208,91957
2.55022,94688
2.55833,132324
2.56647,211192
2.57458,197493
2.58270,142988
2.59083,125630
2.59895,122391
2.60708,290221
2.61520,1025526
2.62332,1161850
2.63145,611863
2.63957,363248
2.64770,269350
2.65582,219287
2.66393,174165
2.67207,158633
2.68018,142393
2.68830,138098
2.69643,125583
2.70455,123172
2.71268,108308
2.72080,109204
2.72892,103507
2.73705,104241
2.74517,93940
2.75330,99108
2.76142,99587
2.76953,95886
2.77767,101085
2.78578,173004
2.79390,264578
2.80203,211987
2.81015,145679
2.81828,147952
2.82640,144415
2.83452,133577
2.84265,134448
2.85077,114294
2.85890,106907
2.86702,101749
2.87513,101911
2.88327,90017
2.89138,93838
2.89952,90280
2.90763,85385
2.91575,84378
2.92388,85035
2.93200,85900
2.94012,86630
2.94825,85063
2.95637,82845
2.96450,96132
2.97262,108519
2.98073,102646
2.98887,91289
2.99698,88648
3.00512,95095
3.01323,93548
3.02135,85646
3.02948,88382
3.03760,82953
3.04573,83042
3.05385,80342
3.06197,83045
3.07010,90663
3.07822,130181
3.08633,691507
3.09447,2724797
3.10258,4751529
3.11072,6040752
3.11883,6135473
3.12695,4034116
3.13508,2502787
3.14320,1860937
3.15133,1464666
3.15945,1181753
3.16757,982559
3.17570,872416
3.18382,845555
3.19193,1114982
3.20007,1564149
3.20818,1396338
3.21632,998608
3.22443,780532
3.23255,672038
3.24068,582393
3.24880,525842
3.25693,471793
3.26505,429743
3.27317,393981
3.28130,367027
3.28942,449168
3.29755,983861
3.30567,2439875
3.31378,4107993
3.32192,4355606
3.33003,3401020
3.33815,2443525
3.34628,1891354
3.35440,1568528
3.36253,1328133
3.37065,1164002
3.37877,1030018
3.38690,927107
3.39502,843209
3.40315,772222
3.41127,719711
3.41938,672604
3.42752,635209
3.43563,610167
3.44375,575853
3.45188,552488
3.46000,536191
3.46813,514902
3.47625,530422
3.48437,516976
3.49250,486349
3.50062,459593
3.50875,442964
3.51687,430091
3.52498,397410
3.53312,421683
3.54123,409784
3.54937,401459
3.55748,392996
3.56560,384699
3.57373,418570
3.58185,462077
3.58997,431937
3.59810,399504
3.60622,376525
3.61435,374641
3.62247,370157
3.63058,386512
3.63872,364770
3.64683,365307
3.65497,336465
3.66308,445574
3.67120,1197679
3.67933,3298648
3.68745,4801302
3.69558,3793380
3.70370,2281096
3.71182,1517269
3.71995,1223049
3.72807,1057354
3.73618,947238
3.74432,838691
3.75243,772109
3.76057,718496
3.76868,670861
3.77680,631190
3.78493,611834
3.79305,584780
3.80118,623585
3.80930,975561
3.81742,1684055
3.82555,1975467
3.83367,1551179
3.84178,1118000
3.84992,888142
3.85803,775223
3.86617,689827
3.87428,626828
3.88240,599483
3.89053,563645
3.89865,534178
3.90678,520226
3.91490,518531
3.92302,583422
3.93115,675981
3.93927,733560
3.94740,922986
3.95552,2301968
3.96363,6008000
3.97177,9335364
3.97988,8865148
3.98800,5759848
3.99613,4640079
4.00425,9879212
4.01238,2.358534E+07
4.02050,3.57933E+07
4.02862,3.465374E+07
4.03675,2.236288E+07
4.04487,1.173532E+07
4.05300,6960679
4.06112,4914261
4.06923,3738035
4.07737,3009199
4.08548,2523386
4.09362,2134069
4.10173,1874847
4.10985,1669146
4.11798,1485012
4.12610,1353066
4.13422,1276099
4.14235,1223775
4.15047,1234324
4.15860,1222619
4.16672,1124781
4.17483,1033512
4.18297,971131
4.19108,917740
4.19922,854169
4.20733,983555
4.21545,2130524
4.22358,6122806
4.23170,1.23793E+07
4.23982,1.640722E+07
4.24795,1.521229E+07
4.25607,1.0163E+07
4.26420,6313912
4.27232,4414865
4.28043,3324302
4.28857,2617966
4.29668,2175757
4.30482,1855753
4.31293,1633368
4.32105,1424531
4.32918,1307490
4.33730,1217983
4.34543,1118360
4.35355,1078900
4.36167,1060094
4.36980,1010466
4.37792,956082
4.38603,909001
4.39417,855442
4.40228,805597
4.41042,778988
4.41853,742679
4.42665,716210
4.43478,676773
4.44290,664873
4.45103,647688
4.45915,620103
4.46727,618675
4.47540,582846
4.48352,585831
4.49163,565908
4.49977,567394
4.50788,533578
4.51602,521569
4.52413,516729
4.53225,491897
4.54038,492021
4.54850,483948
4.55663,481752
4.56475,468348
4.57287,463829
4.58100,441413
4.58912,434863
4.59725,420767
4.60537,429265
4.61348,425117
4.62162,427218
4.62973,484783
4.63785,627119
4.64598,748992
4.65410,740589
4.66223,629062
4.67035,521077
4.67847,477338
4.68660,447305
4.69472,423078
4.70285,398958
4.71097,397632
4.71908,380495
4.72722,378841
4.73533,376122
4.74347,366720
4.75158,348608
4.75970,355749
4.76783,340906
4.77595,339058
4.78407,347543
4.79220,443728
4.80032,752832
4.80845,1152224
4.81657,1272018
4.82468,1060439
4.83282,792033
4.84093,685498
4.84907,625398
4.85718,590351
4.86530,542954
4.87343,501500
4.88155,469834
4.88967,434213
4.89780,407047
4.90592,393388
4.91405,385236
4.92217,388753
4.93028,421274
4.93842,607276
4.94653,1161694
4.95467,2165663
4.96278,3097167
4.97090,3372566
4.97903,2932546
4.98715,2179216
4.99528,1651938
5.00340,1267152
5.01152,1064147
5.01965,963866
5.02777,958351
5.03588,1138556
5.04402,1384747
5.05213,1406518
5.06027,1221632
5.06838,1003791
5.07650,868593
5.08463,794281
5.09275,722164
5.10088,690134
5.10900,655778
5.11712,615290
5.12525,581330
5.13337,555780
5.14150,543555
5.14962,532958
5.15773,530104
5.16587,556063
5.17398,573563
5.18210,554369
5.19023,527284
5.19835,507718
5.20648,528785
5.21460,534603
5.22272,517067
5.23085,493107
5.23897,483518
5.24710,477398
5.25522,442488
5.26333,427927
5.27147,397991
5.27958,391368
5.28770,370687
5.29583,375229
5.30395,359345
5.31208,360902
5.32020,363254
5.32832,381421
5.33645,392118
5.34457,415256
5.35270,425668
5.36082,384854
5.36893,365936
5.37707,362984
5.38518,358962
5.39332,358652
5.40143,367132
5.40955,366179
5.41768,345844
5.42580,342866
5.43392,323563
5.44205,336844
5.45017,338835
5.45830,342967
5.46642,322263
5.47453,317436
5.48267,315871
5.49078,298780
5.49892,299925
5.50703,299747
5.51515,310021
5.52328,313346
5.53140,311308
5.53953,304314
5.54765,302309
5.55577,286983
5.56390,297104
5.57202,306674
5.58013,320092
5.58827,311542
5.59638,304228
5.60452,292378
5.61263,274829
5.62075,274784
5.62888,279955
5.63700,285087
5.64513,294338
5.65325,290039
5.66137,293451
5.66950,287134
5.67762,287907
5.68573,327262
5.69387,363575
5.70198,364031
5.71012,343876
5.71823,308137
5.72635,289488
5.73448,287479
5.74260,269796
5.75073,264072
5.75885,262979
5.76697,253753
5.77510,246383
5.78322,247747
5.79135,244314
5.79947,235046
5.80758,239142
5.81572,239489
5.82383,239920
5.83195,245874
5.84008,243457
5.84820,242025
5.85633,237490
5.86445,240632
5.87257,240876
5.88070,236538
5.88882,230898
5.89695,226384
5.90507,222337
5.91318,195304
5.92132,174185
5.92943,170210
5.93755,171006
5.94568,178410
5.95380,194698
5.96193,208942
5.97005,239257
5.97817,266411
5.98630,305264
5.99442,320534
6.00255,312799
6.01067,269844
6.01878,243950
6.02692,223285
6.03503,209424
6.04317,201349
6.05128,183934
6.05940,180650
6.06753,175295
6.07565,170118
6.08377,169748
6.09190,167876
6.10002,165646
6.10815,168713
6.11627,176490
6.12438,186118
6.13252,251564
6.14063,340098
6.14877,450380
6.15688,469043
6.16500,404588
6.17313,315616
6.18125,260606
6.18938,232822
6.19750,214752
6.20562,212020
6.21375,213343
6.22187,208375
6.22998,201330
6.23812,204252
6.24623,201573
6.25437,195181
6.26248,200960
6.27060,194004
6.27873,195644
6.28685,204698
6.29498,194028
6.30310,190890
6.31122,204663
6.31935,205041
6.32747,216308
6.33558,239029
6.34372,259859
6.35183,266406
6.35997,249798
6.36808,225407
6.37620,213815
6.38433,217749
6.39245,209513
6.40058,204018
6.40870,210068
6.41682,207417
6.42495,204672
6.43307,206166
6.44120,201980
6.44932,201831
6.45743,200863
6.46557,195568
6.47368,199977
6.48180,200964
6.48993,198118
6.49805,194441
6.50618,201367
6.51430,200986
6.52242,216124
6.53055,207183
6.53867,204009
6.54680,208560
6.55492,209247
6.56303,207476
6.57117,210411
6.57928,218288
6.58742,217488
6.59553,228544
6.60365,219763
6.61178,204883
6.61990,215449
6.62802,206116
6.63615,213692
6.64427,208238
6.65240,233807
6.66052,254247
6.66863,323777
6.67677,374039
6.68488,364066
6.69302,303760
6.70113,264999
6.70925,242066
6.71738,241508
6.72550,235169
6.73362,237346
6.74175,238178
6.74987,240046
6.75800,230516
6.76612,226388
6.77423,205290
6.78237,184702
6.79048,171973
6.79862,167692
6.80673,155707
6.81485,159888
6.82298,155591
6.83110,153464
6.83923,157931
6.84735,174225
6.85547,189374
6.86360,206692
6.87172,207648
6.87983,188238
6.88797,156614
6.89608,128257
6.90422,109019
6.91233,99636
6.92045,98536
6.92858,95890
6.93670,94998
6.94483,98784
6.95295,94540
6.96107,99631
6.96920,106049
6.97732,120959
6.98543,128529
6.99357,125019
7.00168,115065
7.00982,105019
7.01793,95570
7.02605,93097
7.03418,87440
7.04230,87413
7.05043,90659
7.05855,84255
7.06667,82351
7.07480,81021
7.08292,82322
7.09105,83806
7.09917,81015
7.10728,80793
7.11542,82890
7.12353,83443
7.13165,82393
7.13978,91170
7.14790,115593
7.15603,169618
7.16415,219683
7.17227,243855
7.18040,226888
7.18852,175485
7.19665,143062
7.20477,115791
7.21288,127618
7.22102,204043
7.22913,439957
7.23727,872337
7.24538,1301372
7.25350,1406815
7.26163,1113100
7.26975,717387
7.27787,434068
7.28600,314564
7.29412,247122
7.30225,206231
7.31037,156487
7.31848,129006
7.32662,129459
7.33473,121818
7.34287,107971
7.35098,108395
7.35910,96855
7.36723,98827
7.37535,96974
7.38348,100401
7.39160,99155
7.39972,103714
7.40785,97476
7.41597,98060
7.42408,89966
7.43222,89234
7.44033,95828
7.44847,84720
7.45658,97358
7.46470,90656
7.47283,87408
7.48095,82398
7.48908,82537
7.49720,81410
7.50532,79004
7.51345,88118
7.52157,95634
7.52968,123355
7.53782,154864
7.54593,193615
7.55407,225517
7.56218,230761
7.57030,207263
7.57843,174969
7.58655,138747
7.59468,117380
7.60280,100953
7.61092,92348
7.61905,88398
7.62717,82999
7.63530,86160
7.64342,83726
7.65153,74653
7.65967,73530
7.66778,77597
7.67590,73647
7.68403,73014
7.69215,71544
7.70028,71439
7.70840,69422
7.71652,70429
7.72465,73475
7.73277,78743
7.74090,73403
7.74902,73583
7.75713,72970
7.76527,77176
7.77338,74346
7.78150,79456
7.78963,77078
7.79775,83648
7.80588,83761
7.81400,90280
7.82212,88169
7.83025,77045
7.83837,72400
7.84650,68138
7.85462,65320
7.86273,74520
7.87087,70809
7.87898,74316
7.88712,78186
7.89523,73658
7.90335,69882
7.91148,68485
7.91960,75831
7.92772,81375
7.93585,96431
7.94397,111644
7.95210,116775
7.96022,118427
7.96833,112754
7.97647,93302
7.98458,83364
7.99272,76011
8.00083,72703
8.00895,69176
8.01708,67104
8.02520,64252
8.03333,66759
8.04145,63401
8.04957,70631
8.05770,63502
8.06582,66867
8.07393,60580
8.08207,64151
8.09018,61140
8.09832,57577
8.10643,62962
8.11455,62516
8.12268,64899
8.13080,67889
8.13893,80596
8.14705,89273
8.15517,100570
8.16330,100857
8.17142,87776
8.17953,78929
8.18767,66525
8.19578,66545
8.20392,64844
8.21203,62599
8.22015,67125
8.22828,66235
8.23640,63102
8.24453,65027
8.25265,60939
8.26077,62761
8.26890,62536
8.27702,57724
8.28515,59151
8.29327,60374
8.30138,59981
8.30952,59255
8.31763,65895
8.32575,64835
8.33388,67047
8.34200,60440
8.35013,59674
8.35825,59032
8.36637,56823
8.37450,62760
8.38262,69421
8.39075,65957
8.39887,66739
8.40698,64154
8.41512,61901
8.42323,59419
8.43137,54384
8.43948,58064
8.44760,59252
8.45573,56837
8.46385,56396
8.47197,57032
8.48010,57380
8.48822,59416
8.49635,57339
8.50447,57416
8.51258,55725
8.52072,64823
8.52883,84143
8.53697,145957
8.54508,255447
8.55320,370952
8.56133,443987
8.56945,379507
8.57757,285187
8.58570,191244
8.59382,154001
8.60195,143797
8.61007,149857
8.61818,134949
8.62632,126485
8.63443,102945
8.64257,95421
8.65068,82052
8.65880,84503
8.66693,76533
8.67505,74264
8.68318,71246
8.69130,78605
8.69942,77708
8.70755,79508
8.71567,76498
8.72378,72647
8.73192,67620
8.74003,81057
8.74817,125643
8.75628,234022
8.76440,446230
8.77253,708464
8.78065,937393
8.78878,948703
8.79690,779900
8.80502,566964
8.81315,382898
8.82127,279164
8.82938,217452
8.83752,193748
8.84563,196064
8.85377,200683
8.86188,198991
8.87000,191791
8.87813,191726
8.88625,178843
8.89438,174004
8.90250,159718
8.91062,153786
8.91875,150528
8.92687,145682
8.93500,151268
8.94312,158897
8.95123,162722
8.95937,167641
8.96748,159944
8.97560,152915
8.98373,146970
8.99185,141647
8.99998,135222
9.00810,133410
9.01622,127806
9.02435,126421
9.03247,119039
9.04060,112906
9.04872,113887
9.05683,112125
9.06497,110203
9.07308,111117
9.08122,110847
9.08933,107225
9.09745,110523
9.10558,116254
9.11370,130380
9.12182,123606
9.12995,121914
9.13807,120765
9.14620,121217
9.15432,108149
9.16243,110415
9.17057,111384
9.17868,104379
9.18682,100489
9.19493,101864
9.20305,97627
9.21118,96147
9.21930,92881
9.22742,92223
9.23555,91518
9.24367,96026
9.25180,92732
9.25992,88675
9.26803,90579
9.27617,83883
9.28428,89524
9.29242,86563
9.30053,82315
9.30865,81551
9.31678,79324
9.32490,86293
9.33303,85516
9.34115,79477
9.34927,78551
9.35740,79476
9.36552,81615
9.37363,84526
9.38177,78248
9.38988,86559
9.39802,83367
9.40613,84279
9.41425,98162
9.42238,98036
9.43050,105599
9.43863,118198
9.44675,116864
9.45487,109249
9.46300,101311
9.47112,93957
9.47925,83382
9.48737,82792
9.49548,86222
9.50362,90584
9.51173,93534
9.51985,105728
9.52798,113775
9.53610,112381
9.54423,98455
9.55235,85428
9.56047,71891
9.56860,71115
9.57672,65899
9.58485,72193
9.59297,76952
9.60108,72535
9.60922,61612
9.61733,60605
9.62545,55765
9.63358,54430
9.64170,50595
9.64983,50622
9.65795,52127
9.66607,53072
9.67420,53426
9.68232,53590
9.69045,60082
9.69857,48658
9.70668,45980
9.71482,47579
9.72293,49142
9.73107,48873
9.73918,46357
9.74730,47252
9.75543,47363
9.76355,51273
9.77167,49504
9.77980,47944
9.78792,47814
9.79605,43023
9.80417,49150
9.81228,49518
9.82042,47751
9.82853,44847
9.83667,48528
9.84478,47425
9.85290,44209
9.86103,49813
9.86915,52729
9.87728,52700
9.88540,52137
9.89352,54078
9.90165,50078
9.90977,52120
9.91788,58362
9.92602,59648
9.93413,80295
9.94227,114241
9.95038,153622
9.95850,190503
9.96663,208158
9.97475,189699
9.98288,159061
9.99100,122450
9.99912,106890
10.00725,92838
10.01537,83977
10.02348,85084
10.03162,71981
10.03973,65994
10.04787,64849
10.05598,66685
10.06410,60418
10.07223,56988
10.08035,59264
10.08848,59780
10.09660,60626
10.10472,64995
10.11285,60254
10.12097,61812
10.12910,61296
10.13722,61438
10.14533,61139
10.15347,63208
10.16158,60541
10.16970,56444
10.17783,56295
10.18595,55742
10.19408,48939
10.20220,54031
10.21032,57083
10.21845,58680
10.22657,55455
10.23470,62097
10.24282,59714
10.25093,64675
10.25907,83666
10.26718,137423
10.27530,294500
10.28343,627512
10.29155,1174477
10.29968,1796417
10.30780,2557108
10.31592,3623592
10.32405,5420336
10.33217,7360463
10.34030,8805271
10.34842,8305629
10.35653,6473113
10.36467,4586573
10.37278,3173010
10.38092,2329840
10.38903,1693149
10.39715,1212507
10.40528,873633
10.41340,635446
10.42152,517560
10.42965,435103
10.43777,389913
10.44590,367831
10.45402,331885
10.46213,308891
10.47027,283998
10.47838,269678
10.48652,258636
10.49463,244384
10.50275,228297
10.51088,213959
10.51900,209512
10.52713,198043
10.53525,190102
10.54337,194376
10.55150,186620
10.55962,173330
10.56773,173157
10.57587,172325
10.58398,174865
10.59212,164701
10.60023,165800
10.60835,150988
10.61648,146486
10.62460,138706
10.63273,133268
10.64085,129535
10.64897,127032
10.65710,121206
10.66522,125736
10.67333,123119
10.68147,121660
10.68958,121302
10.69772,121179
10.70583,112807
10.71395,110925
10.72208,115103
10.73020,109774
10.73833,103876
10.74645,106811
10.75457,108319
10.76270,102385
10.77082,100438
10.77895,96268
10.78707,96562
10.79518,95687
10.80332,91863
10.81143,90111
10.81955,87791
10.82768,85233
10.83580,84363
10.84393,88838
10.85205,76938
10.86017,83458
10.86830,79917
10.87642,85206
10.88455,82449
10.89267,78550
10.90078,77624
10.90892,76679
10.91703,75649
10.92517,76050
10.93328,71265
10.94140,71086
10.94953,72990
10.95765,72761
10.96577,78222
10.97390,78049
10.98202,78755
10.99015,79063
10.99827,77023
11.00638,74454
11.01452,74205
11.02263,69210
11.03077,67870
11.03888,65470
11.04700,68172
11.05513,62950
11.06325,67481
11.07137,66200
11.07950,69975
11.08762,72865
11.09575,70682
11.10387,68857
11.11198,66090
11.12012,64687
11.12823,60601
11.13637,61457
11.14448,64146
11.15260,56956
11.16073,57483
11.16885,62527
11.17698,66813
11.18510,65003
11.19322,70582
11.20135,66209
11.20947,64726
11.21758,67565
11.22572,62966
11.23383,60553
11.24197,55842
11.25008,55670
11.25820,51086
11.26633,52314
11.27445,52687
11.28258,52315
11.29070,61458
11.29882,63405
11.30695,76422
11.31507,98288
11.32318,152191
11.33132,216163
11.33943,269854
11.34757,298327
11.35568,279377
11.36380,231815
11.37193,178952
11.38005,132325
11.38818,100687
11.39630,86238
11.40442,83265
11.41255,84199
11.42067,81857
11.42880,85421
11.43692,85846
11.44503,76916
11.45317,75421
11.46128,74313
11.46940,69139
11.47753,83788
11.48565,91256
11.49378,105778
11.50190,127970
11.51002,130199
11.51815,125920
11.52627,110105
11.53440,94912
11.54252,86859
11.55063,89873
11.55877,84597
11.56688,76580
11.57502,76345
11.58313,71830
11.59125,74577
11.59938,92970
11.60750,107319
11.61562,131733
11.62375,142739
11.63187,143010
11.64000,118739
11.64812,98427
11.65623,88854
11.66437,80678
11.67248,72843
11.68062,72142
11.68873,77720
11.69685,75585
11.70498,78726
11.71310,80344
11.72123,80211
11.72935,77213
11.73747,69845
11.74560,69337
11.75372,64632
11.76183,58330
11.76997,58417
11.77808,62577
11.78622,63781
11.79433,64484
11.80245,57740
11.81058,61273
11.81870,66171
11.82683,59418
11.83495,68367
11.84307,59137
11.85120,60922
11.85932,61125
11.86743,58528
11.87557,61296
11.88368,57957
11.89182,51979
11.89993,56868
11.90805,51339
11.91618,59337
11.92430,64821
11.93243,63193
11.94055,68746
11.94867,62170
11.95680,62412
11.96492,64252
11.97305,82463
11.98117,132578
11.98928,257246
11.99742,481551
12.00553,757314
12.01365,970496
12.02178,990394
12.02990,853376
12.03803,596692
12.04615,397139
12.05427,259762
12.06240,197400
12.07052,166678
12.07865,145505
12.08677,134503
12.09488,127594
12.10302,123501
12.11113,123106
12.11925,114757
12.12738,113367
12.13550,112403
12.14363,111436
12.15175,100305
12.15987,98383
12.16800,96659
12.17612,91488
12.18425,87767
12.19237,87232
12.20048,84134
12.20862,84710
12.21673,84041
12.22487,84886
12.23298,85016
12.24110,86415
12.24923,79298
12.25735,81885
12.26547,76031
12.27360,72251
12.28172,72515
12.28985,73428
12.29797,73923
12.30608,78641
12.31422,69646
12.32233,70180
12.33047,71022
12.33858,70240
12.34670,64658
12.35483,64923
12.36295,65507
12.37108,69820
12.37920,62625
12.38732,67507
12.39545,64936
12.40357,77127
12.41168,82684
12.41982,90134
12.42793,99527
12.43607,98206
12.44418,99532
12.45230,91511
12.46043,82149
12.46855,81622
12.47668,74493
12.48480,72174
12.49292,68519
12.50105,62669
12.50917,64958
12.51728,67120
12.52542,80502
12.53353,117400
12.54167,219039
12.54978,462487
12.55790,857535
12.56603,1210555
12.57415,1381469
12.58228,1216017
12.59040,872900
12.59852,534694
12.60665,319383
12.61477,214257
12.62290,167407
12.63102,144992
12.63913,127609
12.64727,124469
12.65538,110395
12.66350,99067
12.67163,93753
12.67975,98712
12.68788,88540
12.69600,86083
12.70412,88623
12.71225,80141
12.72037,86826
12.72850,86195
12.73662,98069
12.74473,93958
12.75287,94095
12.76098,87107
12.76912,81332
12.77723,72474
12.78535,68229
12.79348,67702
12.80160,64900
12.80972,63290
12.81785,60011
12.82597,59320
12.83410,59886
12.84222,60838
12.85033,56107
12.85847,59469
12.86658,58057
12.87472,54637
12.88283,56994
12.89095,60529
12.89908,58878
12.90720,55120
12.91532,56471
12.92345,53815
12.93157,52250
12.93970,53514
12.94782,60966
12.95593,79637
12.96407,129259
12.97218,202547
12.98032,296455
12.98843,368951
12.99655,354458
13.00468,283230
13.01280,198592
13.02093,146732
13.02905,114857
13.03717,99771
13.04530,93288
13.05342,101220
13.06153,99248
13.06967,114467
13.07778,107922
13.08592,103398
13.09403,97021
13.10215,82608
13.11028,72384
13.11840,68987
13.12653,67159
13.13465,67282
13.14277,69657
13.15090,69829
13.15902,66557
13.16713,65174
13.17527,69204
13.18338,64733
13.19152,66512
13.19963,67201
13.20775,69158
13.21588,70703
13.22400,64786
13.23213,70396
13.24025,63796
13.24837,59039
13.25650,62401
13.26462,56159
13.27275,55630
13.28087,52471
13.28898,49346
13.29712,53146
13.30523,51063
13.31335,49766
13.32148,49709
13.32960,53176
13.33773,49588
13.34585,52443
13.35397,48789
13.36210,49781
13.37022,49168
13.37835,54110
13.38647,50947
13.39458,53646
13.40272,49082
13.41083,42856
13.41897,45584
13.42708,44641
13.43520,45105
13.44333,48287
13.45145,44053
13.45957,49847
13.46770,47516
13.47582,49397
13.48395,53045
13.49207,54137
13.50018,51906
13.50832,50107
13.51643,50066
13.52457,50387
13.53268,52982
13.54080,51787
13.54893,52089
13.55705,49623
13.56517,45004
13.57330,50813
13.58142,48135
13.58955,54733
13.59767,61180
13.60578,83944
13.61392,107618
13.62203,145099
13.63017,153809
13.63828,142224
13.64640,115612
13.65453,94182
13.66265,75245
13.67078,64086
13.67890,62000
13.68702,55631
13.69515,57522
13.70327,52831
13.71138,50971
13.71952,54609
13.72763,69558
13.73577,122021
13.74388,302306
13.75200,757445
13.76013,1645912
13.76825,2967467
13.77638,4210582
13.78450,4675008
13.79262,4271329
13.80075,3349152
13.80887,2223833
13.81700,1396923
13.82512,957742
13.83323,757699
13.84137,646855
13.84948,581326
13.85760,526081
13.86573,454293
13.87385,401870
13.88198,361282
13.89010,322917
13.89822,300134
13.90635,286272
13.91447,267159
13.92260,252855
13.93072,245277
13.93883,226523
13.94697,229635
13.95508,246232
13.96320,264553
13.97133,311180
13.97945,350305
13.98758,380157
13.99570,371938
14.00382,325217
14.01195,270768
14.02007,235527
14.02820,206184
14.03632,197632
14.04443,186125
14.05257,173609
14.06068,174665
14.06882,173914
14.07693,172805
14.08505,161250
14.09318,165627
14.10130,152511
14.10942,157283
14.11755,153324
14.12567,162826
14.13380,176136
14.14192,195501
14.15003,220708
14.15817,239520
14.16628,239953
14.17442,262583
14.18253,267420
14.19065,305413
14.19878,346543
14.20690,360351
14.21502,340954
14.22315,312243
14.23127,272200
14.23940,247745
14.24752,246804
14.25563,224166
14.26377,210266
14.27188,184490
14.28002,166919
14.28813,158340
14.29625,141981
14.30438,128914
14.31250,124504
14.32063,121726
14.32875,119616
14.33687,113852
14.34500,105997
14.35312,106308
14.36123,91318
14.36937,85836
14.37748,79920
14.38562,91003
14.39373,105341
14.40185,153418
14.40998,231883
14.41810,339047
14.42623,429211
14.43435,433055
14.44247,353649
14.45060,262036
14.45872,187903
14.46685,145016
14.47497,118443
14.48308,108066
14.49122,100089
14.49933,99495
14.50745,96197
14.51558,109116
14.52370,107395
14.53183,112960
14.53995,105582
14.54807,104726
14.55620,91953
14.56432,84062
14.57245,78220
14.58057,70628
14.58868,71043
14.59682,67020
14.60493,69761
14.61305,71020
14.62118,72513
14.62930,68824
14.63743,66516
14.64555,63344
14.65367,63901
14.66180,60643
14.66992,64603
14.67805,63858
14.68617,60661
14.69428,67035
14.70242,58354
14.71053,63115
14.71867,63160
14.72678,64157
14.73490,62108
14.74303,66484
14.75115,70433
14.75927,70465
14.76740,68250
14.77552,75623
14.78365,75473
14.79177,107439
14.79988,203106
14.80802,451184
14.81613,943819
14.82427,1561961
14.83238,2136856
14.84050,2316670
14.84863,2065218
14.85675,1499561
14.86488,998837
14.87300,632259
14.88112,412978
14.88925,301702
14.89737,246623
14.90548,213418
14.91362,180744
14.92173,169770
14.92987,154977
14.93798,149452
14.94610,142350
14.95423,143037
14.96235,135850
14.97048,146315
14.97860,152311
14.98672,151431
14.99485,139043
15.00297,126163
15.01108,121797
15.01922,113027
15.02733,97503
15.03547,94309
15.04358,94026
15.05170,90921
15.05983,89282
15.06795,92062
15.07608,84111
15.08420,79771
15.09232,80126
15.10045,82620
15.10857,74217
15.11670,76549
15.12482,77923
15.13293,78667
15.14107,82040
15.14918,88855
15.15730,87916
15.16543,82108
15.17355,77177
15.18168,73157
15.18980,68665
15.19792,64767
15.20605,62718
15.21417,61365
15.22230,62797
15.23042,56359
15.23853,58003
15.24667,52177
15.25478,56618
15.26292,54477
15.27103,54986
15.27915,55373
15.28728,53949
15.29540,52342
15.30352,48182
15.31165,52381
15.31977,51921
15.32790,52691
15.33602,46478
15.34413,54727
15.35227,50059
15.36038,50604
15.36852,49800
15.37663,49182
15.38475,56975
15.39288,60672
15.40100,67622
15.40912,84852
15.41725,98546
15.42537,101237
15.43350,96401
15.44162,84915
15.44973,71831
15.45787,58612
15.46598,59470
15.47412,59600
15.48223,75429
15.49035,81397
15.49848,88697
15.50660,101712
15.51473,101329
15.52285,99340
15.53097,98122
15.53910,95924
15.54722,103286
15.55533,97161
15.56347,85585
15.57158,76623
15.57972,67247
15.58783,60423
15.59595,55616
15.60408,52341
15.61220,53279
15.62033,48337
15.62845,51450
15.63657,50863
15.64470,51237
15.65282,49410
15.66093,48673
15.66907,50790
15.67718,46543
15.68532,47929
15.69343,49198
15.70155,49250
15.70968,45397
15.71780,47943
15.72593,47493
15.73405,51290
15.74217,52984
15.75030,57155
15.75842,77226
15.76655,107349
15.77467,157876
15.78278,221370
15.79092,274387
15.79903,284971
15.80715,254764
15.81528,190348
15.82340,140660
15.83153,107463
15.83965,91271
15.84777,80046
15.85590,74246
15.86402,70056
15.87215,67586
15.88027,66815
15.88838,66116
15.89652,64454
15.90463,61690
15.91277,58613
15.92088,57339
15.92900,64031
15.93713,73643
15.94525,81484
15.95337,107067
15.96150,147689
15.96962,203352
15.97775,235992
15.98587,259032
15.99398,250336
16.00212,209089
16.01023,165401
16.01837,136617
16.02648,120842
16.03460,115414
16.04273,99721
16.05085,95276
16.05897,89047
16.06710,78680
16.07522,73821
16.08335,73732
16.09147,68124
16.09958,69772
16.10772,62187
16.11583,61225
16.12397,62974
16.13208,64307
16.14020,64260
16.14833,67892
16.15645,69373
16.16458,67153
16.17270,66868
16.18082,61898
16.18895,57459
16.19707,60716
16.20518,59760
16.21332,60029
16.22143,63202
16.22957,58361
16.23768,58280
16.24580,55764
16.25393,53968
16.26205,57768
16.27018,57585
16.27830,58338
16.28642,61854
16.29455,65384
16.30267,64208
16.31080,65758
16.31892,62804
16.32703,59616
16.33517,61146
16.34328,69082
16.35140,92013
16.35953,130835
16.36765,181748
16.37578,235730
16.38390,263398
16.39202,252926
16.40015,206123
16.40827,159925
16.41640,121932
16.42452,97802
16.43263,89042
16.44077,84981
16.44888,91451
16.45700,121558
16.46513,185228
16.47325,279200
16.48138,347767
16.48950,376906
16.49762,351802
16.50575,267149
16.51387,192560
16.52200,142229
16.53012,109223
16.53823,90287
16.54637,86094
16.55448,77214
16.56262,77690
16.57073,78567
16.57885,87269
16.58698,82334
16.59510,91757
16.60322,107038
16.61135,122959
16.61947,127152
16.62760,127910
16.63572,119230
16.64383,100575
16.65197,89401
16.66008,73048
16.66822,69640
16.67633,68860
16.68445,65886
16.69258,60441
16.70070,61619
16.70882,57874
16.71695,58905
16.72507,58851
16.73320,54606
16.74132,56016
16.74943,51118
16.75757,55795
16.76568,56482
16.77382,57208
16.78193,57576
16.79005,52535
16.79818,53098
16.80630,52611
16.81443,54019
16.82255,50411
16.83067,47850
16.83880,49002
16.84692,51053
16.85503,47908
16.86317,46217
16.87128,49168
16.87942,44123
16.88753,45690
16.89565,43576
16.90378,40966
16.91190,43114
16.92003,50210
16.92815,44929
16.93627,48020
16.94440,44642
16.95252,42943
16.96065,48559
16.96877,49645
16.97688,43876
16.98502,47450
16.99313,45899
17.00125,44671
17.00938,46478
17.01750,48001
17.02563,45316
17.03375,48560
17.04187,53247
17.05000,59440
17.05812,62103
17.06625,61173
17.07437,62201
17.08248,64304
17.09062,66260
17.09873,77872
17.10687,82816
17.11498,85989
17.12310,88297
17.13123,88934
17.13935,80688
17.14747,78519
17.15560,74097
17.16372,68169
17.17185,63149
17.17997,60565
17.18808,62883
17.19622,57510
17.20433,52314
17.21247,49557
17.22058,45533
17.22870,45933
17.23683,48635
17.24495,48048
17.25307,49570
17.26120,48466
17.26932,45038
17.27745,47098
17.28557,50047
17.29368,46668
17.30182,44045
17.30993,50147
17.31807,52618
17.32618,60024
17.33430,69309
17.34243,75029
17.35055,85190
17.35868,83693
17.36680,84182
17.37492,85197
17.38305,78713
17.39117,66804
17.39928,64595
17.40742,64034
17.41553,61686
17.42367,54384
17.43178,58355
17.43990,57372
17.44803,55456
17.45615,52904
17.46428,51369
17.47240,50539
17.48052,50152
17.48865,50337
17.49677,47822
17.50488,52890
17.51302,44961
17.52113,48953
17.52927,47319
17.53738,51165
17.54550,50505
17.55363,52117
17.56175,69877
17.56988,104170
17.57800,168884
17.58612,281968
17.59425,466783
17.60237,663257
17.61050,814838
17.61862,837276
17.62673,752134
17.63487,587465
17.64298,458019
17.65110,383598
17.65923,351269
17.66735,332465
17.67548,322393
17.68360,287627
17.69172,236950
17.69985,200189
17.70797,158925
17.71610,137519
17.72422,119901
17.73233,111178
17.74047,102573
17.74858,93213
17.75672,95751
17.76483,85512
17.77295,81496
17.78108,87767
17.78920,105444
17.79732,154723
17.80545,264417
17.81357,434383
17.82170,644326
17.82982,804102
17.83793,842279
17.84607,729093
17.85418,556356
17.86232,396034
17.87043,295620
17.87855,220480
17.88668,184779
17.89480,155051
17.90292,136585
17.91105,126342
17.91917,110293
17.92730,108528
17.93542,100966
17.94353,95666
17.95167,93396
17.95978,89490
17.96792,90013
17.97603,83169
17.98415,79915
17.99228,82552
18.00040,82932
18.00853,76901
18.01665,84131
18.02477,89762
18.03290,95419
18.04102,101044
18.04913,120434
18.05727,183898
18.06538,360032
18.07352,709469
18.08163,1237567
18.08975,1801910
18.09788,2091400
18.10600,2062798
18.11413,1744481
18.12225,1314870
18.13037,935161
18.13850,676492
18.14662,557013
18.15475,554935
18.16287,624863
18.17098,697142
18.17912,732445
18.18723,741919
18.19535,744063
18.20348,729361
18.21160,707735
18.21973,675873
18.22785,670945
18.23597,673726
18.24410,646291
18.25222,641787
18.26035,627926
18.26847,595696
18.27658,582096
18.28472,559435
18.29283,536218
18.30095,512752
18.30908,502247
18.31720,486921
18.32533,465545
18.33345,461782
18.34157,460444
18.34970,459161
18.35782,440794
18.36595,440401
18.37407,438990
18.38218,445209
18.39032,481899
18.39843,562748
18.40657,650936
18.41468,789088
18.42280,903456
18.43093,909788
18.43905,863027
18.44717,773651
18.45530,702329
18.46342,676022
18.47155,683154
18.47967,724874
18.48778,724396
18.49592,694356
18.50403,631303
18.51217,561372
18.52028,494488
18.52840,443866
18.53653,408833
18.54465,390011
18.55277,370342
18.56090,368506
18.56902,358363
18.57715,344004
18.58527,341239
18.59338,355403
18.60152,337764
18.60963,329667
18.61777,321132
18.62588,329842
18.63400,318481
18.64213,320894
18.65025,308410
18.65838,294119
18.66650,293213
18.67462,291687
18.68275,282124
18.69087,279355
18.69898,282701
18.70712,278171
18.71523,279192
18.72337,274842
18.73148,268905
18.73960,259430
18.74773,261324
18.75585,258470
18.76398,246033
18.77210,247451
18.78022,238194
18.78835,238683
18.79647,237042
18.80460,238118
18.81272,234348
18.82083,233083
18.82897,234314
18.83708,230400
18.84520,223890
18.85333,228675
18.86145,218977
18.86958,216542
18.87770,216810
18.88582,213524
18.89395,210525
18.90207,214351
18.91020,209949
18.91832,209983
18.92643,216327
18.93457,211689
18.94268,213313
18.95080,213126
18.95893,212448
18.96705,215062
18.97518,209931
18.98330,205395
18.99142,197184
18.99955,200071
19.00767,190795
19.01580,192589
19.02392,187045
19.03203,185854
19.04017,181215
19.04828,181391
19.05642,177921
19.06453,187103
19.07265,192658
19.08078,213016
19.08890,253873
19.09702,302336
19.10515,340355
19.11327,351601
19.12140,336883
19.12952,297536
19.13763,268149
19.14577,234837
19.15388,212667
19.16202,209650
19.17013,194127
19.17825,182038
19.18638,179893
19.19450,176587
19.20263,174742
19.21075,166021
19.21887,165214
19.22700,160470
19.23512,159359
19.24323,149208
19.25137,158208
19.25948,156801
19.26762,151726
19.27573,160517
19.28385,171846
19.29198,174530
19.30010,177649
19.30823,169020
19.31635,166992
19.32447,170783
19.33260,162874
19.34072,165252
19.34883,172622
19.35697,192312
19.36508,210797
19.37322,245269
19.38133,246850
19.38945,240638
19.39758,219285
19.40570,187724
19.41383,166939
19.42195,153771
19.43007,146685
19.43820,139597
19.44632,146989
19.45445,141566
19.46257,136018
19.47068,148545
19.47882,161049
19.48693,198663
19.49505,227898
19.50318,254312
19.51130,260932
19.51943,244052
19.52755,216268
19.53567,182866
19.54380,152371
19.55192,140539
19.56005,140616
19.56817,124132
19.57628,126083
19.58442,124524
19.59253,120793
19.60067,120559
19.60878,115049
19.61690,113435
19.62503,119154
19.63315,122593
19.64127,140377
19.64940,169924
19.65752,201693
19.66565,256360
19.67377,298975
19.68188,311454
19.69002,310313
19.69813,287526
19.70627,261317
19.71438,235895
19.72250,212824
19.73063,189061
19.73875,176865
19.74687,164526
19.75500,152221
19.76312,144050
19.77125,135182
19.77937,133710
19.78748,139528
19.79562,134726
19.80373,145949
19.81187,137088
19.81998,129745
19.82810,125305
19.83623,126754
19.84435,132903
19.85248,182421
19.86060,343430
19.86872,776999
19.87685,1610310
19.88497,2890254
19.89308,4479882
19.90122,5672568
19.90933,5984394
19.91747,5367807
19.92558,4185720
19.93370,2884559
19.94183,1912609
19.94995,1369303
19.95808,1067863
19.96620,881359
19.97432,789554
19.98245,710748
19.99057,671438
19.99868,613482
20.00682,586717
20.01493,543264
20.02307,499950
20.03118,476706
20.03930,440820
20.04743,378776
20.05555,341422
20.06368,276844
20.07180,240437
20.07992,202370
20.08805,189690
20.09617,180769
20.10430,171757
20.11242,155473
20.12053,148136
20.12867,150889
20.13678,142486
20.14490,136355
20.15303,138151
20.16115,143227
20.16928,147835
20.17740,152748
20.18552,160131
20.19365,164388
20.20177,162641
20.20990,163318
20.21802,155869
20.22613,148535
20.23427,141700
20.24238,146356
20.25052,157385
20.25863,183228
20.26675,223912
20.27488,255065
20.28300,283078
20.29112,286964
20.29925,267183
20.30737,244224
20.31550,206977
20.32362,192742
20.33173,158024
20.33987,133508
20.34798,118883
20.35612,110871
20.36423,108677
20.37235,103018
20.38048,99276
20.38860,91054
20.39672,88679
20.40485,96047
20.41297,89159
20.42110,91001
20.42922,102307
20.43733,104464
20.44547,117090
20.45358,123429
20.46172,123511
20.46983,128700
20.47795,126384
20.48608,121037
20.49420,112504
20.50233,103222
20.51045,97543
20.51857,91431
20.52670,88529
20.53482,86522
20.54293,86841
20.55107,87998
20.55918,81236
20.56732,84042
20.57543,79704
20.58355,77231
20.59168,76357
20.59980,73326
20.60793,73476
20.61605,76163
20.62417,72617
20.63230,75465
20.64042,78710
20.64855,76183
20.65667,77174
20.66478,78546
20.67292,82211
20.68103,74790
20.68915,77252
20.69728,70807
20.70540,76896
20.71353,69399
20.72165,69647
20.72977,71314
20.73790,73026
20.74602,72621
20.75415,68835
20.76227,72323
20.77038,80737
20.77852,83120
20.78663,95479
20.79475,128649
20.80288,168020
20.81100,212711
20.81913,257041
20.82725,262073
20.83537,241832
20.84350,197049
20.85162,153332
20.85975,113694
20.86787,97079
20.87598,86364
20.88412,78317
20.89223,80652
20.90037,78377
20.90848,76533
20.91660,78439
20.92473,75164
20.93285,76386
20.94097,77051
20.94910,72357
20.95722,72375
20.96535,75095
20.97347,73344
20.98158,63937
20.98972,68606
20.99783,63364
21.00597,61234
21.01408,66748
21.02220,65830
21.03033,61126
21.03845,69425
21.04657,69524
21.05470,66043
21.06282,68039
21.07095,72153
21.07907,70171
21.08718,70137
21.09532,66467
21.10343,64340
21.11157,64140
21.11968,63486
21.12780,68030
21.13593,67279
21.14405,77280
21.15218,80102
21.16030,88018
21.16842,91350
21.17655,92796
21.18467,83298
21.19278,75975
21.20092,75001
21.20903,71437
21.21717,73352
21.22528,70513
21.23340,63892
21.24153,68038
21.24965,65398
21.25778,60566
21.26590,64062
21.27402,68894
21.28215,65792
21.29027,59952
21.29840,62205
21.30652,62725
21.31463,64306
21.32277,60932
21.33088,60092
21.33900,59322
21.34713,59210
21.35525,57512
21.36338,59756
21.37150,65060
21.37962,67857
21.38775,75703
21.39587,82918
21.40400,88459
21.41212,102360
21.42023,98367
21.42837,96191
21.43648,90803
21.44460,77079
21.45273,75307
21.46085,74198
21.46898,66347
21.47710,66422
21.48522,63254
21.49335,63826
21.50147,65675
21.50960,64394
21.51772,61423
21.52583,60323
21.53397,60460
21.54208,63647
21.55022,59827
21.55833,62339
21.56645,59919
21.57458,63229
21.58270,75025
21.59082,74990
21.59895,87214
21.60707,84446
21.61520,86495
21.62332,89112
21.63143,91405
21.63957,101436
21.64768,94187
21.65582,97094
21.66393,97816
21.67205,96409
21.68018,92914
21.68830,85500
21.69643,87770
21.70455,84490
21.71267,76157
21.72080,76792
21.72892,70873
21.73703,68441
21.74517,70150
21.75328,69433
21.76142,64226
21.76953,64159
21.77765,67736
21.78578,72099
21.79390,72757
21.80203,70377
21.81015,72730
21.81827,73438
21.82640,75941
21.83452,83468
21.84263,81976
21.85077,80556
21.85888,80147
21.86702,75218
21.87513,68866
21.88325,64803
21.89138,65780
21.89950,65018
21.90763,64044
21.91575,64351
21.92387,56560
21.93200,57171
21.94012,64838
21.94825,53133
21.95637,53606
21.96448,54219
21.97262,50408
21.98073,50575
21.98885,47126
21.99698,46990
22.00510,51798
22.01323,55201
22.02135,55191
22.02947,51117
22.03760,54620
22.04572,52339
22.05385,56037
22.06197,51885
22.07008,53182
22.07822,51773
22.08633,49427
22.09445,50387
22.10258,51432
22.11070,48702
22.11883,51971
22.12695,51234
22.13507,53100
22.14320,53551
22.15132,48583
22.15945,50782
22.16757,50054
22.17568,47723
22.18382,54993
22.19193,49657
22.20007,50155
22.20818,52147
22.21630,51221
22.22443,53303
22.23255,49334
22.24067,54678
22.24880,51175
22.25692,49914
22.26505,49047
22.27317,52478
22.28128,53871
22.28942,54303
22.29753,60229
22.30567,55461
22.31378,62059
22.32190,58113
22.33003,62625
22.33815,64057
22.34628,58573
22.35440,55435
22.36252,55914
22.37065,53160
22.37877,51986
22.38688,59612
22.39502,66834
22.40313,77151
22.41127,88726
22.41938,109503
22.42750,111541
22.43563,112364
22.44375,108411
22.45188,90627
22.46000,82048
22.46812,77691
22.47625,85753
22.48437,90169
22.49250,100010
22.50062,107785
22.50873,109552
22.51687,105406
22.52498,93967
22.53310,89010
22.54123,86094
22.54935,78135
22.55748,72917
22.56560,69967
22.57372,70604
22.58185,68974
22.58997,63747
22.59810,62467
22.60622,56894
22.61433,58364
22.62247,56100
22.63058,58239
22.63870,58745
22.64683,60830
22.65495,62634
22.66308,61695
22.67120,60692
22.67932,62659
22.68745,64462
22.69557,61928
22.70370,69260
22.71182,70641
22.71993,71152
22.72807,74274
22.73618,67928
22.74432,64666
22.75243,56161
22.76055,64098
22.76868,59214
22.77680,59667
22.78492,66623
22.79305,73055
22.80117,89703
22.80930,91907
22.81742,95956
22.82553,93829
22.83367,89983
22.84178,80958
22.84992,65737
22.85803,65372
22.86615,61754
22.87428,70857
22.88240,72237
22.89052,77740
22.89865,92275
22.90677,115866
22.91490,146678
22.92302,179357
22.93113,195847
22.93927,180918
22.94738,168869
22.95552,134968
22.96363,105456
22.97175,101165
22.97988,89983
22.98800,86204
22.99613,91981
23.00425,85587
23.01237,86891
23.02050,88131
23.02862,83334
23.03673,83881
23.04487,82871
23.05298,80926
23.06112,84961
23.06923,86075
23.07735,82044
23.08548,81466
23.09360,89537
23.10173,82798
23.10985,83879
23.11797,81566
23.12610,82292
23.13422,80376
23.14235,83066
23.15047,81908
23.15858,78344
23.16672,83429
23.17483,83561
23.18295,91040
23.19108,85965
23.19920,87015
23.20733,79916
23.21545,77930
23.22357,84534
23.23170,79657
23.23982,81865
23.24795,82018
23.25607,87281
23.26418,86783
23.27232,87391
23.28043,90863
23.28855,86907
23.29668,81009
23.30480,76871
23.31293,81250
23.32105,81625
23.32917,92618
23.33730,101042
23.34542,120643
23.35355,169483
23.36167,230726
23.36978,339466
23.37792,484324
23.38603,640310
23.39417,801519
23.40228,902035
23.41040,1014077
23.41853,1048636
23.42665,1089783
23.43477,1071126
23.44290,1032314
23.45102,951653
23.45915,905534
23.46727,850929
23.47538,802738
23.48352,738620
23.49163,657220
23.49977,617471
23.50788,571544
23.51600,512195
23.52413,485288
23.53225,440560
23.54038,411198
23.54850,384068
23.55662,356400
23.56475,340020
23.57287,322267
23.58098,325370
23.58912,336034
23.59723,343835
23.60537,350230
23.61348,339800
23.62160,320656
23.62973,289979
23.63785,273417
23.64598,269870
23.65410,277884
23.66222,278577
23.67035,295321
23.67847,282234
23.68658,263688
23.69472,233995
23.70283,205900
23.71097,178699
23.71908,163533
23.72720,162489
23.73533,160419
23.74345,165345
23.75158,227731
23.75970,366976
23.76782,666445
23.77595,1180164
23.78407,1750003
23.79220,2258241
23.80032,2498843
23.80843,2410463
23.81657,2050467
23.82468,1672053
23.83280,1314532
23.84093,1009509
23.84905,791843
23.85718,670030
23.86530,572142
23.87342,486757
23.88155,420228
23.88967,384586
23.89780,352094
23.90592,335027
23.91403,303568
23.92217,289406
23.93028,271759
23.93840,248881
23.94653,233244
23.95465,223856
23.96278,210155
23.97090,202199
23.97902,190450
23.98715,189244
23.99527,201078
24.00340,248816
24.01152,374261
24.01963,581736
24.02777,840592
24.03588,1030783
24.04402,1061137
24.05213,900005
24.06025,659524
24.06838,449489
24.07650,297919
24.08462,223919
24.09275,176992
24.10087,166914
24.10900,141325
24.11712,146974
24.12523,146681
24.13337,142923
24.14148,142736
24.14962,135574
24.15773,140071
24.16585,137592
24.17398,126511
24.18210,132363
24.19023,127518
24.19835,129227
24.20647,125231
24.21460,124596
24.22272,117537
24.23083,109025
24.23897,110301
24.24708,103674
24.25522,105498
24.26333,100844
24.27145,99996
24.27958,94330
24.28770,97024
24.29583,97136
24.30395,90788
24.31207,100011
24.32020,98480
24.32832,96057
24.33643,87175
24.34457,86818
24.35268,90140
24.36082,90615
24.36893,100835
24.37705,120898
24.38518,131324
24.39330,142156
24.40143,142767
24.40955,130813
24.41767,108533
24.42580,96433
24.43392,92805
24.44205,105481
24.45017,125796
24.45828,149728
24.46642,177409
24.47453,203741
24.48265,228657
24.49078,253420
24.49890,260734
24.50703,266407
24.51515,289369
24.52327,294746
24.53140,304812
24.53952,311118
24.54765,309443
24.55577,329873
24.56388,323271
24.57202,326681
24.58013,313112
24.58827,294046
24.59638,288578
24.60450,274785
24.61263,275142
24.62075,271282
24.62887,268710
24.63700,270141
24.64512,264273
24.65325,256309
24.66137,265258
24.66948,257119
24.67762,260727
24.68573,252808
24.69387,250806
24.70198,238789
24.71010,240914
24.71823,239098
24.72635,243514
24.73447,234220
24.74260,230636
24.75072,230261
24.75885,236987
24.76697,229449
24.77508,231748
24.78322,232164
24.79133,222664
24.79947,223847
24.80758,219804
24.81570,222248
24.82383,214904
24.83195,228814
24.84008,242973
24.84820,271381
24.85632,313288
24.86445,359890
24.87257,435284
24.88068,514185
24.88882,592434
24.89693,616150
24.90507,579956
24.91318,493236
24.92130,378886
24.92943,276098
24.93755,204992
24.94568,159730
24.95380,127604
24.96192,113707
24.97005,108778
24.97817,96680
24.98628,97267
24.99442,89966
25.00253,89217
25.01067,91286
25.01878,85500
25.02690,88128
25.03503,77879
25.04315,78720
25.05128,77132
25.05940,79873
25.06752,78759
25.07565,78831
25.08377,85672
25.09190,90329
25.10002,136947
25.10813,211595
25.11627,419051
25.12438,793505
25.13250,1388811
25.14063,1923283
25.14875,2284055
25.15688,2254955
25.16500,1872170
25.17312,1357522
25.18125,908053
25.18937,551046
25.19750,347061
25.20562,223110
25.21373,160835
25.22187,133090
25.22998,121337
25.23812,135379
25.24623,151654
25.25435,183778
25.26248,221232
25.27060,247589
25.27872,256347
25.28685,250509
25.29497,223775
25.30310,204020
25.31122,200340
25.31933,218664
25.32747,253020
25.33558,306210
25.34372,335669
25.35183,344245
25.35995,367252
25.36808,363633
25.37620,375351
25.38432,369750
25.39245,376353
25.40057,374363
25.40870,377373
25.41682,376041
25.42493,379989
25.43307,384279
25.44118,383073
25.44932,380599
25.45743,374825
25.46555,372347
25.47368,363152
25.48180,356948
25.48993,358353
25.49805,359102
25.50617,353852
25.51430,348716
25.52242,335436
25.53053,340955
25.53867,350314
25.54678,330236
25.55492,329430
25.56303,324211
25.57115,330591
25.57928,323398
25.58740,325096
25.59553,324225
25.60365,313878
25.61177,314741
25.61990,313372
25.62802,302359
25.63615,305964
25.64427,304504
25.65238,308690
25.66052,295352
25.66863,293391
25.67675,292045
25.68488,284033
25.69300,274945
25.70113,273935
25.70925,262536
25.71737,273561
25.72550,258051
25.73362,264447
25.74175,257774
25.74987,260594
25.75798,250692
25.76612,254067
25.77423,250777
25.78235,250406
25.79048,249349
25.79860,257056
25.80673,242647
25.81485,238266
25.82297,251316
25.83110,251464
25.83922,265381
25.84735,275207
25.85547,267250
25.86358,267667
25.87172,246252
25.87983,231847
25.88797,222308
25.89608,218071
25.90420,208465
25.91233,202691
25.92045,205839
25.92857,198910
25.93670,194627
25.94482,191565
25.95295,182591
25.96107,186934
25.96918,181425
25.97732,182161
25.98543,175582
25.99357,175442
26.00168,174961
26.00980,170547
26.01793,171339
26.02605,166487
26.03418,164556
26.04230,170212
26.05042,162429
26.05855,153348
26.06667,162167
26.07478,159843
26.08292,154481
26.09103,157187
26.09917,157306
26.10728,155208
26.11540,155944
26.12353,156726
26.13165,152379
26.13978,160022
26.14790,155204
26.15602,148748
26.16415,155696
26.17227,151711
26.18038,146490
26.18852,143520
26.19663,136182
26.20477,140277
26.21288,130334
26.22100,136720
26.22913,129634
26.23725,138487
26.24538,127800
26.25350,128974
26.26162,128064
26.26975,126607
26.27787,128440
26.28600,120689
26.29412,123601
26.30223,116952
26.31037,111747
26.31848,116648
26.32660,118100
26.33473,114293
26.34285,113222
26.35098,111825
26.35910,114965
26.36722,116279
26.37535,114750
26.38347,115684
26.39160,116609
26.39972,114553
26.40783,113775
26.41597,110500
26.42408,107513
26.43220,106983
26.44033,105812
26.44845,105183
26.45658,107756
26.46470,110471
26.47282,102845
26.48095,99601
26.48907,101444
26.49720,96791
26.50532,99542
26.51343,90394
26.52157,93274
26.52968,86745
26.53782,88083
26.54593,85062
26.55405,89059
26.56218,87112
26.57030,84940
26.57842,84712
26.58655,81202
26.59467,82576
26.60280,81031
26.61092,77878
26.61903,81888
26.62717,77899
26.63528,85804
26.64342,76933
26.65153,82471
26.65965,88094
26.66778,83397
26.67590,88021
26.68403,85985
26.69215,85823
26.70027,84604
26.70840,76171
26.71652,78587
26.72463,83809
26.73277,70260
26.74088,72941
26.74902,71404
26.75713,72518
26.76525,68536
26.77338,77064
26.78150,75073
26.78963,74662
26.79775,78482
26.80587,76030
26.81400,77934
26.82212,77822
26.83023,76453
26.83837,74220
26.84648,71936
26.85462,71043
26.86273,68944
26.87085,71798
26.87898,67850
26.88710,65751
26.89523,66391
26.90335,67505
26.91147,62362
26.91960,63917
26.92772,64363
26.93585,64676
26.94397,65127
26.95208,69137
26.96022,68311
26.96833,78775
26.97645,100286
26.98458,126927
26.99270,176632
27.00083,250968
27.00895,330261
27.01707,425893
27.02520,516728
27.03332,549072
27.04145,550042
27.04957,509600
27.05768,453575
27.06582,379628
27.07393,324582
27.08207,280195
27.09018,236819
27.09830,207452
27.10643,186261
27.11455,172898
27.12267,159629
27.13080,162062
27.13892,155213
27.14705,135677
27.15517,131078
27.16328,129057
27.17142,129546
27.17953,121065
27.18767,120171
27.19578,124406
27.20390,110709
27.21203,106454
27.22015,101138
27.22827,100848
27.23640,103616
27.24452,99765
27.25265,97765
27.26077,91394
27.26888,93136
27.27702,85424
27.28513,84840
27.29327,82202
27.30138,77610
27.30950,77265
27.31763,79340
27.32575,80357
27.33388,77006
27.34200,75879
27.35012,72621
27.35825,78793
27.36637,79036
27.37448,77543
27.38262,77110
27.39073,73106
27.39887,73193
27.40698,74880
27.41510,70092
27.42323,66629
27.43135,62246
27.43948,62715
27.44760,64352
27.45572,69643
27.46385,65193
27.47197,63329
27.48008,65035
27.48822,64652
27.49633,68989
27.50447,65452
27.51258,62345
27.52070,69628
27.52883,65178
27.53695,66590
27.54508,65145
27.55320,62311
27.56132,67769
27.56945,68927
27.57757,69363
27.58570,77950
27.59382,86719
27.60193,79479
27.61007,83256
27.61818,77065
27.62630,70130
27.63443,65986
27.64255,67115
27.65068,62647
27.65880,60363
27.66692,62697
27.67505,60638
27.68317,62196
27.69130,63899
27.69942,57281
27.70753,60579
27.71567,61233
27.72378,56449
27.73192,57959
27.74003,54069
27.74815,53948
27.75628,54784
27.76440,56379
27.77252,55722
27.78065,54742
27.78877,56363
27.79690,59059
27.80502,54519
27.81313,56093
27.82127,55695
27.82938,56628
27.83752,57871
27.84563,58754
27.85375,56599
27.86188,56511
27.87000,55091
27.87813,50548
27.88625,54652
27.89437,50930
27.90250,54647
27.91062,50683
27.91873,52241
27.92687,47481
27.93498,50730
27.94312,52667
27.95123,48411
27.95935,54986
27.96748,53985
27.97560,53869
27.98373,49658
27.99185,54182
27.99997,53585
28.00810,53016
28.01622,57023
28.02433,62139
28.03247,62065
28.04058,62497
28.04872,70831
28.05683,66569
28.06495,64690
28.07308,67466
28.08120,63813
28.08933,62821
28.09745,66222
28.10557,61539
28.11370,55131
28.12182,54951
28.12995,51347
28.13807,51628
28.14618,49622
28.15432,49030
28.16243,48874
28.17055,48749
28.17868,56324
28.18680,63779
28.19493,69143
28.20305,73606
28.21117,82283
28.21930,82394
28.22742,79057
28.23555,75016
28.24367,79015
28.25178,71110
28.25992,64412
28.26803,55574
28.27615,56806
28.28428,51906
28.29240,56311
28.30053,55922
28.30865,65222
28.31677,71659
28.32490,83483
28.33302,90003
28.34115,109631
28.34927,128684
28.35738,141817
28.36552,155293
28.37363,170906
28.38177,183474
28.38988,192217
28.39800,196944
28.40613,194030
28.41425,187820
28.42237,182727
28.43050,168823
28.43862,160173
28.44675,149646
28.45487,138769
28.46298,137816
28.47112,125939
28.47923,120389
28.48737,116311
28.49548,104921
28.50360,102749
28.51173,96351
28.51985,93927
28.52798,91056
28.53610,82736
28.54422,85775
28.55235,79738
28.56047,82961
28.56858,75474
28.57672,78821
28.58483,75077
28.59297,73006
28.60108,74829
28.60920,74564
28.61733,72663
28.62545,74745
28.63358,72508
28.64170,71642
28.64982,77496
28.65795,75190
28.66607,72568
28.67418,68960
28.68232,72713
28.69043,70307
28.69857,64287
28.70668,68038
28.71480,62970
28.72293,66001
28.73105,67162
28.73918,70079
28.74730,72217
28.75542,75301
28.76355,77039
28.77167,80758
28.77980,79620
28.78792,75106
28.79603,70940
28.80417,67481
28.81228,67525
28.82040,70017
28.82853,68072
28.83665,64776
28.84478,62603
28.85290,65582
28.86102,63947
28.86915,65988
28.87727,59699
28.88540,69221
28.89352,74036
28.90163,75440
28.90977,75978
28.91788,70302
28.92602,69380
28.93413,61555
28.94225,62211
28.95038,59329
28.95850,61976
28.96662,58950
28.97475,63029
28.98287,58431
28.99100,55787
28.99912,53995
29.00723,55830
29.01537,53121
29.02348,52681
29.03162,51034
29.03973,51742
29.04785,51483
29.05598,52195
29.06410,55477
29.07222,57120
29.08035,56890
29.08847,54949
29.09660,56415
29.10472,55451
29.11283,54701
29.12097,53525
29.12908,53964
29.13722,52591
29.14533,56918
29.15345,54618
29.16158,51867
29.16970,53928
29.17783,55212
29.18595,65680
29.19407,70447
29.20220,83643
29.21032,91742
29.21843,102773
29.22657,95073
29.23468,97870
29.24282,93866
29.25093,91227
29.25905,97547
29.26718,102919
29.27530,99563
29.28343,95494
29.29155,77707
29.29967,70220
29.30780,60132
29.31592,52828
29.32403,53726
29.33217,57195
29.34028,49253
29.34842,53748
29.35653,50036
29.36465,51479
29.37278,48940
29.38090,48270
29.38903,52908
29.39715,54602
29.40527,52658
29.41340,56551
29.42152,62081
29.42965,65947
29.43777,56256
29.44588,55190
29.45402,56778
29.46213,52800
29.47025,54316
29.47838,52313
29.48650,54054
29.49463,51753
29.50275,53760
29.51087,54136
29.51900,51377
29.52712,52025
29.53525,48220
29.54337,48099
29.55148,44639
29.55962,46324
29.56773,46088
29.57587,47981
29.58398,45542
29.59210,47611
29.60023,47303
29.60835,44900
29.61647,45978
29.62460,45589
29.63272,47564
29.64085,50873
29.64897,47023
29.65708,43978
29.66522,48117
29.67333,46575
29.68147,51634
29.68958,49025
29.69770,50400
29.70583,54750
29.71395,55470
29.72207,52923
29.73020,47014
29.73832,48774
29.74645,51366
29.75457,44642
29.76268,45366
29.77082,43817
29.77893,46662
29.78707,43546
29.79518,45973
29.80330,45786
29.81143,46143
29.81955,41410
29.82768,41928
29.83580,42817
29.84392,43918
29.85205,44499
29.86017,47893
29.86828,51373
29.87642,59526
29.88453,68771
29.89267,83194
29.90078,87524
29.90890,88836
29.91703,84907
29.92515,75499
29.93328,65613
29.94140,59496
29.94952,60121
29.95765,63412
29.96577,67243
29.97390,68693
29.98202,76400
29.99013,85354
29.99827,90887
30.00638,95403
30.01450,99462
30.02263,106986
30.03075,104316
30.03888,107263
30.04700,109694
30.05512,110551
30.06325,110064
30.07137,110045
30.07950,110619
30.08762,103127
30.09573,107142
30.10387,107530
30.11198,101709
30.12010,98582
30.12823,96000
30.13635,91132
30.14448,88861
30.15260,87078
30.16072,86857
30.16885,81942
30.17697,80276
30.18510,78740
30.19322,78285
30.20133,75364
30.20947,71810
30.21758,75567
30.22572,69659
30.23383,66837
30.24195,65862
30.25008,62929
30.25820,62724
30.26632,60504
30.27445,61834
30.28257,61263
30.29070,57145
30.29882,61882
30.30693,58353
30.31507,56499
30.32318,59147
30.33132,60365
30.33943,55246
30.34755,56878
30.35568,56064
30.36380,56716
30.37193,54453
30.38005,53565
30.38817,52107
30.39630,54588
30.40442,51947
30.41253,50853
30.42067,49118
30.42878,50274
30.43692,48933
30.44503,47270
30.45315,47794
30.46128,49550
30.46940,49727
30.47753,48919
30.48565,47552
30.49377,51584
30.50190,46815
30.51002,45236
30.51813,48356
30.52627,46731
30.53438,50533
30.54252,49242
30.55063,49337
30.55875,44603
30.56688,49135
30.57500,49185
30.58313,46236
30.59125,46754
30.59937,45796
30.60750,48732
30.61562,45983
30.62375,51987
30.63187,46731
30.63998,45556
30.64812,42663
30.65623,45219
30.66435,42450
30.67248,44289
30.68060,46175
30.68873,43325
30.69685,45841
30.70497,44911
30.71310,45908
30.72122,56595
30.72935,61377
30.73747,67571
30.74558,73092
30.75372,73800
30.76183,77489
30.76995,88342
30.77808,99645
30.78620,107253
30.79433,128566
30.80245,145551
30.81057,155461
30.81870,168509
30.82682,151687
30.83495,136743
30.84307,125498
30.85118,111830
30.85932,106261
30.86743,104500
30.87557,103470
30.88368,99028
30.89180,98866
30.89993,97928
30.90805,99179
30.91617,99291
30.92430,97652
30.93242,102511
30.94055,101461
30.94867,99258
30.95678,98734
30.96492,94183
30.97303,99181
30.98117,92883
30.98928,102866
30.99740,99362
31.00553,96616
31.01365,100813
31.02178,97316
31.02990,100933
31.03802,96451
31.04615,95117
31.05427,96945
31.06238,102860
31.07052,102821
31.07863,104628
31.08677,117613
31.09488,117231
31.10300,117034
31.11113,117582
31.11925,119641
31.12738,111447
31.13550,105482
31.14362,97326
31.15175,99617
31.15987,100052
31.16798,98744
31.17612,105474
31.18423,112702
31.19237,131720
31.20048,162770
31.20860,186535
31.21673,224622
31.22485,254325
31.23298,256094
31.24110,223726
31.24922,192525
31.25735,159268
31.26547,133076
31.27360,108596
31.28172,97130
31.28983,95690
31.29797,86008
31.30608,87418
31.31420,84016
31.32233,86527
31.33045,80499
31.33858,88437
31.34670,77557
31.35482,87001
31.36295,82810
31.37107,85429
31.37920,87783
31.38732,89797
31.39543,86567
31.40357,84930
31.41168,85762
31.41982,81949
31.42793,73896
31.43605,77831
31.44418,72873
31.45230,71976
31.46042,74125
31.46855,73468
31.47667,72042
31.48480,68492
31.49292,69945
31.50103,65640
31.50917,69683
31.51728,71354
31.52542,75913
31.53353,70483
31.54165,66746
31.54978,68707
31.55790,70189
31.56602,67870
31.57415,67747
31.58227,68452
31.59040,66350
31.59852,64473
31.60663,69361
31.61477,66600
31.62288,67290
31.63102,62350
31.63913,62600
31.64725,70174
31.65538,66561
31.66350,68540
31.67163,70613
31.67975,69267
31.68787,66695
31.69600,67256
31.70412,65444
31.71223,63996
31.72037,65254
31.72848,63111
31.73662,57907
31.74473,57444
31.75285,59051
31.76098,61577
31.76910,59402
31.77723,55121
31.78535,62258
31.79347,61762
31.80160,56771
31.80972,58962
31.81783,57123
31.82597,58249
31.83408,61771
31.84222,59797
31.85033,62237
31.85845,64074
31.86658,61889
31.87470,63761
31.88283,67314
31.89095,74470
31.89907,77206
31.90720,82917
31.91532,84608
31.92345,93316
31.93157,92516
31.93968,94210
31.94782,96990
31.95593,101600
31.96405,106989
31.97218,112909
31.98030,104667
31.98843,109301
31.99655,107065
32.00467,109962
32.01280,106290
32.02092,101902
32.02905,98405
32.03717,97274
32.04528,95908
32.05342,91036
32.06153,87101
32.06967,87607
32.07778,87905
32.08590,82528
32.09403,78937
32.10215,75909
32.11027,71296
32.11840,73329
32.12652,68010
32.13465,71374
32.14277,68276
32.15088,71433
32.15902,67833
32.16713,65086
32.17527,61329
32.18338,64533
32.19150,60333
32.19963,58028
32.20775,59423
32.21587,62510
32.22400,63027
32.23212,58462
32.24025,59692
32.24837,60600
32.25648,63932
32.26462,66246
32.27273,64504
32.28087,63764
32.28898,61853
32.29710,59828
32.30523,56225
32.31335,50709
32.32148,54447
32.32960,52821
32.33772,59006
32.34585,56259
32.35397,53993
32.36208,56154
32.37022,56357
32.37833,53714
32.38647,58171
32.39458,54945
32.40270,50051
32.41083,51820
32.41895,48341
32.42708,52304
32.43520,54237
32.44332,49914
32.45145,52305
32.45957,53904
32.46770,50313
32.47582,48067
32.48393,56628
32.49207,49865
32.50018,50884
32.50830,54577
32.51643,48106
32.52455,49846
32.53268,49886
32.54080,49324
32.54892,54195
32.55705,50124
32.56517,57281
32.57330,49428
32.58142,52973
32.58953,52705
32.59767,49275
32.60578,48456
32.61390,45496
32.62203,49658
32.63015,47974
32.63828,51809
32.64640,61240
32.65452,60600
32.66265,59363
32.67077,59335
32.67890,57020
32.68702,57445
32.69513,51537
32.70327,53187
32.71138,56280
32.71952,53713
32.72763,49577
32.73575,53295
32.74388,44526
32.75200,46812
32.76012,45642
32.76825,50938
32.77637,48986
32.78450,43414
32.79262,45774
32.80073,47424
32.80887,45895
32.81698,45878
32.82512,47573
32.83323,47427
32.84135,46056
32.84948,47333
32.85760,44902
32.86573,44969
32.87385,45501
32.88197,48402
32.89010,46524
32.89822,46844
32.90633,49566
32.91447,45556
32.92258,46275
32.93072,53637
32.93883,45705
32.94695,47445
32.95508,47255
32.96320,46969
32.97133,48390
32.97945,50861
32.98757,56499
32.99570,65378
33.00382,62182
33.01193,65520
33.02007,62662
33.02818,63213
33.03632,57593
33.04443,50123
33.05255,52226
33.06068,55744
33.06880,53029
33.07693,52210
33.08505,54540
33.09317,60622
33.10130,64022
33.10942,61893
33.11755,65717
33.12567,71344
33.13378,67211
33.14192,64597
33.15003,57560
33.15815,53782
33.16628,50455
33.17440,50412
33.18253,50884
33.19065,50127
33.19877,48156
33.20690,50336
33.21502,55499
33.22315,47925
33.23127,45266
33.23938,44270
33.24752,44809
33.25563,46558
33.26377,46247
33.27188,44750
33.28000,46723
33.28813,46989
33.29625,48212
33.30437,47736
33.31250,47165
33.32062,46388
33.32875,43418
33.33687,43799
33.34498,46995
33.35312,48178
33.36123,48653
33.36937,47910
33.37748,48245
33.38560,49381
33.39373,48393
33.40185,44723
33.40997,47092
33.41810,47695
33.42622,45669
33.43435,42473
33.44247,44433
33.45058,43312
33.45872,43668
33.46683,48588
33.47497,45685
33.48308,45283
33.49120,41744
33.49933,44044
33.50745,44187
33.51558,46597
33.52370,43035
33.53182,47140
33.53995,55284
33.54807,53015
33.55618,54861
33.56432,56309
33.57243,57694
33.58057,51406
33.58868,50054
33.59680,46411
33.60493,42702
33.61305,44982
33.62118,45814
33.62930,45983
33.63742,45482
33.64555,49539
33.65367,47017
33.66178,47028
33.66992,50116
33.67803,50269
33.68617,46770
33.69428,46351
33.70240,49555
33.71053,43136
33.71865,41072
33.72678,45904
33.73490,42386
33.74302,48348
33.75115,46074
33.75927,44349
33.76740,41964
33.77552,45949
33.78363,45662
33.79177,43813
33.79988,42386
33.80800,43995
33.81613,43253
33.82425,44801
33.83238,44169
33.84050,45047
33.84862,45270
33.85675,45370
33.86487,49842
33.87300,49376
33.88112,48796
33.88923,44584
33.89737,49545
33.90548,46970
33.91362,48442
33.92173,47132
33.92985,47167
33.93798,46594
33.94610,47467
33.95422,44129
33.96235,46481
33.97047,44977
33.97860,46140
33.98672,45648
33.99483,44628
34.00297,41257
34.01108,45056
34.01922,47774
34.02733,44206
34.03545,42449
34.04358,42717
34.05170,42720
34.05982,43299
34.06795,44815
34.07607,43857
34.08420,44666
34.09232,46156
34.10043,45198
34.10857,45368
34.11668,48829
34.12482,49260
34.13293,48065
34.14105,45538
34.14918,48553
34.15730,47831
34.16543,52801
34.17355,47676
34.18167,48818
34.18980,50269
34.19792,45989
34.20603,48775
34.21417,46306
34.22228,47314
34.23042,45028
34.23853,42835
34.24665,45629
34.25478,46764
34.26290,43890
34.27103,41960
34.27915,45715
34.28727,43824
34.29540,42388
34.30352,44579
34.31165,48363
34.31977,48799
34.32788,43122
34.33602,47909
34.34413,46494
34.35225,46794
34.36038,46973
34.36850,46028
34.37663,48947
34.38475,47421
34.39287,44663
34.40100,45179
34.40912,46160
34.41725,47137
34.42537,48188
34.43348,46080
34.44162,43419
34.44973,48324
34.45785,43229
34.46598,44310
34.47410,41585
34.48223,46251
34.49035,46948
34.49847,48177
34.50660,57746
34.51472,62933
34.52285,73506
34.53097,78607
34.53908,76120
34.54722,85448
34.55533,90069
34.56347,86667
34.57158,84506
34.57970,81971
34.58783,78521
34.59595,76909
34.60407,73431
34.61220,66055
34.62032,62683
34.62845,64648
34.63657,64786
34.64468,61599
34.65282,55895
34.66093,59169
34.66907,56465
34.67718,61111
34.68530,60095
34.69343,57056
34.70155,56081
34.70967,57820
34.71780,52978
34.72592,56775
34.73405,51333
34.74217,50941
34.75028,51262
34.75842,51776
34.76653,53847
34.77467,53282
34.78278,53267
34.79090,49905
34.79903,56685
34.80715,55617
34.81528,53472
34.82340,52336
34.83152,52529
34.83965,53018
34.84777,54751
34.85588,51989
34.86402,53392
34.87213,54574
34.88027,53671
34.88838,53617
34.89650,52453
34.90463,49862
34.91275,52486
34.92088,55125
34.92900,49886
34.93712,52996
34.94525,52977
34.95337,55268
34.96150,59377
34.96962,56609
34.97773,63191
34.98587,54395
34.99398,59023
35.00210,55750
35.01023,54345
35.01835,54483
35.02648,52914
35.03460,50453
35.04272,48746
35.05085,49135
35.05897,49612
35.06710,50588
35.07522,44068
35.08333,47927
35.09147,46997
35.09958,48908
35.10770,47447
35.11583,48308
35.12395,47495
35.13208,50141
35.14020,49515
35.14832,51460
35.15645,54506
35.16457,50150
35.17270,51933
35.18082,53095
35.18893,51792
35.19707,46219
35.20518,47569
35.21332,46780
35.22143,45696
35.22955,44224
35.23768,53923
35.24580,49286
35.25392,50042
35.26205,48481
35.27017,43403
35.27830,48018
35.28642,45616
35.29453,47323
35.30267,45190
35.31078,48346
35.31892,50405
35.32703,44537
35.33515,43806
35.34328,50884
35.35140,47242
35.35953,47433
35.36765,53577
35.37577,46832
35.38390,48365
35.39202,49403
35.40013,46180
35.40827,46571
35.41638,47273
35.42452,47985
35.43263,47773
35.44075,55246
35.44888,50273
35.45700,50600
35.46513,48809
35.47325,51987
35.48137,51857
35.48950,47697
35.49762,53584
35.50573,50885
35.51387,47038
35.52198,50207
35.53012,46933
35.53823,47167
35.54635,48586
35.55448,44350
35.56260,50892
35.57073,48356
35.57885,52611
35.58697,46214
35.59510,47607
35.60322,50127
35.61135,47545
35.61947,46586
35.62758,46585
35.63572,44482
35.64383,46408
35.65195,49341
35.66008,50468
35.66820,53893
35.67633,51632
35.68445,51840
35.69257,51247
35.70070,47949
35.70882,48045
35.71695,52301
35.72507,50019
35.73318,51409
35.74132,52499
35.74943,52044
35.75755,54757
35.76568,52612
35.77380,53447
35.78193,56554
35.79005,47914
35.79817,51540
35.80630,49537
35.81442,49065
35.82255,50869
35.83067,47275
35.83878,48320
35.84692,46789
35.85503,49335
35.86317,47476
35.87128,43555
35.87940,49481
35.88753,44495
35.89565,47409
35.90377,46177
35.91190,48033
35.92002,47993
35.92815,50030
35.93627,48496
35.94438,46392
35.95252,46699
35.96063,46096
35.96877,44889
35.97688,43513
35.98500,45935
35.99313,50352
36.00125,46557
36.00938,49431
36.01750,53000
36.02562,51205
36.03375,53701
36.04187,49389
36.04998,54607
36.05812,51949
36.06623,50344
36.07437,45887
36.08248,51586
36.09060,53933
36.09873,51044
36.10685,48323
36.11498,48057
36.12310,51794
36.13122,49543
36.13935,49463
36.14747,46331
36.15558,48979
36.16372,51773
36.17183,49485
36.17997,49889
36.18808,47385
36.19620,48497
36.20433,47806
36.21245,48552
36.22058,44351
36.22870,46885
36.23682,44035
36.24495,49870
36.25307,47884
36.26120,48492
36.26932,50924
36.27743,53663
36.28557,56376
36.29368,59433
36.30180,63610
36.30993,63806
36.31805,66051
36.32618,61780
36.33430,63390
36.34242,61551
36.35055,63766
36.35867,68216
36.36680,66293
36.37492,68308
36.38303,71044
36.39117,71779
36.39928,74792
36.40742,73486
36.41553,73489
36.42365,74640
36.43178,73952
36.43990,71538
36.44802,70315
36.45615,72868
36.46427,70997
36.47240,72303
36.48052,70837
36.48863,72016
36.49677,69128
36.50488,70565
36.51302,72308
36.52113,71427
36.52925,73703
36.53738,71762
36.54550,74728
36.55362,72502
36.56175,75144
36.56987,71276
36.57800,71489
36.58612,68191
36.59423,67778
36.60237,70423
36.61048,71983
36.61862,69911
36.62673,71828
36.63485,72491
36.64298,71141
36.65110,68505
36.65923,67828
36.66735,72023
36.67547,75697
36.68360,73991
36.69172,67712
36.69983,70269
36.70797,72205
36.71608,65738
36.72422,69039
36.73233,69286
36.74045,71948
36.74858,65509
36.75670,67155
36.76483,66611
36.77295,70746
36.78107,67730
36.78920,67121
36.79732,71179
36.80545,63738
36.81357,64692
36.82168,66920
36.82982,64591
36.83793,63408
36.84605,67300
36.85418,62850
36.86230,62811
36.87043,64309
36.87855,63232
36.88667,62061
36.89480,64022
36.90292,62456
36.91105,67367
36.91917,65224
36.92728,66831
36.93542,68526
36.94353,70729
36.95165,74630
36.95978,76663
36.96790,78324
36.97603,81259
36.98415,77947
36.99227,72691
37.00040,69117
37.00852,66424
37.01665,67998
37.02477,62788
37.03288,67561
37.04102,66142
37.04913,63427
37.05727,60154
37.06538,64017
37.07350,63869
37.08163,61542
37.08975,60579
37.09787,63535
37.10600,61997
37.11412,61462
37.12225,60883
37.13037,65441
37.13848,63438
37.14662,60158
37.15473,59354
37.16287,61202
37.17098,59856
37.17910,64322
37.18723,58771
37.19535,62703
37.20347,61110
37.21160,60127
37.21972,62288
37.22785,61690
37.23597,60419
37.24408,63292
37.25222,62927
37.26033,61305
37.26847,59738
37.27658,57922
37.28470,61985
37.29283,64971
37.30095,63829
37.30908,67505
37.31720,74685
37.32532,84875
37.33345,85066
37.34157,92620
37.34968,95909
37.35782,98848
37.36593,91086
37.37407,87562
37.38218,87639
37.39030,84195
37.39843,79280
37.40655,75922
37.41468,76225
37.42280,70874
37.43092,74276
37.43905,71531
37.44717,74011
37.45530,70452
37.46342,72609
37.47153,74201
37.47967,67954
37.48778,69533
