Z:\data\JTB-E02\BACandBLUE\JTB-E02-192-18.D Tue Dec 18 17:51:32 2018
Start of data points
2.09537,76971
2.10348,82920
2.11160,80489
2.11973,83186
2.12785,83243
2.13598,80269
2.14410,80362
2.15222,79705
2.16035,81225
2.16847,82023
2.17658,77136
2.18472,80391
2.19283,75192
2.20097,73350
2.20908,81874
2.21720,73668
2.22533,74229
2.23345,73265
2.24158,69954
2.24970,75989
2.25782,220954
2.26595,729704
2.27407,1223705
2.28220,1257308
2.29032,726694
2.29843,463829
2.30657,369458
2.31468,317381
2.32280,284238
2.33093,265319
2.33905,243206
2.34718,222184
2.35530,205912
2.36342,193846
2.37155,202592
2.37967,192906
2.38780,186722
2.39592,175958
2.40403,170741
2.41217,171053
2.42028,173476
2.42842,166604
2.43653,155711
2.44465,152041
2.45278,148496
2.46090,144647
2.46902,138972
2.47715,150231
2.48527,154687
2.49340,170075
2.50152,162621
2.50963,156261
2.51777,149635
2.52588,145616
2.53402,139719
2.54213,147101
2.55025,162274
2.55838,155417
2.56650,150051
2.57462,140239
2.58275,134725
2.59087,153316
2.59900,257609
2.60712,421096
2.61523,498447
2.62337,368894
2.63148,267946
2.63962,209575
2.64773,189036
2.65585,171676
2.66398,159908
2.67210,149384
2.68023,140543
2.68835,136679
2.69647,131179
2.70460,135116
2.71272,127098
2.72083,121257
2.72897,120010
2.73708,122840
2.74522,121920
2.75333,121518
2.76145,300579
2.76958,2115270
2.77770,5987656
2.78583,8616526
2.79395,7135889
2.80207,3996927
2.81020,2590010
2.81832,2007105
2.82645,1588949
2.83457,1250404
2.84268,1014065
2.85082,852973
2.85893,727234
2.86705,633432
2.87518,564849
2.88330,497994
2.89143,458862
2.89955,410815
2.90767,376847
2.91580,345693
2.92392,327990
2.93205,302761
2.94017,285477
2.94828,268733
2.95642,265125
2.96453,254888
2.97265,248179
2.98078,241428
2.98890,245275
2.99703,247607
3.00515,252428
3.01327,242958
3.02140,226538
3.02952,211672
3.03765,193639
3.04577,188692
3.05388,187316
3.06202,183091
3.07013,226819
3.07827,543633
3.08638,1200481
3.09450,2252292
3.10263,3430420
3.11075,4008497
3.11887,3330600
3.12700,2137727
3.13512,1474274
3.14325,1137302
3.15137,930696
3.15948,904891
3.16762,1069881
3.17573,1979972
3.18387,4541186
3.19198,7486448
3.20010,7979098
3.20823,5860028
3.21635,4019892
3.22448,3073233
3.23260,2471838
3.24072,2064067
3.24885,1725645
3.25697,1471932
3.26508,1293864
3.27322,1160383
3.28133,1128006
3.28947,1530720
3.29758,2939235
3.30570,5039354
3.31383,6281089
3.32195,5717336
3.33008,4425030
3.33820,3298267
3.34632,2618666
3.35445,2219841
3.36257,1902166
3.37068,1671611
3.37882,1503477
3.38693,1380238
3.39507,1224615
3.40318,1131619
3.41130,1047281
3.41943,1015117
3.42755,1025185
3.43568,1045724
3.44380,982482
3.45192,955740
3.46005,1068239
3.46817,1255936
3.47630,1356230
3.48442,1156830
3.49253,917223
3.50067,764542
3.50878,661550
3.51690,636864
3.52503,649650
3.53315,715549
3.54128,757924
3.54940,718390
3.55752,605863
3.56565,554822
3.57377,515112
3.58190,485513
3.59002,457491
3.59813,451394
3.60627,429421
3.61438,432636
3.62250,437981
3.63063,461264
3.63875,495626
3.64688,682629
3.65500,3387936
3.66312,1.708271E+07
3.67125,3.989281E+07
3.67937,5.592269E+07
3.68750,5.926626E+07
3.69562,4.996406E+07
3.70373,3.565038E+07
3.71187,2.6441E+07
3.71998,2.132562E+07
3.72812,1.781712E+07
3.73623,1.551597E+07
3.74435,1.358661E+07
3.75248,1.209451E+07
3.76060,1.069261E+07
3.76872,9506436
3.77685,8584338
3.78497,7849471
3.79310,7351983
3.80122,7098019
3.80933,7183896
3.81747,7360367
3.82558,7025015
3.83372,6249144
3.84183,5573300
3.84995,5115249
3.85808,4782077
3.86620,4492115
3.87433,4200364
3.88245,4007569
3.89057,3807394
3.89870,3623097
3.90682,3527872
3.91493,3854704
3.92307,4444403
3.93118,4908174
3.93932,4658392
3.94743,4216134
3.95555,4327760
3.96368,4853563
3.97180,4922967
3.97993,4238756
3.98805,3476374
3.99617,3251877
4.00430,3913001
4.01242,4936069
4.02053,5145995
4.02867,4240664
4.03678,3246667
4.04492,2601540
4.05303,2286951
4.06115,2081523
4.06928,1980808
4.07740,1917221
4.08553,1838613
4.09365,1794646
4.10177,1770307
4.10990,1684787
4.11802,1604637
4.12615,1561246
4.13427,1525623
4.14238,1478179
4.15052,1486333
4.15863,1462436
4.16675,1441893
4.17488,1454330
4.18300,1427046
4.19113,1397956
4.19925,1518476
4.20737,2814848
4.21550,7601709
4.22362,1.636067E+07
4.23175,2.462986E+07
4.23987,3.032489E+07
4.24798,3.422942E+07
4.25612,3.675427E+07
4.26423,3.632917E+07
4.27237,2.724116E+07
4.28048,1.532584E+07
4.28860,1.037285E+07
4.29673,8033423
4.30485,6500985
4.31297,5433194
4.32110,4628033
4.32922,4002240
4.33735,3535886
4.34547,3192166
4.35358,3133405
4.36172,3388389
4.36983,3804078
4.37797,3783623
4.38608,3255758
4.39420,2603329
4.40233,2163078
4.41045,1907939
4.41857,1759645
4.42670,1664192
4.43482,1561064
4.44295,1484526
4.45107,1425128
4.45918,1353324
4.46732,1291381
4.47543,1245672
4.48357,1211315
4.49168,1182390
4.49980,1140934
4.50793,1117177
4.51605,1099874
4.52418,1088324
4.53230,1090255
4.54042,1129919
4.54855,1219543
4.55667,1233866
4.56478,1163669
4.57292,1038396
4.58103,961363
4.58917,939321
4.59728,904769
4.60540,909172
4.61353,960803
4.62165,1235738
4.62978,2086500
4.63790,3517275
4.64602,4584069
4.65415,4402342
4.66227,3327257
4.67038,2442804
4.67852,1958432
4.68663,1748940
4.69477,1497510
4.70288,1266711
4.71100,1081436
4.71913,952085
4.72725,897351
4.73538,852032
4.74350,818052
4.75162,777239
4.75975,753111
4.76787,730657
4.77600,728283
4.78412,752715
4.79223,841414
4.80037,1028328
4.80848,1212907
4.81660,1187977
4.82473,1039511
4.83285,972288
4.84098,1024971
4.84910,1174714
4.85722,1251851
4.86535,1148999
4.87347,951111
4.88160,836708
4.88972,753442
4.89783,713019
4.90597,689419
4.91408,651484
4.92222,639815
4.93033,635219
4.93845,658612
4.94658,837098
4.95470,1193982
4.96282,1712096
4.97095,2141993
4.97907,2247913
4.98720,2049231
4.99532,1811162
5.00343,1578217
5.01157,1464926
5.01968,1440410
5.02782,1700972
5.03593,2303559
5.04405,2896137
5.05218,2908952
5.06030,2527720
5.06842,2046321
5.07655,1714603
5.08467,1501862
5.09280,1357191
5.10092,1278468
5.10903,1207722
5.11717,1135598
5.12528,1049332
5.13342,1024352
5.14153,1021777
5.14965,1180364
5.15778,1581675
5.16590,2095784
5.17403,2330635
5.18215,2176873
5.19027,1859499
5.19840,1811024
5.20652,2031514
5.21463,2248705
5.22277,2126698
5.23088,1778668
5.23902,1522731
5.24713,1280398
5.25525,1029565
5.26338,893493
5.27150,837914
5.27963,741255
5.28775,696899
5.29587,673071
5.30400,660675
5.31212,639945
5.32025,642502
5.32837,652368
5.33648,695183
5.34462,737236
5.35273,701587
5.36085,671831
5.36898,615686
5.37710,614397
5.38523,671197
5.39335,788391
5.40147,958480
5.40960,1025518
5.41772,952637
5.42585,794460
5.43397,690012
5.44208,699896
5.45022,849980
5.45833,1054851
5.46645,1141050
5.47458,1038399
5.48270,824735
5.49083,670901
5.49895,573911
5.50707,533691
5.51520,512019
5.52332,503328
5.53145,498121
5.53957,519052
5.54768,634351
5.55582,1062917
5.56393,2090532
5.57207,3487167
5.58018,4368130
5.58830,4124114
5.59643,3119654
5.60455,2021848
5.61267,1303769
5.62080,940506
5.62892,774223
5.63705,698616
5.64517,624236
5.65328,571762
5.66142,545069
5.66953,518842
5.67767,521370
5.68578,574193
5.69390,647783
5.70203,728876
5.71015,777006
5.71827,750749
5.72640,665941
5.73452,591665
5.74265,519130
5.75077,472801
5.75888,460041
5.76702,433047
5.77513,424554
5.78327,413862
5.79138,410660
5.79950,399161
5.80763,395758
5.81575,386475
5.82388,392184
5.83200,388918
5.84012,395913
5.84825,386492
5.85637,379388
5.86448,376068
5.87262,367490
5.88073,371974
5.88887,373572
5.89698,383383
5.90510,421136
5.91323,516747
5.92135,608909
5.92948,662343
5.93760,606962
5.94572,535233
5.95385,502669
5.96197,543624
5.97010,689116
5.97822,895590
5.98633,1098308
5.99447,1310134
6.00258,1347762
6.01070,1264296
6.01883,1012425
6.02695,788449
6.03508,608417
6.04320,491914
6.05132,422904
6.05945,399382
6.06757,388679
6.07570,395738
6.08382,379830
6.09193,368795
6.10007,349680
6.10818,326360
6.11632,347248
6.12443,519969
6.13255,980496
6.14068,1848588
6.14880,2694278
6.15692,2954725
6.16505,2462987
6.17317,1698646
6.18130,1206394
6.18942,939174
6.19753,779279
6.20567,673922
6.21378,597030
6.22192,544964
6.23003,517831
6.23815,520093
6.24628,582306
6.25440,722615
6.26252,927715
6.27065,1044742
6.27877,941834
6.28690,746532
6.29502,601203
6.30313,525206
6.31127,485589
6.31938,475608
6.32752,452734
6.33563,449855
6.34375,431442
6.35188,437655
6.36000,404199
6.36813,392306
6.37625,402048
6.38437,401678
6.39250,429790
6.40062,391539
6.40873,379226
6.41687,349284
6.42498,340928
6.43312,352222
6.44123,352350
6.44935,370934
6.45748,391888
6.46560,413905
6.47373,389793
6.48185,382186
6.48997,361348
6.49810,345116
6.50622,361420
6.51433,367044
6.52247,378036
6.53058,393889
6.53872,381697
6.54683,382996
6.55495,444099
6.56308,741699
6.57120,1628728
6.57933,3053920
6.58745,4272212
6.59557,4270982
6.60370,3173241
6.61182,1901831
6.61995,1139530
6.62807,811680
6.63618,640786
6.64432,550826
6.65243,500080
6.66055,492241
6.66868,491963
6.67680,477374
6.68493,425009
6.69305,366087
6.70117,347828
6.70930,326823
6.71742,317815
6.72555,312127
6.73367,306574
6.74178,301343
6.74992,287861
6.75803,282446
6.76617,290997
6.77428,299564
6.78240,282935
6.79053,273303
6.79865,257917
6.80677,241317
6.81490,224207
6.82302,219608
6.83115,215766
6.83927,212875
6.84738,226836
6.85552,232099
6.86363,249298
6.87177,259067
6.87988,279473
6.88800,270392
6.89613,241593
6.90425,230826
6.91237,216349
6.92050,194669
6.92862,198085
6.93675,189913
6.94487,192426
6.95298,189385
6.96112,195552
6.96923,207568
6.97737,243566
6.98548,264827
6.99360,287990
7.00173,275299
7.00985,248013
7.01798,238360
7.02610,228410
7.03422,224994
7.04235,246888
7.05047,327794
7.05858,495612
7.06672,778729
7.07483,1067514
7.08297,1244839
7.09108,1183218
7.09920,967777
7.10733,704098
7.11545,503080
7.12358,395330
7.13170,357499
7.13982,333561
7.14795,315760
7.15607,354317
7.16420,399650
7.17232,427822
7.18043,420998
7.18857,452302
7.19668,814651
7.20480,2137936
7.21293,4886620
7.22105,8697494
7.22918,1.124313E+07
7.23730,1.115229E+07
7.24542,8151122
7.25355,4463744
7.26167,2088037
7.26980,935345
7.27792,455473
7.28603,306504
7.29417,275587
7.30228,269101
7.31040,274225
7.31853,308272
7.32665,375427
7.33478,471267
7.34290,550343
7.35102,592792
7.35915,549425
7.36727,477287
7.37540,403267
7.38352,313063
7.39163,280075
7.39977,255908
7.40788,227753
7.41602,221798
7.42413,198437
7.43225,195586
7.44038,192058
7.44850,190467
7.45662,207625
7.46475,219642
7.47287,242536
7.48100,250417
7.48912,232872
7.49723,217671
7.50537,192495
7.51348,213808
7.52162,367973
7.52973,797903
7.53785,2011400
7.54598,4610732
7.55410,8940587
7.56222,1.441845E+07
7.57035,1.964167E+07
7.57847,2.296145E+07
7.58660,2.247499E+07
7.59472,1.856417E+07
7.60283,1.27964E+07
7.61097,7864837
7.61908,4452178
7.62722,2544936
7.63533,1612952
7.64345,1129013
7.65158,863640
7.65970,676263
7.66783,526570
7.67595,431606
7.68407,362226
7.69220,298515
7.70032,262489
7.70843,259292
7.71657,280881
7.72468,356820
7.73282,416106
7.74093,487491
7.74905,532719
7.75718,559991
7.76530,557336
7.77343,525410
7.78155,489255
7.78967,464341
7.79780,471391
7.80592,500357
7.81405,572233
7.82217,630386
7.83028,620118
7.83842,528323
7.84653,440610
7.85465,399698
7.86278,418947
7.87090,496566
7.87903,631224
7.88715,812988
7.89527,1024155
7.90340,1118177
7.91152,1056152
7.91965,844546
7.92777,616502
7.93588,489655
7.94402,469716
7.95213,475835
7.96025,499087
7.96838,452357
7.97650,401273
7.98463,344108
7.99275,269145
8.00087,235077
8.00900,205857
8.01712,191608
8.02525,188908
8.03337,176580
8.04148,183332
8.04962,179867
8.05773,183403
8.06587,190122
8.07398,186060
8.08210,190650
8.09023,183106
8.09835,180234
8.10647,170925
8.11460,166682
8.12272,165706
8.13085,187274
8.13897,252233
8.14708,378716
8.15522,526290
8.16333,601508
8.17147,601443
8.17958,478513
8.18770,361662
8.19583,304392
8.20395,236380
8.21208,201242
8.22020,183354
8.22832,174682
8.23645,166282
8.24457,155344
8.25268,158662
8.26082,158375
8.26893,143409
8.27707,136658
8.28518,142858
8.29330,132680
8.30143,144359
8.30955,165988
8.31768,212576
8.32580,268977
8.33392,321205
8.34205,328892
8.35017,278380
8.35828,227323
8.36642,186659
8.37453,154302
8.38267,143966
8.39078,131404
8.39890,132917
8.40703,126900
8.41515,120259
8.42328,112935
8.43140,122137
8.43952,116006
8.44765,119869
8.45577,119443
8.46390,122945
8.47202,120568
8.48013,122755
8.48827,116323
8.49638,112720
8.50450,115201
8.51263,111561
8.52075,130408
8.52888,162726
8.53700,242234
8.54512,324189
8.55325,349894
8.56137,312282
8.56950,248485
8.57762,181800
8.58573,136144
8.59387,134520
8.60198,143574
8.61012,163445
8.61823,189282
8.62635,197413
8.63448,204757
8.64260,178325
8.65072,160921
8.65885,130090
8.66697,126356
8.67510,115866
8.68322,113749
8.69133,111602
8.69947,116011
8.70758,112937
8.71572,115587
8.72383,115142
8.73195,118220
8.74008,110411
8.74820,101579
8.75632,105645
8.76445,112930
8.77257,139432
8.78070,186477
8.78882,324424
8.79693,494795
8.80507,617738
8.81318,661383
8.82132,588380
8.82943,485382
8.83755,399947
8.84568,362439
8.85380,326459
8.86193,312075
8.87005,295777
8.87817,272267
8.88630,264390
8.89442,256593
8.90253,247106
8.91067,239517
8.91878,251935
8.92692,279079
8.93503,381319
8.94315,494051
8.95128,564096
8.95940,566423
8.96753,517514
8.97565,477792
8.98377,508151
8.99190,583746
9.00002,637262
9.00813,595606
9.01627,513125
9.02438,408418
9.03252,317235
9.04063,257519
9.04875,221321
9.05688,204643
9.06500,188515
9.07313,195047
9.08125,205356
9.08937,234381
9.09750,297943
9.10562,434344
9.11375,663428
9.12187,914051
9.12998,1042574
9.13812,1009303
9.14623,809527
9.15435,585251
9.16248,430764
9.17060,343865
9.17873,284002
9.18685,260451
9.19497,243178
9.20310,236184
9.21122,226608
9.21935,225133
9.22747,219312
9.23558,238106
9.24372,261456
9.25183,271729
9.25997,266062
9.26808,255475
9.27620,235704
9.28433,211331
9.29245,203407
9.30057,202713
9.30870,196996
9.31682,189505
9.32495,185832
9.33307,193634
9.34118,183621
9.34932,172554
9.35743,170135
9.36557,172487
9.37368,183566
9.38180,234321
9.38993,355798
9.39805,532447
9.40617,745122
9.41430,972640
9.42242,1135950
9.43055,1291673
9.43867,1481972
9.44678,1634076
9.45492,1677103
9.46303,1513415
9.47117,1186796
9.47928,841479
9.48740,560552
9.49553,378167
9.50365,302816
9.51178,301721
9.51990,380866
9.52802,486013
9.53615,580751
9.54427,622627
9.55238,582755
9.56052,487248
9.56863,388116
9.57677,300295
9.58488,237471
9.59300,194666
9.60113,189397
9.60925,164699
9.61738,163891
9.62550,159873
9.63362,155911
9.64175,156052
9.64987,156410
9.65800,153108
9.66612,155790
9.67423,164216
9.68237,169034
9.69048,162958
9.69860,161162
9.70673,150423
9.71485,141409
9.72298,136159
9.73110,143954
9.73922,139066
9.74735,132858
9.75547,128365
9.76360,114579
9.77172,116070
9.77983,116558
9.78797,116415
9.79608,110677
9.80420,114364
9.81233,118198
9.82045,115593
9.82858,115207
9.83670,108066
9.84482,107802
9.85295,112983
9.86107,109776
9.86920,111341
9.87732,111378
9.88543,100434
9.89357,102820
9.90168,99684
9.90982,104068
9.91793,120577
9.92605,158423
9.93418,232603
9.94230,419249
9.95042,776485
9.95855,1226390
9.96667,1637644
9.97480,1774228
9.98292,1570054
9.99103,1203120
9.99917,780506
10.00728,472677
10.01542,294679
10.02353,220811
10.03165,193552
10.03978,189104
10.04790,207458
10.05602,242558
10.06415,284408
10.07227,305166
10.08040,315604
10.08852,310084
10.09663,313135
10.10477,285016
10.11288,279427
10.12102,258624
10.12913,248449
10.13725,233191
10.14538,220656
10.15350,219164
10.16163,214900
10.16975,204630
10.17787,200713
10.18600,194722
10.19412,183713
10.20223,190536
10.21037,183104
10.21848,172024
10.22662,170039
10.23473,185884
10.24285,188042
10.25098,200737
10.25910,253590
10.26723,417304
10.27535,1006186
10.28347,2397097
10.29160,4880376
10.29972,8457211
10.30785,1.263996E+07
10.31597,1.67864E+07
10.32408,2.126857E+07
10.33222,2.649471E+07
10.34033,3.338191E+07
10.34845,4.228239E+07
10.35658,5.180347E+07
10.36470,6.102506E+07
10.37283,6.625736E+07
10.38095,6.074338E+07
10.38907,4.119378E+07
10.39720,2.490411E+07
10.40532,1.566829E+07
10.41345,9936626
10.42157,5832782
10.42968,3494615
10.43782,2510000
10.44593,2265668
10.45405,2397665
10.46218,2654328
10.47030,2835796
10.47843,2869694
10.48655,2653885
10.49467,2202735
10.50280,1777313
10.51092,1432081
10.51905,1209014
10.52717,1104019
10.53528,1060154
10.54342,1068195
10.55153,1060925
10.55967,1045735
10.56778,970862
10.57590,889069
10.58403,824351
10.59215,799028
10.60027,734807
10.60840,697426
10.61652,662662
10.62465,609100
10.63277,589170
10.64088,563282
10.64902,533027
10.65713,526948
10.66527,480133
10.67338,466291
10.68150,479546
10.68963,470471
10.69775,506426
10.70588,541978
10.71400,574994
10.72212,588981
10.73025,573760
10.73837,530907
10.74648,479283
10.75462,441918
10.76273,400042
10.77087,379809
10.77898,365889
10.78710,358061
10.79523,360417
10.80335,391145
10.81148,449900
10.81960,525468
10.82772,593810
10.83585,587599
10.84397,533701
10.85208,439386
10.86022,367785
10.86833,306479
10.87647,290733
10.88458,273649
10.89270,273125
10.90083,267862
10.90895,269491
10.91708,257965
10.92520,258689
10.93332,257431
10.94145,251823
10.94957,248411
10.95770,236109
10.96582,236119
10.97393,229024
10.98207,240356
10.99018,252750
10.99830,280548
11.00643,346812
11.01455,411866
11.02268,465119
11.03080,461564
11.03892,434425
11.04705,370531
11.05517,321884
11.06330,304045
11.07142,318915
11.07953,381610
11.08767,472855
11.09578,548381
11.10390,597968
11.11203,585891
11.12015,557042
11.12828,489106
11.13640,405586
11.14452,325984
11.15265,291117
11.16077,263772
11.16890,260337
11.17702,263681
11.18513,243191
11.19327,229711
11.20138,211039
11.20952,192940
11.21763,187060
11.22575,179470
11.23388,159632
11.24200,147300
11.25012,135653
11.25825,143129
11.26637,136925
11.27450,124542
11.28262,122548
11.29073,124610
11.29887,169570
11.30698,344910
11.31512,913726
11.32323,2297930
11.33135,5097986
11.33948,9264744
11.34760,1.390098E+07
11.35573,1.763227E+07
11.36385,1.878813E+07
11.37197,1.680041E+07
11.38010,1.294894E+07
11.38822,8879936
11.39633,5975304
11.40447,4321262
11.41258,3434801
11.42072,2850070
11.42883,2351444
11.43695,1965470
11.44508,1644489
11.45320,1355021
11.46133,1169616
11.46945,1016781
11.47757,908332
11.48570,843358
11.49382,863973
11.50195,930883
11.51007,1070431
11.51818,1176647
11.52632,1173483
11.53443,1096765
11.54255,979063
11.55068,854576
11.55880,779810
11.56693,763647
11.57505,734025
11.58317,751007
11.59130,727823
11.59942,732642
11.60755,774762
11.61567,903389
11.62378,1056465
11.63192,1148570
11.64003,1106019
11.64815,898169
11.65628,706098
11.66440,531119
11.67253,413851
11.68065,360436
11.68877,364436
11.69690,355911
11.70502,355954
11.71315,338503
11.72127,337424
11.72938,324975
11.73752,314559
11.74563,305769
11.75377,288872
11.76188,253306
11.77000,231882
11.77813,218821
11.78625,196415
11.79437,186212
11.80250,183231
11.81062,171939
11.81875,169954
11.82687,161432
11.83498,162346
11.84312,164947
11.85123,153127
11.85937,140399
11.86748,145302
11.87560,143592
11.88373,138892
11.89185,135880
11.89997,134676
11.90810,131186
11.91622,135676
11.92435,133558
11.93247,140050
11.94058,142938
11.94872,144600
11.95683,132784
11.96497,129883
11.97308,114355
11.98120,118979
11.98933,111271
11.99745,110955
12.00558,113560
12.01370,105171
12.02182,109759
12.02995,107595
12.03807,103453
12.04618,105465
12.05432,108753
12.06243,112838
12.07057,127896
12.07868,160146
12.08680,202075
12.09493,290707
12.10305,477637
12.11118,947501
12.11930,1932411
12.12742,3623999
12.13555,5716697
12.14367,7543405
12.15180,8476975
12.15992,7797404
12.16803,5995933
12.17617,4023750
12.18428,2537041
12.19240,1832861
12.20053,1556718
12.20865,1457843
12.21678,1320110
12.22490,1224406
12.23302,1078790
12.24115,969991
12.24927,871559
12.25740,814391
12.26552,792877
12.27363,756169
12.28177,719266
12.28988,663000
12.29800,620742
12.30613,564789
12.31425,528670
12.32238,500719
12.33050,482936
12.33862,468191
12.34675,452230
12.35487,431737
12.36300,421086
12.37112,418814
12.37923,405795
12.38737,397877
12.39548,398547
12.40362,426683
12.41173,523005
12.41985,677712
12.42798,896232
12.43610,1061351
12.44422,1136788
12.45235,1034224
12.46047,846615
12.46860,665468
12.47672,542385
12.48483,484012
12.49297,450845
12.50108,429582
12.50922,400330
12.51733,397745
12.52545,394067
12.53358,449750
12.54170,541654
12.54983,683226
12.55795,779192
12.56607,809887
12.57420,796373
12.58232,709941
12.59043,606532
12.59857,519992
12.60668,440767
12.61482,387685
12.62293,371637
12.63105,344748
12.63918,320917
12.64730,305534
12.65543,294210
12.66355,275138
12.67167,273262
12.67980,262449
12.68792,259551
12.69603,246323
12.70417,254027
12.71228,258581
12.72042,250829
12.72853,232173
12.73665,236577
12.74478,230300
12.75290,230279
12.76103,228287
12.76915,220122
12.77727,215019
12.78540,215054
12.79352,203002
12.80165,196735
12.80977,189673
12.81788,179012
12.82602,167636
12.83413,148521
12.84225,122925
12.85038,107854
12.85850,101509
12.86663,92771
12.87475,96793
12.88287,99354
12.89100,102141
12.89912,101832
12.90725,88653
12.91537,94680
12.92348,97363
12.93162,86883
12.93973,89233
12.94785,92185
12.95598,99259
12.96410,100792
12.97223,103913
12.98035,117034
12.98847,120053
12.99660,126125
13.00472,134770
13.01285,122950
13.02097,106954
13.02908,101566
13.03722,91774
13.04533,94909
13.05347,91438
13.06158,87467
13.06970,89248
13.07783,93418
13.08595,104864
13.09407,104784
13.10220,106181
13.11032,107676
13.11845,100707
13.12657,91352
13.13468,87263
13.14282,89918
13.15093,87018
13.15907,88654
13.16718,93883
13.17530,96622
13.18343,101580
13.19155,106657
13.19968,108970
13.20780,115416
13.21592,124412
13.22405,133789
13.23217,144651
13.24028,150006
13.24842,154381
13.25653,153776
13.26467,144237
13.27278,137354
13.28090,137983
13.28903,128608
13.29715,117328
13.30528,104191
13.31340,95555
13.32152,92062
13.32965,84269
13.33777,80443
13.34588,83685
13.35402,79636
13.36213,87935
13.37027,80718
13.37838,78125
13.38650,82350
13.39463,76433
13.40275,76371
13.41088,82045
13.41900,77414
13.42712,81000
13.43525,76869
13.44337,83867
13.45150,87795
13.45962,100223
13.46773,119220
13.47587,133440
13.48398,139979
13.49210,141699
13.50023,127003
13.50835,121629
13.51648,109300
13.52460,114612
13.53272,111046
13.54085,119326
13.54897,109338
13.55710,95592
13.56522,93264
13.57333,101046
13.58147,118708
13.58958,140295
13.59772,183220
13.60583,223886
13.61395,228304
13.62208,256692
13.63020,268905
13.63832,247752
13.64645,218395
13.65457,188769
13.66270,167581
13.67082,119383
13.67893,101519
13.68707,92863
13.69518,76867
13.70332,72529
13.71143,74230
13.71955,71262
13.72768,73970
13.73580,67398
13.74392,80267
13.75205,79834
13.76017,100526
13.76830,136792
13.77642,206914
13.78453,306671
13.79267,475962
13.80078,694075
13.80892,982275
13.81703,1309206
13.82515,1721999
13.83328,2234146
13.84140,2846725
13.84953,3318379
13.85765,3339414
13.86577,2984641
13.87390,2355339
13.88202,1738078
13.89013,1176771
13.89827,796857
13.90638,545438
13.91452,407918
13.92263,325269
13.93075,258945
13.93888,228782
13.94700,194147
13.95513,169380
13.96325,153182
13.97137,139169
13.97950,137012
13.98762,126361
13.99575,126028
14.00387,131722
14.01198,133239
14.02012,127747
14.02823,128806
14.03635,128862
14.04448,115251
14.05260,106829
14.06073,100604
14.06885,100480
14.07697,105161
14.08510,108455
14.09322,105909
14.10135,109141
14.10947,98792
14.11758,96622
14.12572,89939
14.13383,95930
14.14195,108316
14.15008,143941
14.15820,179827
14.16633,222401
14.17445,275453
14.18257,287707
14.19070,282553
14.19882,265053
14.20695,263039
14.21507,276373
14.22318,331122
14.23132,372538
14.23943,421097
14.24757,478263
14.25568,538900
14.26380,609743
14.27193,621589
14.28005,579803
14.28817,495332
14.29630,372869
14.30442,298278
14.31255,240666
14.32067,201152
14.32878,191309
14.33692,177566
14.34503,172281
14.35317,163960
14.36128,161384
14.36940,150508
14.37753,149045
14.38565,139311
14.39377,126559
14.40190,131165
14.41002,149070
14.41815,192904
14.42627,251038
14.43438,314994
14.44252,325458
14.45063,303805
14.45877,278018
14.46688,233164
14.47500,213745
14.48313,236838
14.49125,253818
14.49938,269977
14.50750,261588
14.51562,244541
14.52375,209133
14.53187,192504
14.53998,170519
14.54812,162247
14.55623,148171
14.56437,150842
14.57248,133957
14.58060,120069
14.58873,108664
14.59685,99834
14.60498,92246
14.61310,93396
14.62122,84048
14.62935,78697
14.63747,81459
14.64560,81928
14.65372,77687
14.66183,81247
14.66997,75811
14.67808,74390
14.68620,69600
14.69433,68539
14.70245,71699
14.71058,72219
14.71870,74761
14.72682,80662
14.73495,86994
14.74307,98248
14.75120,104338
14.75932,118103
14.76743,123151
14.77557,126892
14.78368,139356
14.79180,173208
14.79993,290844
14.80805,722015
14.81618,1965122
14.82430,4727338
14.83242,9262977
14.84055,1.568577E+07
14.84867,2.234891E+07
14.85680,2.751852E+07
14.86492,2.886197E+07
14.87303,2.578113E+07
14.88117,1.780026E+07
14.88928,9624691
14.89742,4914686
14.90553,2979297
14.91365,2207403
14.92178,1872149
14.92990,1619139
14.93802,1482612
14.94615,1369454
14.95427,1252278
14.96240,1133766
14.97052,1046495
14.97863,948794
14.98677,894709
14.99488,818754
15.00302,768810
15.01113,744682
15.01925,706942
15.02738,692830
15.03550,680826
15.04363,676411
15.05175,642479
15.05987,619903
15.06800,576289
15.07612,541017
15.08423,508360
15.09237,476724
15.10048,463479
15.10862,424994
15.11673,403303
15.12485,407859
15.13298,411995
15.14110,444051
15.14923,531058
15.15735,572742
15.16547,600265
15.17360,543863
15.18172,434317
15.18983,317074
15.19797,236935
15.20608,193811
15.21422,167607
15.22233,151432
15.23045,155506
15.23858,152273
15.24670,151545
15.25483,148929
15.26295,139977
15.27107,143601
15.27920,131831
15.28732,127160
15.29545,124085
15.30357,111476
15.31168,113246
15.31982,105711
15.32793,105805
15.33605,102652
15.34418,98500
15.35230,100434
15.36043,100869
15.36855,99533
15.37667,109498
15.38480,111371
15.39292,119984
15.40105,120894
15.40917,124817
15.41728,117171
15.42542,108169
15.43353,107915
15.44165,104079
15.44978,109352
15.45790,112726
15.46603,156748
15.47415,250337
15.48227,494395
15.49040,939416
15.49852,1616356
15.50665,2381273
15.51477,2957523
15.52288,3251510
15.53102,3095356
15.53913,2575273
15.54727,2005858
15.55538,1457311
15.56350,1039658
15.57163,772833
15.57975,558863
15.58787,449646
15.59600,360844
15.60412,313858
15.61225,284097
15.62037,267231
15.62848,249517
15.63662,226718
15.64473,219316
15.65287,201681
15.66098,188270
15.66910,173136
15.67723,165141
15.68535,158579
15.69348,147970
15.70160,133598
15.70972,128108
15.71785,126168
15.72597,116765
15.73408,112226
15.74222,118238
15.75033,121958
15.75847,157392
15.76658,249686
15.77470,452017
15.78283,883622
15.79095,1483517
15.79908,2093334
15.80720,2441194
15.81532,2195145
15.82345,1695107
15.83157,1139200
15.83970,712853
15.84782,476025
15.85593,342118
15.86407,292669
15.87218,266181
15.88030,251722
15.88843,238991
15.89655,227731
15.90468,212721
15.91280,208129
15.92092,198131
15.92905,182832
15.93717,183188
15.94530,180142
15.95342,174065
15.96153,165589
15.96967,161291
15.97778,152976
15.98590,153110
15.99403,148868
16.00215,159180
16.01028,162257
16.01840,187485
16.02652,218526
16.03465,242634
16.04277,240224
16.05090,235471
16.05902,206290
16.06713,181299
16.07527,156965
16.08338,133500
16.09152,124650
16.09963,112849
16.10775,111844
16.11588,115149
16.12400,123566
16.13212,158927
16.14025,184380
16.14837,234561
16.15650,273655
16.16462,295819
16.17273,306827
16.18087,284975
16.18898,244423
16.19712,197975
16.20523,172586
16.21335,159970
16.22148,150630
16.22960,152531
16.23772,156880
16.24585,141962
16.25397,129956
16.26210,121080
16.27022,116224
16.27833,112478
16.28647,131063
16.29458,162145
16.30272,211429
16.31083,256262
16.31895,283619
16.32708,287109
16.33520,271076
16.34333,227414
16.35145,203042
16.35957,185317
16.36770,165291
16.37582,166288
16.38393,150085
16.39207,150550
16.40018,142237
16.40832,130202
16.41643,121193
16.42455,121268
16.43268,115584
16.44080,124508
16.44893,157080
16.45705,282214
16.46517,672791
16.47330,1602942
16.48142,3133127
16.48955,5057462
16.49767,6670182
16.50578,7023952
16.51392,5772903
16.52203,4099777
16.53015,2472485
16.53828,1427165
16.54640,852285
16.55453,598917
16.56265,484888
16.57077,412917
16.57890,365404
16.58702,346208
16.59515,331049
16.60327,316548
16.61138,314169
16.61952,290792
16.62763,279926
16.63575,265874
16.64388,235481
16.65200,223434
16.66013,204257
16.66825,189054
16.67637,182091
16.68450,184910
16.69262,172925
16.70075,165372
16.70887,158810
16.71698,148816
16.72512,135585
16.73323,134331
16.74137,123207
16.74948,123599
16.75760,135389
16.76573,165127
16.77385,190686
16.78197,222396
16.79010,216517
16.79822,196585
16.80635,159627
16.81447,126538
16.82258,112006
16.83072,98727
16.83883,91295
16.84697,89226
16.85508,87215
16.86320,88257
16.87133,83259
16.87945,84145
16.88758,80034
16.89570,79115
16.90382,85997
16.91195,79219
16.92007,75852
16.92818,82137
16.93632,81639
16.94443,86108
16.95257,77504
16.96068,84311
16.96880,84073
16.97693,80898
16.98505,83981
16.99318,85450
17.00130,81663
17.00942,90163
17.01755,96490
17.02567,97517
17.03378,113445
17.04192,120592
17.05003,137066
17.05817,168755
17.06628,206403
17.07440,208761
17.08253,210778
17.09065,177794
17.09878,157504
17.10690,122639
17.11502,111049
17.12315,110511
17.13127,121777
17.13940,139241
17.14752,157113
17.15563,162328
17.16377,160556
17.17188,150552
17.18000,143389
17.18813,133769
17.19625,126280
17.20438,116837
17.21250,106294
17.22062,98654
17.22875,89631
17.23687,90090
17.24500,91209
17.25312,94985
17.26123,99867
17.26937,106079
17.27748,107215
17.28560,99293
17.29373,90785
17.30185,91223
17.30998,94880
17.31810,98480
17.32622,127042
17.33435,172341
17.34247,226992
17.35060,306123
17.35872,357291
17.36683,396465
17.37497,382385
17.38308,352322
17.39122,328382
17.39933,314154
17.40745,299072
17.41558,305199
17.42370,318304
17.43182,336636
17.43995,320464
17.44807,317989
17.45620,299372
17.46432,271289
17.47243,235414
17.48057,203060
17.48868,172430
17.49682,150746
17.50493,143739
17.51305,139051
17.52118,130661
17.52930,130386
17.53743,131446
17.54555,132696
17.55367,135947
17.56180,147716
17.56992,208211
17.57803,385111
17.58617,854565
17.59428,1809789
17.60242,3342698
17.61053,5041010
17.61865,6265580
17.62678,6656557
17.63490,6030884
17.64303,4664292
17.65115,3155815
17.65927,1907483
17.66740,1127045
17.67552,693701
17.68363,479092
17.69177,372765
17.69988,318936
17.70802,304949
17.71613,293712
17.72425,303615
17.73238,308497
17.74050,322575
17.74863,315679
17.75675,310941
17.76487,284998
17.77300,276500
17.78112,254728
17.78925,211902
17.79737,190547
17.80548,157641
17.81362,157725
17.82173,150261
17.82985,153406
17.83798,169966
17.84610,195921
17.85423,250806
17.86235,326863
17.87047,428510
17.87860,515423
17.88672,570271
17.89485,520889
17.90297,406410
17.91108,296653
17.91922,219697
17.92733,164460
17.93547,138468
17.94358,125926
17.95170,122359
17.95983,116471
17.96795,104961
17.97607,106583
17.98420,100561
17.99232,94751
18.00045,95850
18.00857,110952
18.01668,119670
18.02482,162249
18.03293,266551
18.04107,411478
18.04918,589368
18.05730,720579
18.06543,848417
18.07355,1212381
18.08167,2058705
18.08980,3662638
18.09792,5839305
18.10605,7906272
18.11417,8868034
18.12228,8329919
18.13042,6767125
18.13853,5045433
18.14667,3660688
18.15478,2787121
18.16290,2290373
18.17103,1888867
18.17915,1640161
18.18728,1429723
18.19540,1246955
18.20352,1076958
18.21165,981557
18.21977,894923
18.22788,798496
18.23602,765970
18.24413,736248
18.25227,673549
18.26038,598926
18.26850,554030
18.27663,533993
18.28475,459640
18.29288,395795
18.30100,321441
18.30912,260540
18.31725,201290
18.32537,165778
18.33350,150927
18.34162,143340
18.34973,144425
18.35787,132285
18.36598,121571
18.37410,131359
18.38223,129542
18.39035,125196
18.39848,123387
18.40660,140012
18.41472,164329
18.42285,215000
18.43097,322172
18.43910,490304
18.44722,699164
18.45533,872432
18.46347,1087049
18.47158,1385724
18.47970,1787494
18.48783,2205783
18.49595,2494735
18.50408,2542143
18.51220,2161064
18.52032,1686232
18.52845,1163296
18.53657,757014
18.54470,486431
18.55282,330857
18.56093,256519
18.56907,208901
18.57718,182849
18.58532,174055
18.59343,170027
18.60155,178295
18.60968,205053
18.61780,256023
18.62592,280180
18.63405,330293
18.64217,357329
18.65030,355803
18.65842,328920
18.66653,281925
18.67467,233607
18.68278,193448
18.69092,164456
18.69903,153322
18.70715,144144
18.71528,152802
18.72340,156223
18.73152,153472
18.73965,149052
18.74777,149513
18.75590,136092
18.76402,133287
18.77213,121885
18.78027,118354
18.78838,115675
18.79652,109123
18.80463,114100
18.81275,120225
18.82088,121140
18.82900,124167
18.83713,114298
18.84525,123141
18.85337,113912
18.86150,129681
18.86962,154400
18.87773,191149
18.88587,235174
18.89398,280301
18.90212,293980
18.91023,278091
18.91835,252393
18.92648,226130
18.93460,215253
18.94273,205689
18.95085,228049
18.95897,241362
18.96710,262806
18.97522,275162
18.98335,282033
18.99147,258077
18.99958,239722
19.00772,192513
19.01583,167712
19.02395,156764
19.03208,138348
19.04020,140020
19.04833,131957
19.05645,125524
19.06457,119951
19.07270,113815
19.08082,110764
19.08895,121853
19.09707,152027
19.10518,200638
19.11332,257191
19.12143,320422
19.12955,316784
19.13768,281111
19.14580,243706
19.15393,186097
19.16205,150132
19.17017,126804
19.17830,114264
19.18642,108646
19.19455,99345
19.20267,93606
19.21078,89810
19.21892,87958
19.22703,89152
19.23517,88284
19.24328,92132
19.25140,91295
19.25953,94263
19.26765,92576
19.27577,94188
19.28390,99696
19.29202,119533
19.30015,141957
19.30827,156718
19.31638,181102
19.32452,185248
19.33263,169154
19.34077,153929
19.34888,133827
19.35700,145057
19.36513,184085
19.37325,254357
19.38138,347374
19.38950,436599
19.39762,477451
19.40575,463192
19.41387,434328
19.42198,380055
19.43012,326583
19.43823,292740
19.44637,274857
19.45448,271127
19.46260,266359
19.47073,263979
19.47885,260488
19.48698,255620
19.49510,268539
19.50322,282494
19.51135,317053
19.51947,363483
19.52758,429441
19.53572,485601
19.54383,541371
19.55197,564584
19.56008,568411
19.56820,534103
19.57633,462439
19.58445,403292
19.59258,353963
19.60070,303661
19.60882,270063
19.61695,246872
19.62507,233316
19.63320,231272
19.64132,240684
19.64943,275370
19.65757,375964
19.66568,539544
19.67380,809335
19.68193,1105681
19.69005,1347708
19.69818,1482506
19.70630,1439224
19.71442,1301231
19.72255,1095281
19.73067,915620
19.73880,765378
19.74692,658155
19.75503,576232
19.76317,503776
19.77128,469910
19.77940,464882
19.78753,539374
19.79565,670697
19.80378,875928
19.81190,1086816
19.82002,1219910
19.82815,1185915
19.83627,1058665
19.84440,846585
19.85252,675022
19.86063,513151
19.86877,398778
19.87688,379305
19.88502,374070
19.89313,427975
19.90125,495795
19.90938,571230
19.91750,620445
19.92562,601103
19.93375,565242
19.94187,500189
19.95000,427396
19.95812,374503
19.96623,341469
19.97437,324679
19.98248,303356
19.99062,288018
19.99873,279974
20.00685,276639
20.01498,277349
20.02310,298524
20.03123,322413
20.03935,329426
20.04747,350425
20.05560,362312
20.06372,445278
20.07183,602912
20.07997,865653
20.08808,1199454
20.09622,1505519
20.10433,1704401
20.11245,1689480
20.12058,1523842
20.12870,1229428
20.13683,977189
20.14495,839062
20.15307,906067
20.16120,1355724
20.16932,2342395
20.17743,4203232
20.18557,6649151
20.19368,9484390
20.20182,1.174022E+07
20.20993,1.299909E+07
20.21805,1.297956E+07
20.22618,1.158222E+07
20.23430,9518442
20.24243,7314688
20.25055,5691706
20.25867,5316230
20.26680,5828725
20.27492,7028756
20.28305,8157029
20.29117,8973409
20.29928,8800939
20.30742,8028556
20.31553,6338569
20.32365,4692583
20.33178,3259182
20.33990,2238311
20.34803,1530461
20.35615,1099782
20.36427,826693
20.37240,650121
20.38052,534301
20.38865,455511
20.39677,414844
20.40488,375920
20.41302,332886
20.42113,305769
20.42927,290017
20.43738,303918
20.44550,309448
20.45363,343173
20.46175,383418
20.46987,418441
20.47800,414088
20.48612,413080
20.49425,356431
20.50237,322941
20.51048,275102
20.51862,239891
20.52673,228360
20.53487,218525
20.54298,224890
20.55110,224658
20.55923,225976
20.56735,228508
20.57547,232912
20.58360,220841
20.59172,209311
20.59985,205481
20.60797,198618
20.61608,184193
20.62422,184783
20.63233,202785
20.64047,222576
20.64858,243071
20.65670,277500
20.66483,302306
20.67295,314767
20.68108,310355
20.68920,277245
20.69732,250725
20.70545,216676
20.71357,193465
20.72168,181652
20.72982,174878
20.73793,168097
20.74607,180961
20.75418,192351
20.76230,216045
20.77043,250293
20.77855,298359
20.78668,361754
20.79480,532765
20.80292,919843
20.81105,1659328
20.81917,2714486
20.82728,3997299
20.83542,4711453
20.84353,4770045
20.85167,3960090
20.85978,2738398
20.86790,1668620
20.87603,932063
20.88415,554177
20.89228,381073
20.90040,310394
20.90852,294497
20.91665,315182
20.92477,358556
20.93290,431481
20.94102,477160
20.94913,514874
20.95727,523621
20.96538,500061
20.97350,445298
20.98163,386748
20.98975,316493
20.99788,271595
21.00600,232244
21.01412,223905
21.02225,222689
21.03037,223307
21.03850,228840
21.04662,237612
21.05473,252849
21.06287,247195
21.07098,237051
21.07912,216310
21.08723,205358
21.09535,182945
21.10348,176998
21.11160,173968
21.11972,167763
21.12785,169762
21.13597,197255
21.14410,265511
21.15222,450434
21.16033,715813
21.16847,1094944
21.17658,1406768
21.18472,1513012
21.19283,1386379
21.20095,1100735
21.20908,800080
21.21720,559948
21.22533,409508
21.23345,329277
21.24157,275290
21.24970,251236
21.25782,233547
21.26593,198719
21.27407,182301
21.28218,179964
21.29032,168218
21.29843,159576
21.30655,161786
21.31468,155462
21.32280,151741
21.33093,152041
21.33905,150179
21.34717,148834
21.35530,153072
21.36342,157759
21.37153,151798
21.37967,162287
21.38778,169586
21.39592,197329
21.40403,235722
21.41215,285398
21.42028,353353
21.42840,418757
21.43653,472318
21.44465,480697
21.45277,477167
21.46090,423669
21.46902,376191
21.47715,332309
21.48527,279722
21.49338,252496
21.50152,224941
21.50963,203557
21.51775,184352
21.52588,169489
21.53400,172110
21.54213,166617
21.55025,162330
21.55837,151265
21.56650,156369
21.57462,147670
21.58275,164417
21.59087,187083
21.59898,212862
21.60712,254470
21.61523,264239
21.62335,254519
21.63148,246328
21.63960,237757
21.64773,249012
21.65585,279544
21.66397,332950
21.67210,405325
21.68022,468737
21.68835,504287
21.69647,523202
21.70458,500003
21.71272,456284
21.72083,391121
21.72897,304400
21.73708,237763
21.74520,205725
21.75333,177622
21.76145,176956
21.76957,163695
21.77770,168768
21.78582,166304
21.79395,158488
21.80207,172324
21.81018,182236
21.81832,187335
21.82643,194985
21.83457,189897
21.84268,214022
21.85080,229032
21.85893,273502
21.86705,297548
21.87518,310877
21.88330,299202
21.89142,285427
21.89955,248253
21.90767,224358
21.91578,210331
21.92392,189828
21.93203,190391
21.94017,173141
21.94828,168373
21.95640,146448
21.96453,139354
21.97265,125210
21.98078,117335
21.98890,118606
21.99702,110274
22.00515,109625
22.01327,116539
22.02138,129385
22.02952,138100
22.03763,156676
22.04577,160351
22.05388,183181
22.06200,188157
22.07013,183502
22.07825,175411
22.08638,174745
22.09450,164665
22.10262,155907
22.11075,144624
22.11887,136864
22.12700,136432
22.13512,127791
22.14323,120166
22.15137,115973
22.15948,110704
22.16760,110902
22.17573,105112
22.18385,107652
22.19198,106414
22.20010,104223
22.20822,103385
22.21635,110418
22.22447,111419
22.23260,116338
22.24072,127820
22.24883,140778
22.25697,149136
22.26508,163749
22.27322,169797
22.28133,185402
22.28945,194275
22.29758,231958
22.30570,266713
22.31382,275067
22.32195,263067
22.33007,236432
22.33820,207365
22.34632,188823
22.35443,168672
22.36257,155094
22.37068,145324
22.37882,139424
22.38693,145062
22.39505,177820
22.40318,276068
22.41130,418784
22.41942,661038
22.42755,930447
22.43567,1134560
22.44380,1185192
22.45192,1059385
22.46003,850933
22.46817,621233
22.47628,423714
22.48442,329781
22.49253,297807
22.50065,328250
22.50878,409390
22.51690,495629
22.52503,603480
22.53315,682167
22.54127,696023
22.54940,635481
22.55752,556042
22.56563,447413
22.57377,357624
22.58188,295228
22.59002,241979
22.59813,221195
22.60625,191981
22.61438,177817
22.62250,160433
22.63063,145915
22.63875,143059
22.64687,142571
22.65500,142435
22.66312,155289
22.67123,161174
22.67937,175255
22.68748,178996
22.69562,183078
22.70373,214050
22.71185,252758
22.71998,314745
22.72810,381306
22.73623,407917
22.74435,400585
22.75247,362861
22.76060,303771
22.76872,249786
22.77685,233867
22.78497,230733
22.79308,243805
22.80122,289436
22.80933,364733
22.81745,461765
22.82558,552443
22.83370,534150
22.84183,514223
22.84995,455197
22.85807,380806
22.86620,346336
22.87432,368190
22.88245,437231
22.89057,569487
22.89868,720380
22.90682,856399
22.91493,904470
22.92307,883540
22.93118,851700
22.93930,783856
22.94743,740378
22.95555,659765
22.96367,572809
22.97180,462070
22.97992,344622
22.98805,261481
22.99617,215222
23.00428,180816
23.01242,167497
23.02053,148053
23.02867,136400
23.03678,130081
23.04490,121156
23.05303,130357
23.06115,142885
23.06927,160689
23.07740,165797
23.08552,191703
23.09365,210546
23.10177,201788
23.10988,198153
23.11802,187076
23.12613,159586
23.13427,144291
23.14238,144068
23.15050,141566
23.15863,131280
23.16675,133495
23.17488,133934
23.18300,121987
23.19112,122906
23.19925,114838
23.20737,107877
23.21548,96398
23.22362,102073
23.23173,93508
23.23987,93798
23.24798,107037
23.25610,129171
23.26423,164417
23.27235,216029
23.28048,256443
23.28860,276445
23.29672,271475
23.30485,240809
23.31297,198821
23.32110,169417
23.32922,152859
23.33733,166275
23.34547,215722
23.35358,295323
23.36170,445330
23.36983,598777
23.37795,750174
23.38608,796740
23.39420,755676
23.40232,663313
23.41045,533329
23.41857,374891
23.42670,261809
23.43482,192614
23.44293,147613
23.45107,129040
23.45918,117206
23.46730,108629
23.47543,105303
23.48355,96812
23.49168,96803
23.49980,90203
23.50792,92085
23.51605,90867
23.52417,93983
23.53230,90970
23.54042,103681
23.54853,115677
23.55667,137042
23.56478,175738
23.57292,222952
23.58103,322805
23.58915,510971
23.59728,785389
23.60540,1147544
23.61352,1395820
23.62165,1499969
23.62977,1424992
23.63790,1161481
23.64602,838813
23.65413,574945
23.66227,382245
23.67038,278249
23.67852,221324
23.68663,193295
23.69475,176672
23.70288,151091
23.71100,136464
23.71913,131551
23.72725,126251
23.73537,120660
23.74350,124627
23.75162,113927
23.75973,127277
23.76787,195003
23.77598,415780
23.78412,895861
23.79223,1727776
23.80035,2757726
23.80848,3670400
23.81660,3993784
23.82473,3486797
23.83285,2859089
23.84097,2172386
23.84910,1482339
23.85722,1100355
23.86533,843115
23.87347,650190
23.88158,553421
23.88972,477587
23.89783,464713
23.90595,473181
23.91408,522605
23.92220,627764
23.93033,742922
23.93845,799817
23.94657,764419
23.95470,650400
23.96282,503876
23.97095,405031
23.97907,329134
23.98718,282435
23.99532,256741
24.00343,240882
24.01155,244906
24.01968,251719
24.02780,267395
24.03593,317967
24.04405,370647
24.05217,391757
24.06030,398101
24.06842,345000
24.07655,285468
24.08467,234663
24.09278,192614
24.10092,185873
24.10903,164031
24.11715,170515
24.12528,173458
24.13340,176500
24.14153,210782
24.14965,269746
24.15777,356780
24.16590,451582
24.17402,531013
24.18215,552130
24.19027,543127
24.19838,522405
24.20652,489295
24.21463,486184
24.22277,461541
24.23088,426909
24.23900,363676
24.24713,316187
24.25525,271564
24.26337,247433
24.27150,214001
24.27962,203970
24.28775,176256
24.29587,170370
24.30398,165148
24.31212,171516
24.32023,177701
24.32837,192338
24.33648,200888
24.34460,199379
24.35273,200370
24.36085,189310
24.36898,175442
24.37710,154859
24.38522,153756
24.39335,145131
24.40147,142868
24.40958,149873
24.41772,167590
24.42583,185401
24.43397,198784
24.44208,199536
24.45020,188313
24.45833,174217
24.46645,166567
24.47458,161926
24.48270,160077
24.49082,171018
24.49895,177146
24.50707,182960
24.51518,186057
24.52332,200063
24.53143,207566
24.53957,253005
24.54768,311141
24.55580,392393
24.56393,484896
24.57205,577558
24.58018,606897
24.58830,582106
24.59642,513863
24.60455,446308
24.61267,371169
24.62080,304035
24.62892,249223
24.63703,210715
24.64517,185685
24.65328,174603
24.66140,163178
24.66953,158529
24.67765,164628
24.68578,162916
24.69390,167322
24.70202,157329
24.71015,157885
24.71827,149512
24.72640,148604
24.73452,152106
24.74263,153483
24.75077,154840
24.75888,151448
24.76702,141445
24.77513,155760
24.78325,178618
24.79138,205479
24.79950,226127
24.80762,238539
24.81575,244438
24.82387,251187
24.83200,255959
24.84012,293658
24.84823,370386
24.85637,505914
24.86448,696983
24.87262,983729
24.88073,1441042
24.88885,2107623
24.89698,2921124
24.90510,3605813
24.91322,3945003
24.92135,3661853
24.92947,2975328
24.93760,2114604
24.94572,1372702
24.95383,791535
24.96197,473271
24.97008,323287
24.97822,236957
24.98633,201412
24.99445,177460
25.00258,157393
25.01070,152530
25.01883,149053
25.02695,141600
25.03507,149829
25.04320,138892
25.05132,138057
25.05943,141063
25.06757,145840
25.07568,148213
25.08382,148710
25.09193,161792
25.10005,184676
25.10818,265080
25.11630,566046
25.12443,1388032
25.13255,3308555
25.14067,6666132
25.14880,1.150254E+07
25.15692,1.640323E+07
25.16503,2.02439E+07
25.17317,2.088394E+07
25.18128,1.824593E+07
25.18942,1.338489E+07
25.19753,8413697
25.20565,4764534
25.21378,2513281
25.22190,1338863
25.23003,756725
25.23815,492783
25.24627,424398
25.25440,446016
25.26252,564674
25.27065,763330
25.27877,953659
25.28688,1103427
25.29502,1113642
25.30313,1013376
25.31125,819238
25.31938,587798
25.32750,416075
25.33563,298553
25.34375,235736
25.35187,191597
25.36000,177742
25.36812,168350
25.37625,153853
25.38437,141447
25.39248,138829
25.40062,136016
25.40873,130030
25.41687,122686
25.42498,119692
25.43310,117846
25.44123,116826
25.44935,114865
25.45747,111786
25.46560,115138
25.47372,121659
25.48185,131728
25.48997,127901
25.49808,144814
25.50622,133183
25.51433,142035
25.52247,138576
25.53058,127772
25.53870,122868
25.54683,105864
25.55495,111073
25.56307,109096
25.57120,107629
25.57932,112258
25.58745,110996
25.59557,115174
25.60368,116388
25.61182,120884
25.61993,113945
25.62807,110896
25.63618,106330
25.64430,103917
25.65243,107549
25.66055,106839
25.66868,107382
25.67680,117528
25.68492,131207
25.69305,155246
25.70117,185719
25.70928,210436
25.71742,216547
25.72553,213758
25.73367,199415
25.74178,170222
25.74990,155243
25.75803,135432
25.76615,122394
25.77428,107643
25.78240,104435
25.79052,99752
25.79865,101003
25.80677,97446
25.81490,95794
25.82302,102196
25.83113,102595
25.83927,103921
25.84738,105331
25.85550,111173
25.86363,106704
25.87175,108876
25.87988,107827
25.88800,114868
25.89612,116802
25.90425,123645
25.91237,117291
25.92050,126054
25.92862,114316
25.93673,112494
25.94487,114882
25.95298,121626
25.96110,125157
25.96923,129357
25.97735,134253
25.98548,131654
25.99360,128422
26.00172,115450
26.00985,112558
26.01797,108734
26.02610,103195
26.03422,117360
26.04233,114801
26.05047,122143
26.05858,134879
26.06672,131876
26.07483,132765
26.08295,141510
26.09108,145516
26.09920,158603
26.10732,173386
26.11545,170083
26.12357,158503
26.13170,150400
26.13982,146687
26.14793,135182
26.15607,142466
26.16418,151735
26.17232,176555
26.18043,183980
26.18855,183308
26.19668,179951
26.20480,168742
26.21292,167034
26.22105,150129
26.22917,143152
26.23730,134782
26.24542,127082
26.25353,123398
26.26167,117353
26.26978,107793
26.27792,103393
26.28603,101921
26.29415,100867
26.30228,97177
26.31040,97229
26.31853,100452
26.32665,92687
26.33477,97376
26.34290,102669
26.35102,126313
26.35913,190333
26.36727,349095
26.37538,687210
26.38352,1322942
26.39163,2247049
26.39975,3351600
26.40788,4299948
26.41600,4823562
26.42413,4680987
26.43225,3951505
26.44037,3084975
26.44850,2321917
26.45662,1541529
26.46475,1035912
26.47287,746940
26.48098,575244
26.48912,487734
26.49723,436609
26.50535,411295
26.51348,388566
26.52160,363122
26.52973,350942
26.53785,331611
26.54597,319022
26.55410,312876
26.56222,309623
26.57035,300358
26.57847,307912
26.58658,316761
26.59472,303112
26.60283,314631
26.61097,313109
26.61908,306560
26.62720,318765
26.63533,307032
26.64345,309279
26.65157,319183
26.65970,312825
26.66782,309514
26.67595,308272
26.68407,302399
26.69218,301301
26.70032,305851
26.70843,300046
26.71657,287776
26.72468,299299
26.73280,303629
26.74093,299912
26.74905,290592
26.75717,305528
26.76530,306406
26.77342,311699
26.78155,304925
26.78967,293469
26.79778,292274
26.80592,317591
26.81403,306634
26.82217,313897
26.83028,312556
26.83840,301611
26.84653,304322
26.85465,291706
26.86278,279721
26.87090,289510
26.87902,278756
26.88715,281058
26.89527,281591
26.90338,286387
26.91152,274332
26.91963,280374
26.92777,271163
26.93588,266130
26.94400,255338
26.95213,250156
26.96025,250826
26.96838,270947
26.97650,284709
26.98462,335358
26.99275,414768
27.00087,604867
27.00898,957915
27.01712,1512426
27.02523,2128479
27.03337,2595955
27.04148,2854213
27.04960,2604614
27.05773,2183706
27.06585,1724747
27.07398,1280627
27.08210,1017902
27.09022,815517
27.09835,686026
27.10647,602549
27.11460,538805
27.12272,506637
27.13083,489352
27.13897,461635
27.14708,442182
27.15520,415729
27.16333,424402
27.17145,434526
27.17958,477839
27.18770,564172
27.19582,659752
27.20395,774303
27.21207,803190
27.22020,795028
27.22832,721415
27.23643,607774
27.24457,521837
27.25268,458631
27.26082,384558
27.26893,354382
27.27705,324622
27.28518,293526
27.29330,285873
27.30142,289930
27.30955,288480
27.31767,284638
27.32580,292088
27.33392,302311
27.34203,295730
27.35017,310409
27.35828,313912
27.36642,307224
27.37453,316018
27.38265,303671
27.39078,305310
27.39890,285315
27.40702,279506
27.41515,268384
27.42327,267196
27.43140,265770
27.43952,260688
27.44763,280858
27.45577,270524
27.46388,257830
27.47202,259258
27.48013,243993
27.48825,222451
27.49638,219377
27.50450,207117
27.51263,207886
27.52075,203124
27.52887,205254
27.53700,215809
27.54512,217773
27.55323,211631
27.56137,216257
27.56948,209580
27.57762,227228
27.58573,253783
27.59385,303832
27.60198,355431
27.61010,412847
27.61823,458513
27.62635,459267
27.63447,419046
27.64260,371756
27.65072,330923
27.65885,302647
27.66697,266561
27.67508,262745
27.68322,262697
27.69133,280095
27.69945,300026
27.70758,312152
27.71570,325746
27.72383,307419
27.73195,283425
27.74007,240840
27.74820,207714
27.75632,192135
27.76445,183340
27.77257,185331
27.78068,185931
27.78882,183393
27.79693,203004
27.80505,218332
27.81318,214161
27.82130,212927
27.82943,201920
27.83755,191968
27.84567,179964
27.85380,169016
27.86192,169015
27.87005,167898
27.87817,155909
27.88628,154105
27.89442,154643
27.90253,153991
27.91067,161044
27.91878,162995
27.92690,156487
27.93503,160522
27.94315,154608
27.95127,157012
27.95940,158737
27.96752,148845
27.97565,154352
27.98377,155154
27.99188,149796
28.00002,152951
28.00813,169210
28.01627,175914
28.02438,204787
28.03250,248665
28.04063,337120
28.04875,440376
28.05687,580194
28.06500,679568
28.07312,685926
28.08125,633636
28.08937,518011
28.09748,394899
28.10562,285967
28.11373,226151
28.12187,186097
28.12998,163121
28.13810,149582
28.14623,143650
28.15435,147125
28.16248,144170
28.17060,143633
28.17872,148272
28.18685,145768
28.19497,155995
28.20308,177455
28.21122,221560
28.21933,270699
28.22747,332543
28.23558,400902
28.24370,419281
28.25183,404588
28.25995,375307
28.26808,297593
28.27620,241977
28.28432,198125
28.29245,167687
28.30057,161909
28.30870,167128
28.31682,213464
28.32493,259925
28.33307,319567
28.34118,358577
28.34930,382031
28.35743,396341
28.36555,393433
28.37368,404536
28.38180,415689
28.38992,432538
28.39805,444976
28.40617,433036
28.41430,435735
28.42242,417956
28.43053,401346
28.43867,350355
28.44678,309258
28.45490,278298
28.46303,257504
28.47115,245222
28.47928,248560
28.48740,239531
28.49552,259437
28.50365,302469
28.51177,343255
28.51990,390135
28.52802,397897
28.53613,406202
28.54427,356924
28.55238,297253
28.56052,237793
28.56863,193374
28.57675,161443
28.58488,146819
28.59300,145037
28.60112,140094
28.60925,138035
28.61737,151857
28.62550,159007
28.63362,181523
28.64173,215103
28.64987,228392
28.65798,245594
28.66612,238731
28.67423,218455
28.68235,201728
28.69048,172188
28.69860,161921
28.70673,151636
28.71485,138068
28.72297,126024
28.73110,129100
28.73922,122784
28.74733,115922
28.75547,111590
28.76358,117911
28.77172,122873
28.77983,125370
28.78795,129665
28.79608,143551
28.80420,159232
28.81233,191629
28.82045,199532
28.82857,205465
28.83670,202595
28.84482,193777
28.85293,172441
28.86107,161388
28.86918,153277
28.87732,151525
28.88543,167982
28.89355,176865
28.90168,221283
28.90980,238780
28.91793,266034
28.92605,270249
28.93417,263544
28.94230,233600
28.95042,193857
28.95855,182931
28.96667,164820
28.97478,162305
28.98292,144408
28.99103,127953
28.99915,123364
29.00728,117558
29.01540,119529
29.02353,113923
29.03165,115546
29.03977,114752
29.04790,119387
29.05602,107808
29.06415,112359
29.07227,106285
29.08038,115136
29.08852,117369
29.09663,119424
29.10477,129766
29.11288,139590
29.12100,130762
29.12913,126660
29.13725,118957
29.14537,107751
29.15350,100589
29.16162,106239
29.16975,102140
29.17787,97084
29.18598,102495
29.19412,122362
29.20223,144332
29.21037,197696
29.21848,254816
29.22660,336796
29.23473,375460
29.24285,394089
29.25097,369478
29.25910,341745
29.26722,321458
29.27535,301448
29.28347,271894
29.29158,247418
29.29972,213497
29.30783,171803
29.31597,147687
29.32408,121187
29.33220,109098
29.34033,102985
29.34845,98968
29.35658,103074
29.36470,93337
29.37282,95451
29.38095,92690
29.38907,94475
29.39718,99807
29.40532,103628
29.41343,109261
29.42157,118030
29.42968,112650
29.43780,124525
29.44593,119988
29.45405,123797
29.46218,116459
29.47030,119365
29.47842,103756
29.48655,104492
29.49467,102148
29.50278,96998
29.51092,106364
29.51903,114248
29.52717,112862
29.53528,113896
29.54340,117186
29.55153,114349
29.55965,98157
29.56778,99166
29.57590,100179
29.58402,101643
29.59215,89231
29.60027,91308
29.60840,90100
29.61652,89495
29.62463,93167
29.63277,93155
29.64088,87322
29.64900,92281
29.65713,92056
29.66525,91170
29.67338,88803
29.68150,95678
29.68962,101636
29.69775,122094
29.70587,128956
29.71400,146761
29.72212,149878
29.73023,151705
29.73837,135037
29.74648,125676
29.75462,107237
29.76273,102315
29.77085,98655
29.77898,89629
29.78710,88264
29.79522,86492
29.80335,90430
29.81147,80797
29.81960,86215
29.82772,82561
29.83583,79622
29.84397,77447
29.85208,84224
29.86022,86936
29.86833,88885
29.87645,88319
29.88458,105827
29.89270,128308
29.90082,166549
29.90895,210430
29.91707,257679
29.92520,268095
29.93332,248282
29.94143,194759
29.94957,157495
29.95768,123783
29.96582,106581
29.97393,103444
29.98205,96134
29.99018,114839
29.99830,120274
30.00643,133845
30.01455,144737
30.02267,167856
30.03080,183081
30.03892,192095
30.04703,202967
30.05517,201536
30.06328,201288
30.07142,201763
30.07953,199666
30.08765,205588
30.09578,192571
30.10390,184501
30.11203,170434
30.12015,164046
30.12827,162653
30.13640,154732
30.14452,149584
30.15265,142982
30.16077,140386
30.16888,140826
30.17702,145262
30.18513,146611
30.19325,157052
30.20138,172826
30.20950,193199
30.21763,214559
30.22575,214193
30.23387,212675
30.24200,192269
30.25012,170866
30.25825,139258
30.26637,126904
30.27448,112679
30.28262,109911
30.29073,105795
30.29885,98862
30.30698,106001
30.31510,103326
30.32323,95253
30.33135,96232
30.33947,98516
30.34760,105316
30.35572,100986
30.36385,105617
30.37197,103495
30.38008,104709
30.38822,103476
30.39633,104874
30.40447,97662
30.41258,94124
30.42070,93128
30.42883,95494
30.43695,95982
30.44507,90149
30.45320,92062
30.46132,89139
30.46945,86606
30.47757,90795
30.48568,94747
30.49382,92923
30.50193,100637
30.51007,105772
30.51818,112907
30.52630,105602
30.53443,110366
30.54255,100551
30.55067,100554
30.55880,94827
30.56692,102851
30.57505,99154
30.58317,108684
30.59128,105181
30.59942,116035
30.60753,109622
30.61567,112168
30.62378,108562
30.63190,108066
30.64003,106870
30.64815,104180
30.65628,104448
30.66440,96143
30.67252,92853
30.68065,93004
30.68877,87741
30.69688,83533
30.70502,83506
30.71313,89670
30.72127,83633
30.72938,90736
30.73750,81798
30.74563,92673
30.75375,96397
30.76188,94562
30.77000,91290
30.77812,97241
30.78625,98126
30.79437,128148
30.80250,176189
30.81062,238320
30.81873,314120
30.82687,372544
30.83498,393574
30.84310,355810
30.85123,296477
30.85935,230339
30.86748,183390
30.87560,151544
30.88372,149202
30.89185,150042
30.89997,148794
30.90810,144698
30.91622,144985
30.92433,138348
30.93247,122260
30.94058,108672
30.94872,103181
30.95683,110227
30.96495,97279
30.97308,101673
30.98120,107014
30.98932,107098
30.99745,103687
31.00557,100209
31.01370,98846
31.02182,90640
31.02993,88767
31.03807,87519
31.04618,91550
31.05432,98780
31.06243,95576
31.07055,91501
31.07868,96587
31.08680,92844
31.09492,103619
31.10305,115451
31.11117,132970
31.11930,157698
31.12742,163223
31.13553,165449
31.14367,156047
31.15178,145973
31.15992,138529
31.16803,140880
31.17615,154801
31.18428,152277
31.19240,164429
31.20053,189511
31.20865,234190
31.21677,314193
31.22490,415758
31.23302,526153
31.24113,612315
31.24927,610673
31.25738,534891
31.26552,424487
31.27363,300556
31.28175,212980
31.28988,157055
31.29800,118474
31.30613,111197
31.31425,109206
31.32237,111971
31.33050,108675
31.33862,123215
31.34673,135803
31.35487,139576
31.36298,143935
31.37112,139129
31.37923,121213
31.38735,115076
31.39548,106239
31.40360,97140
31.41173,89798
31.41985,84831
31.42797,87810
31.43610,92263
31.44422,90218
31.45235,93062
31.46047,96749
31.46858,96159
31.47672,96138
31.48483,93337
31.49295,92239
31.50108,105306
31.50920,116849
31.51733,129522
31.52545,153998
31.53357,180005
31.54170,186760
31.54982,201368
31.55795,194319
31.56607,183062
31.57418,165056
31.58232,154523
31.59043,140430
31.59857,123237
31.60668,109032
31.61480,95820
31.62293,96769
31.63105,88920
31.63917,92138
31.64730,97469
31.65542,96904
31.66355,113584
31.67167,120612
31.67978,133741
31.68792,146951
31.69603,161027
31.70417,151991
31.71228,135650
31.72040,126676
31.72853,112820
31.73665,100345
31.74477,102957
31.75290,84367
31.76102,83750
31.76915,81472
31.77727,84640
31.78538,82387
31.79352,88590
31.80163,86769
31.80977,91019
31.81788,92391
31.82600,89831
31.83413,92000
31.84225,88933
31.85038,89474
31.85850,89239
31.86662,101043
31.87475,96727
31.88287,95834
31.89098,95082
31.89912,97953
31.90723,93692
31.91537,95764
31.92348,92281
31.93160,96190
31.93973,94279
31.94785,102931
31.95598,119753
31.96410,114667
31.97222,138788
31.98035,148566
31.98847,162653
31.99660,178638
32.00472,199116
32.01283,220170
32.02097,236772
32.02908,243503
32.03720,252559
32.04533,231708
32.05345,210175
32.06158,184567
32.06970,149132
32.07782,138692
32.08595,132679
32.09407,128231
32.10220,122088
32.11032,121501
32.11843,123678
32.12657,111987
32.13468,116893
32.14280,111951
32.15093,108764
32.15905,107264
32.16718,99762
32.17530,96545
32.18342,96730
32.19155,95921
32.19967,96425
32.20780,94580
32.21592,92026
32.22403,98741
32.23217,101408
32.24028,92241
32.24842,89949
32.25653,92375
32.26465,92043
32.27278,93112
32.28090,103589
32.28902,97383
32.29715,96094
32.30527,96961
32.31340,100958
32.32152,96189
32.32963,86057
32.33777,91651
32.34588,92664
32.35402,93554
32.36213,95275
32.37025,96067
32.37838,100648
32.38650,95174
32.39462,95094
32.40275,92858
32.41087,89240
32.41900,86190
32.42712,83094
32.43523,81227
32.44337,87040
32.45148,85922
32.45962,85483
32.46773,81920
32.47585,82905
32.48398,87129
32.49210,84684
32.50023,88199
32.50835,85080
32.51647,89680
32.52460,91379
32.53272,94706
32.54083,96696
32.54897,94428
32.55708,96161
32.56522,97062
32.57333,101686
32.58145,102046
32.58958,97371
32.59770,102711
32.60583,97542
32.61395,93174
32.62207,89690
32.63020,95139
32.63832,92302
32.64645,97145
32.65457,92482
32.66268,90182
32.67082,94655
32.67893,99333
32.68705,100420
32.69518,106547
32.70330,109518
32.71143,114446
32.71955,116152
32.72767,106878
32.73580,103566
32.74392,100396
32.75205,96927
32.76017,94926
32.76828,95842
32.77642,95921
32.78453,97089
32.79265,91170
32.80078,88009
32.80890,86988
32.81703,93434
32.82515,91717
32.83327,95204
32.84140,96689
32.84952,98199
32.85765,94683
32.86577,100637
32.87388,100930
32.88202,99080
32.89013,98375
32.89827,103791
32.90638,107100
32.91450,117153
32.92263,117615
32.93075,122294
32.93887,115340
32.94700,110474
32.95512,99199
32.96325,100877
32.97137,94789
32.97948,95628
32.98762,114992
32.99573,140806
33.00387,194752
33.01198,249045
33.02010,301848
33.02823,324085
33.03635,283747
33.04448,242105
33.05260,201504
33.06072,170904
33.06885,171749
33.07697,194275
33.08508,224759
33.09322,275413
33.10133,347008
33.10947,426584
33.11758,498884
33.12570,521469
33.13383,491234
33.14195,439237
33.15008,344248
33.15820,272030
33.16632,233125
33.17445,202778
33.18257,177589
33.19068,145344
33.19882,131322
33.20693,113102
33.21507,112316
33.22318,111303
33.23130,116725
33.23943,119496
33.24755,121669
33.25568,124144
33.26380,117687
33.27192,117485
33.28005,110860
33.28817,104217
33.29630,109860
33.30442,111097
33.31253,110949
33.32067,119421
33.32878,120907
33.33690,117560
33.34503,119019
33.35315,126112
33.36128,139733
33.36940,143683
33.37752,164408
33.38565,167273
33.39377,170489
33.40190,143496
33.41002,127030
33.41813,112590
33.42627,94021
33.43438,88646
33.44250,91525
33.45063,91454
33.45875,83381
33.46688,86833
33.47500,83784
33.48312,79558
33.49125,86534
33.49937,84906
33.50750,100446
33.51562,104563
33.52373,106184
33.53187,113374
33.53998,113900
33.54812,131554
33.55623,133408
33.56435,139637
33.57248,155417
33.58060,158587
33.58872,155176
33.59685,135261
33.60497,125499
33.61310,100757
33.62122,91668
33.62933,98867
33.63747,99161
33.64558,105975
33.65372,111492
33.66183,115881
33.66995,122261
33.67808,122151
33.68620,120576
33.69433,110345
33.70245,111391
33.71057,102027
33.71870,96361
33.72682,88304
33.73493,80912
33.74307,81158
33.75118,85105
33.75932,83858
33.76743,81549
33.77555,76935
33.78368,83631
33.79180,84924
33.79993,80576
33.80805,81522
33.81617,79042
33.82430,76890
33.83242,78188
33.84053,85226
33.84867,83566
33.85678,86663
33.86492,84434
33.87303,84126
33.88115,89329
33.88928,93072
33.89740,95056
33.90553,100521
33.91365,103321
33.92177,92482
33.92990,94587
33.93802,91305
33.94615,88016
33.95427,91752
33.96238,91965
33.97052,81497
33.97863,83819
33.98675,83068
33.99488,79276
34.00300,78329
34.01113,80586
34.01925,82608
34.02737,80420
34.03550,83708
34.04362,81510
34.05175,86680
34.05987,81753
34.06798,86364
34.07612,82601
34.08423,83116
34.09237,87775
34.10048,83649
34.10860,84980
34.11673,86408
34.12485,83919
34.13297,86810
34.14110,89433
34.14922,84665
34.15735,82267
34.16547,82937
34.17358,88588
34.18172,81539
34.18983,80674
34.19797,83123
34.20608,79560
34.21420,84208
34.22233,84279
34.23045,84013
34.23857,85356
34.24670,82835
34.25482,84458
34.26295,86960
34.27107,77665
34.27918,80368
34.28732,80888
34.29543,82232
34.30357,76613
34.31168,79857
34.31980,76743
34.32793,82024
34.33605,73691
34.34418,74728
34.35230,78448
34.36042,76386
34.36855,81122
34.37667,86144
34.38478,72817
34.39292,79993
34.40103,83011
34.40917,79537
34.41728,79768
34.42540,79774
34.43353,81607
34.44165,84480
34.44978,86166
34.45790,81701
34.46602,78851
34.47415,82991
34.48227,79978
34.49040,85741
34.49852,80848
34.50663,77176
34.51477,77012
34.52288,81728
34.53100,83526
34.53913,85342
34.54725,94472
34.55538,105909
34.56350,116424
34.57162,131395
34.57975,140520
34.58787,152357
34.59600,156361
34.60412,143535
34.61223,134529
34.62037,122040
34.62848,115517
34.63660,109942
34.64473,108083
34.65285,103898
34.66098,96335
34.66910,99121
34.67722,92951
34.68535,90296
34.69347,94357
34.70160,86768
34.70972,91989
34.71783,89174
34.72597,86410
34.73408,88016
34.74222,85916
34.75033,89671
34.75845,91912
34.76658,93982
34.77470,99738
34.78282,104473
34.79095,106540
34.79907,105806
34.80720,105113
34.81532,109598
34.82343,108837
34.83157,98849
34.83968,91180
34.84782,88925
34.85593,94565
34.86405,91568
34.87218,92742
34.88030,88841
34.88842,82757
34.89655,88006
34.90467,83454
34.91280,82612
34.92092,84316
34.92903,85893
34.93717,84406
34.94528,91390
34.95342,92817
34.96153,96045
34.96965,96909
34.97778,107993
34.98590,114803
34.99403,117015
35.00215,116401
35.01027,112870
35.01840,108030
35.02652,99885
35.03463,88427
35.04277,92578
35.05088,91809
35.05902,92509
35.06713,83240
35.07525,85047
35.08338,88420
35.09150,89305
35.09963,85658
35.10775,83717
35.11587,85112
35.12400,86784
35.13212,89911
35.14025,87200
35.14837,88387
35.15648,90927
35.16462,95582
35.17273,91032
35.18085,99432
35.18898,98507
35.19710,88900
35.20523,95529
35.21335,89073
35.22147,88370
35.22960,88374
35.23772,83426
35.24585,83762
35.25397,85740
35.26208,87470
35.27022,79069
35.27833,90901
35.28645,83145
35.29458,89879
35.30270,87251
35.31083,88099
35.31895,87016
35.32707,91419
35.33520,84921
35.34332,88341
35.35145,82940
35.35957,83518
35.36768,85922
35.37582,80832
35.38393,84346
35.39207,86810
35.40018,86920
35.40830,95512
35.41643,108996
35.42455,119636
35.43267,135782
35.44080,151936
35.44892,152610
35.45705,153709
35.46517,147969
35.47328,130348
35.48142,117070
35.48953,111119
35.49767,106516
35.50578,103718
35.51390,96136
35.52203,104172
35.53015,101854
35.53828,97995
35.54640,98430
35.55452,95151
35.56265,93832
35.57077,89786
35.57888,89262
35.58702,89267
35.59513,89889
35.60327,87812
35.61138,93532
35.61950,88834
35.62763,88239
35.63575,81515
35.64388,92182
35.65200,93292
35.66012,83898
35.66825,84083
35.67637,86832
35.68448,90313
35.69262,90326
35.70073,85969
35.70887,93071
35.71698,93564
35.72510,100689
35.73323,100094
35.74135,99694
35.74948,107752
35.75760,120596
35.76572,135493
35.77385,165380
35.78197,195008
35.79010,216298
35.79822,202517
35.80633,174380
35.81447,155024
35.82258,135858
35.83070,109251
35.83883,101360
35.84695,97275
35.85508,95082
35.86320,90512
35.87132,98773
35.87945,93791
35.88757,96934
35.89570,96318
35.90382,93254
35.91193,93019
35.92007,91892
35.92818,88905
35.93630,87680
35.94443,91795
35.95255,87243
35.96068,90233
35.96880,84819
35.97692,85172
35.98505,88564
35.99317,90671
36.00130,88563
36.00942,87156
36.01753,89295
36.02567,92224
36.03378,94161
36.04192,91883
36.05003,96697
36.05815,91736
36.06628,95419
36.07440,89108
36.08252,88726
36.09065,89115
36.09877,93800
36.10690,94993
36.11502,87802
36.12313,93324
36.13127,106163
36.13938,103381
36.14752,111451
36.15563,119932
36.16375,126643
36.17188,133801
36.18000,123978
36.18813,116436
36.19625,115584
36.20437,103180
36.21250,93844
36.22062,91116
36.22873,93437
36.23687,86026
36.24498,89734
36.25312,88692
36.26123,93950
36.26935,94897
36.27748,94654
36.28560,90675
36.29373,92613
36.30185,85776
36.30997,94717
36.31810,95816
36.32622,99636
36.33433,98342
36.34247,110449
36.35058,115468
36.35872,105882
36.36683,108023
36.37495,100710
36.38308,104591
36.39120,97346
36.39933,99324
36.40745,101908
36.41557,104890
36.42370,113498
36.43182,101957
36.43995,104892
36.44807,103269
36.45618,99432
36.46432,98261
36.47243,99841
36.48055,97457
36.48868,90604
36.49680,88576
36.50493,92845
36.51305,92506
36.52117,86096
36.52930,94353
36.53742,93414
36.54555,94347
36.55367,91458
36.56178,91763
36.56992,93761
36.57803,94434
36.58617,93389
36.59428,91769
36.60240,97183
36.61053,90817
36.61865,92266
36.62677,92382
36.63490,96323
36.64302,92922
36.65115,92424
36.65927,95934
36.66738,93763
36.67552,88113
36.68363,93297
36.69177,90219
36.69988,93241
36.70800,93202
36.71613,90182
36.72425,95915
36.73237,103501
36.74050,94267
36.74862,97333
36.75675,99075
36.76487,94059
36.77298,93742
36.78112,95668
36.78923,94162
36.79737,90729
36.80548,98488
36.81360,94228
36.82173,94982
36.82985,102796
36.83798,93489
36.84610,92437
36.85422,90152
36.86235,86629
36.87047,91347
36.87858,88370
36.88672,87493
36.89483,88809
36.90297,77237
36.91108,87607
36.91920,88249
36.92733,87820
36.93545,90039
36.94358,97495
36.95170,103590
36.95982,124221
36.96795,167711
36.97607,213132
36.98418,266209
36.99232,284708
37.00043,271904
37.00857,244458
37.01668,199130
37.02480,155212
37.03293,125084
37.04105,109181
37.04918,103324
37.05730,103746
37.06542,106130
37.07355,108183
37.08167,109709
37.08980,107598
37.09792,120429
37.10603,119403
37.11417,126108
37.12228,116138
37.13040,117982
37.13853,111887
37.14665,104603
37.15478,106149
37.16290,105783
37.17102,107402
37.17915,90087
37.18727,93065
37.19540,95865
37.20352,97720
37.21163,95544
37.21977,96488
37.22788,100120
37.23602,103517
37.24413,103781
37.25225,99382
37.26038,104833
37.26850,103187
37.27662,101879
37.28475,97589
37.29287,104201
37.30100,93651
37.30912,94566
37.31723,93690
37.32537,93295
37.33348,104532
37.34162,101657
37.34973,101557
37.35785,106433
37.36598,107349
37.37410,104051
37.38223,114636
37.39035,114146
37.39847,116496
37.40660,118587
37.41472,116075
37.42283,116296
37.43097,116688
37.43908,120989
37.44722,119576
37.45533,121712
37.46345,121768
37.47158,118107
37.47970,122287
37.48783,110822
