Z:\data\JTB-E02\BACandBLUE\JTB-E18-007-04.D Fri Apr 12 09:28:44 2019
Start of data points
2.09522,58549
2.10333,62173
2.11147,67114
2.11958,74870
2.12772,78308
2.13583,84713
2.14395,86024
2.15208,90993
2.16020,87186
2.16832,86033
2.17645,82735
2.18457,82677
2.19270,72414
2.20082,67870
2.20893,62519
2.21707,59312
2.22518,54091
2.23332,54633
2.24143,54816
2.24955,48810
2.25768,48238
2.26580,101094
2.27393,1300584
2.28205,4258016
2.29017,3027099
2.29830,1193195
2.30642,687821
2.31453,509744
2.32267,440055
2.33078,386168
2.33892,335221
2.34703,303375
2.35515,263431
2.36328,238128
2.37140,216238
2.37953,197036
2.38765,200599
2.39577,186838
2.40390,180455
2.41202,186100
2.42013,180776
2.42827,192962
2.43638,169673
2.44452,169356
2.45263,165989
2.46075,161902
2.46888,143848
2.47700,132036
2.48513,129907
2.49325,135928
2.50137,133073
2.50950,124216
2.51762,122870
2.52575,115440
2.53387,113368
2.54198,108487
2.55012,116062
2.55823,117946
2.56635,118521
2.57448,113671
2.58260,105276
2.59073,105337
2.59885,100804
2.60697,103267
2.61510,133371
2.62322,139519
2.63135,127678
2.63947,117245
2.64758,109201
2.65572,104146
2.66383,100442
2.67195,96922
2.68008,103305
2.68820,90017
2.69633,90180
2.70445,88304
2.71257,89828
2.72070,88138
2.72882,89333
2.73695,83216
2.74507,79901
2.75318,84012
2.76132,82658
2.76943,80698
2.77757,78952
2.78568,78324
2.79380,77149
2.80193,78455
2.81005,77645
2.81817,80072
2.82630,80666
2.83442,79771
2.84255,75291
2.85067,72596
2.85878,78190
2.86692,77049
2.87503,76620
2.88317,72566
2.89128,77815
2.89940,72801
2.90753,74673
2.91565,71164
2.92378,73906
2.93190,71341
2.94002,73057
2.94815,74156
2.95627,71061
2.96438,66028
2.97252,71484
2.98063,76363
2.98877,73125
2.99688,71579
3.00500,71411
3.01313,71061
3.02125,67035
3.02938,72972
3.03750,68185
3.04562,64923
3.05375,66353
3.06187,66032
3.06998,68410
3.07812,66171
3.08623,67740
3.09437,64435
3.10248,68488
3.11060,88422
3.11873,115132
3.12685,105631
3.13498,103082
3.14310,97376
3.15122,96562
3.15935,95122
3.16747,92406
3.17560,91069
3.18372,97005
3.19183,89234
3.19997,83850
3.20808,87583
3.21620,87081
3.22433,85220
3.23245,86083
3.24058,81142
3.24870,82286
3.25682,82558
3.26495,85637
3.27307,78507
3.28120,84984
3.28932,136521
3.29743,539589
3.30557,1938166
3.31368,4590718
3.32182,6590473
3.32993,6649873
3.33805,5828861
3.34618,4810245
3.35430,3998380
3.36242,3333765
3.37055,2906023
3.37867,2553077
3.38680,2254084
3.39492,2020875
3.40303,1839169
3.41117,1658176
3.41928,1532044
3.42742,1406115
3.43553,1315698
3.44365,1227001
3.45178,1142378
3.45990,1094138
3.46802,1047585
3.47615,990220
3.48427,938346
3.49240,888371
3.50052,866983
3.50863,835848
3.51677,781830
3.52488,755299
3.53302,712392
3.54113,687001
3.54925,672100
3.55738,646677
3.56550,629721
3.57363,600701
3.58175,601874
3.58987,570339
3.59800,561819
3.60612,539941
3.61423,533937
3.62237,518662
3.63048,509701
3.63862,506802
3.64673,490518
3.65485,473206
3.66298,455417
3.67110,444874
3.67923,425824
3.68735,436395
3.69547,416549
3.70360,405682
3.71172,399143
3.71983,389504
3.72797,391592
3.73608,379569
3.74422,374644
3.75233,372214
3.76045,366421
3.76858,358251
3.77670,352289
3.78483,341100
3.79295,347335
3.80107,332016
3.80920,329703
3.81732,334826
3.82545,323864
3.83357,326145
3.84168,313916
3.84982,320998
3.85793,301020
3.86605,302971
3.87418,302688
3.88230,300375
3.89043,292405
3.89855,287281
3.90667,278079
3.91480,279573
3.92292,272423
3.93105,273586
3.93917,269793
3.94728,272830
3.95542,261808
3.96353,264198
3.97167,260002
3.97978,260667
3.98790,264910
3.99603,262312
4.00415,249854
4.01227,257694
4.02040,247398
4.02852,255683
4.03665,256419
4.04477,248792
4.05288,250445
4.06102,255127
4.06913,235421
4.07727,244021
4.08538,239858
4.09350,236937
4.10163,230973
4.10975,220803
4.11788,235995
4.12600,222843
4.13412,223831
4.14225,231123
4.15037,256293
4.15848,279379
4.16662,269869
4.17473,258396
4.18287,246230
4.19098,232731
4.19910,226984
4.20723,224917
4.21535,216539
4.22348,240214
4.23160,279260
4.23972,320944
4.24785,327104
4.25597,320626
4.26408,294591
4.27222,271495
4.28033,257047
4.28847,247847
4.29658,238062
4.30470,233877
4.31283,219398
4.32095,230530
4.32908,213813
4.33720,215624
4.34532,219381
4.35345,217311
4.36157,220429
4.36970,224942
4.37782,218302
4.38593,213012
4.39407,211110
4.40218,217057
4.41030,210163
4.41843,200449
4.42655,207168
4.43468,201437
4.44280,196848
4.45092,196469
4.45905,198720
4.46717,203407
4.47530,191683
4.48342,184840
4.49153,189969
4.49967,191568
4.50778,194164
4.51590,186171
4.52403,186476
4.53215,181794
4.54028,191582
4.54840,189738
4.55652,190543
4.56465,191455
4.57277,181076
4.58090,178648
4.58902,181111
4.59713,182624
4.60527,178330
4.61338,173536
4.62152,181555
4.62963,174270
4.63775,176138
4.64588,180968
4.65400,177359
4.66212,170529
4.67025,175092
4.67837,174604
4.68650,174114
4.69462,170618
4.70273,171049
4.71087,169619
4.71898,175766
4.72712,172328
4.73523,176720
4.74335,170738
4.75148,172727
4.75960,168276
4.76773,172755
4.77585,170695
4.78397,164661
4.79210,166903
4.80022,163224
4.80833,167316
4.81647,162844
4.82458,163825
4.83272,168982
4.84083,174453
4.84895,173829
4.85708,175458
4.86520,189037
4.87333,187192
4.88145,186545
4.88957,184681
4.89770,178540
4.90582,179558
4.91393,176096
4.92207,177838
4.93018,178094
4.93832,208684
4.94643,318416
4.95455,668608
4.96268,1340705
4.97080,2184374
4.97893,2709028
4.98705,2770005
4.99517,2482848
5.00330,2120329
5.01142,1738565
5.01955,1508120
5.02767,1314994
5.03578,1171595
5.04392,1065499
5.05203,980443
5.06015,930902
5.06828,851957
5.07640,809473
5.08453,774444
5.09265,740417
5.10077,704957
5.10890,679245
5.11702,649125
5.12515,613422
5.13327,589328
5.14138,575466
5.14952,564279
5.15763,544841
5.16577,546803
5.17388,515720
5.18200,513919
5.19013,501929
5.19825,485991
5.20637,476757
5.21450,454187
5.22262,463420
5.23075,458265
5.23887,445337
5.24698,442085
5.25512,425004
5.26323,422829
5.27137,406449
5.27948,392096
5.28760,379122
5.29573,374939
5.30385,376058
5.31197,378887
5.32010,363253
5.32822,359590
5.33635,346596
5.34447,344449
5.35258,347421
5.36072,335498
5.36883,337771
5.37697,338316
5.38508,327538
5.39320,327741
5.40133,323127
5.40945,322183
5.41758,312981
5.42570,316807
5.43382,303109
5.44195,302333
5.45007,311141
5.45818,294233
5.46632,293045
5.47443,297566
5.48257,297237
5.49068,301986
5.49880,280294
5.50693,278117
5.51505,290078
5.52318,281549
5.53130,283673
5.53942,269270
5.54755,268871
5.55567,274511
5.56378,266804
5.57192,271128
5.58003,276657
5.58817,258748
5.59628,262514
5.60440,264771
5.61253,251984
5.62065,250950
5.62878,260635
5.63690,261502
5.64502,260207
5.65315,263236
5.66127,269545
5.66940,254722
5.67752,262315
5.68563,279559
5.69377,296742
5.70188,304935
5.71000,302152
5.71813,284711
5.72625,270227
5.73438,258355
5.74250,247792
5.75062,243867
5.75875,245709
5.76687,240271
5.77500,241023
5.78312,233994
5.79123,250187
5.79937,243962
5.80748,233021
5.81562,233616
5.82373,224030
5.83185,230084
5.83998,231219
5.84810,231507
5.85622,227167
5.86435,220140
5.87247,227163
5.88060,223682
5.88872,214704
5.89683,215288
5.90497,215020
5.91308,205350
5.92122,177883
5.92933,157419
5.93745,154220
5.94558,146499
5.95370,145268
5.96182,151994
5.96995,157318
5.97807,149612
5.98620,143723
5.99432,148196
6.00243,150718
6.01057,153109
6.01868,146842
6.02682,145294
6.03493,147644
6.04305,142789
6.05118,145408
6.05930,147760
6.06743,147342
6.07555,144339
6.08367,143344
6.09180,142347
6.09992,139237
6.10803,142304
6.11617,150981
6.12428,142344
6.13242,139157
6.14053,144034
6.14865,145657
6.15678,148989
6.16490,142960
6.17303,146343
6.18115,145756
6.18927,143359
6.19740,142173
6.20552,144774
6.21365,146064
6.22177,149279
6.22988,151076
6.23802,152050
6.24613,147064
6.25425,150663
6.26238,148796
6.27050,147264
6.27863,150168
6.28675,145924
6.29487,156058
6.30300,147052
6.31112,152898
6.31925,154748
6.32737,146834
6.33548,152623
6.34362,151018
6.35173,150514
6.35985,156474
6.36798,146322
6.37610,154419
6.38423,148313
6.39235,149497
6.40047,153365
6.40860,146946
6.41672,150270
6.42485,145612
6.43297,151712
6.44108,151861
6.44922,162591
6.45733,162469
6.46547,155529
6.47358,153595
6.48170,149761
6.48983,154661
6.49795,157878
6.50607,152835
6.51420,147934
6.52232,143784
6.53045,155911
6.53857,146793
6.54668,155448
6.55482,151338
6.56293,148659
6.57107,138966
6.57918,135845
6.58730,143542
6.59543,143307
6.60355,135715
6.61168,140941
6.61980,138167
6.62792,129353
6.63605,134872
6.64417,136869
6.65228,134981
6.66042,134079
6.66853,135022
6.67667,131222
6.68478,130599
6.69290,134876
6.70103,126825
6.70915,128498
6.71728,125407
6.72540,127149
6.73352,124712
6.74165,128081
6.74977,126580
6.75788,126903
6.76602,121510
6.77413,126607
6.78227,126895
6.79038,124436
6.79850,127249
6.80663,118660
6.81475,124130
6.82288,113156
6.83100,125723
6.83912,119687
6.84725,123639
6.85537,111979
6.86350,99913
6.87162,82447
6.87973,74386
6.88787,65050
6.89598,64459
6.90410,64537
6.91223,66404
6.92035,63034
6.92848,60305
6.93660,62150
6.94472,57332
6.95285,59112
6.96097,62346
6.96910,57047
6.97722,58817
6.98533,59821
6.99347,60083
7.00158,58308
7.00970,57301
7.01783,63848
7.02595,57564
7.03408,60931
7.04220,61339
7.05032,60813
7.05845,58548
7.06657,56911
7.07470,64930
7.08282,57976
7.09093,55398
7.09907,59091
7.10718,58757
7.11532,60429
7.12343,59240
7.13155,56612
7.13968,61570
7.14780,58591
7.15592,57424
7.16405,64301
7.17217,59787
7.18030,57980
7.18842,62423
7.19653,65579
7.20467,65230
7.21278,61184
7.22092,57221
7.22903,59653
7.23715,60668
7.24528,62447
7.25340,57543
7.26153,56658
7.26965,58923
7.27777,55050
7.28590,58051
7.29402,58781
7.30213,56871
7.31027,58644
7.31838,61381
7.32652,62627
7.33463,56651
7.34275,52081
7.35088,56013
7.35900,58328
7.36713,59483
7.37525,56640
7.38337,58360
7.39150,61805
7.39962,61309
7.40773,59369
7.41587,56724
7.42398,64124
7.43212,65293
7.44023,67167
7.44835,72829
7.45648,64360
7.46460,69099
7.47273,67296
7.48085,61191
7.48897,67093
7.49710,67995
7.50522,66077
7.51335,64184
7.52147,61860
7.52958,68178
7.53772,60180
7.54583,62013
7.55395,64245
7.56208,64000
7.57020,62995
7.57833,65605
7.58645,66178
7.59457,63308
7.60270,59751
7.61082,67986
7.61895,62606
7.62707,67275
7.63518,66617
7.64332,64892
7.65143,63189
7.65957,65617
7.66768,61201
7.67580,65820
7.68393,67808
7.69205,60794
7.70017,61120
7.70830,66204
7.71642,57298
7.72455,61824
7.73267,61768
7.74078,64751
7.74892,59915
7.75703,58013
7.76517,61492
7.77328,59534
7.78140,61120
7.78953,61154
7.79765,61454
7.80577,62579
7.81390,61347
7.82202,59658
7.83015,58381
7.83827,59741
7.84638,60387
7.85452,51484
7.86263,57147
7.87077,56580
7.87888,61102
7.88700,60054
7.89513,59191
7.90325,63107
7.91138,61830
7.91950,62788
7.92762,60813
7.93575,65421
7.94387,62448
7.95198,61760
7.96012,60771
7.96823,58658
7.97637,59404
7.98448,60895
7.99260,62000
8.00073,64477
8.00885,64315
8.01698,63194
8.02510,58873
8.03322,63296
8.04135,64278
8.04947,63633
8.05758,61929
8.06572,59677
8.07383,63596
8.08197,65658
8.09008,62913
8.09820,64523
8.10633,64745
8.11445,68022
8.12258,61447
8.13070,64715
8.13882,66450
8.14695,64244
8.15507,63541
8.16320,62703
8.17132,66545
8.17943,63564
8.18757,65181
8.19568,68250
8.20380,61947
8.21193,69291
8.22005,67105
8.22818,65704
8.23630,62257
8.24442,65190
8.25255,63641
8.26067,65153
8.26880,68463
8.27692,64283
8.28503,65170
8.29317,59743
8.30128,57964
8.30942,63785
8.31753,58436
8.32565,64660
8.33378,64737
8.34190,61814
8.35002,62756
8.35815,63924
8.36627,64070
8.37440,63392
8.38252,57747
8.39063,54174
8.39877,58241
8.40688,53744
8.41502,58961
8.42313,61876
8.43125,58791
8.43938,59635
8.44750,59333
8.45562,55713
8.46375,59553
8.47187,57950
8.48000,60453
8.48812,62270
8.49623,58427
8.50437,62140
8.51248,71905
8.52062,81441
8.52873,150841
8.53685,555273
8.54498,633110
8.55310,306791
8.56123,166957
8.56935,137503
8.57747,121553
8.58560,110809
8.59372,96256
8.60183,97925
8.60997,96854
8.61808,97289
8.62622,102682
8.63433,95302
8.64245,86076
8.65058,90190
8.65870,90588
8.66683,85660
8.67495,84759
8.68307,79749
8.69120,75604
8.69932,84588
8.70745,80901
8.71557,85273
8.72368,85600
8.73182,80182
8.73993,80405
8.74805,75614
8.75618,82050
8.76430,86393
8.77243,112180
8.78055,180369
8.78867,299878
8.79680,493044
8.80492,655438
8.81305,745825
8.82117,728825
8.82928,653859
8.83742,587379
8.84553,539348
8.85365,480154
8.86178,443180
8.86990,416633
8.87803,372797
8.88615,349557
8.89427,330734
8.90240,317062
8.91052,292062
8.91865,269295
8.92677,270568
8.93488,343090
8.94302,895841
8.95113,1550694
8.95927,1172300
8.96738,729950
8.97550,549569
8.98363,463633
8.99175,397673
8.99987,356213
9.00800,336793
9.01612,316285
9.02425,290475
9.03237,275336
9.04048,256404
9.04862,251891
9.05673,241788
9.06487,227887
9.07298,229221
9.08110,224043
9.08923,213400
9.09735,212745
9.10548,205388
9.11360,207816
9.12172,193209
9.12985,197073
9.13797,191111
9.14608,187210
9.15422,194170
9.16233,185618
9.17047,188379
9.17858,184509
9.18670,182982
9.19483,180404
9.20295,181631
9.21108,175455
9.21920,167326
9.22732,173547
9.23545,170735
9.24357,165220
9.25168,166212
9.25982,165228
9.26793,157798
9.27607,154554
9.28418,151038
9.29230,144918
9.30043,146169
9.30855,138394
9.31668,145033
9.32480,149107
9.33292,146065
9.34105,144722
9.34917,146781
9.35730,152725
9.36542,166032
9.37353,169349
9.38167,157593
9.38978,146077
9.39790,142497
9.40603,137392
9.41415,134040
9.42228,139303
9.43040,145345
9.43852,258912
9.44665,503065
9.45477,587244
9.46290,451187
9.47102,325254
9.47913,258753
9.48727,225055
9.49538,208889
9.50352,186594
9.51163,173278
9.51975,163093
9.52788,162378
9.53600,162295
9.54412,154535
9.55225,145314
9.56037,142588
9.56850,129393
9.57662,113360
9.58473,106652
9.59287,107774
9.60098,97451
9.60912,99345
9.61723,97067
9.62535,92659
9.63348,96605
9.64160,93811
9.64972,90616
9.65785,92068
9.66597,91791
9.67410,82696
9.68222,82213
9.69033,87456
9.69847,87484
9.70658,79308
9.71472,83703
9.72283,83757
9.73095,81754
9.73908,81062
9.74720,80843
9.75533,78854
9.76345,78858
9.77157,78630
9.77970,78681
9.78782,77901
9.79593,78400
9.80407,73671
9.81218,78997
9.82032,76925
9.82843,75185
9.83655,84505
9.84468,88194
9.85280,91361
9.86093,89621
9.86905,87051
9.87717,82697
9.88530,83986
9.89342,79357
9.90153,75091
9.90967,75183
9.91778,73883
9.92592,75708
9.93403,74834
9.94215,78099
9.95028,81072
9.95840,85145
9.96653,79173
9.97465,74572
9.98277,76433
9.99090,74559
9.99902,79684
10.00715,77875
10.01527,83322
10.02338,86033
10.03152,100714
10.03963,107151
10.04775,109148
10.05588,111370
10.06400,115325
10.07213,107996
10.08025,106318
10.08837,99792
10.09650,95515
10.10462,90766
10.11275,94839
10.12087,89583
10.12898,95354
10.13712,92487
10.14523,103092
10.15337,104515
10.16148,108881
10.16960,109949
10.17773,108576
10.18585,107017
10.19397,106062
10.20210,112586
10.21022,99599
10.21835,103094
10.22647,94570
10.23458,98377
10.24272,97715
10.25083,97938
10.25897,99537
10.26708,99784
10.27520,102110
10.28333,94404
10.29145,95565
10.29957,106520
10.30770,108036
10.31582,114448
10.32395,127542
10.33207,133982
10.34018,133214
10.34832,132739
10.35643,113652
10.36457,118057
10.37268,113926
10.38080,105031
10.38893,101550
10.39705,104856
10.40518,99096
10.41330,97299
10.42142,101833
10.42955,96588
10.43767,94781
10.44578,94410
10.45392,94997
10.46203,92125
10.47017,88150
10.47828,85169
10.48640,91176
10.49453,90023
10.50265,93384
10.51078,85786
10.51890,86181
10.52702,90029
10.53515,86277
10.54327,85276
10.55140,83426
10.55952,87809
10.56763,87568
10.57577,83391
10.58388,83823
10.59200,83448
10.60013,82772
10.60825,84937
10.61638,82310
10.62450,84324
10.63262,81819
10.64075,79578
10.64887,80707
10.65700,75729
10.66512,75372
10.67323,80624
10.68137,80241
10.68948,84064
10.69760,78875
10.70573,78235
10.71385,83429
10.72198,75041
10.73010,73271
10.73822,75395
10.74635,77412
10.75447,75641
10.76260,73560
10.77072,74054
10.77883,76394
10.78697,71690
10.79508,74303
10.80322,75932
10.81133,77625
10.81945,77311
10.82758,79204
10.83570,75508
10.84382,75137
10.85195,70845
10.86007,72275
10.86820,69176
10.87632,76944
10.88443,73186
10.89257,74819
10.90068,72388
10.90882,68811
10.91693,69749
10.92505,69820
10.93318,71190
10.94130,70174
10.94942,73887
10.95755,71762
10.96567,76455
10.97380,78820
10.98192,74522
10.99003,73510
10.99817,78535
11.00628,74418
11.01442,71738
11.02253,70288
11.03065,71713
11.03878,82665
11.04690,116924
11.05503,148427
11.06315,143799
11.07127,136455
11.07940,113792
11.08752,89933
11.09563,94604
11.10377,90743
11.11188,85576
11.12002,81799
11.12813,77331
11.13625,78051
11.14438,74062
11.15250,75420
11.16063,72545
11.16875,77001
11.17687,75396
11.18500,83981
11.19312,92482
11.20125,98823
11.20937,102743
11.21748,106490
11.22562,105977
11.23373,99701
11.24185,89558
11.24998,89870
11.25810,79750
11.26623,76866
11.27435,72017
11.28247,69221
11.29060,70177
11.29872,74406
11.30685,68705
11.31497,67217
11.32308,70596
11.33122,66595
11.33933,64679
11.34745,66002
11.35558,67454
11.36370,66819
11.37183,65622
11.37995,64634
11.38807,68031
11.39620,68252
11.40432,63888
11.41245,66101
11.42057,67062
11.42868,65186
11.43682,68530
11.44493,65895
11.45307,68465
11.46118,66369
11.46930,62578
11.47743,60585
11.48555,63328
11.49367,62974
11.50180,63956
11.50992,58431
11.51805,62973
11.52617,61594
11.53428,62239
11.54242,61254
11.55053,63574
11.55867,65968
11.56678,63819
11.57490,59719
11.58303,60184
11.59115,65335
11.59928,60604
11.60740,60864
11.61552,63378
11.62365,63840
11.63177,67652
11.63988,61862
11.64802,61897
11.65613,62834
11.66427,63934
11.67238,65809
11.68050,64909
11.68863,63119
11.69675,61318
11.70488,60244
11.71300,61359
11.72112,61724
11.72925,65981
11.73737,61700
11.74548,61158
11.75362,63775
11.76173,64729
11.76987,61714
11.77798,66734
11.78610,66496
11.79423,66610
11.80235,64605
11.81048,66702
11.81860,61451
11.82672,58574
11.83485,62407
11.84297,62066
11.85110,60985
11.85922,61672
11.86733,60230
11.87547,62090
11.88358,60760
11.89170,62249
11.89983,66841
11.90795,64701
11.91608,64496
11.92420,55892
11.93232,60657
11.94045,57905
11.94857,64938
11.95670,61609
11.96482,63003
11.97293,61752
11.98107,61416
11.98918,65844
11.99732,61184
12.00543,69659
12.01355,70574
12.02168,73140
12.02980,76221
12.03792,80434
12.04605,81550
12.05417,81739
12.06230,82315
12.07042,81424
12.07853,80407
12.08667,80910
12.09478,84767
12.10292,82335
12.11103,77240
12.11915,76868
12.12728,82161
12.13540,88254
12.14352,80895
12.15165,82698
12.15977,83278
12.16790,82522
12.17602,85613
12.18413,81256
12.19227,79855
12.20038,83603
12.20852,78756
12.21663,83917
12.22475,84324
12.23288,85899
12.24100,80473
12.24913,83612
12.25725,83981
12.26537,83765
12.27350,83168
12.28162,84351
12.28973,80440
12.29787,82235
12.30598,87148
12.31412,86115
12.32223,83834
12.33035,82671
12.33848,80454
12.34660,82911
12.35473,82811
12.36285,85381
12.37097,84226
12.37910,81445
12.38722,76737
12.39533,81416
12.40347,77685
12.41158,83006
12.41972,80138
12.42783,79619
12.43595,86185
12.44408,81846
12.45220,84316
12.46033,78625
12.46845,89108
12.47657,85885
12.48470,82174
12.49282,83086
12.50095,81751
12.50907,86382
12.51718,78036
12.52532,84729
12.53343,85052
12.54155,85460
12.54968,78130
12.55780,85160
12.56593,80797
12.57405,79174
12.58217,80235
12.59030,81366
12.59842,80591
12.60655,78690
12.61467,84375
12.62278,81153
12.63092,76662
12.63903,76142
12.64717,81832
12.65528,75979
12.66340,81425
12.67153,73097
12.67965,72926
12.68777,70082
12.69590,66035
12.70402,64273
12.71215,63246
12.72027,66542
12.72838,67984
12.73652,67952
12.74463,71073
12.75277,70128
12.76088,72712
12.76900,73580
12.77713,71075
12.78525,72390
12.79337,64279
12.80150,64469
12.80962,68340
12.81775,65954
12.82587,67253
12.83398,58316
12.84212,62683
12.85023,63578
12.85837,66474
12.86648,65063
12.87460,60386
12.88273,61620
12.89085,60823
12.89898,57309
12.90710,60483
12.91522,56583
12.92335,61318
12.93147,55084
12.93958,62272
12.94772,61090
12.95583,57573
12.96397,61265
12.97208,61493
12.98020,64651
12.98833,63654
12.99645,62940
13.00458,61230
13.01270,60862
13.02082,59824
13.02895,62563
13.03707,58209
13.04520,63581
13.05332,57152
13.06143,60865
13.06957,58356
13.07768,62174
13.08580,59491
13.09393,53825
13.10205,61825
13.11018,60588
13.11830,59911
13.12642,58896
13.13455,56321
13.14267,59399
13.15080,60838
13.15892,60116
13.16703,58474
13.17517,59700
13.18328,60902
13.19140,63526
13.19953,68984
13.20765,72642
13.21578,72385
13.22390,74440
13.23202,76903
13.24015,71214
13.24827,69381
13.25640,63847
13.26452,62708
13.27263,64302
13.28077,65612
13.28888,64012
13.29702,60469
13.30513,68173
13.31325,64618
13.32138,60927
13.32950,59928
13.33762,63146
13.34575,61206
13.35387,59054
13.36200,63188
13.37012,61979
13.37823,57464
13.38637,56821
13.39448,61727
13.40262,57436
13.41073,58487
13.41885,60214
13.42698,57947
13.43510,53269
13.44322,58933
13.45135,56716
13.45947,55995
13.46760,58842
13.47572,60780
13.48383,56419
13.49197,61025
13.50008,59428
13.50822,58824
13.51633,56224
13.52445,59060
13.53258,58311
13.54070,60882
13.54883,57864
13.55695,60326
13.56507,58792
13.57320,58487
13.58132,62381
13.58943,57509
13.59757,61651
13.60568,56170
13.61382,61603
13.62193,57316
13.63005,59761
13.63818,59082
13.64630,57130
13.65443,59583
13.66255,59338
13.67067,54041
13.67880,61590
13.68692,57815
13.69505,60697
13.70317,65853
13.71128,60528
13.71942,59534
13.72753,59816
13.73565,55377
13.74378,59221
13.75190,61917
13.76003,62030
13.76815,61714
13.77627,63871
13.78440,61732
13.79252,71529
13.80065,69596
13.80877,76171
13.81688,73059
13.82502,78868
13.83313,79247
13.84127,85338
13.84938,81601
13.85750,86545
13.86563,85415
13.87375,89101
13.88187,85966
13.89000,82739
13.89812,89360
13.90625,87044
13.91437,89720
13.92248,94326
13.93062,94697
13.93873,95531
13.94687,99173
13.95498,94357
13.96310,94985
13.97123,92494
13.97935,93065
13.98747,97345
13.99560,99929
14.00372,96948
14.01185,101332
14.01997,96633
14.02808,93580
14.03622,97577
14.04433,97989
14.05247,96146
14.06058,101590
14.06870,98635
14.07683,103452
14.08495,105091
14.09308,105130
14.10120,97875
14.10932,98625
14.11745,100880
14.12557,97169
14.13368,96936
14.14182,100340
14.14993,96134
14.15807,100472
14.16618,97580
14.17430,103612
14.18243,109523
14.19055,134546
14.19868,166343
14.20680,224068
14.21492,287774
14.22305,336731
14.23117,356572
14.23928,339995
14.24742,311807
14.25553,270945
14.26367,246500
14.27178,232034
14.27990,210000
14.28803,196460
14.29615,183714
14.30428,182845
14.31240,171407
14.32052,159866
14.32865,154767
14.33677,154123
14.34490,146539
14.35302,134173
14.36113,126881
14.36927,117024
14.37738,104917
14.38550,103315
14.39363,95269
14.40175,91637
14.40988,87873
14.41800,93084
14.42612,84454
14.43425,85192
14.44237,85185
14.45050,79052
14.45862,83537
14.46673,78528
14.47487,73859
14.48298,79740
14.49112,77596
14.49923,74330
14.50735,73237
14.51548,71267
14.52360,78669
14.53172,78750
14.53985,77020
14.54797,77124
14.55610,73144
14.56422,69590
14.57233,75018
14.58047,73387
14.58858,70655
14.59672,73248
14.60483,67853
14.61295,68677
14.62108,66416
14.62920,69004
14.63732,65404
14.64545,66051
14.65357,69305
14.66170,70472
14.66982,63499
14.67793,66031
14.68607,65380
14.69418,63618
14.70232,64484
14.71043,66855
14.71855,68055
14.72668,67856
14.73480,64879
14.74293,64866
14.75105,61867
14.75917,62545
14.76730,59873
14.77542,59923
14.78353,64623
14.79167,79534
14.79978,288152
14.80792,621279
14.81603,411055
14.82415,181648
14.83228,129858
14.84040,118724
14.84853,111886
14.85665,120618
14.86477,121519
14.87290,108157
14.88102,111374
14.88915,100778
14.89727,100377
14.90538,103718
14.91352,99356
14.92163,96957
14.92975,92802
14.93788,89094
14.94600,87139
14.95413,85195
14.96225,86261
14.97037,87675
14.97850,95835
14.98662,226943
14.99475,911117
15.00287,974464
15.01098,572406
15.01912,427691
15.02723,336350
15.03535,289846
15.04348,256497
15.05160,229180
15.05973,205562
15.06785,189533
15.07597,178144
15.08410,166857
15.09222,151345
15.10035,147221
15.10847,144229
15.11658,136397
15.12472,139341
15.13283,133962
15.14097,187322
15.14908,429208
15.15720,474917
15.16533,326843
15.17345,257397
15.18157,221292
15.18970,208686
15.19782,196639
15.20595,180494
15.21407,166469
15.22218,158613
15.23032,145334
15.23843,136915
15.24657,136440
15.25468,131659
15.26280,133474
15.27093,125441
15.27905,120444
15.28717,120855
15.29530,123353
15.30342,124521
15.31155,114662
15.31967,111401
15.32778,109646
15.33592,109194
15.34403,107469
15.35217,99046
15.36028,101718
15.36840,99385
15.37653,103736
15.38465,102608
15.39278,102200
15.40090,98860
15.40902,103173
15.41715,105243
15.42527,105524
15.43338,99003
15.44152,95068
15.44963,92958
15.45777,97184
15.46588,92918
15.47400,96504
15.48213,105807
15.49025,122274
15.49838,131865
15.50650,135976
15.51462,131443
15.52275,119654
15.53087,120064
15.53900,115034
15.54712,100841
15.55523,104134
15.56337,100265
15.57148,103435
15.57960,98248
15.58773,93500
15.59585,95845
15.60398,94790
15.61210,98754
15.62022,93047
15.62835,93567
15.63647,98254
15.64460,135226
15.65272,171705
15.66083,164970
15.66897,136926
15.67708,119752
15.68520,112086
15.69333,108817
15.70145,104487
15.70958,99456
15.71770,96285
15.72582,96872
15.73395,98842
15.74207,88052
15.75020,95840
15.75832,90458
15.76643,87145
15.77457,95963
15.78268,89101
15.79082,91797
15.79893,90570
15.80705,96767
15.81518,94943
15.82330,97884
15.83142,93233
15.83955,97210
15.84767,97431
15.85580,91029
15.86392,91233
15.87203,95596
15.88017,93054
15.88828,90025
15.89642,89632
15.90453,90417
15.91265,92961
15.92078,93231
15.92890,89445
15.93703,87778
15.94515,90617
15.95327,90754
15.96140,86197
15.96952,89356
15.97763,81840
15.98577,87126
15.99388,88121
16.00202,82779
16.01013,90193
16.01825,86775
16.02638,90383
16.03450,94243
16.04263,98061
16.05075,94107
16.05887,91796
16.06700,92591
16.07512,94843
16.08323,88595
16.09137,90460
16.09948,88480
16.10762,89102
16.11573,93270
16.12385,88146
16.13198,88645
16.14010,90205
16.14823,86662
16.15635,79684
16.16447,87264
16.17260,82948
16.18072,84753
16.18885,85409
16.19697,84157
16.20508,80573
16.21322,83845
16.22133,80095
16.22945,81514
16.23758,80762
16.24570,82594
16.25383,82918
16.26195,82946
16.27007,76532
16.27820,77318
16.28632,75375
16.29445,78178
16.30257,80846
16.31068,81758
16.31882,82582
16.32693,78188
16.33507,76437
16.34318,77385
16.35130,75814
16.35943,73900
16.36755,80159
16.37567,83044
16.38380,77486
16.39192,81652
16.40005,72890
16.40817,82158
16.41628,78723
16.42442,75921
16.43253,76984
16.44067,73698
16.44878,74923
16.45690,75986
16.46503,75775
16.47315,72470
16.48127,79114
16.48940,79128
16.49752,83572
16.50565,88592
16.51377,84072
16.52188,79978
16.53002,85299
16.53813,78206
16.54627,79141
16.55438,85025
16.56250,75307
16.57063,80171
16.57875,74391
16.58688,79923
16.59500,77247
16.60312,75004
16.61125,79004
16.61937,83232
16.62748,78214
16.63562,77945
16.64373,83027
16.65187,80379
16.65998,82496
16.66810,79002
16.67623,82968
16.68435,77709
16.69248,76726
16.70060,78462
16.70872,75299
16.71685,74132
16.72497,78056
16.73308,77011
16.74122,71796
16.74933,74775
16.75747,72866
16.76558,73755
16.77370,68411
16.78183,74508
16.78995,72245
16.79808,74528
16.80620,72445
16.81432,73404
16.82245,71018
16.83057,72582
16.83870,72506
16.84682,70262
16.85493,68507
16.86307,70631
16.87118,74757
16.87930,71693
16.88743,70370
16.89555,69830
16.90368,72303
16.91180,69181
16.91992,71797
16.92805,68372
16.93617,65586
16.94430,70920
16.95242,69593
16.96053,66818
16.96867,66185
16.97678,68899
16.98492,70888
16.99303,73208
17.00115,67661
17.00928,69057
17.01740,59151
17.02552,68098
17.03365,65126
17.04177,66939
17.04990,68138
17.05802,65895
17.06613,65241
17.07427,66212
17.08238,70395
17.09052,63278
17.09863,63772
17.10675,63226
17.11488,67954
17.12300,70788
17.13112,65175
17.13925,66827
17.14737,66771
17.15550,65125
17.16362,65480
17.17173,62884
17.17987,63807
17.18798,60302
17.19612,67746
17.20423,69950
17.21235,71003
17.22048,74059
17.22860,78874
17.23673,74509
17.24485,71909
17.25297,69911
17.26110,65567
17.26922,68828
17.27733,68220
17.28547,66555
17.29358,62940
17.30172,62580
17.30983,67880
17.31795,64017
17.32608,66647
17.33420,69772
17.34233,65900
17.35045,64942
17.35857,66887
17.36670,70889
17.37482,73624
17.38295,76904
17.39107,74728
17.39918,72805
17.40732,69697
17.41543,69289
17.42355,68559
17.43168,72631
17.43980,67205
17.44793,75372
17.45605,69680
17.46417,71594
17.47230,71473
17.48042,69065
17.48855,71975
17.49667,72561
17.50478,64923
17.51292,66543
17.52103,71897
17.52915,69545
17.53728,66264
17.54540,66766
17.55353,65525
17.56165,67557
17.56977,65520
17.57790,68191
17.58602,67015
17.59415,64574
17.60227,63996
17.61038,67085
17.61852,66647
17.62663,62680
17.63477,65643
17.64288,66378
17.65100,68660
17.65913,66692
17.66725,69229
17.67537,69122
17.68350,64200
17.69162,64120
17.69975,68068
17.70787,70322
17.71598,68138
17.72412,66345
17.73223,68368
17.74037,71011
17.74848,68890
17.75660,66304
17.76473,60819
17.77285,64838
17.78097,65559
17.78910,63526
17.79722,63027
17.80535,68097
17.81347,64186
17.82158,66092
17.82972,64244
17.83783,67637
17.84597,64039
17.85408,65775
17.86220,68158
17.87033,63079
17.87845,63632
17.88658,60969
17.89470,59125
17.90282,64470
17.91095,63284
17.91907,63344
17.92718,58642
17.93532,60365
17.94343,59431
17.95157,64156
17.95968,60321
17.96780,60265
17.97593,57845
17.98405,59627
17.99218,55768
18.00030,58825
18.00842,56581
18.01655,62057
18.02467,53119
18.03280,61062
18.04092,58768
18.04903,54692
18.05717,55045
18.06528,59010
18.07340,61741
18.08153,66532
18.08965,64448
18.09778,68053
18.10590,70396
18.11402,75161
18.12215,73941
18.13027,78696
18.13840,70655
18.14652,78197
18.15463,74874
18.16277,72885
18.17088,71794
18.17902,72899
18.18713,73552
18.19525,70708
18.20338,73773
18.21150,70095
18.21962,66602
18.22775,68206
18.23587,68712
18.24400,69388
18.25212,71170
18.26023,72545
18.26837,70549
18.27648,71546
18.28462,72217
18.29273,70386
18.30085,66813
18.30898,67026
18.31710,66974
18.32522,67771
18.33335,65024
18.34147,63347
18.34960,66584
18.35772,67693
18.36583,69657
18.37397,60787
18.38208,63561
18.39022,62522
18.39833,61665
18.40645,61036
18.41458,57023
18.42270,64438
18.43083,64382
18.43895,63037
18.44707,55941
18.45520,57544
18.46332,61844
18.47143,56946
18.47957,61203
18.48768,59507
18.49582,63926
18.50393,83580
18.51205,109032
18.52018,140129
18.52830,162704
18.53643,180473
18.54455,185272
18.55267,195816
18.56080,208162
18.56892,216189
18.57703,224539
18.58517,221564
18.59328,229874
18.60142,240139
18.60953,233782
18.61765,240953
18.62578,242180
18.63390,241649
18.64203,249073
18.65015,242817
18.65827,245053
18.66640,239052
18.67452,240472
18.68265,242518
18.69077,239276
18.69888,238484
18.70702,239629
18.71513,233867
18.72325,235493
18.73138,230948
18.73950,239886
18.74763,229342
18.75575,232416
18.76387,229681
18.77200,223257
18.78012,223288
18.78825,221174
18.79637,224769
18.80448,226974
18.81262,226285
18.82073,223593
18.82887,216556
18.83698,219155
18.84510,222159
18.85323,214793
18.86135,213976
18.86947,204567
18.87760,215311
18.88572,207505
18.89385,213698
18.90197,208568
18.91008,201254
18.91822,205550
18.92633,199513
18.93447,199817
18.94258,193204
18.95070,194193
18.95883,197663
18.96695,194237
18.97507,197232
18.98320,188530
18.99132,187227
18.99945,187152
19.00757,184220
19.01568,189040
19.02382,187549
19.03193,180658
19.04007,180985
19.04818,181189
19.05630,174106
19.06443,186164
19.07255,170174
19.08068,173165
19.08880,183569
19.09692,173356
19.10505,178347
19.11317,183402
19.12128,176103
19.12942,183715
19.13753,182914
19.14567,180410
19.15378,177422
19.16190,175628
19.17003,177280
19.17815,168165
19.18628,163990
19.19440,162195
19.20252,168757
19.21065,166867
19.21877,163277
19.22690,164428
19.23502,153169
19.24313,152838
19.25127,150087
19.25938,153126
19.26750,150737
19.27563,153436
19.28375,156107
19.29188,149332
19.30000,156813
19.30812,154133
19.31625,155927
19.32437,152082
19.33250,145660
19.34062,150962
19.34873,140798
19.35687,143290
19.36498,146410
19.37310,150021
19.38123,144297
19.38935,140925
19.39748,142549
19.40560,137734
19.41372,140325
19.42185,135308
19.42997,135574
19.43810,138536
19.44622,132876
19.45433,138437
19.46247,134555
19.47058,127975
19.47872,130199
19.48683,137252
19.49495,148472
19.50308,184510
19.51120,221443
19.51932,260548
19.52745,281490
19.53557,276265
19.54370,238773
19.55182,203827
19.55993,178457
19.56807,160876
19.57618,149191
19.58432,155778
19.59243,149063
19.60055,142683
19.60868,143682
19.61680,148628
19.62492,163609
19.63305,176198
19.64117,218266
19.64930,289807
19.65742,419067
19.66553,595005
19.67367,766368
19.68178,844637
19.68992,845342
19.69803,742135
19.70615,593914
19.71428,471552
19.72240,376091
19.73053,313315
19.73865,273935
19.74677,240419
19.75490,219892
19.76302,202554
19.77113,195925
19.77927,186778
19.78738,168849
19.79552,171250
19.80363,164544
19.81175,159470
19.81988,154919
19.82800,152873
19.83613,152450
19.84425,149239
19.85237,147880
19.86050,152515
19.86862,140533
19.87675,144112
19.88487,140050
19.89298,149165
19.90112,142700
19.90923,160910
19.91735,162029
19.92548,174541
19.93360,191945
19.94173,194016
19.94985,200432
19.95797,205658
19.96610,198125
19.97422,184679
19.98235,172050
19.99047,170226
19.99858,163696
20.00672,160658
20.01483,157149
20.02295,151227
20.03108,151914
20.03920,144272
20.04733,147223
20.05545,134783
20.06357,133704
20.07170,140792
20.07982,132536
20.08795,129381
20.09607,125154
20.10418,128572
20.11232,124966
20.12043,123256
20.12857,122319
20.13668,111916
20.14480,118715
20.15293,115209
20.16105,115795
20.16917,122862
20.17730,115437
20.18542,115572
20.19355,115025
20.20167,111409
20.20978,109815
20.21792,113090
20.22603,112256
20.23417,113293
20.24228,118268
20.25040,141910
20.25853,187284
20.26665,266261
20.27478,368822
20.28290,476491
20.29102,561396
20.29915,576581
20.30727,523788
20.31538,433885
20.32352,360948
20.33163,282529
20.33977,239871
20.34788,193922
20.35600,172841
20.36413,162414
20.37225,152179
20.38038,143551
20.38850,138903
20.39662,148402
20.40475,139656
20.41287,141859
20.42098,156440
20.42912,182037
20.43723,202427
20.44537,217187
20.45348,240892
20.46160,251777
20.46973,251420
20.47785,224943
20.48598,203680
20.49410,179170
20.50222,166094
20.51035,148636
20.51847,140149
20.52660,132067
20.53472,129359
20.54283,124241
20.55097,120814
20.55908,122240
20.56720,119755
20.57533,115427
20.58345,117050
20.59158,118342
20.59970,117370
20.60782,111658
20.61595,111069
20.62407,114319
20.63220,114164
20.64032,111927
20.64843,110569
20.65657,107120
20.66468,106303
20.67282,101098
20.68093,107622
20.68905,103708
20.69718,102350
20.70530,105245
20.71342,99240
20.72155,105239
20.72967,103049
20.73780,97856
20.74592,98554
20.75403,99871
20.76217,96547
20.77028,98538
20.77842,94328
20.78653,97306
20.79465,102064
20.80278,99328
20.81090,94571
20.81902,94909
20.82715,93955
20.83527,89473
20.84340,94797
20.85152,98982
20.85963,93670
20.86777,89875
20.87588,94377
20.88402,94662
20.89213,90076
20.90025,93808
20.90838,95656
20.91650,94040
20.92463,91501
20.93275,88269
20.94087,90526
20.94900,86926
20.95712,91116
20.96523,88329
20.97337,93556
20.98148,88785
20.98962,83854
20.99773,87739
21.00585,86847
21.01398,91976
21.02210,84418
21.03023,84801
21.03835,84410
21.04647,87423
21.05460,87952
21.06272,92065
21.07083,97371
21.07897,104927
21.08708,100865
21.09522,109187
21.10333,102179
21.11145,99332
21.11958,90626
21.12770,87773
21.13583,85261
21.14395,85376
21.15207,87054
21.16020,87142
21.16832,80741
21.17645,79485
21.18457,82428
21.19268,82417
21.20082,84552
21.20893,80741
21.21705,82331
21.22518,80118
21.23330,78097
21.24143,82509
21.24955,79959
21.25767,73930
21.26580,74895
21.27392,75722
21.28205,78666
21.29017,80138
21.29828,74112
21.30642,77049
21.31453,77738
21.32267,68992
21.33078,79848
21.33890,76010
21.34703,76148
21.35515,89933
21.36327,80975
21.37140,81671
21.37952,87486
21.38765,81864
21.39577,78478
21.40388,79032
21.41202,79524
21.42013,85317
21.42827,83204
21.43638,84201
21.44450,91658
21.45263,96053
21.46075,99908
21.46887,95139
21.47700,97375
21.48512,103294
21.49325,99016
21.50137,99024
21.50948,102039
21.51762,101638
21.52573,100338
21.53387,100779
21.54198,99185
21.55010,98522
21.55823,101204
21.56635,102289
21.57448,99471
21.58260,98286
21.59072,95433
21.59885,99981
21.60697,106204
21.61508,114293
21.62322,124805
21.63133,155250
21.63947,187247
21.64758,204844
21.65570,215973
21.66383,204844
21.67195,195683
21.68008,162843
21.68820,141858
21.69632,132003
21.70445,115025
21.71257,120227
21.72070,109715
21.72882,116223
21.73693,110534
21.74507,109976
21.75318,109561
21.76130,99347
21.76943,106661
21.77755,98175
21.78568,97433
21.79380,96999
21.80192,96438
21.81005,104368
21.81817,119189
21.82630,137799
21.83442,155988
21.84253,187948
21.85067,188150
21.85878,198604
21.86690,181659
21.87503,151758
21.88315,135644
21.89128,120542
21.89940,108941
21.90752,106768
21.91565,106226
21.92377,98869
21.93190,99648
21.94002,102207
21.94813,100666
21.95627,98536
21.96438,91354
21.97252,94503
21.98063,91120
21.98875,89345
21.99688,84809
22.00500,88847
22.01312,83981
22.02125,86743
22.02937,80090
22.03750,83108
22.04562,81009
22.05373,83761
22.06187,85135
22.06998,80341
22.07812,79886
22.08623,86968
22.09435,81826
22.10248,88718
22.11060,77104
22.11872,86577
22.12685,82787
22.13497,85923
22.14310,84918
22.15122,80900
22.15933,93111
22.16747,91595
22.17558,85408
22.18372,87111
22.19183,81836
22.19995,81067
22.20808,85993
22.21620,87164
22.22433,92583
22.23245,98208
22.24057,97600
22.24870,92934
22.25682,92339
22.26493,80345
22.27307,78984
22.28118,74952
22.28932,79781
22.29743,78159
22.30555,79849
22.31368,78350
22.32180,76123
22.32993,85320
22.33805,75989
22.34617,80992
22.35430,77123
22.36242,79929
22.37055,79264
22.37867,77526
22.38678,70969
22.39492,70451
22.40303,69643
22.41115,74063
22.41928,69689
22.42740,66286
22.43553,65819
22.44365,72905
22.45177,70714
22.45990,69428
22.46802,71297
22.47615,68907
22.48427,66533
22.49238,71328
22.50052,69483
22.50863,70761
22.51675,69357
22.52488,68369
22.53300,69149
22.54113,66608
22.54925,68716
22.55737,65056
22.56550,63053
22.57362,62536
22.58175,64273
22.58987,63942
22.59798,66398
22.60612,61209
22.61423,61635
22.62237,63493
22.63048,60007
22.63860,57745
22.64673,60415
22.65485,63062
22.66297,65035
22.67110,62094
22.67922,60834
22.68735,66808
22.69547,59953
22.70358,62034
22.71172,60035
22.71983,65768
22.72797,57646
22.73608,66103
22.74420,61700
22.75233,59290
22.76045,61296
22.76858,61214
22.77670,57520
22.78482,56421
22.79295,55318
22.80107,56258
22.80918,59471
22.81732,58649
22.82543,57267
22.83357,59767
22.84168,62401
22.84980,55304
22.85793,58554
22.86605,58899
22.87418,58984
22.88230,54589
22.89042,63394
22.89855,61639
22.90667,72546
22.91478,85156
22.92292,95207
22.93103,112928
22.93917,133661
22.94728,137394
22.95540,148665
22.96353,147115
22.97165,143141
22.97978,124673
22.98790,122510
22.99602,116168
23.00415,108232
23.01227,99331
23.02040,86121
23.02852,77800
23.03663,74937
23.04477,74141
23.05288,66639
23.06100,62961
23.06913,63780
23.07725,60471
23.08538,63556
23.09350,64724
23.10162,64382
23.10975,60352
23.11787,60712
23.12600,58629
23.13412,55267
23.14223,61985
23.15037,60767
23.15848,58314
23.16660,61348
23.17473,58539
23.18285,58141
23.19098,61368
23.19910,57624
23.20722,60768
23.21535,56398
23.22347,58179
23.23160,60396
23.23972,58780
23.24783,56711
23.25597,53896
23.26408,50965
23.27222,50372
23.28033,56383
23.28845,54595
23.29658,55503
23.30470,56958
23.31282,56971
23.32095,50933
23.32907,54475
23.33720,55238
23.34532,54661
23.35343,53743
23.36157,55256
23.36968,55545
23.37782,54539
23.38593,53129
23.39405,54261
23.40218,57113
23.41030,55590
23.41843,52124
23.42655,56979
23.43467,54728
23.44280,53286
23.45092,53717
23.45903,53213
23.46717,50982
23.47528,51148
23.48342,53667
23.49153,53841
23.49965,53125
23.50778,54442
23.51590,54438
23.52403,49663
23.53215,54112
23.54027,49648
23.54840,51396
23.55652,53966
23.56465,52939
23.57277,54284
23.58088,52066
23.58902,52183
23.59713,52614
23.60525,52175
23.61338,58882
23.62150,58214
23.62963,50901
23.63775,51243
23.64587,57769
23.65400,54134
23.66212,52927
23.67025,53678
23.67837,52850
23.68648,57054
23.69462,55703
23.70273,55683
23.71085,54551
23.71898,59208
23.72710,58924
23.73523,58702
23.74335,87095
23.75147,172789
23.75960,402774
23.76772,926535
23.77585,2048473
23.78397,3488116
23.79208,4837567
23.80022,5336523
23.80833,4816725
23.81647,4018649
23.82458,3004284
23.83270,2004110
23.84083,1423073
23.84895,1075347
23.85707,860482
23.86520,714117
23.87332,658958
23.88145,675367
23.88957,776429
23.89768,895516
23.90582,953876
23.91393,992489
23.92207,897513
23.93018,756588
23.93830,624850
23.94643,508219
23.95455,435082
23.96267,369257
23.97080,317173
23.97892,281859
23.98705,264985
23.99517,246087
24.00328,228125
24.01142,222104
24.01953,217863
24.02767,207509
24.03578,209066
24.04390,218638
24.05203,207754
24.06015,201654
24.06828,186460
24.07640,180452
24.08452,172402
24.09265,159200
24.10077,148402
24.10888,143019
24.11702,143599
24.12513,142088
24.13327,148279
24.14138,155732
24.14950,161434
24.15763,159918
24.16575,151732
24.17388,136705
24.18200,137841
24.19012,131831
24.19825,128359
24.20637,138595
24.21450,140987
24.22262,142935
24.23073,144566
24.23887,153199
24.24698,143464
24.25510,135427
24.26323,131649
24.27135,123612
24.27948,115630
24.28760,106215
24.29572,104204
24.30385,106908
24.31197,103024
24.32010,98690
24.32822,98444
24.33633,99059
24.34447,98216
24.35258,101730
24.36070,98169
24.36883,98554
24.37695,99815
24.38508,107167
24.39320,121164
24.40132,150966
24.40945,204871
24.41757,288517
24.42570,424696
24.43382,556217
24.44193,675571
24.45007,678969
24.45818,617133
24.46632,516144
24.47443,432465
24.48255,359395
24.49068,293152
24.49880,247844
24.50692,230029
24.51505,233915
24.52317,208425
24.53130,208081
24.53942,184183
24.54753,173213
24.55567,154528
24.56378,144225
24.57192,137207
24.58003,123036
24.58815,125718
24.59628,122023
24.60440,114040
24.61253,111584
24.62065,107063
24.62877,117359
24.63690,111673
24.64502,104615
24.65313,105316
24.66127,108973
24.66938,110792
24.67752,110569
24.68563,109222
24.69375,103467
24.70188,101826
24.71000,95263
24.71813,92379
24.72625,83546
24.73437,86011
24.74250,88539
24.75062,86069
24.75873,90452
24.76687,86315
24.77498,85056
24.78312,87956
24.79123,87243
24.79935,86691
24.80748,79445
24.81560,79098
24.82373,78726
24.83185,77914
24.83997,75188
24.84810,78887
24.85622,75491
24.86435,76572
24.87247,77985
24.88058,75995
24.88872,78181
24.89683,79186
24.90495,77921
24.91308,75498
24.92120,74733
24.92933,75368
24.93745,72223
24.94557,78541
24.95370,74364
24.96182,75746
24.96995,71638
24.97807,67453
24.98618,73089
24.99432,68810
25.00243,64717
25.01055,63434
25.01868,61474
25.02680,63973
25.03493,67803
25.04305,63312
25.05117,65347
25.05930,65271
25.06742,67368
25.07555,65596
25.08367,65912
25.09178,62881
25.09992,67221
25.10803,67994
25.11617,66198
25.12428,66985
25.13240,74378
25.14053,85866
25.14865,91074
25.15677,104813
25.16490,107572
25.17302,109352
25.18115,102342
25.18927,98664
25.19738,96255
25.20552,88687
25.21363,83046
25.22177,75622
25.22988,73892
25.23800,70695
25.24613,71513
25.25425,72460
25.26238,70934
25.27050,71357
25.27862,68220
25.28675,72501
25.29487,74410
25.30298,73041
25.31112,77266
25.31923,71568
25.32737,75283
25.33548,66396
25.34360,73975
25.35173,71192
25.35985,72581
25.36798,64628
25.37610,64182
25.38422,67044
25.39235,62697
25.40047,69371
25.40858,64557
25.41672,65096
25.42483,58315
25.43297,65639
25.44108,61332
25.44920,63839
25.45733,67310
25.46545,65511
25.47358,72330
25.48170,76375
25.48982,78529
25.49795,74679
25.50607,71931
25.51420,68690
25.52232,68394
25.53043,66902
25.53857,68432
25.54668,61022
25.55480,65766
25.56293,60329
25.57105,59672
25.57918,60178
25.58730,66228
25.59542,62872
25.60355,58710
25.61167,61880
25.61980,57169
25.62792,56631
25.63603,58406
25.64417,59972
25.65228,55927
25.66042,60593
25.66853,61184
25.67665,60152
25.68478,58650
25.69290,57223
25.70102,55272
25.70915,59383
25.71727,56733
25.72540,59744
25.73352,54052
25.74163,54563
25.74977,54271
25.75788,51550
25.76602,58010
25.77413,51634
25.78225,50990
25.79038,51587
25.79850,60207
25.80662,56071
25.81475,57427
25.82287,56091
25.83100,53711
25.83912,55074
25.84723,60160
25.85537,60329
25.86348,60379
25.87162,54336
25.87973,56662
25.88785,55822
25.89598,56852
25.90410,53366
25.91223,57033
25.92035,56392
25.92847,55816
25.93660,52769
25.94472,52148
25.95283,55501
25.96097,56509
25.96908,53920
25.97722,53263
25.98533,56352
25.99345,55731
26.00158,53521
26.00970,56953
26.01783,52885
26.02595,49480
26.03407,54539
26.04220,52080
26.05032,53180
26.05843,53118
26.06657,54031
26.07468,52245
26.08282,56604
26.09093,53419
26.09905,53265
26.10718,54629
26.11530,56399
26.12343,52123
26.13155,55519
26.13967,52039
26.14780,54229
26.15592,55902
26.16405,57099
26.17217,55182
26.18028,56658
26.18842,51724
26.19653,53195
26.20465,51279
26.21278,51079
26.22090,53496
26.22903,53348
26.23715,54236
26.24527,50445
26.25340,55561
26.26152,55575
26.26965,59118
26.27777,56842
26.28588,58685
26.29402,60161
26.30213,56843
26.31027,55125
26.31838,54431
26.32650,53387
26.33463,51144
26.34275,52878
26.35087,55357
26.35900,52834
26.36712,50496
26.37525,46431
26.38337,49529
26.39148,53520
26.39962,55361
26.40773,52139
26.41587,54180
26.42398,51827
26.43210,53801
26.44023,54738
26.44835,52980
26.45647,49954
26.46460,50549
26.47272,53784
26.48085,52593
26.48897,56883
26.49708,50227
26.50522,54923
26.51333,50264
26.52147,51460
26.52958,49506
26.53770,50695
26.54583,50294
26.55395,51110
26.56208,53432
26.57020,51761
26.57832,48094
26.58645,50207
26.59457,52103
26.60268,51951
26.61082,51875
26.61893,49805
26.62707,47509
26.63518,48892
26.64330,52963
26.65143,50268
26.65955,48894
26.66768,55815
26.67580,51044
26.68392,51199
26.69205,53648
26.70017,49886
26.70830,50935
26.71642,56467
26.72453,50768
26.73267,50523
26.74078,51806
26.74890,53065
26.75703,53825
26.76515,53610
26.77328,51271
26.78140,55331
26.78952,48005
26.79765,55397
26.80577,51179
26.81390,57290
26.82202,56157
26.83013,53647
26.83827,56149
26.84638,52758
26.85450,58943
26.86263,58649
26.87075,58425
26.87888,61182
26.88700,61793
26.89512,58366
26.90325,59382
26.91137,57821
26.91950,59878
26.92762,58206
26.93573,55932
26.94387,59653
26.95198,60108
26.96012,69349
26.96823,93903
26.97635,142857
26.98448,240782
26.99260,427976
27.00072,712861
27.00885,1110359
27.01697,1615860
27.02510,2024803
27.03322,2190330
27.04133,2162702
27.04947,1874242
27.05758,1540625
27.06572,1282531
27.07383,1037438
27.08195,815774
27.09008,646965
27.09820,533979
27.10633,438024
27.11445,366464
27.12257,313835
27.13070,289260
27.13882,257989
27.14693,237445
27.15507,215316
27.16318,202068
27.17132,183498
27.17943,180763
27.18755,169430
27.19568,161982
27.20380,158496
27.21193,150570
27.22005,151717
27.22817,145457
27.23630,151363
27.24442,166749
27.25253,178441
27.26067,214156
27.26878,240373
27.27692,270219
27.28503,273735
27.29315,271913
27.30128,262559
27.30940,238236
27.31753,224471
27.32565,194035
27.33377,172137
27.34190,158802
27.35002,154284
27.35815,129833
27.36627,133590
27.37438,122365
27.38252,121207
27.39063,111359
27.39875,114230
27.40688,114717
27.41500,106989
27.42313,103155
27.43125,102026
27.43937,93546
27.44750,92033
27.45562,95672
27.46375,95279
27.47187,94321
27.47998,84287
27.48812,84560
27.49623,85484
27.50435,85606
27.51248,84985
27.52060,88553
27.52873,91082
27.53685,87401
27.54497,95558
27.55310,92921
27.56122,88629
27.56935,81596
27.57747,78808
27.58558,79897
27.59372,82075
27.60183,78047
27.60997,78667
27.61808,83699
27.62620,82181
27.63433,81947
27.64245,85010
27.65057,72432
27.65870,77979
27.66682,76992
27.67495,75627
27.68307,69066
27.69118,68931
27.69932,64195
27.70743,68721
27.71557,68778
27.72368,72745
27.73180,73395
27.73993,66078
27.74805,69946
27.75618,69757
27.76430,68932
27.77242,71211
27.78055,72196
27.78867,66145
27.79678,68816
27.80492,69405
27.81303,65088
27.82117,67915
27.82928,66046
27.83740,65452
27.84553,63974
27.85365,65167
27.86178,63642
27.86990,70393
27.87802,60529
27.88615,66268
27.89427,63645
27.90238,62758
27.91052,65342
27.91863,60706
27.92677,59209
27.93488,61593
27.94300,62294
27.95113,63651
27.95925,61952
27.96738,65270
27.97550,61360
27.98362,62782
27.99175,58042
27.99987,59172
28.00800,59259
28.01612,60228
28.02423,56596
28.03237,59680
28.04048,58266
28.04860,58128
28.05673,63881
28.06485,58181
28.07298,59527
28.08110,54986
28.08922,54325
28.09735,57220
28.10547,60651
28.11360,58741
28.12172,51863
28.12983,58012
28.13797,53607
28.14608,56606
28.15422,56087
28.16233,56118
28.17045,57384
28.17858,61927
28.18670,64887
28.19482,64911
28.20295,71857
28.21107,74301
28.21920,77163
28.22732,78354
28.23543,82145
28.24357,75065
28.25168,70720
28.25982,65102
28.26793,67230
28.27605,65088
28.28418,66673
28.29230,78420
28.30042,84543
28.30855,109388
28.31667,143032
28.32480,198999
28.33292,282879
28.34103,386672
28.34917,464541
28.35728,559574
28.36542,625738
28.37353,687514
28.38165,734666
28.38978,723697
28.39790,704712
28.40603,649694
28.41415,606327
28.42227,556029
28.43040,474768
28.43852,421100
28.44663,379918
28.45477,336239
28.46288,294680
28.47102,260179
28.47913,252310
28.48725,233350
28.49538,220811
28.50350,211458
28.51163,206348
28.51975,204361
28.52787,209584
28.53600,199554
28.54412,205870
28.55223,199701
28.56037,191724
28.56848,191998
28.57662,186402
28.58473,177773
28.59285,165743
28.60098,163938
28.60910,160696
28.61723,147879
28.62535,140146
28.63347,140805
28.64160,139331
28.64972,132425
28.65785,126890
28.66597,123407
28.67408,118785
28.68222,119885
28.69033,119477
28.69845,111529
28.70658,114101
28.71470,102612
28.72283,110981
28.73095,103627
28.73907,103946
28.74720,101881
28.75532,98208
28.76345,104788
28.77157,105426
28.77968,116308
28.78782,114899
28.79593,113312
28.80407,114865
28.81218,101737
28.82030,95374
28.82843,93005
28.83655,93326
28.84467,90665
28.85280,84646
28.86092,84278
28.86905,85478
28.87717,88022
28.88528,82796
28.89342,84885
28.90153,80412
28.90967,86281
28.91778,82331
28.92590,81176
28.93403,79755
28.94215,81840
28.95028,80173
28.95840,76472
28.96652,83989
28.97465,87862
28.98277,81051
28.99088,80484
28.99902,77756
29.00713,77245
29.01527,76749
29.02338,78395
29.03150,73910
29.03963,74688
29.04775,73476
29.05588,78289
29.06400,75593
29.07212,69263
29.08025,74596
29.08837,69852
29.09648,74254
29.10462,74074
29.11273,70371
29.12087,73239
29.12898,67440
29.13710,69718
29.14523,69295
29.15335,65077
29.16148,67736
29.16960,66343
29.17772,65724
29.18585,64491
29.19397,67562
29.20210,68404
29.21022,69660
29.21833,69339
29.22647,66199
29.23458,65004
29.24270,65619
29.25083,71021
29.25895,68013
29.26708,70265
29.27520,76460
29.28332,79047
29.29145,75342
29.29957,74081
29.30770,74335
29.31582,71207
29.32393,75553
29.33207,68953
29.34018,68380
29.34830,67986
29.35643,65988
29.36455,69320
29.37268,67426
29.38080,67944
29.38892,67314
29.39705,64714
29.40517,69771
29.41330,65159
29.42142,70156
29.42953,67051
29.43767,66627
29.44578,58076
29.45392,65417
29.46203,63297
29.47015,67424
29.47828,68214
29.48640,69030
29.49452,69889
29.50265,71336
29.51077,71940
29.51890,74250
29.52702,72500
29.53513,68794
29.54327,69893
29.55138,62291
29.55952,68099
29.56763,59434
29.57575,59908
29.58388,63770
29.59200,61752
29.60013,70010
29.60825,58439
29.61637,63598
29.62450,59969
29.63262,62500
29.64073,59545
29.64887,61469
29.65698,61470
29.66512,59791
29.67323,57083
29.68135,58883
29.68948,59432
29.69760,55210
29.70573,59493
29.71385,55049
29.72197,60858
29.73010,60686
29.73822,62210
29.74633,60364
29.75447,57468
29.76258,58459
29.77072,57029
29.77883,59895
29.78695,53180
29.79508,56317
29.80320,56912
29.81133,60322
29.81945,57861
29.82757,54222
29.83570,54541
29.84382,56299
29.85195,59569
29.86007,57199
29.86818,53439
29.87632,59657
29.88443,61726
29.89255,69385
29.90068,66223
29.90880,67562
29.91693,71823
29.92505,72679
29.93317,74325
29.94130,77275
29.94942,85671
29.95755,97763
29.96567,109848
29.97378,132880
29.98192,155610
29.99003,183929
29.99817,207917
30.00628,252125
30.01440,267655
30.02253,296844
30.03065,310164
30.03877,316736
30.04690,315798
30.05502,334306
30.06315,338643
30.07127,321998
30.07938,308903
30.08752,301741
30.09563,285507
30.10377,275947
30.11188,262449
30.12000,240760
30.12813,230217
30.13625,219597
30.14437,212585
30.15250,202016
30.16062,188930
30.16875,189015
30.17687,167635
30.18498,155481
30.19312,150727
30.20123,144717
30.20937,142632
30.21748,137224
30.22560,133466
30.23373,128854
30.24185,123125
30.24998,110983
30.25810,112049
30.26622,108506
30.27435,96760
30.28247,103652
30.29058,101971
30.29872,97578
30.30683,95110
30.31497,91395
30.32308,91369
30.33120,92929
30.33933,92056
30.34745,89888
30.35558,88288
30.36370,84397
30.37182,87975
30.37995,87926
30.38807,80985
30.39618,82448
30.40432,79920
30.41243,74721
30.42057,76600
30.42868,71037
30.43680,73521
30.44493,76265
30.45305,78965
30.46118,74572
30.46930,73809
30.47742,72231
30.48555,79342
30.49367,70889
30.50180,66842
30.50992,67601
30.51803,66719
30.52617,66573
30.53428,65483
30.54240,64517
30.55053,66254
30.55865,66483
30.56678,60738
30.57490,60406
30.58302,65516
30.59115,63172
30.59927,65728
30.60740,63635
30.61552,60744
30.62363,65287
30.63177,60121
30.63988,63603
30.64802,59366
30.65613,61063
30.66425,59115
30.67238,62105
30.68050,61220
30.68862,58769
30.69675,61831
30.70487,61352
30.71300,58408
30.72112,58613
30.72923,58350
30.73737,61944
30.74548,57387
30.75362,58981
30.76173,59322
30.76985,58135
30.77798,54409
30.78610,60808
30.79422,59387
30.80235,68431
30.81047,72306
30.81860,73788
30.82672,76341
30.83483,67654
30.84297,65991
30.85108,68885
30.85922,65289
30.86733,59394
30.87545,64875
30.88358,62168
30.89170,64907
30.89983,64221
30.90795,59936
30.91607,59102
30.92420,58193
30.93232,55764
30.94043,60537
30.94857,58455
30.95668,59525
30.96482,60566
30.97293,59727
30.98105,55729
30.98918,56458
30.99730,60730
31.00543,54080
31.01355,58443
31.02167,53518
31.02980,57022
31.03792,53181
31.04605,60174
31.05417,57185
31.06228,58014
31.07042,63380
31.07853,60570
31.08665,63564
31.09478,66624
31.10290,74779
31.11103,74617
31.11915,76526
31.12727,73631
31.13540,72470
31.14352,66438
31.15165,63169
31.15977,64466
31.16788,61586
31.17602,62683
31.18413,65928
31.19225,72214
31.20038,79741
31.20850,92524
31.21663,93192
31.22475,103092
31.23287,107343
31.24100,103880
31.24912,105769
31.25725,96538
31.26537,82698
31.27348,79903
31.28162,71737
31.28973,68452
31.29787,71508
31.30598,67763
31.31410,63900
31.32223,60505
31.33035,59869
31.33847,58192
31.34660,64168
31.35472,58131
31.36285,63690
31.37097,59651
31.37908,62275
31.38722,68661
31.39533,65184
31.40347,65375
31.41158,73302
31.41970,62347
31.42783,62685
31.43595,63898
31.44408,65014
31.45220,67305
31.46032,57459
31.46845,59123
31.47657,63922
31.48468,60298
31.49282,60928
31.50093,58929
31.50907,62192
31.51718,59360
31.52530,59002
31.53343,58190
31.54155,58595
31.54968,60884
31.55780,62697
31.56592,57653
31.57405,57392
31.58217,52093
31.59028,54509
31.59842,54967
31.60653,57662
31.61467,60366
31.62278,55274
31.63090,58404
31.63903,57757
31.64715,58441
31.65528,58766
31.66340,60307
31.67152,54682
31.67965,59424
31.68777,56949
31.69590,53311
31.70402,55701
31.71213,54985
31.72027,56687
31.72838,52815
31.73650,53251
31.74463,54715
31.75275,55046
31.76088,54036
31.76900,53062
31.77712,57468
31.78525,57620
31.79337,51394
31.80150,53364
31.80962,54538
31.81773,58704
31.82587,60034
31.83398,52550
31.84210,58625
31.85023,55183
31.85835,56855
31.86648,57660
31.87460,57580
31.88272,58830
31.89085,63263
31.89897,66528
31.90710,72773
31.91522,88070
31.92333,100062
31.93147,118881
31.93958,135894
31.94772,154890
31.95583,176602
31.96395,198025
31.97208,205092
31.98020,219280
31.98832,222140
31.99645,224822
32.00457,221825
32.01270,219605
32.02082,207786
32.02893,201348
32.03707,189218
32.04518,186145
32.05332,166977
32.06143,158952
32.06955,153717
32.07768,152411
32.08580,149756
32.09393,147180
32.10205,136105
32.11017,122648
32.11830,124745
32.12642,110994
32.13453,106315
32.14267,102607
32.15078,96786
32.15892,89345
32.16703,89712
32.17515,85581
32.18328,86051
32.19140,83836
32.19953,81961
32.20765,81648
32.21577,87132
32.22390,82506
32.23202,80678
32.24013,75874
32.24827,74663
32.25638,72391
32.26452,74437
32.27263,71601
32.28075,73136
32.28888,77099
32.29700,79875
32.30513,70252
32.31325,71849
32.32137,66781
32.32950,72360
32.33762,70480
32.34575,67468
32.35387,70877
32.36198,66561
32.37012,72039
32.37823,67645
32.38635,66801
32.39448,59667
32.40260,62560
32.41073,60996
32.41885,61078
32.42697,66527
32.43510,63872
32.44322,62265
32.45135,63486
32.45947,60825
32.46758,62319
32.47572,65374
32.48383,57957
32.49197,57489
32.50008,59026
32.50820,61399
32.51633,61262
32.52445,58322
32.53257,57962
32.54070,59005
32.54882,56707
32.55695,61541
32.56507,59707
32.57318,60695
32.58132,58105
32.58943,61315
32.59757,58574
32.60568,55344
32.61380,56003
32.62193,56476
32.63005,55070
32.63817,59539
32.64630,59562
32.65442,61502
32.66255,62530
32.67067,72179
32.67878,71512
32.68692,69195
32.69503,71636
32.70317,78017
32.71128,66457
32.71940,67326
32.72753,63817
32.73565,63902
32.74378,62793
32.75190,57323
32.76002,62042
32.76815,64924
32.77627,55375
32.78438,60058
32.79252,53150
32.80063,61489
32.80877,64033
32.81688,60592
32.82500,58036
32.83313,52460
32.84125,56322
32.84938,55281
32.85750,59744
32.86562,55865
32.87375,58044
32.88187,50336
32.88998,55525
32.89812,57728
32.90623,54381
32.91437,59712
32.92248,52574
32.93060,56055
32.93873,59847
32.94685,57369
32.95498,53199
32.96310,56649
32.97122,55399
32.97935,54779
32.98747,53883
32.99560,55369
33.00372,55670
33.01183,57530
33.01997,57365
33.02808,58548
33.03620,61190
33.04433,55984
33.05245,58898
33.06058,56124
33.06870,55015
33.07682,57338
33.08495,55702
33.09307,55990
33.10120,60724
33.10932,62184
33.11743,66504
33.12557,67995
33.13368,66420
33.14182,74864
33.14993,66035
33.15805,63747
33.16618,57876
33.17430,57551
33.18242,56356
33.19055,59290
33.19867,61336
33.20680,60615
33.21492,67118
33.22303,62624
33.23117,57940
33.23928,62425
33.24742,63363
33.25553,62882
33.26365,62992
33.27178,59625
33.27990,54941
33.28802,59729
33.29615,63002
33.30427,56987
33.31240,56307
33.32052,60458
33.32863,56402
33.33677,57489
33.34488,58293
33.35302,52358
33.36113,53213
33.36925,58410
33.37738,56153
33.38550,53567
33.39363,56147
33.40175,52050
33.40987,57086
33.41800,56026
33.42612,56402
33.43423,56111
33.44237,56587
33.45048,56620
33.45862,55059
33.46673,54804
33.47485,52244
33.48298,56757
33.49110,57016
33.49923,55269
33.50735,56984
33.51547,55199
33.52360,54787
33.53172,60083
33.53985,56508
33.54797,54469
33.55608,55991
33.56422,56776
33.57233,55074
33.58045,53782
33.58858,53659
33.59670,53262
33.60483,54385
33.61295,53613
33.62107,52790
33.62920,55389
33.63732,55062
33.64545,51180
33.65357,54202
33.66168,57184
33.66982,52220
33.67793,53859
33.68605,56190
33.69418,54446
33.70230,57598
33.71043,55859
33.71855,52078
33.72667,55341
33.73480,56312
33.74292,55398
33.75105,58707
33.75917,58281
33.76728,56301
33.77542,54924
33.78353,54119
33.79167,55261
33.79978,52593
33.80790,51849
33.81603,53501
33.82415,54887
33.83227,56350
33.84040,58373
33.84852,60231
33.85665,59547
33.86477,59344
33.87288,63279
33.88102,58831
33.88913,63975
33.89727,57453
33.90538,63036
33.91350,59731
33.92163,63573
33.92975,62622
33.93787,55670
33.94600,57132
33.95412,57609
33.96225,57921
33.97037,58758
33.97848,57210
33.98662,56603
33.99473,54625
34.00287,56973
34.01098,53999
34.01910,60274
34.02723,54140
34.03535,56988
34.04348,54752
34.05160,56976
34.05972,56394
34.06785,56566
34.07597,52487
34.08408,53115
34.09222,59731
34.10033,54460
34.10847,53997
34.11658,52892
34.12470,52969
34.13283,59098
34.14095,58442
34.14908,59696
34.15720,53549
34.16532,61037
34.17345,52506
34.18157,54412
34.18970,57389
34.19782,53670
34.20593,59392
34.21407,56213
34.22218,61374
34.23030,56001
34.23843,57563
34.24655,55628
34.25468,55915
34.26280,56354
34.27092,57531
34.27905,57492
34.28717,55929
34.29530,56392
34.30342,52726
34.31153,53477
34.31967,57596
34.32778,55416
34.33592,56431
34.34403,56266
34.35215,63592
34.36028,55910
34.36840,50389
34.37652,55372
34.38465,54299
34.39277,57293
34.40090,53108
34.40902,57693
34.41713,55506
34.42527,57292
34.43338,58198
34.44152,55938
34.44963,52482
34.45775,52337
34.46588,56131
34.47400,54636
34.48212,58867
34.49025,60061
34.49837,57361
34.50650,57013
34.51462,65910
34.52273,76892
34.53087,101124
34.53898,113915
34.54712,136876
34.55523,149036
34.56335,164838
34.57148,173223
34.57960,169875
34.58773,164767
34.59585,152514
34.60397,140884
34.61210,133468
34.62022,129512
34.62833,110740
34.63647,107123
34.64458,107803
34.65272,98484
34.66083,89412
34.66895,92978
34.67708,91464
34.68520,87788
34.69333,84873
34.70145,83783
34.70957,81223
34.71770,83469
34.72582,79058
34.73393,75903
34.74207,76821
34.75018,79378
34.75832,72975
34.76643,72657
34.77455,69347
34.78268,74947
34.79080,72206
34.79893,71412
34.80705,74467
34.81517,67819
34.82330,69285
34.83142,67768
34.83955,70845
34.84767,70481
34.85578,67051
34.86392,66115
34.87203,67942
34.88015,66836
34.88828,66988
34.89640,67176
34.90453,67768
34.91265,71277
34.92077,73965
34.92890,69236
34.93702,70624
34.94515,70171
34.95327,66696
34.96138,71037
34.96952,74815
34.97763,73449
34.98577,70703
34.99388,70563
35.00200,68429
35.01013,69177
35.01825,67371
35.02637,65200
35.03450,63006
35.04262,67543
35.05075,67756
35.05887,67511
35.06698,69517
35.07512,71834
35.08323,72654
35.09137,65714
35.09948,69398
35.10760,66414
35.11573,64056
35.12385,66042
35.13197,64367
35.14010,64663
35.14822,65605
35.15635,69996
35.16447,67072
35.17258,67938
35.18072,70841
35.18883,63326
35.19697,67337
35.20508,66586
35.21320,64548
35.22133,63936
35.22945,60540
35.23758,58238
35.24570,64460
35.25382,63494
35.26195,60122
35.27007,67134
35.27818,67559
35.28632,64873
35.29443,66838
35.30257,66415
35.31068,69814
35.31880,70033
35.32693,63507
35.33505,61545
35.34318,63193
35.35130,64907
35.35942,65886
35.36755,61355
35.37567,62567
35.38380,66873
35.39192,66427
35.40003,68434
35.40817,68425
35.41628,68719
35.42440,69066
35.43253,72784
35.44065,67721
35.44878,71268
35.45690,66595
35.46502,69566
35.47315,72067
35.48127,69904
35.48940,69785
35.49752,71855
35.50563,67605
35.51377,73103
35.52188,67569
35.53000,66610
35.53813,65691
35.54625,63160
35.55438,66509
35.56250,63651
35.57062,66860
35.57875,66904
35.58687,69090
35.59500,66859
35.60312,70938
35.61123,69216
35.61937,69086
35.62748,62698
35.63562,67964
35.64373,67730
35.65185,64775
35.65998,68312
35.66810,63043
35.67622,75281
35.68435,72957
35.69247,73706
35.70060,78402
35.70872,75051
35.71683,71297
35.72497,71534
35.73308,70549
35.74122,71540
35.74933,70537
35.75745,77969
35.76558,71092
35.77370,68187
35.78182,70898
35.78995,69159
35.79807,75474
35.80620,73980
35.81432,72433
35.82243,77766
35.83057,78677
35.83868,82839
35.84682,79276
35.85493,81965
35.86305,81173
35.87118,80656
35.87930,83628
35.88743,80625
35.89555,80632
35.90367,85020
35.91180,78298
35.91992,80457
35.92803,76910
35.93617,76860
35.94428,76540
35.95242,75229
35.96053,75690
35.96865,73369
35.97678,73259
35.98490,77945
35.99303,69188
36.00115,68922
36.00927,72779
36.01740,68342
36.02552,78913
36.03365,75228
36.04177,66825
36.04988,68732
36.05802,69113
36.06613,68132
36.07425,69425
36.08238,68850
36.09050,68041
36.09863,67426
36.10675,69242
36.11487,67739
36.12300,60643
36.13112,65199
36.13925,68321
36.14737,66147
36.15548,66791
36.16362,69866
36.17173,67107
36.17985,67398
36.18798,64689
36.19610,64129
36.20423,71220
36.21235,65630
36.22047,64114
36.22860,66540
36.23672,68630
36.24485,66712
36.25297,65319
36.26108,68993
36.26922,66785
36.27733,66887
36.28547,67562
36.29358,68126
36.30170,67576
36.30983,74434
36.31795,74886
36.32607,77159
36.33420,78758
36.34232,78638
36.35045,74171
36.35857,74744
36.36668,72762
36.37482,67558
36.38293,70377
36.39107,68714
36.39918,67388
36.40730,67262
36.41543,62122
36.42355,66927
36.43168,70512
36.43980,71149
36.44792,70607
36.45605,71446
36.46417,68458
36.47228,67990
36.48042,67197
36.48853,65783
36.49667,70507
36.50478,69293
36.51290,67910
36.52103,74725
36.52915,68226
36.53728,68370
36.54540,66384
36.55352,66904
36.56165,67140
36.56977,68945
36.57788,68401
36.58602,59696
36.59413,66332
36.60227,70324
36.61038,67729
36.61850,64443
36.62663,67484
36.63475,63980
36.64288,71889
36.65100,73905
36.65912,69294
36.66725,72562
36.67537,78677
36.68350,76528
36.69162,74853
36.69973,69721
36.70787,72713
36.71598,76438
36.72410,67834
36.73223,69269
36.74035,65068
36.74848,66414
36.75660,65025
36.76472,76494
36.77285,69990
36.78097,68641
36.78910,69286
36.79722,72451
36.80533,70444
36.81347,71592
36.82158,71458
36.82972,67717
36.83783,69230
36.84595,66539
36.85408,73321
36.86220,69613
36.87032,73982
36.87845,70850
36.88657,67683
36.89470,75386
36.90282,68152
36.91093,70458
36.91907,70458
36.92718,70908
36.93532,71141
36.94343,67317
36.95155,68128
36.95968,70108
36.96780,71639
36.97592,72261
36.98405,70988
36.99217,73126
37.00030,74044
37.00842,70434
37.01653,72266
37.02467,71464
37.03278,68749
37.04092,73837
37.04903,68581
37.05715,70445
37.06528,69565
37.07340,70488
37.08153,69785
37.08965,69925
37.09777,72735
37.10590,72734
37.11402,76885
37.12213,72124
37.13027,74334
37.13838,79613
37.14652,72598
37.15463,76597
37.16275,72419
37.17088,77086
37.17900,77947
37.18713,72531
37.19525,72434
37.20337,75063
37.21150,76291
37.21962,73816
37.22773,76939
37.23587,74359
37.24398,75349
37.25212,75815
37.26023,74674
37.26835,71193
37.27648,71924
37.28460,77598
37.29273,71508
37.30085,73153
37.30897,75972
37.31710,78268
37.32522,79893
37.33335,82820
37.34147,97541
37.34958,107874
37.35772,120871
37.36583,122025
37.37395,135544
37.38208,137592
37.39020,130994
37.39833,117897
37.40645,114234
37.41457,115913
37.42270,109226
37.43082,97887
37.43895,101367
37.44707,94237
37.45518,103406
37.46332,99850
37.47143,93212
37.47957,93777
37.48768,96809
