C:\MassHunter\GCMS\1\data\JTB-E02\BACandBLUE\JTB-E18-021-12.D Wed Jul 10 14:25:58 2019
Start of data points
2.09528,43666
2.10340,43774
2.11152,42784
2.11965,43443
2.12777,39463
2.13590,46533
2.14402,48499
2.15213,40919
2.16027,43461
2.16838,43255
2.17652,40226
2.18463,40916
2.19275,39674
2.20088,40195
2.20900,48771
2.21712,41235
2.22525,34317
2.23337,34495
2.24150,39002
2.24962,35883
2.25773,42433
2.26587,57161
2.27398,464253
2.28212,1477235
2.29023,920232
2.29835,338432
2.30648,224123
2.31460,184840
2.32273,169033
2.33085,168260
2.33897,299308
2.34710,211574
2.35522,142864
2.36333,124390
2.37147,110304
2.37958,108812
2.38772,99416
2.39583,100367
2.40395,92169
2.41208,92651
2.42020,87232
2.42833,97558
2.43645,89447
2.44457,84899
2.45270,84881
2.46082,79415
2.46893,75000
2.47707,73504
2.48518,73264
2.49332,116089
2.50143,138688
2.50955,96325
2.51768,88883
2.52580,80503
2.53393,80551
2.54205,79310
2.55017,78253
2.55830,107981
2.56642,151465
2.57455,116304
2.58267,89567
2.59078,86677
2.59892,85072
2.60703,210020
2.61515,591841
2.62328,528107
2.63140,286415
2.63953,181931
2.64765,150982
2.65577,124474
2.66390,108056
2.67202,101469
2.68015,95708
2.68827,85702
2.69638,83581
2.70452,81504
2.71263,77492
2.72075,76318
2.72888,77020
2.73700,72817
2.74513,71873
2.75325,70015
2.76137,65436
2.76950,67678
2.77762,82301
2.78575,169934
2.79387,259556
2.80198,167989
2.81012,123863
2.81823,132751
2.82637,144308
2.83448,151852
2.84260,139473
2.85073,113837
2.85885,95062
2.86697,91040
2.87510,83884
2.88322,76209
2.89135,77150
2.89947,76561
2.90758,74716
2.91572,73558
2.92383,68291
2.93197,69879
2.94008,71579
2.94820,68045
2.95633,65310
2.96445,75662
2.97258,80757
2.98070,73347
2.98882,69062
2.99695,71271
3.00507,69736
3.01318,65383
3.02132,65670
3.02943,65834
3.03757,64351
3.04568,63585
3.05380,65496
3.06193,78282
3.07005,80116
3.07818,92524
3.08630,305633
3.09442,996311
3.10255,2009122
3.11067,3631197
3.11878,3808949
3.12692,2320514
3.13503,1459686
3.14317,1129831
3.15128,912701
3.15940,719726
3.16753,642365
3.17565,608420
3.18378,672656
3.19190,1234408
3.20002,1858491
3.20815,1529448
3.21627,1045154
3.22440,803381
3.23252,677209
3.24063,577148
3.24877,508639
3.25688,436808
3.26500,398645
3.27313,360086
3.28125,342165
3.28938,436206
3.29750,1105090
3.30562,2706082
3.31375,4292418
3.32187,4203273
3.33000,3124792
3.33812,2185793
3.34623,1683711
3.35437,1414132
3.36248,1195874
3.37062,1032530
3.37873,924602
3.38685,828499
3.39498,774717
3.40310,702258
3.41122,662224
3.41935,624513
3.42747,585941
3.43560,578483
3.44372,550379
3.45183,517077
3.45997,490807
3.46808,479885
3.47622,473138
3.48433,466918
3.49245,440605
3.50058,446619
3.50870,405374
3.51682,396126
3.52495,381720
3.53307,380364
3.54120,388665
3.54932,385159
3.55743,374790
3.56557,352945
3.57368,380334
3.58182,397108
3.58993,370818
3.59805,347787
3.60618,344219
3.61430,334093
3.62243,345321
3.63055,350565
3.63867,379342
3.64680,390627
3.65492,363897
3.66303,538045
3.67117,1864615
3.67928,5152284
3.68742,6979143
3.69553,5187200
3.70365,3034486
3.71178,2118806
3.71990,1694630
3.72803,1438035
3.73615,1263712
3.74427,1137864
3.75240,1018538
3.76052,961405
3.76863,886434
3.77677,848537
3.78488,782215
3.79302,745964
3.80113,789643
3.80925,1208949
3.81738,1957340
3.82550,2130853
3.83363,1653054
3.84175,1195106
3.84987,999449
3.85800,875019
3.86612,797595
3.87425,735136
3.88237,690052
3.89048,650492
3.89862,616393
3.90673,606975
3.91485,606467
3.92298,721549
3.93110,877640
3.93923,884040
3.94735,837047
3.95547,1127126
3.96360,2008664
3.97172,2717526
3.97985,2345069
3.98797,1610151
3.99608,1571375
4.00422,3689244
4.01233,8202267
4.02047,1.144154E+07
4.02858,9421293
4.03670,5572100
4.04483,3182515
4.05295,2135568
4.06107,1622547
4.06920,1335362
4.07732,1124528
4.08545,972021
4.09357,876219
4.10168,792697
4.10982,718358
4.11793,676435
4.12607,617853
4.13418,643844
4.14230,721605
4.15043,908615
4.15855,959562
4.16668,836934
4.17480,683191
4.18292,635859
4.19105,574225
4.19917,549375
4.20728,815094
4.21542,2743215
4.22353,8208900
4.23167,1.536021E+07
4.23978,1.903685E+07
4.24790,1.679213E+07
4.25603,1.059097E+07
4.26415,6427315
4.27228,4476927
4.28040,3412071
4.28852,2666534
4.29665,2188147
4.30477,1848373
4.31288,1612667
4.32102,1432213
4.32913,1290613
4.33727,1184580
4.34538,1103700
4.35350,1064215
4.36163,1050181
4.36975,989416
4.37788,937929
4.38600,872753
4.39412,803164
4.40225,760679
4.41037,726224
4.41850,693690
4.42662,671319
4.43473,638443
4.44287,615770
4.45098,591614
4.45910,576135
4.46723,554636
4.47535,537648
4.48348,526744
4.49160,525178
4.49972,518457
4.50785,484325
4.51597,466770
4.52410,467282
4.53222,455401
4.54033,445167
4.54847,449541
4.55658,428355
4.56470,413922
4.57283,412979
4.58095,404142
4.58908,391521
4.59720,370504
4.60532,368379
4.61345,376397
4.62157,402384
4.62970,515398
4.63782,721561
4.64593,908857
4.65407,874103
4.66218,697746
4.67032,539382
4.67843,469864
4.68655,434379
4.69468,409048
4.70280,383893
4.71092,358588
4.71905,346593
4.72717,341527
4.73530,334951
4.74342,320863
4.75153,309251
4.75967,307762
4.76778,300607
4.77592,299131
4.78403,288342
4.79215,320931
4.80028,394230
4.80840,463327
4.81653,479540
4.82465,433666
4.83277,408678
4.84090,401542
4.84902,412185
4.85713,402771
4.86527,373292
4.87338,343276
4.88152,328958
4.88963,313703
4.89775,306509
4.90588,293138
4.91400,284796
4.92213,291643
4.93025,332549
4.93837,515877
4.94650,967426
4.95462,1666967
4.96273,2252738
4.97087,2366362
4.97898,2049500
4.98712,1554440
4.99523,1204919
5.00335,984086
5.01148,849687
5.01960,778115
5.02773,860098
5.03585,1180303
5.04397,1503009
5.05210,1526379
5.06022,1267132
5.06835,1040048
5.07647,888779
5.08458,812699
5.09272,733132
5.10083,680225
5.10895,637503
5.11708,614549
5.12520,579585
5.13333,557829
5.14145,529776
5.14957,530336
5.15770,559907
5.16582,581729
5.17395,615730
5.18207,587174
5.19018,545866
5.19832,547771
5.20643,558224
5.21457,576927
5.22268,557062
5.23080,538057
5.23893,527204
5.24705,503268
5.25517,470213
5.26330,434786
5.27142,405357
5.27955,377545
5.28767,368107
5.29578,359723
5.30392,348798
5.31203,353762
5.32017,348336
5.32828,362448
5.33640,385775
5.34453,391265
5.35265,385747
5.36077,365887
5.36890,335161
5.37702,327604
5.38515,334672
5.39327,340042
5.40138,340171
5.40952,346070
5.41763,336922
5.42577,317501
5.43388,310611
5.44200,315099
5.45013,328090
5.45825,319451
5.46638,314535
5.47450,298279
5.48262,291817
5.49075,277817
5.49887,277488
5.50698,287556
5.51512,286447
5.52323,288041
5.53137,290954
5.53948,290989
5.54760,269878
5.55573,276316
5.56385,294449
5.57198,330301
5.58010,330584
5.58822,332772
5.59635,294652
5.60447,278459
5.61258,265057
5.62072,269640
5.62883,271284
5.63697,276411
5.64508,269280
5.65320,273902
5.66133,268652
5.66945,272060
5.67758,289974
5.68570,340233
5.69382,379770
5.70195,375457
5.71007,346212
5.71820,296839
5.72632,273016
5.73443,266124
5.74257,259479
5.75068,255517
5.75880,243125
5.76693,242277
5.77505,235121
5.78318,236056
5.79130,234480
5.79942,230332
5.80755,226044
5.81567,225015
5.82380,228915
5.83192,231193
5.84003,230505
5.84817,233784
5.85628,229178
5.86442,227277
5.87253,222842
5.88065,220886
5.88878,206184
5.89690,216782
5.90502,195602
5.91315,181261
5.92127,158541
5.92940,161466
5.93752,168101
5.94563,174086
5.95377,199519
5.96188,219627
5.97002,249298
5.97813,280617
5.98625,329045
5.99438,342355
6.00250,314253
6.01062,271671
6.01875,233143
6.02687,204145
6.03500,195156
6.04312,185862
6.05123,174099
6.05937,167549
6.06748,157831
6.07562,151977
6.08373,152730
6.09185,148913
6.09998,144511
6.10810,149352
6.11623,153539
6.12435,189726
6.13247,269725
6.14060,425233
6.14872,552800
6.15683,560922
6.16497,460849
6.17308,338583
6.18122,284984
6.18933,248470
6.19745,229423
6.20558,231447
6.21370,216074
6.22183,200438
6.22995,204868
6.23807,201027
6.24620,197673
6.25432,199250
6.26245,203174
6.27057,199252
6.27868,200931
6.28682,196880
6.29493,191283
6.30305,197719
6.31118,198901
6.31930,202398
6.32743,202453
6.33555,207870
6.34367,220916
6.35180,213376
6.35992,202463
6.36805,198454
6.37617,199467
6.38428,191771
6.39242,198789
6.40053,197319
6.40865,195175
6.41678,192538
6.42490,195374
6.43303,190178
6.44115,187424
6.44927,191976
6.45740,194817
6.46552,191825
6.47365,196656
6.48177,194610
6.48988,192786
6.49802,195748
6.50613,200283
6.51427,198242
6.52238,200683
6.53050,198701
6.53863,204658
6.54675,201146
6.55487,203134
6.56300,209357
6.57112,222406
6.57925,241925
6.58737,259404
6.59548,245197
6.60362,233046
6.61173,220216
6.61987,215739
6.62798,212218
6.63610,205337
6.64423,209602
6.65235,222688
6.66048,247030
6.66860,281397
6.67672,303012
6.68485,291922
6.69297,265926
6.70108,233962
6.70922,230979
6.71733,231833
6.72547,225436
6.73358,228421
6.74170,222310
6.74983,225299
6.75795,230056
6.76608,224662
6.77420,227134
6.78232,229298
6.79045,237580
6.79857,235318
6.80668,225657
6.81482,196994
6.82293,174434
6.83107,170658
6.83918,172924
6.84730,184586
6.85543,195909
6.86355,193682
6.87168,175894
6.87980,145875
6.88792,126832
6.89605,107136
6.90417,105710
6.91230,103317
6.92042,101052
6.92853,100024
6.93667,94060
6.94478,91099
6.95290,97377
6.96103,102915
6.96915,112878
6.97728,125972
6.98540,139363
6.99352,132293
7.00165,120153
7.00977,100844
7.01790,99241
7.02602,99476
7.03413,92837
7.04227,96654
7.05038,86637
7.05850,90988
7.06663,83544
7.07475,85484
7.08288,82816
7.09100,81888
7.09912,84138
7.10725,77986
7.11537,74976
7.12350,78851
7.13162,76147
7.13973,80864
7.14787,96175
7.15598,118826
7.16412,142021
7.17223,141616
7.18035,132701
7.18848,113839
7.19660,96524
7.20472,87006
7.21285,88668
7.22097,97125
7.22910,168836
7.23722,410467
7.24533,916040
7.25347,1542200
7.26158,1839531
7.26972,1536144
7.27783,1036540
7.28595,625756
7.29408,410028
7.30220,328458
7.31033,301051
7.31845,259314
7.32657,198538
7.33470,144278
7.34282,111953
7.35093,99966
7.35907,96211
7.36718,94045
7.37532,97851
7.38343,95520
7.39155,101877
7.39968,96691
7.40780,95753
7.41593,88949
7.42405,91293
7.43217,86092
7.44030,86914
7.44842,90596
7.45653,88835
7.46467,88123
7.47278,89278
7.48092,80727
7.48903,78914
7.49715,80914
7.50528,95514
7.51340,123708
7.52153,184715
7.52965,259575
7.53777,331190
7.54590,394311
7.55402,384455
7.56215,340350
7.57027,264113
7.57838,200141
7.58652,149447
7.59463,124504
7.60275,103234
7.61088,95577
7.61900,96375
7.62713,86533
7.63525,82515
7.64337,81933
7.65150,81229
7.65962,75609
7.66775,75506
7.67587,69902
7.68398,73615
7.69212,71940
7.70023,70687
7.70837,74607
7.71648,71887
7.72460,70368
7.73273,71402
7.74085,73256
7.74897,73080
7.75710,76494
7.76522,75805
7.77335,72890
7.78147,73033
7.78958,77818
7.79772,89248
7.80583,95895
7.81397,90832
7.82208,91322
7.83020,81305
7.83833,79705
7.84645,76850
7.85457,80698
7.86270,84037
7.87082,91695
7.87895,101661
7.88707,98489
7.89518,95836
7.90332,81748
7.91143,78055
7.91957,73773
7.92768,90700
7.93580,114796
7.94393,137829
7.95205,154178
7.96018,138876
7.96830,115135
7.97642,102930
7.98455,91625
7.99267,81947
8.00078,74883
8.00892,70446
8.01703,64937
8.02517,63870
8.03328,67531
8.04140,67961
8.04953,61502
8.05765,64450
8.06578,65893
8.07390,57905
8.08202,62847
8.09015,59976
8.09827,60586
8.10638,63064
8.11452,58676
8.12263,66913
8.13077,68957
8.13888,83409
8.14700,91165
8.15513,104943
8.16325,104072
8.17138,92002
8.17950,82258
8.18762,71644
8.19575,67720
8.20387,60363
8.21200,66246
8.22012,65899
8.22823,64208
8.23637,64610
8.24448,59529
8.25260,59500
8.26073,59685
8.26885,60424
8.27698,61254
8.28510,62437
8.29322,60234
8.30135,64095
8.30947,64763
8.31760,70832
8.32572,63239
8.33383,62617
8.34197,56835
8.35008,55811
8.35822,57092
8.36633,56730
8.37445,55767
8.38258,61150
8.39070,61325
8.39882,55119
8.40695,56275
8.41507,55161
8.42320,51247
8.43132,54795
8.43943,52297
8.44757,54586
8.45568,52775
8.46382,53042
8.47193,55087
8.48005,52040
8.48818,50760
8.49630,49555
8.50442,52242
8.51255,48613
8.52067,52959
8.52880,60332
8.53692,89248
8.54503,150420
8.55317,253582
8.56128,352258
8.56942,376720
8.57753,321610
8.58565,230217
8.59378,170106
8.60190,128319
8.61003,97898
8.61815,84596
8.62627,77889
8.63440,72184
8.64252,67667
8.65063,64808
8.65877,62693
8.66688,66557
8.67502,64771
8.68313,63240
8.69125,66652
8.69938,67042
8.70750,64178
8.71563,64745
8.72375,59550
8.73187,69803
8.74000,98918
8.74812,187362
8.75625,379415
8.76437,646301
8.77248,878203
8.78062,949891
8.78873,814432
8.79685,602483
8.80498,413436
8.81310,294546
8.82123,222743
8.82935,191049
8.83747,164428
8.84560,177330
8.85372,174643
8.86185,187126
8.86997,176993
8.87808,175022
8.88622,167882
8.89433,160249
8.90245,154881
8.91058,144528
8.91870,144980
8.92683,139385
8.93495,149523
8.94307,161220
8.95120,166974
8.95932,170769
8.96745,176970
8.97557,162274
8.98368,157393
8.99182,137822
8.99993,138612
9.00807,129431
9.01618,119446
9.02430,118984
9.03243,114085
9.04055,114104
9.04867,109875
9.05680,108864
9.06492,104719
9.07305,105273
9.08117,105861
9.08928,114662
9.09742,126720
9.10553,132871
9.11367,152061
9.12178,147267
9.12990,144714
9.13803,129658
9.14615,122584
9.15428,110632
9.16240,114489
9.17052,106806
9.17865,101570
9.18677,101338
9.19488,91035
9.20302,93872
9.21113,92348
9.21927,94485
9.22738,95233
9.23550,93325
9.24363,87815
9.25175,94487
9.25988,87993
9.26800,91475
9.27612,88426
9.28425,89289
9.29237,87871
9.30048,92841
9.30862,94220
9.31673,87478
9.32487,82937
9.33298,81308
9.34110,80800
9.34923,79642
9.35735,83049
9.36548,83893
9.37360,80729
9.38172,85984
9.38985,83990
9.39797,86382
9.40610,97619
9.41422,108572
9.42233,119310
9.43047,131157
9.43858,139344
9.44670,131533
9.45483,112503
9.46295,97924
9.47108,94342
9.47920,93674
9.48732,82058
9.49545,86039
9.50357,95395
9.51170,99610
9.51982,107132
9.52793,111638
9.53607,103609
9.54418,93931
9.55232,78587
9.56043,79883
9.56855,85912
9.57668,105551
9.58480,127027
9.59292,133978
9.60105,121144
9.60917,100558
9.61730,81513
9.62542,66465
9.63353,55329
9.64167,53382
9.64978,52399
9.65792,57545
9.66603,50897
9.67415,48298
9.68228,48546
9.69040,50595
9.69852,46505
9.70665,46917
9.71477,45966
9.72290,47907
9.73102,47690
9.73913,46544
9.74727,45568
9.75538,45770
9.76352,47936
9.77163,44883
9.77975,43565
9.78788,42647
9.79600,41833
9.80413,46725
9.81225,43268
9.82037,47388
9.82850,45417
9.83662,42055
9.84473,41649
9.85287,45920
9.86098,44600
9.86912,49480
9.87723,52660
9.88535,50014
9.89348,46622
9.90160,50742
9.90973,50249
9.91785,53148
9.92597,61961
9.93410,71781
9.94222,82142
9.95033,95952
9.95847,105480
9.96658,99598
9.97472,92047
9.98283,83868
9.99095,73708
9.99908,69605
10.00720,72557
10.01533,62958
10.02345,62998
10.03157,55660
10.03970,51181
10.04782,52788
10.05595,49785
10.06407,51054
10.07218,50330
10.08032,51636
10.08843,52388
10.09655,52816
10.10468,54428
10.11280,51851
10.12093,50221
10.12905,50949
10.13717,50493
10.14530,53809
10.15342,48059
10.16155,53009
10.16967,47116
10.17778,46985
10.18592,48067
10.19403,46778
10.20217,48480
10.21028,48767
10.21840,50214
10.22653,52614
10.23465,57400
10.24277,61052
10.25090,61818
10.25902,79047
10.26715,139882
10.27527,316799
10.28338,738434
10.29152,1415488
10.29963,2336073
10.30777,3268851
10.31588,4482871
10.32400,6694698
10.33213,9513858
10.34025,1.16618E+07
10.34837,1.203256E+07
10.35650,9643350
10.36462,6113502
10.37275,3333656
10.38087,1794639
10.38898,1061614
10.39712,734918
10.40523,532250
10.41337,447889
10.42148,379064
10.42960,327068
10.43773,300198
10.44585,276233
10.45398,261762
10.46210,257840
10.47022,246247
10.47835,227684
10.48647,211387
10.49458,199905
10.50272,187410
10.51083,181871
10.51897,170107
10.52708,180649
10.53520,187293
10.54333,188431
10.55145,181179
10.55958,168183
10.56770,160824
10.57582,153121
10.58395,149952
10.59207,141129
10.60020,131276
10.60832,127316
10.61643,124828
10.62457,116449
10.63268,116212
10.64080,108484
10.64893,102053
10.65705,101280
10.66518,100739
10.67330,103627
10.68142,101190
10.68955,95983
10.69767,90702
10.70580,92639
10.71392,96371
10.72203,91810
10.73017,100269
10.73828,96280
10.74640,94697
10.75453,96790
10.76265,89306
10.77078,80821
10.77890,81688
10.78702,76197
10.79515,82386
10.80327,83645
10.81140,84430
10.81952,84117
10.82763,81015
10.83577,72604
10.84388,72380
10.85202,68852
10.86013,68266
10.86825,64033
10.87638,66523
10.88450,66389
10.89262,63017
10.90075,64026
10.90887,64959
10.91700,66875
10.92512,67979
10.93323,62117
10.94137,63104
10.94948,63794
10.95762,62634
10.96573,61244
10.97385,66842
10.98198,62388
10.99010,58387
10.99823,60275
11.00635,61502
11.01447,61111
11.02260,57967
11.03072,54978
11.03883,58320
11.04697,54655
11.05508,55156
11.06322,53146
11.07133,60801
11.07945,61272
11.08758,65345
11.09570,59553
11.10383,56166
11.11195,53088
11.12007,50726
11.12820,49874
11.13632,50112
11.14443,47752
11.15257,50555
11.16068,49728
11.16882,53455
11.17693,52330
11.18505,53104
11.19318,51449
11.20130,52185
11.20943,53225
11.21755,48938
11.22567,44578
11.23380,42806
11.24192,42356
11.25005,43919
11.25817,40388
11.26628,44854
11.27442,41993
11.28253,49919
11.29065,57381
11.29878,75383
11.30690,117880
11.31503,200090
11.32315,313623
11.33127,446502
11.33940,536664
11.34752,526117
11.35565,450082
11.36377,336065
11.37188,237120
11.38002,157097
11.38813,117855
11.39625,97114
11.40438,91955
11.41250,94818
11.42063,90898
11.42875,87698
11.43687,89450
11.44500,85598
11.45312,79062
11.46125,76611
11.46937,80037
11.47748,95246
11.48562,121155
11.49373,141145
11.50187,157573
11.50998,161588
11.51810,140707
11.52623,122885
11.53435,104331
11.54247,96972
11.55060,92263
11.55872,91001
11.56685,90732
11.57497,91934
11.58308,78880
11.59122,81446
11.59933,88280
11.60747,109791
11.61558,139461
11.62370,148591
11.63183,149172
11.63995,127004
11.64808,108992
11.65620,86509
11.66432,74347
11.67245,68436
11.68057,66847
11.68868,67832
11.69682,61459
11.70493,67669
11.71307,64574
11.72118,59992
11.72930,64120
11.73743,54323
11.74555,56132
11.75368,52408
11.76180,51036
11.76992,53669
11.77805,53813
11.78617,51802
11.79428,54520
11.80242,51948
11.81053,51176
11.81867,52726
11.82678,53484
11.83490,48727
11.84303,55816
11.85115,49463
11.85928,48112
11.86740,45753
11.87552,44888
11.88365,42391
11.89177,45816
11.89990,42675
11.90802,44115
11.91613,45679
11.92427,50022
11.93238,53122
11.94050,56313
11.94863,53405
11.95675,53390
11.96488,52681
11.97300,48630
11.98112,51210
11.98925,67279
11.99737,95016
12.00550,116619
12.01362,141236
12.02173,150344
12.02987,131189
12.03798,106433
12.04612,88607
12.05423,68344
12.06235,56239
12.07048,59886
12.07860,58525
12.08672,55067
12.09485,59015
12.10297,57818
12.11110,57365
12.11922,66265
12.12733,64225
12.13547,63418
12.14358,60290
12.15172,54506
12.15983,51155
12.16795,52058
12.17608,48914
12.18420,48386
12.19232,48453
12.20045,46629
12.20857,45919
12.21670,49292
12.22482,47358
12.23293,49493
12.24107,44486
12.24918,45324
12.25732,45807
12.26543,44779
12.27355,42820
12.28168,41677
12.28980,44157
12.29793,42101
12.30605,39118
12.31417,42584
12.32230,42846
12.33042,42332
12.33853,44704
12.34667,42994
12.35478,41549
12.36292,40567
12.37103,45219
12.37915,44578
12.38728,40908
12.39540,44503
12.40353,51256
12.41165,60643
12.41977,71306
12.42790,81726
12.43602,85812
12.44413,76746
12.45227,71144
12.46038,61511
12.46852,55861
12.47663,59471
12.48475,51430
12.49288,49144
12.50100,50399
12.50913,50630
12.51725,52865
12.52537,56092
12.53350,81100
12.54162,125889
12.54975,258691
12.55787,484385
12.56598,740608
12.57412,904642
12.58223,828483
12.59035,620433
12.59848,390903
12.60660,244196
12.61473,162062
12.62285,121190
12.63097,99543
12.63910,94658
12.64722,82087
12.65535,73966
12.66347,78226
12.67158,64505
12.67972,66006
12.68783,63661
12.69597,63424
12.70408,57877
12.71220,64097
12.72033,63430
12.72845,68039
12.73657,68218
12.74470,67200
12.75282,68519
12.76095,58497
12.76907,57776
12.77718,53321
12.78532,49004
12.79343,46576
12.80157,48507
12.80968,49239
12.81780,45008
12.82593,45722
12.83405,48895
12.84217,45182
12.85030,45168
12.85842,45007
12.86655,44253
12.87467,43888
12.88278,43621
12.89092,42829
12.89903,42843
12.90717,40898
12.91528,41438
12.92340,41341
12.93153,41940
12.93965,41432
12.94778,42160
12.95590,44351
12.96402,50398
12.97215,64317
12.98027,78445
12.98838,88612
12.99652,87839
13.00463,84668
13.01277,73495
13.02088,57221
13.02900,51086
13.03713,51040
13.04525,44615
13.05338,46493
13.06150,45131
13.06962,46434
13.07775,46140
13.08587,45404
13.09400,43889
13.10212,46238
13.11023,43722
13.11837,39808
13.12648,39110
13.13460,42556
13.14273,43483
13.15085,44436
13.15898,42927
13.16710,43506
13.17522,47688
13.18335,44666
13.19147,49695
13.19960,48195
13.20772,53202
13.21583,56064
13.22397,47961
13.23208,48229
13.24020,45339
13.24833,43608
13.25645,42513
13.26458,40379
13.27270,43513
13.28082,40130
13.28895,41258
13.29707,39765
13.30520,40618
13.31332,37311
13.32143,37617
13.32957,37762
13.33768,35766
13.34582,34404
13.35393,39074
13.36205,34015
13.37018,37669
13.37830,35456
13.38642,37884
13.39455,34523
13.40267,36797
13.41080,37979
13.41892,35494
13.42703,32441
13.43517,34045
13.44328,34376
13.45142,35080
13.45953,33101
13.46765,37288
13.47578,35168
13.48390,32786
13.49202,35625
13.50015,37472
13.50827,33883
13.51640,34811
13.52452,35173
13.53263,35959
13.54077,35637
13.54888,32406
13.55702,35030
13.56513,38866
13.57325,34646
13.58138,43150
13.58950,45699
13.59763,52880
13.60575,80306
13.61387,114475
13.62200,157973
13.63012,180471
13.63823,162713
13.64637,133710
13.65448,96800
13.66262,74986
13.67073,58753
13.67885,48664
13.68698,46106
13.69510,45474
13.70323,44593
13.71135,40405
13.71947,44006
13.72760,53979
13.73572,72933
13.74385,131435
13.75197,283427
13.76008,575382
13.76822,1003613
13.77633,1502644
13.78445,1629274
13.79258,1507001
13.80070,1187858
13.80883,858715
13.81695,661321
13.82507,545314
13.83320,492204
13.84132,464528
13.84945,411308
13.85757,338960
13.86568,280221
13.87382,236100
13.88193,204325
13.89007,181517
13.89818,164219
13.90630,158865
13.91443,143061
13.92255,136522
13.93067,121582
13.93880,125811
13.94692,121047
13.95505,119724
13.96317,118128
13.97128,115877
13.97942,119717
13.98753,128788
13.99567,117744
14.00378,110095
14.01190,107593
14.02003,104312
14.02815,99741
14.03627,96720
14.04440,89249
14.05252,94604
14.06065,92234
14.06877,85987
14.07688,82430
14.08502,82149
14.09313,78114
14.10127,82353
14.10938,75407
14.11750,76765
14.12563,79105
14.13375,76561
14.14188,83131
14.15000,82229
14.15812,89631
14.16625,101123
14.17437,122337
14.18248,166250
14.19062,218413
14.19873,248793
14.20687,248069
14.21498,240455
14.22310,207350
14.23123,187950
14.23935,170465
14.24748,163516
14.25560,156627
14.26372,142444
14.27185,131739
14.27997,119997
14.28808,111079
14.29622,104880
14.30433,97244
14.31247,97209
14.32058,88723
14.32870,84829
14.33683,78181
14.34495,73562
14.35308,70110
14.36120,64554
14.36932,57880
14.37745,57135
14.38557,68407
14.39370,88464
14.40182,144436
14.40993,251405
14.41807,390996
14.42618,478012
14.43430,485705
14.44243,391053
14.45055,266900
14.45868,183461
14.46680,138397
14.47492,111353
14.48305,92768
14.49117,85926
14.49930,84220
14.50742,79413
14.51553,76179
14.52367,74077
14.53178,74592
14.53992,68459
14.54803,63725
14.55615,63749
14.56428,60252
14.57240,54190
14.58052,55037
14.58865,55763
14.59677,52959
14.60490,53724
14.61302,55397
14.62113,51169
14.62927,50795
14.63738,51213
14.64552,50224
14.65363,47102
14.66175,48502
14.66988,50752
14.67800,49148
14.68612,49050
14.69425,49296
14.70237,48715
14.71050,48176
14.71862,50185
14.72673,45569
14.73487,45373
14.74298,47427
14.75112,53738
14.75923,58133
14.76735,50807
14.77548,51657
14.78360,67830
14.79173,108996
14.79985,231901
14.80797,553562
14.81610,1152434
14.82422,1916190
14.83233,2469401
14.84047,2579444
14.84858,2216253
14.85672,1635026
14.86483,1042780
14.87295,671878
14.88108,440137
14.88920,339558
14.89733,253135
14.90545,218982
14.91357,194296
14.92170,180762
14.92982,166781
14.93795,149283
14.94607,144830
14.95418,128643
14.96232,128008
14.97043,127073
14.97855,123062
14.98668,116999
14.99480,114530
15.00293,113367
15.01105,98392
15.01917,96035
15.02730,91346
15.03542,88596
15.04355,89204
15.05167,82715
15.05978,85299
15.06792,81476
15.07603,79866
15.08415,76353
15.09228,74751
15.10040,73823
15.10853,72035
15.11665,76068
15.12477,75383
15.13290,79346
15.14102,85284
15.14915,84266
15.15727,81750
15.16538,81644
15.17352,75152
15.18163,61187
15.18977,60921
15.19788,57855
15.20600,52289
15.21413,54569
15.22225,50287
15.23037,48406
15.23850,46098
15.24662,46871
15.25475,49621
15.26287,43586
15.27098,44973
15.27912,43772
15.28723,40916
15.29537,45640
15.30348,43147
15.31160,44109
15.31973,43515
15.32785,43827
15.33597,48415
15.34410,42596
15.35222,41559
15.36035,38783
15.36847,43796
15.37658,46024
15.38472,45718
15.39283,52632
15.40097,51467
15.40908,55092
15.41720,58329
15.42533,64854
15.43345,54131
15.44158,52971
15.44970,53424
15.45782,52580
15.46595,56395
15.47407,67742
15.48218,81909
15.49032,102275
15.49843,120777
15.50657,128908
15.51468,117589
15.52280,109668
15.53093,96396
15.53905,89533
15.54718,81069
15.55530,74720
15.56342,68882
15.57155,60545
15.57967,56298
15.58780,49986
15.59592,51848
15.60403,48319
15.61217,43235
15.62028,45417
15.62840,43082
15.63653,44987
15.64465,45066
15.65278,40642
15.66090,43208
15.66902,44151
15.67715,43965
15.68527,41912
15.69340,40841
15.70152,41114
15.70963,42427
15.71777,43956
15.72588,47305
15.73400,47738
15.74213,48203
15.75025,55984
15.75838,73549
15.76650,111418
15.77462,169552
15.78275,236056
15.79087,290548
15.79900,284233
15.80712,248352
15.81523,187884
15.82337,132195
15.83148,103646
15.83962,82756
15.84773,77598
15.85585,70465
15.86398,68081
15.87210,59686
15.88022,59161
15.88835,59651
15.89647,61906
15.90460,58366
15.91272,57999
15.92083,53116
15.92897,54294
15.93708,54368
15.94522,56256
15.95333,63163
15.96145,77173
15.96958,91051
15.97770,100077
15.98583,101939
15.99395,101991
16.00207,97555
16.01020,80816
16.01832,78439
16.02643,75877
16.03457,72948
16.04268,66864
16.05082,65425
16.05893,62307
16.06705,47903
16.07518,54404
16.08330,51044
16.09143,52236
16.09955,51681
16.10767,44729
16.11580,47688
16.12392,53625
16.13203,54351
16.14017,59814
16.14828,57561
16.15642,60562
16.16453,55231
16.17265,53030
16.18078,51518
16.18890,48986
16.19703,46866
16.20515,47149
16.21327,47017
16.22140,48206
16.22952,49054
16.23765,45418
16.24577,48603
16.25388,43336
16.26202,47200
16.27013,46204
16.27825,45263
16.28638,50639
16.29450,50730
16.30263,50222
16.31075,51932
16.31887,51760
16.32700,46051
16.33512,44744
16.34325,48712
16.35137,56081
16.35948,61732
16.36762,74763
16.37573,83923
16.38387,90022
16.39198,85524
16.40010,79358
16.40823,67440
16.41635,56334
16.42447,52290
16.43260,49645
16.44072,54506
16.44885,61260
16.45697,75776
16.46508,107708
16.47322,143764
16.48133,178032
16.48947,185121
16.49758,168512
16.50570,140176
16.51383,111500
16.52195,86003
16.53007,71909
16.53820,64141
16.54632,58594
16.55445,60759
16.56257,56716
16.57068,58321
16.57882,60820
16.58693,61773
16.59507,67569
16.60318,74776
16.61130,81085
16.61943,82417
16.62755,84625
16.63568,75384
16.64380,64716
16.65192,58487
16.66005,57900
16.66817,53717
16.67628,51286
16.68442,48449
16.69253,47300
16.70067,48738
16.70878,45736
16.71690,48720
16.72503,48000
16.73315,45755
16.74128,43650
16.74940,44639
16.75752,47892
16.76565,51901
16.77377,49185
16.78188,46980
16.79002,47642
16.79813,43305
16.80627,42163
16.81438,41670
16.82250,44097
16.83063,40539
16.83875,36009
16.84688,38186
16.85500,38086
16.86312,39641
16.87125,36599
16.87937,43043
16.88750,39495
16.89562,42632
16.90373,39303
16.91187,39155
16.91998,38207
16.92810,35205
16.93623,37301
16.94435,38308
16.95248,40472
16.96060,35458
16.96872,40786
16.97685,37777
16.98497,37640
16.99310,39132
17.00122,39994
17.00933,40249
17.01747,39674
17.02558,44098
17.03372,44871
17.04183,51352
17.04995,55977
17.05808,64279
17.06620,66082
17.07432,72168
17.08245,75707
17.09057,89916
17.09870,106985
17.10682,128125
17.11493,135067
17.12307,134793
17.13118,124242
17.13932,110719
17.14743,102875
17.15555,99868
17.16368,86838
17.17180,80543
17.17992,69083
17.18805,60278
17.19617,55319
17.20430,52212
17.21242,51696
17.22053,51849
17.22867,46243
17.23678,48870
17.24492,47803
17.25303,50187
17.26115,48957
17.26928,44690
17.27740,42755
17.28553,41206
17.29365,41104
17.30177,46563
17.30990,47426
17.31802,44972
17.32613,56019
17.33427,57671
17.34238,67059
17.35052,65426
17.35863,63951
17.36675,64840
17.37488,64862
17.38300,62308
17.39113,56848
17.39925,55425
17.40737,52190
17.41550,54273
17.42362,55239
17.43175,51258
17.43987,54184
17.44798,52819
17.45612,46557
17.46423,49516
17.47235,46034
17.48048,44842
17.48860,44521
17.49673,45838
17.50485,41502
17.51297,41647
17.52110,43346
17.52922,39874
17.53735,40997
17.54547,44587
17.55358,56819
17.56172,78216
17.56983,122395
17.57795,208169
17.58608,355273
17.59420,572895
17.60233,829443
17.61045,1018995
17.61857,1011721
17.62670,853312
17.63482,651921
17.64295,458674
17.65107,330519
17.65918,255050
17.66732,208617
17.67543,176722
17.68357,159322
17.69168,143356
17.69980,125605
17.70793,115660
17.71605,102181
17.72417,96430
17.73230,90176
17.74042,84264
17.74855,78829
17.75667,76223
17.76478,72382
17.77292,65822
17.78103,69266
17.78917,74096
17.79728,76802
17.80540,90516
17.81353,110806
17.82165,136677
17.82977,148488
17.83790,148772
17.84602,144684
17.85415,125787
17.86227,109123
17.87038,99929
17.87852,88537
17.88663,81106
17.89477,72603
17.90288,69461
17.91100,67670
17.91913,59736
17.92725,60367
17.93538,57080
17.94350,55794
17.95162,52275
17.95975,47863
17.96787,51067
17.97598,52414
17.98412,50871
17.99223,48061
18.00037,48327
18.00848,55864
18.01660,61626
18.02473,72505
18.03285,78855
18.04098,87987
18.04910,89039
18.05722,96542
18.06535,122195
18.07347,168677
18.08160,240781
18.08972,332768
18.09783,388924
18.10597,378419
18.11408,317216
18.12220,256264
18.13033,213085
18.13845,177130
18.14658,161030
18.15470,142996
18.16282,137835
18.17095,122022
18.17907,110069
18.18720,113702
18.19532,106042
18.20343,98963
18.21157,93864
18.21968,90161
18.22780,84521
18.23593,79126
18.24405,77511
18.25218,79310
18.26030,80435
18.26842,73333
18.27655,63896
18.28467,63455
18.29280,56278
18.30092,54325
18.30903,53553
18.31717,60473
18.32528,92452
18.33342,143565
18.34153,201117
18.34965,247036
18.35778,281684
18.36590,289991
18.37402,308861
18.38215,314334
18.39027,332192
18.39840,335709
18.40652,357765
18.41463,392543
18.42277,400716
18.43088,393580
18.43902,393415
18.44713,419839
18.45525,445187
18.46338,499185
18.47150,562163
18.47963,633720
18.48775,658569
18.49587,634291
18.50400,564082
18.51212,490041
18.52023,440901
18.52837,400509
18.53648,354406
18.54462,338371
18.55273,328131
18.56085,315013
18.56898,322704
18.57710,303717
18.58523,305056
18.59335,301632
18.60147,290257
18.60960,296646
18.61772,286122
18.62583,293462
18.63397,289423
18.64208,273547
18.65022,274496
18.65833,272684
18.66645,258234
18.67458,253994
18.68270,258734
18.69083,254538
18.69895,248993
18.70707,242307
18.71520,243325
18.72332,240507
18.73145,240051
18.73957,234692
18.74768,228287
18.75582,227953
18.76393,218563
18.77205,218573
18.78018,215281
18.78830,214890
18.79643,219303
18.80455,217096
18.81267,213115
18.82080,213861
18.82892,213465
18.83705,204823
18.84517,199936
18.85328,203021
18.86142,198182
18.86953,200248
18.87765,192809
18.88578,194800
18.89390,193826
18.90203,199228
18.91015,191936
18.91827,195266
18.92640,184083
18.93452,183958
18.94265,195381
18.95077,193442
18.95888,190338
18.96702,193959
18.97513,185449
18.98327,180818
18.99138,180049
18.99950,178181
19.00763,173713
19.01575,178400
19.02387,170058
19.03200,170817
19.04012,165686
19.04825,165068
19.05637,166338
19.06448,172241
19.07262,181371
19.08073,226410
19.08887,276291
19.09698,332611
19.10510,364190
19.11323,368418
19.12135,340607
19.12948,300383
19.13760,253046
19.14572,220834
19.15385,198421
19.16197,175832
19.17008,176854
19.17822,173760
19.18633,160953
19.19447,158508
19.20258,157625
19.21070,151975
19.21883,147513
19.22695,153568
19.23508,143713
19.24320,142908
19.25132,137246
19.25945,143217
19.26757,139244
19.27570,138846
19.28382,144531
19.29193,146374
19.30007,151596
19.30818,146766
19.31630,147152
19.32443,148237
19.33255,142648
19.34068,141696
19.34880,150039
19.35692,172158
19.36505,197686
19.37317,214127
19.38130,225966
19.38942,209455
19.39753,184266
19.40567,167202
19.41378,147424
19.42190,137461
19.43003,137446
19.43815,127351
19.44628,126959
19.45440,129898
19.46252,128153
19.47065,137176
19.47877,164233
19.48690,196392
19.49502,227386
19.50313,251870
19.51127,242821
19.51938,223825
19.52752,186146
19.53563,160030
19.54375,133162
19.55188,132479
19.56000,121351
19.56812,114119
19.57625,113754
19.58437,114944
19.59250,109973
19.60062,108828
19.60873,100399
19.61687,102612
19.62498,105512
19.63312,114584
19.64123,133461
19.64935,165277
19.65748,197524
19.66560,233008
19.67372,265546
19.68185,288660
19.68997,278073
19.69810,262898
19.70622,238108
19.71433,211779
19.72247,187669
19.73058,165493
19.73872,155611
19.74683,145270
19.75495,132429
19.76308,132990
19.77120,129793
19.77933,131234
19.78745,131611
19.79557,141288
19.80370,138752
19.81182,140370
19.81993,129312
19.82807,124008
19.83618,117251
19.84432,115290
19.85243,129223
19.86055,181044
19.86868,306241
19.87680,564068
19.88493,928292
19.89305,1340575
19.90117,1652576
19.90930,1704578
19.91742,1521972
19.92555,1238055
19.93367,969187
19.94178,728555
19.94992,620661
19.95803,543825
19.96615,494237
19.97428,446003
19.98240,421736
19.99053,393507
19.99865,383087
20.00677,374979
20.01490,355727
20.02302,332476
20.03115,320355
20.03927,287245
20.04738,258849
20.05552,226034
20.06363,200767
20.07175,180463
20.07988,164771
20.08800,164784
20.09613,155610
20.10425,144015
20.11237,141192
20.12050,132814
20.12862,126397
20.13675,120307
20.14487,119366
20.15298,122781
20.16112,133382
20.16923,135520
20.17737,148320
20.18548,154465
20.19360,164431
20.20173,164812
20.20985,161544
20.21797,149159
20.22610,144097
20.23422,137423
20.24235,139207
20.25047,154994
20.25858,179865
20.26672,217093
20.27483,245645
20.28297,250193
20.29108,251079
20.29920,239689
20.30733,208335
20.31545,183010
20.32358,157086
20.33170,142657
20.33982,123834
20.34795,113133
20.35607,107720
20.36418,101394
20.37232,96397
20.38043,90155
20.38857,84611
20.39668,82402
20.40480,81781
20.41293,84652
20.42105,88366
20.42918,93111
20.43730,90802
20.44542,98281
20.45355,98378
20.46167,101360
20.46978,97681
20.47792,87924
20.48603,84874
20.49417,80209
20.50228,80847
20.51040,73452
20.51853,77454
20.52665,80152
20.53478,75692
20.54290,81215
20.55102,75047
20.55915,79188
20.56727,76182
20.57540,74235
20.58352,77471
20.59163,74567
20.59977,78135
20.60788,70647
20.61600,69325
20.62413,70935
20.63225,71250
20.64038,69351
20.64850,78161
20.65662,76193
20.66475,79288
20.67287,79754
20.68100,71963
20.68912,74832
20.69723,66995
20.70537,68361
20.71348,68271
20.72162,66596
20.72973,70434
20.73785,65323
20.74598,74719
20.75410,73346
20.76222,69575
20.77035,81093
20.77847,93543
20.78660,114475
20.79472,152437
20.80283,225409
20.81097,276808
20.81908,343090
20.82722,347122
20.83533,309334
20.84345,244699
20.85158,178320
20.85970,141608
20.86782,120497
20.87595,102234
20.88407,97358
20.89220,90012
20.90032,84077
20.90843,83679
20.91657,84243
20.92468,82003
20.93282,84643
20.94093,84475
20.94905,85292
20.95718,81848
20.96530,78834
20.97343,74542
20.98155,70944
20.98967,77074
20.99780,76559
21.00592,75773
21.01403,70776
21.02217,72693
21.03028,75988
21.03842,75613
21.04653,74561
21.05465,69401
21.06278,71771
21.07090,67850
21.07903,67925
21.08715,68716
21.09527,69491
21.10340,70645
21.11152,66298
21.11963,69372
21.12777,67734
21.13588,74812
21.14402,82450
21.15213,88913
21.16025,99100
21.16838,101860
21.17650,99487
21.18463,94148
21.19275,86384
21.20087,83365
21.20900,74762
21.21712,75483
21.22525,68063
21.23337,71526
21.24148,71755
21.24962,66966
21.25773,72319
21.26585,66900
21.27398,62616
21.28210,59358
21.29023,64750
21.29835,60402
21.30647,56096
21.31460,56981
21.32272,58107
21.33085,57550
21.33897,53239
21.34708,54762
21.35522,55039
21.36333,51076
21.37147,54785
21.37958,50350
21.38770,56042
21.39583,61693
21.40395,57901
21.41207,55832
21.42020,61159
21.42832,61910
21.43645,56568
21.44457,61586
21.45268,55901
21.46082,58085
21.46893,53677
21.47707,52889
21.48518,54311
21.49330,51822
21.50143,51964
21.50955,52280
21.51767,54812
21.52580,53493
21.53392,51898
21.54205,49622
21.55017,52790
21.55828,51422
21.56642,57223
21.57453,56937
21.58267,61552
21.59078,75209
21.59890,77797
21.60703,78805
21.61515,84280
21.62328,84409
21.63140,83655
21.63952,86507
21.64765,92179
21.65577,87671
21.66388,88472
21.67202,94167
21.68013,91528
21.68827,93513
21.69638,92219
21.70450,78129
21.71263,75608
21.72075,69004
21.72888,67631
21.73700,62658
21.74512,61413
21.75325,63772
21.76137,58723
21.76950,58819
21.77762,61699
21.78573,61420
21.79387,60464
21.80198,63629
21.81010,66699
21.81823,72754
21.82635,70967
21.83448,78668
21.84260,71462
21.85072,72296
21.85885,72652
21.86697,65086
21.87510,60156
21.88322,60161
21.89133,60182
21.89947,57267
21.90758,57774
21.91570,59372
21.92383,55391
21.93195,55297
21.94008,50011
21.94820,52018
21.95632,51201
21.96445,48056
21.97257,45215
21.98070,48377
21.98882,45129
21.99693,42902
22.00507,43627
22.01318,48109
22.02132,49190
22.02943,53044
22.03755,60070
22.04568,68504
22.05380,72768
22.06192,77282
22.07005,83273
22.07817,81415
22.08630,82555
22.09442,83762
22.10253,86487
22.11067,83112
22.11878,89596
22.12692,91121
22.13503,84874
22.14315,90503
22.15128,91637
22.15940,92240
22.16752,88383
22.17565,88499
22.18377,88383
22.19190,91337
22.20002,87179
22.20813,92935
22.21627,92098
22.22438,89972
22.23252,89725
22.24063,84908
22.24875,90759
22.25688,83886
22.26500,77262
22.27313,76691
22.28125,72963
22.28937,70890
22.29750,71346
22.30562,67388
22.31373,71135
22.32187,70209
22.32998,66828
22.33812,67928
22.34623,68071
22.35435,61913
22.36248,64375
22.37060,67064
22.37873,62997
22.38685,73796
22.39497,83580
22.40310,99734
22.41122,120624
22.41935,139728
22.42747,140274
22.43558,127274
22.44372,123308
22.45183,98954
22.45995,86581
22.46808,83079
22.47620,86946
22.48433,89127
22.49245,97055
22.50057,103271
22.50870,107312
22.51682,99924
22.52495,92758
22.53307,87833
22.54118,77186
22.54932,72409
22.55743,77278
22.56555,88058
22.57368,99362
22.58180,115238
22.58993,118032
22.59805,126045
22.60617,133293
22.61430,131592
22.62242,138582
22.63055,147952
22.63867,147410
22.64678,149136
22.65492,152472
22.66303,156018
22.67117,154021
22.67928,157475
22.68740,161568
22.69553,164397
22.70365,176318
22.71177,177538
22.71990,186407
22.72802,177344
22.73615,173099
22.74427,173390
22.75238,164554
22.76052,170232
22.76863,162579
22.77677,160056
22.78488,174041
22.79300,187903
22.80113,211783
22.80925,207924
22.81738,215309
22.82550,209837
22.83362,201736
22.84175,187752
22.84987,173014
22.85798,168151
22.86612,169253
22.87423,170776
22.88237,171033
22.89048,182466
22.89860,210599
22.90673,231036
22.91485,268005
22.92298,303249
22.93110,308455
22.93922,292441
22.94735,259378
22.95547,227117
22.96358,197994
22.97172,174941
22.97983,164449
22.98797,151451
22.99608,148207
23.00420,147041
23.01233,135810
23.02045,135401
23.02858,129790
23.03670,123115
23.04482,124475
23.05295,126084
23.06107,122962
23.06920,123923
23.07732,122636
23.08543,119070
23.09357,113903
23.10168,114784
23.10980,112844
23.11793,117657
23.12605,108666
23.13418,110244
23.14230,111226
23.15042,105860
23.15855,104341
23.16667,111120
23.17480,106356
23.18292,109659
23.19103,104470
23.19917,104015
23.20728,103335
23.21540,105558
23.22353,99805
23.23165,100632
23.23978,102557
23.24790,105921
23.25602,109728
23.26415,106745
23.27227,109594
23.28040,105644
23.28852,106886
23.29663,108790
23.30477,101550
23.31288,100978
23.32102,99901
23.32913,105304
23.33725,123572
23.34538,136501
23.35350,176119
23.36162,206944
23.36975,257613
23.37787,299128
23.38600,344451
23.39412,378310
23.40223,410152
23.41037,445239
23.41848,449896
23.42662,432716
23.43473,438210
23.44285,419415
23.45098,405067
23.45910,390792
23.46723,361636
23.47535,344059
23.48347,312160
23.49160,288348
23.49972,279738
23.50783,264384
23.51597,241913
23.52408,230838
23.53222,215376
23.54033,208945
23.54845,209654
23.55658,203238
23.56470,204753
23.57283,217436
23.58095,234007
23.58907,264108
23.59720,300046
23.60532,314504
23.61343,305349
23.62157,278944
23.62968,248320
23.63782,224493
23.64593,206677
23.65405,205763
23.66218,204817
23.67030,203574
23.67843,191430
23.68655,173091
23.69467,151683
23.70280,141794
23.71092,134667
23.71905,121161
23.72717,118803
23.73528,118192
23.74342,143897
23.75153,216740
23.75965,401002
23.76778,745371
23.77590,1299985
23.78403,1931343
23.79215,2458659
23.80027,2575069
23.80840,2385804
23.81652,2028683
23.82465,1631691
23.83277,1305026
23.84088,995209
23.84902,777229
23.85713,617324
23.86527,506481
23.87338,451208
23.88150,408793
23.88963,371150
23.89775,339120
23.90587,316935
23.91400,295767
23.92212,273465
23.93025,258011
23.93837,231330
23.94648,219919
23.95462,207333
23.96273,196549
23.97087,177664
23.97898,184014
23.98710,168568
23.99523,164800
24.00335,175972
24.01147,218969
24.01960,276039
24.02772,336950
24.03585,382918
24.04397,377353
24.05208,324828
24.06022,258251
24.06833,200042
24.07647,162058
24.08458,141488
24.09270,127849
24.10083,123527
24.10895,121413
24.11708,122811
24.12520,122993
24.13332,123729
24.14145,117812
24.14957,119305
24.15768,123545
24.16582,122845
24.17393,118411
24.18207,114646
24.19018,115070
24.19830,114713
24.20643,113253
24.21455,111644
24.22268,107476
24.23080,101966
24.23892,95713
24.24705,92800
24.25517,88768
24.26328,87298
24.27142,87294
24.27953,84977
24.28767,85067
24.29578,84918
24.30390,83164
24.31203,82757
24.32015,84968
24.32828,103525
24.33640,128185
24.34452,156964
24.35265,182194
24.36077,203466
24.36890,233433
24.37702,268517
24.38513,303761
24.39327,328760
24.40138,336820
24.40950,340642
24.41763,331319
24.42575,334554
24.43388,320204
24.44200,334970
24.45012,332800
24.45825,329574
24.46637,345826
24.47450,345072
24.48262,338137
24.49073,353155
24.49887,359131
24.50698,362110
24.51512,368159
24.52323,365781
24.53135,380309
24.53948,379787
24.54760,389361
24.55572,386528
24.56385,394082
24.57197,380838
24.58010,363064
24.58822,350756
24.59633,335840
24.60447,323858
24.61258,315115
24.62072,313688
24.62883,298850
24.63695,282269
24.64508,283613
24.65320,285355
24.66133,287400
24.66945,274176
24.67757,278686
24.68570,266854
24.69382,264054
24.70193,257191
24.71007,258053
24.71818,256964
24.72632,252232
24.73443,246264
24.74255,245527
24.75068,244215
24.75880,245086
24.76693,243985
24.77505,235653
24.78317,232119
24.79130,235798
24.79942,224258
24.80753,225470
24.81567,208826
24.82378,199952
24.83192,186597
24.84003,186153
24.84815,204806
24.85628,253794
24.86440,313845
24.87253,415645
24.88065,529620
24.88877,634975
24.89690,690531
24.90502,643192
24.91315,528642
24.92127,401893
24.92938,295859
24.93752,214037
24.94563,154902
24.95375,132381
24.96188,108849
24.97000,105630
24.97813,89945
24.98625,89460
24.99437,85281
25.00250,87698
25.01062,83576
25.01875,80160
25.02687,79242
25.03498,77386
25.04312,77309
25.05123,78044
25.05935,78154
25.06748,79135
25.07560,83152
25.08373,88796
25.09185,105273
25.09997,148572
25.10810,298284
25.11622,599213
25.12435,1167180
25.13247,1951451
25.14058,2722569
25.14872,3045351
25.15683,3022930
25.16497,2453414
25.17308,1740522
25.18120,1106243
25.18933,662652
25.19745,399550
25.20557,249781
25.21370,184006
25.22182,155758
25.22995,141813
25.23807,159628
25.24618,197381
25.25432,263922
25.26243,362341
25.27057,471039
25.27868,563206
25.28680,589239
25.29493,580258
25.30305,537566
25.31118,494323
25.31930,482963
25.32742,469278
25.33555,453839
25.34367,453800
25.35178,438538
25.35992,444317
25.36803,429098
25.37617,437767
25.38428,430069
25.39240,422738
25.40053,422221
25.40865,431263
25.41678,421651
25.42490,414414
25.43302,410718
25.44115,402201
25.44927,413415
25.45738,412935
25.46552,401833
25.47363,394183
25.48177,396801
25.48988,382098
25.49800,390813
25.50613,377742
25.51425,369778
25.52238,371059
25.53050,361310
25.53862,373711
25.54675,356224
25.55487,350892
25.56300,347418
25.57112,342604
25.57923,347029
25.58737,356190
25.59548,326274
25.60360,328729
25.61173,330204
25.61985,326657
25.62798,327284
25.63610,321123
25.64422,332856
25.65235,318689
25.66047,310810
25.66860,309554
25.67672,299256
25.68483,293785
25.69297,294201
25.70108,287241
25.70922,288997
25.71733,278089
25.72545,289431
25.73358,269165
25.74170,272423
25.74982,270364
25.75795,264868
25.76607,261392
25.77420,261142
25.78232,262757
25.79043,253858
25.79857,254421
25.80668,257502
25.81482,245995
25.82293,250879
25.83105,245508
25.83918,243046
25.84730,243325
25.85542,232097
25.86355,238395
25.87167,234981
25.87980,230987
25.88792,230890
25.89603,218597
25.90417,222126
25.91228,208161
25.92042,211054
25.92853,208125
25.93665,214737
25.94478,203691
25.95290,201527
25.96103,202314
25.96915,197129
25.97727,189334
25.98540,193598
25.99352,191713
26.00163,183105
26.00977,182062
26.01788,183170
26.02602,178443
26.03413,174666
26.04225,174301
26.05038,170917
26.05850,170231
26.06663,179206
26.07475,170520
26.08287,174563
26.09100,170030
26.09912,165670
26.10723,171451
26.11537,166388
26.12348,161397
26.13162,168479
26.13973,159836
26.14785,160431
26.15598,164184
26.16410,161562
26.17223,153989
26.18035,153131
26.18847,155053
26.19660,159909
26.20472,145406
26.21285,145413
26.22097,139025
26.22908,145563
26.23722,141736
26.24533,140592
26.25345,140844
26.26158,136037
26.26970,126932
26.27783,136191
26.28595,133274
26.29407,135126
26.30220,126897
26.31032,120379
26.31845,121337
26.32657,123758
26.33468,120711
26.34282,121609
26.35093,117270
26.35907,123253
26.36718,126125
26.37530,145913
26.38343,150729
26.39155,153120
26.39967,161838
26.40780,167486
26.41592,162721
26.42405,146463
26.43217,144052
26.44028,124672
26.44842,117686
26.45653,118432
26.46467,110699
26.47278,109618
26.48090,112265
26.48903,105995
26.49715,105148
26.50527,105181
26.51340,98821
26.52152,100126
26.52965,99078
26.53777,97076
26.54588,92421
26.55402,90917
26.56213,91717
26.57027,93153
26.57838,89677
26.58650,87779
26.59463,89115
26.60275,88552
26.61088,90572
26.61900,88028
26.62712,88319
26.63525,88713
26.64337,89435
26.65148,86720
26.65962,92218
26.66773,91524
26.67587,94916
26.68398,89294
26.69210,86287
26.70023,83699
26.70835,82296
26.71648,84187
26.72460,77851
26.73272,80507
26.74085,81464
26.74897,81391
26.75710,78643
26.76522,76670
26.77333,78729
26.78147,80744
26.78958,84329
26.79770,83308
26.80583,84260
26.81395,81998
26.82208,87090
26.83020,82130
26.83832,77014
26.84645,76436
26.85457,74371
26.86270,74075
26.87082,74665
26.87893,72290
26.88707,69263
26.89518,70058
26.90330,68231
26.91143,67224
26.91955,68539
26.92768,68951
26.93580,65310
26.94392,66494
26.95205,72564
26.96017,75041
26.96830,80430
26.97642,108382
26.98453,132275
26.99267,183860
27.00078,261631
27.00892,359993
27.01703,447232
27.02515,504365
27.03328,534391
27.04140,529346
27.04952,482113
27.05765,412485
27.06577,356430
27.07390,309915
27.08202,259085
27.09013,223968
27.09827,202830
27.10638,180570
27.11452,167868
27.12263,161110
27.13075,147386
27.13888,143955
27.14700,136392
27.15513,132518
27.16325,124134
27.17137,124801
27.17950,122285
27.18762,123129
27.19573,118056
27.20387,113217
27.21198,113253
27.22012,105637
27.22823,100071
27.23635,103553
27.24448,93841
27.25260,90630
27.26073,86475
27.26885,86050
27.27697,84186
27.28510,84844
27.29322,82843
27.30133,76499
27.30947,77811
27.31758,72206
27.32572,74341
27.33383,72257
27.34195,76163
27.35008,78526
27.35820,76318
27.36633,76900
27.37445,76990
27.38257,81959
27.39070,77204
27.39882,73107
27.40695,70377
27.41507,66779
27.42318,65946
27.43132,66984
27.43943,65425
27.44755,65939
27.45568,65167
27.46380,64544
27.47193,64447
27.48005,67819
27.48817,63076
27.49630,65630
27.50442,64082
27.51255,66683
27.52067,66612
27.52878,66177
27.53692,69304
27.54503,65790
27.55315,64978
27.56128,67591
27.56940,71476
27.57753,72804
27.58565,85695
27.59377,88029
27.60190,92576
27.61002,91075
27.61815,87908
27.62627,78315
27.63438,72600
27.64252,67356
27.65063,59666
27.65877,62283
27.66688,61840
27.67500,62933
27.68313,66148
27.69125,71131
27.69937,64858
27.70750,65996
27.71562,60770
27.72375,62082
27.73187,57890
27.73998,59278
27.74812,55380
27.75623,59622
27.76437,54281
27.77248,58630
27.78060,57351
27.78873,59122
27.79685,58613
27.80498,56059
27.81310,59558
27.82122,57219
27.82935,58367
27.83747,52004
27.84558,56886
27.85372,57914
27.86183,54401
27.86997,52547
27.87808,51223
27.88620,54745
27.89433,51637
27.90245,56725
27.91058,56579
27.91870,55348
27.92682,50122
27.93495,53818
27.94307,55002
27.95118,51892
27.95932,50146
27.96743,50723
27.97557,47714
27.98368,53585
27.99180,51292
27.99993,55311
28.00805,54539
28.01618,60014
28.02430,64989
28.03242,74680
28.04055,76924
28.04867,83723
28.05680,81401
28.06492,81002
28.07303,75169
28.08117,65892
28.08928,61318
28.09740,59787
28.10553,55058
28.11365,56443
28.12178,52945
28.12990,49236
28.13802,49788
28.14615,47852
28.15427,43818
28.16240,47683
28.17052,50604
28.17863,55593
28.18677,63250
28.19488,74234
28.20302,74930
28.21113,90154
28.21925,90744
28.22738,86209
28.23550,88458
28.24362,78270
28.25175,71121
28.25987,63124
28.26800,60186
28.27612,54709
28.28423,55316
28.29237,54062
28.30048,59633
28.30862,67897
28.31673,76459
28.32485,85964
28.33298,96992
28.34110,109157
28.34922,122984
28.35735,142873
28.36547,149383
28.37360,166791
28.38172,172252
28.38983,179743
28.39797,188122
28.40608,190248
28.41422,187881
28.42233,173974
28.43045,166858
28.43858,159849
28.44670,155176
28.45483,139779
28.46295,130549
28.47107,124876
28.47920,119331
28.48732,109972
28.49543,105711
28.50357,105873
28.51168,98378
28.51982,95107
28.52793,92872
28.53605,87358
28.54418,80240
28.55230,77896
28.56043,75965
28.56855,71257
28.57667,74607
28.58480,72750
28.59292,72494
28.60103,74405
28.60917,70812
28.61728,66489
28.62542,69435
28.63353,75705
28.64165,75450
28.64978,69954
28.65790,74051
28.66603,70813
28.67415,70372
28.68227,68451
28.69040,67604
28.69852,61761
28.70665,67571
28.71477,65062
28.72288,63033
28.73102,65487
28.73913,69338
28.74725,77866
28.75538,80293
28.76350,83497
28.77163,80276
28.77975,76419
28.78787,68590
28.79600,69768
28.80412,69617
28.81225,71052
28.82037,67867
28.82848,67098
28.83662,63670
28.84473,60543
28.85287,62835
28.86098,59545
28.86910,60183
28.87723,76467
28.88535,71862
28.89347,81095
28.90160,82410
28.90972,79470
28.91785,76409
28.92597,70991
28.93408,65492
28.94222,66452
28.95033,67365
28.95847,68671
28.96658,62059
28.97470,61780
28.98283,60618
28.99095,56793
28.99907,57871
29.00720,56701
29.01532,54012
29.02345,53692
29.03157,50271
29.03968,54685
29.04782,54857
29.05593,56374
29.06407,57959
29.07218,52091
29.08030,58602
29.08843,61134
29.09655,56984
29.10468,58087
29.11280,58512
29.12092,55792
29.12905,49743
29.13717,53919
29.14528,55387
29.15342,53329
29.16153,51417
29.16967,56018
29.17778,61818
29.18590,68809
29.19403,77404
29.20215,93596
29.21028,110075
29.21840,110256
29.22652,112840
29.23465,103970
29.24277,92790
29.25090,86116
29.25902,82272
29.26713,79319
29.27527,79205
29.28338,71230
29.29150,69182
29.29963,57700
29.30775,58000
29.31588,58074
29.32400,51046
29.33212,51837
29.34025,52277
29.34837,53811
29.35650,51265
29.36462,47080
29.37273,48004
29.38087,50300
29.38898,48690
29.39710,50394
29.40523,50290
29.41335,48601
29.42148,53324
29.42960,52557
29.43772,52210
29.44585,51773
29.45397,56595
29.46210,50320
29.47022,48395
29.47833,46533
29.48647,49618
29.49458,49575
29.50272,53555
29.51083,48697
29.51895,50070
29.52708,47826
29.53520,51618
29.54332,47064
29.55145,48626
29.55957,47770
29.56770,48352
29.57582,45266
29.58393,43480
29.59207,46086
29.60018,43447
29.60832,42740
29.61643,42442
29.62455,47931
29.63268,44138
29.64080,47621
29.64892,44039
29.65705,47094
29.66517,46970
29.67330,48577
29.68142,51444
29.68953,50339
29.69767,57087
29.70578,55207
29.71392,54455
29.72203,48855
29.73015,50218
29.73828,48824
29.74640,47761
29.75453,44142
29.76265,46983
29.77077,44447
29.77890,45643
29.78702,43227
29.79513,45121
29.80327,41977
29.81138,41308
29.81952,43178
29.82763,41311
29.83575,41940
29.84388,41122
29.85200,45659
29.86013,54314
29.86825,65120
29.87637,84563
29.88450,125488
29.89262,149869
29.90075,174114
29.90887,161045
29.91698,148902
29.92512,116131
29.93323,92301
29.94135,75365
29.94948,67229
29.95760,66692
29.96573,67288
29.97385,74068
29.98197,84409
29.99010,90248
29.99822,92713
30.00635,99760
30.01447,102621
30.02258,110199
30.03072,112645
30.03883,111425
30.04697,110685
30.05508,111396
30.06320,110969
30.07133,114034
30.07945,111338
30.08757,108186
30.09570,107806
30.10382,98107
30.11195,100460
30.12007,103702
30.12818,101345
30.13632,92696
30.14443,88646
30.15257,88793
30.16068,85854
30.16880,87745
30.17693,84199
30.18505,79343
30.19317,77224
30.20130,75480
30.20942,73780
30.21755,72508
30.22567,73123
30.23378,63914
30.24192,60284
30.25003,64622
30.25817,61102
30.26628,56856
30.27440,55720
30.28253,56474
30.29065,56259
30.29878,54880
30.30690,52131
30.31502,55321
30.32315,54036
30.33127,57181
30.33938,51080
30.34752,57834
30.35563,55862
30.36377,53186
30.37188,54094
30.38000,52299
30.38813,51770
30.39625,53146
30.40438,51229
30.41250,49931
30.42062,49345
30.42875,46968
30.43687,47930
30.44498,48525
30.45312,45915
30.46123,48520
30.46937,46188
30.47748,44568
30.48560,47932
30.49373,46602
30.50185,50684
30.50998,44318
30.51810,45068
30.52622,44199
30.53435,49782
30.54247,49900
30.55060,47286
30.55872,46767
30.56683,48492
30.57497,45281
30.58308,47847
30.59120,49114
30.59933,48618
30.60745,46944
30.61558,45527
30.62370,45351
30.63182,45264
30.63995,44175
30.64807,44504
30.65620,43012
30.66432,40813
30.67243,40336
30.68057,41556
30.68868,41937
30.69682,43833
30.70493,44690
30.71305,40547
30.72118,41898
30.72930,40024
30.73742,40213
30.74555,42159
30.75367,44094
30.76180,43861
30.76992,50448
30.77803,63274
30.78617,69918
30.79428,97017
30.80242,110841
30.81053,118448
30.81865,118355
30.82678,101085
30.83490,86219
30.84302,72736
30.85115,63000
30.85927,57258
30.86740,50951
30.87552,48168
30.88363,47141
30.89177,47085
30.89988,48375
30.90802,44109
30.91613,47324
30.92425,44985
30.93238,40848
30.94050,45511
30.94863,44645
30.95675,39026
30.96487,41658
30.97300,44647
30.98112,45052
30.98923,44114
30.99737,50107
31.00548,52238
31.01362,56236
31.02173,53464
31.02985,54026
31.03798,58667
31.04610,58099
31.05423,63370
31.06235,62576
31.07047,60898
31.07860,64966
31.08672,71183
31.09485,77589
31.10297,76537
31.11108,81932
31.11922,80096
31.12733,74716
31.13545,74504
31.14358,71953
31.15170,73616
31.15983,78996
31.16795,77026
31.17607,83485
31.18420,89824
31.19232,112612
31.20045,132459
31.20857,171636
31.21668,201562
31.22482,222242
31.23293,227947
31.24105,204085
31.24918,165494
31.25730,136357
31.26543,102038
31.27355,93336
31.28167,72160
31.28980,69290
31.29792,73394
31.30605,67322
31.31417,68128
31.32228,69497
31.33042,65543
31.33853,69050
31.34667,68341
31.35478,67967
31.36290,69888
31.37103,69077
31.37915,66817
31.38727,71333
31.39540,65182
31.40352,67218
31.41165,65671
31.41977,61315
31.42788,61919
31.43602,63162
31.44413,58580
31.45227,58030
31.46038,65864
31.46850,58567
31.47663,62398
31.48475,61435
31.49287,61441
31.50100,66041
31.50912,62564
31.51725,64820
31.52537,63456
31.53348,60756
31.54162,62561
31.54973,60473
31.55787,61367
31.56598,58428
31.57410,61116
31.58223,64876
31.59035,56907
31.59848,57666
31.60660,54884
31.61472,54536
31.62285,57193
31.63097,57847
31.63908,59679
31.64722,56395
31.65533,64152
31.66347,61646
31.67158,58060
31.67970,55661
31.68783,60430
31.69595,61687
31.70408,59186
31.71220,55497
31.72032,51883
31.72845,55981
31.73657,52993
31.74470,48975
31.75282,49568
31.76093,50622
31.76907,51952
31.77718,54141
31.78530,53937
31.79343,56443
31.80155,51822
31.80968,51890
31.81780,60101
31.82592,50724
31.83405,54393
31.84217,50332
31.85030,50891
31.85842,51387
31.86653,56808
31.87467,55975
31.88278,57558
31.89090,60601
31.89903,66214
31.90715,72956
31.91528,78746
31.92340,81344
31.93152,86624
31.93965,89138
31.94777,94283
31.95590,100843
31.96402,102206
31.97213,97897
31.98027,99746
31.98838,101007
31.99652,100756
32.00463,101294
32.01275,95675
32.02088,94698
32.02900,101019
32.03712,95920
32.04525,89295
32.05337,90727
32.06150,86279
32.06962,81830
32.07773,81958
32.08587,80805
32.09398,74984
32.10212,69612
32.11023,69019
32.11835,64326
32.12648,63203
32.13460,61550
32.14273,59625
32.15085,60891
32.15897,60552
32.16710,53343
32.17522,58225
32.18333,57034
32.19147,56636
32.19958,56342
32.20772,56065
32.21583,57276
32.22395,57308
32.23208,58194
32.24020,57093
32.24833,56992
32.25645,57071
32.26457,59464
32.27270,57099
32.28082,58709
32.28893,52903
32.29707,53352
32.30518,53269
32.31332,52302
32.32143,48022
32.32955,51190
32.33768,53897
32.34580,53976
32.35393,50700
32.36205,49169
32.37017,50715
32.37830,55713
32.38642,53039
32.39455,46557
32.40267,49397
32.41078,49446
32.41892,46013
32.42703,46265
32.43515,48935
32.44328,49084
32.45140,45501
32.45953,48191
32.46765,45265
32.47577,45644
32.48390,47201
32.49202,46416
32.50015,44988
32.50827,50376
32.51638,47845
32.52452,47882
32.53263,48015
32.54077,46135
32.54888,49626
32.55700,47829
32.56513,43501
32.57325,43070
32.58137,48631
32.58950,46118
32.59762,43202
32.60575,45367
32.61387,47097
32.62198,47808
32.63012,49871
32.63823,55082
32.64637,56361
32.65448,59619
32.66260,57355
32.67073,54091
32.67885,50980
32.68697,49479
32.69510,49908
32.70322,51661
32.71135,45783
32.71947,43039
32.72758,46273
32.73572,48530
32.74383,49180
32.75197,46828
32.76008,41318
32.76820,44555
32.77633,40731
32.78445,42407
32.79258,44579
32.80070,44633
32.80882,45324
32.81695,41160
32.82507,42792
32.83318,46182
32.84132,45949
32.84943,41302
32.85757,42392
32.86568,44486
32.87380,46090
32.88193,44621
32.89005,46351
32.89818,52234
32.90630,52584
32.91442,47420
32.92255,54001
32.93067,46482
32.93878,47111
32.94692,48273
32.95503,46208
32.96317,46227
32.97128,46078
32.97940,52133
32.98753,58444
32.99565,60892
33.00378,64942
33.01190,67502
33.02002,66719
33.02815,60620
33.03627,57651
33.04440,53484
33.05252,52901
33.06063,53942
33.06877,54847
33.07688,58138
33.08500,61137
33.09313,64402
33.10125,66390
33.10938,69866
33.11750,68154
33.12562,66340
33.13375,63908
33.14187,60091
33.15000,62014
33.15812,52423
33.16623,54019
33.17437,47682
33.18248,48381
33.19062,49364
33.19873,47400
33.20685,41748
33.21498,46594
33.22310,44698
33.23122,46767
33.23935,44343
33.24747,44650
33.25560,47059
33.26372,43354
33.27183,44604
33.27997,40497
33.28808,42973
33.29622,44891
33.30433,44632
33.31245,43571
33.32058,45141
33.32870,42471
33.33682,47885
33.34495,47881
33.35307,52173
33.36120,47797
33.36932,49600
33.37743,47018
33.38557,47905
33.39368,46601
33.40182,47292
33.40993,45792
33.41805,42923
33.42618,44405
33.43430,43713
33.44243,44417
33.45055,42876
33.45867,37330
33.46680,42667
33.47492,43457
33.48303,43309
33.49117,44984
33.49928,40437
33.50742,46051
33.51553,42332
33.52365,43454
33.53178,48995
33.53990,51921
33.54803,48019
33.55615,51918
33.56427,49170
33.57240,49583
33.58052,48196
33.58865,48469
33.59677,43851
33.60488,42414
33.61302,40962
33.62113,43352
33.62925,45418
33.63738,43311
33.64550,46406
33.65363,48505
33.66175,45446
33.66987,46296
33.67800,47324
33.68612,45751
33.69425,45214
33.70237,40935
33.71048,40586
33.71862,42095
33.72673,43871
33.73485,43767
33.74298,40792
33.75110,40162
33.75923,41769
33.76735,44424
33.77547,42654
33.78360,44546
33.79172,42847
33.79985,39747
33.80797,43871
33.81608,41862
33.82422,42252
33.83233,40609
33.84047,42179
33.84858,41998
33.85670,45587
33.86483,42747
33.87295,43642
33.88107,45382
33.88920,45367
33.89732,46126
33.90545,47785
33.91357,46955
33.92168,46761
33.92982,45832
33.93793,46082
33.94607,44865
33.95418,43574
33.96230,39326
33.97043,41194
33.97855,41798
33.98667,40767
33.99480,43364
34.00292,44368
34.01105,43523
34.01917,43313
34.02728,42563
34.03542,44627
34.04353,42053
34.05167,43331
34.05978,43511
34.06790,41565
34.07603,43122
34.08415,44293
34.09228,46685
34.10040,38798
34.10852,45033
34.11665,44697
34.12477,44942
34.13288,44792
34.14102,48866
34.14913,44295
34.15727,48457
34.16538,45192
34.17350,45362
34.18163,50220
34.18975,41639
34.19788,43799
34.20600,42342
34.21412,43468
34.22225,45573
34.23037,42176
34.23850,44226
34.24662,46402
34.25473,43395
34.26287,43028
34.27098,40036
34.27910,42195
34.28723,43080
34.29535,40606
34.30348,42693
34.31160,44182
34.31972,45845
34.32785,42333
34.33597,45209
34.34410,45223
34.35222,49102
34.36033,49362
34.36847,40396
34.37658,43984
34.38470,42557
34.39283,43760
34.40095,42919
34.40908,40605
34.41720,43927
34.42532,42492
34.43345,40219
34.44157,47021
34.44970,43184
34.45782,43369
34.46593,46147
34.47407,43304
34.48218,48805
34.49032,44768
34.49843,49402
34.50655,57690
34.51468,65544
34.52280,73595
34.53092,79064
34.53905,86309
34.54717,87453
34.55530,92596
34.56342,84856
34.57153,83713
34.57967,76855
34.58778,76408
34.59592,69360
34.60403,65891
34.61215,63878
34.62028,64815
34.62840,61527
34.63653,58467
34.64465,62375
34.65277,57085
34.66090,60573
34.66902,52892
34.67713,52715
34.68527,55402
34.69338,50330
34.70152,49305
34.70963,52490
34.71775,49023
34.72588,54045
34.73400,51547
34.74213,46850
34.75025,50908
34.75837,51128
34.76650,51246
34.77462,48877
34.78273,51302
34.79087,55065
34.79898,49160
34.80712,51644
34.81523,48567
34.82335,51329
34.83148,53639
34.83960,53952
34.84773,50256
34.85585,52002
34.86397,50742
34.87210,52310
34.88022,52479
34.88835,54330
34.89647,49492
34.90458,48287
34.91272,52791
34.92083,50594
34.92895,48281
34.93708,54577
34.94520,51953
34.95333,52724
34.96145,54371
34.96957,57845
34.97770,55243
34.98582,53554
34.99395,54799
35.00207,49844
35.01018,47834
35.01832,48305
35.02643,46892
35.03455,47840
35.04268,48482
35.05080,45633
35.05893,47455
35.06705,50965
35.07517,47974
35.08330,46264
35.09142,47148
35.09955,44541
35.10767,44604
35.11578,49060
35.12392,45258
35.13203,49518
35.14017,52543
35.14828,50481
35.15640,48224
35.16453,47368
35.17265,45279
35.18077,47115
35.18890,46639
35.19702,45855
35.20515,44963
35.21327,43474
35.22138,39251
35.22952,48108
35.23763,43610
35.24577,47577
35.25388,49561
35.26200,43791
35.27013,44236
35.27825,50693
35.28638,45859
35.29450,45753
35.30262,46887
35.31075,45555
35.31887,44959
35.32698,43395
35.33512,44997
35.34323,44243
35.35137,42212
35.35948,47530
35.36760,44703
35.37573,41233
35.38385,44405
35.39198,50889
35.40010,51982
35.40822,54678
35.41635,54266
35.42447,51687
35.43260,56162
35.44072,58174
35.44883,61301
35.45697,53823
35.46508,48197
35.47320,50325
35.48133,48959
35.48945,50906
35.49758,46914
35.50570,49313
35.51382,50582
35.52195,48446
35.53007,44517
35.53820,45009
35.54632,46755
35.55443,47740
35.56257,47975
35.57068,46091
35.57880,47204
35.58693,44327
35.59505,48322
35.60318,43723
35.61130,47892
35.61942,45961
35.62755,44571
35.63567,48876
35.64380,43412
35.65192,50068
35.66003,50901
35.66817,50929
35.67628,46622
35.68442,45240
35.69253,46783
35.70065,44714
35.70878,44250
35.71690,48911
35.72502,49960
35.73315,46405
35.74127,53031
35.74940,51126
35.75752,53582
35.76563,51852
35.77377,53798
35.78188,52056
35.79002,50680
35.79813,49774
35.80625,46373
35.81438,47866
35.82250,47304
35.83062,50784
35.83875,47160
35.84687,52835
35.85500,45727
35.86312,42448
35.87123,47259
35.87937,44545
35.88748,46929
35.89562,49363
35.90373,49269
35.91185,44088
35.91998,44463
35.92810,48604
35.93623,48045
35.94435,50096
35.95247,46455
35.96060,51423
35.96872,46634
35.97683,47004
35.98497,47686
35.99308,47371
36.00122,49623
36.00933,50704
36.01745,49672
36.02558,49941
36.03370,49572
36.04183,51140
36.04995,45105
36.05807,45559
36.06620,46575
36.07432,46205
36.08245,48950
36.09057,46012
36.09868,48202
36.10682,45563
36.11493,46801
36.12305,47921
36.13118,51923
36.13930,49361
36.14743,46429
36.15555,53841
36.16367,50416
36.17180,53714
36.17992,49264
36.18805,46150
36.19617,48020
36.20428,46966
36.21242,45093
36.22053,44947
36.22865,45748
36.23678,47221
36.24490,42839
36.25303,44821
36.26115,46246
36.26927,52069
36.27740,50949
36.28552,57526
36.29365,57459
36.30177,62710
36.30988,60830
36.31802,56768
36.32613,49059
36.33427,48697
36.34238,51444
36.35050,53351
36.35863,45316
36.36675,46854
36.37487,48839
36.38300,48844
36.39112,51076
36.39925,53496
36.40737,50807
36.41548,50082
36.42362,53000
36.43173,54187
36.43987,53256
36.44798,50036
36.45610,52342
36.46423,49356
36.47235,48478
36.48048,47787
36.48860,50359
36.49672,48239
36.50485,46010
36.51297,45114
36.52108,47302
36.52922,49033
36.53733,52031
36.54547,47604
36.55358,49452
36.56170,45891
36.56983,49072
36.57795,44107
36.58608,46163
36.59420,48442
36.60232,50874
36.61045,49751
36.61857,51447
36.62668,52017
36.63482,54455
36.64293,55604
36.65107,54785
36.65918,52858
36.66730,49134
36.67543,52747
36.68355,54426
36.69168,53280
36.69980,60466
36.70792,52236
36.71605,52852
36.72417,52182
36.73230,54125
36.74042,61032
36.74853,57332
36.75667,55137
36.76478,54300
36.77290,54514
36.78103,54188
36.78915,52909
36.79728,54311
36.80540,54224
36.81352,51766
36.82165,55550
36.82977,52777
36.83790,57359
36.84602,49420
36.85413,51745
36.86227,51202
36.87038,50333
36.87850,51759
36.88663,54060
36.89475,52954
36.90288,50552
36.91100,53868
36.91912,55094
36.92725,57234
36.93537,56063
36.94350,59570
36.95162,70072
36.95973,67721
36.96787,68190
36.97598,67214
36.98412,65355
36.99223,65994
37.00035,54757
37.00848,60601
37.01660,55606
37.02472,55252
37.03285,57624
37.04097,50584
37.04910,55167
37.05722,52715
37.06533,54017
37.07347,55450
37.08158,57877
37.08972,57189
37.09783,54979
37.10595,54392
37.11408,54115
37.12220,52015
37.13033,57659
37.13845,57059
37.14657,54748
37.15470,53900
37.16282,55871
37.17093,55932
37.17907,51576
37.18718,50434
37.19532,54822
37.20343,54352
37.21155,51729
37.21968,54194
37.22780,54452
37.23593,53644
37.24405,52646
37.25217,54075
37.26030,51815
37.26842,48283
37.27653,51121
37.28467,56227
37.29278,59827
37.30092,61816
37.30903,66662
37.31715,68196
37.32528,80332
37.33340,84001
37.34153,89298
37.34965,87774
37.35777,78135
37.36590,79446
37.37402,76846
37.38215,78372
37.39027,77324
37.39838,71227
37.40652,68438
37.41463,68975
37.42275,66166
37.43088,65767
37.43900,61536
37.44713,68239
37.45525,61081
37.46337,61480
37.47150,61526
37.47962,60701
37.48775,62092
