C:\MassHunter\GCMS\1\data\JTB-E02\BACandBLUE\JTB-E18-015-07.D Wed Jun 26 09:44:10 2019
Start of data points
2.09530	659047
2.10343	319194
2.11155	230873
2.11967	202112
2.12780	180671
2.13592	158678
2.14405	155124
2.15217	136480
2.16028	138625
2.16842	120952
2.17653	112004
2.18465	108372
2.19278	112265
2.20090	106656
2.20903	99364
2.21715	101290
2.22527	101174
2.23340	103906
2.24152	96202
2.24965	90258
2.25777	91317
2.26588	91842
2.27402	87950
2.28213	86109
2.29027	81451
2.29838	90863
2.30650	109044
2.31463	98390
2.32275	86603
2.33087	83236
2.33900	83850
2.34712	81197
2.35525	83453
2.36337	98052
2.37148	144629
2.37962	151752
2.38773	118393
2.39587	107882
2.40398	95675
2.41210	137898
2.42023	559284
2.42835	1093211
2.43647	769727
2.44460	430786
2.45272	289712
2.46085	218623
2.46897	176094
2.47708	154014
2.48522	134192
2.49333	123595
2.50147	119900
2.50958	109895
2.51770	103085
2.52583	99451
2.53395	96234
2.54208	93843
2.55020	90812
2.55832	88058
2.56645	90878
2.57457	88549
2.58268	86294
2.59082	91593
2.59893	161576
2.60707	248086
2.61518	197879
2.62330	139184
2.63143	140203
2.63955	156406
2.64768	137903
2.65580	115782
2.66392	104799
2.67205	103819
2.68017	93160
2.68830	96236
2.69642	87036
2.70453	83948
2.71267	85804
2.72078	83188
2.72890	82177
2.73703	77427
2.74515	78681
2.75328	79445
2.76140	73724
2.76952	75775
2.77765	89393
2.78577	107219
2.79390	106875
2.80202	102374
2.81013	89578
2.81827	89251
2.82638	88510
2.83450	87907
2.84263	86276
2.85075	76002
2.85888	76071
2.86700	76447
2.87512	75993
2.88325	73405
2.89137	78142
2.89950	114581
2.90762	538997
2.91573	2010700
2.92387	3405433
2.93198	4469976
2.94012	5094400
2.94823	3775457
2.95635	2421574
2.96448	1744090
2.97260	1373899
2.98072	1100320
2.98885	902372
2.99697	790606
3.00510	769261
3.01322	929902
3.02133	1601824
3.02947	1957566
3.03758	1568104
3.04572	1148131
3.05383	937103
3.06195	804830
3.07008	680045
3.07820	600010
3.08633	536310
3.09445	479582
3.10257	430576
3.11070	394695
3.11882	410525
3.12693	710665
3.13507	1927635
3.14318	4178747
3.15132	5516449
3.15943	4769637
3.16755	3173441
3.17568	2045737
3.18380	1468058
3.19193	1148567
3.20005	943999
3.20817	829410
3.21630	738050
3.22442	652734
3.23253	601649
3.24067	557135
3.24878	520046
3.25692	491863
3.26503	474024
3.27315	456185
3.28128	440468
3.28940	427704
3.29753	432957
3.30565	449017
3.31377	434442
3.32190	400855
3.33002	378252
3.33815	356894
3.34627	345245
3.35438	338127
3.36252	336867
3.37063	346490
3.37875	351482
3.38688	329279
3.39500	312040
3.40313	324384
3.41125	384285
3.41937	418622
3.42750	392800
3.43562	339679
3.44375	323120
3.45187	326058
3.45998	309921
3.46812	301025
3.47623	313393
3.48437	292239
3.49248	278587
3.50060	376706
3.50873	1174409
3.51685	3827751
3.52497	6789870
3.53310	6395832
3.54122	4263482
3.54935	2838767
3.55747	2190930
3.56558	1859904
3.57372	1594057
3.58183	1422596
3.58997	1296368
3.59808	1157313
3.60620	1057360
3.61433	1005287
3.62245	944833
3.63057	876569
3.63870	843888
3.64682	1011660
3.65495	1599685
3.66307	2308446
3.67118	2270110
3.67932	1724317
3.68743	1345401
3.69557	1148977
3.70368	996577
3.71180	891088
3.71993	823253
3.72805	750692
3.73618	716259
3.74430	693156
3.75242	666284
3.76055	711690
3.76867	845343
3.77678	967703
3.78492	965324
3.79303	1067393
3.80117	2113301
3.80928	4692914
3.81740	6807419
3.82553	6118166
3.83365	3985394
3.84178	3245869
3.84990	7328993
3.85802	1.871151E+07
3.86615	3.012431E+07
3.87427	3.009408E+07
3.88238	1.918991E+07
3.89052	9660364
3.89863	5266944
3.90677	3499485
3.91488	2645909
3.92300	2136285
3.93113	1743990
3.93925	1521095
3.94738	1336959
3.95550	1224792
3.96362	1089290
3.97175	1006602
3.97987	934354
3.98800	893138
3.99612	938299
4.00423	1075412
4.01237	1145879
4.02048	1079500
4.02860	947679
4.03673	837697
4.04485	767964
4.05298	693577
4.06110	740446
4.06922	1406676
4.07735	4285935
4.08547	1.04517E+07
4.09360	1.646496E+07
4.10172	1.831584E+07
4.10983	1.499213E+07
4.11797	9278708
4.12608	5765796
4.13422	4064504
4.14233	3061660
4.15045	2434033
4.15858	2014455
4.16670	1757150
4.17482	1546436
4.18295	1384419
4.19107	1254878
4.19920	1183226
4.20732	1131702
4.21543	1117825
4.22357	1081361
4.23168	1024043
4.23982	949973
4.24793	848191
4.25605	786326
4.26418	735393
4.27230	712572
4.28042	673948
4.28855	642110
4.29667	620945
4.30480	617142
4.31292	581099
4.32103	563592
4.32917	539712
4.33728	524041
4.34542	507556
4.35353	501158
4.36165	484117
4.36978	462103
4.37790	468112
4.38603	437291
4.39415	439826
4.40227	425598
4.41040	426888
4.41852	420864
4.42663	426037
4.43477	401287
4.44288	395565
4.45102	388495
4.45913	385707
4.46725	368810
4.47538	371731
4.48350	401244
4.49163	549673
4.49975	796723
4.50787	1009415
4.51600	978549
4.52412	766938
4.53225	597711
4.54037	485750
4.54848	439113
4.55662	425441
4.56473	385173
4.57285	365158
4.58098	348338
4.58910	337130
4.59723	325082
4.60535	315619
4.61347	307875
4.62160	305484
4.62972	297838
4.63785	301029
4.64597	298382
4.65408	293753
4.66222	306090
4.67033	351667
4.67845	423047
4.68658	456359
4.69470	435669
4.70283	397635
4.71095	393602
4.71907	401587
4.72720	393126
4.73532	371090
4.74345	358093
4.75157	349309
4.75968	321397
4.76782	305470
4.77593	304244
4.78407	289730
4.79218	283891
4.80030	276870
4.80843	285679
4.81655	281322
4.82467	318545
4.83280	472633
4.84092	910732
4.84905	1628066
4.85717	2289561
4.86528	2462729
4.87342	2067056
4.88153	1539173
4.88967	1120023
4.89778	934143
4.90590	989222
4.91403	1256386
4.92215	1466049
4.93027	1395290
4.93840	1202973
4.94652	988860
4.95465	866050
4.96277	782559
4.97088	710265
4.97902	663907
4.98713	635366
4.99527	595236
5.00338	550717
5.01150	518864
5.01963	521166
5.02775	523983
5.03588	566002
5.04400	612908
5.05212	608117
5.06025	564109
5.06837	532036
5.07648	540880
5.08462	566983
5.09273	571640
5.10087	541928
5.10898	494313
5.11710	469831
5.12523	445237
5.13335	402498
5.14148	387323
5.14960	361263
5.15772	346353
5.16585	346872
5.17397	336408
5.18210	326288
5.19022	319895
5.19833	331212
5.20647	337878
5.21458	355752
5.22270	385639
5.23083	386973
5.23895	368341
5.24708	335511
5.25520	317203
5.26332	316647
5.27145	312209
5.27957	325095
5.28770	318202
5.29582	304991
5.30393	295235
5.31207	286197
5.32018	276958
5.32830	285989
5.33643	278546
5.34455	290471
5.35268	282899
5.36080	277499
5.36892	258014
5.37705	252204
5.38517	253867
5.39330	246565
5.40142	261755
5.40953	260424
5.41767	258188
5.42578	250930
5.43392	249982
5.44203	258884
5.45015	278580
5.45828	311730
5.46640	341037
5.47452	326728
5.48265	290018
5.49077	263075
5.49890	261422
5.50702	258479
5.51513	267186
5.52327	284423
5.53138	285216
5.53952	283379
5.54763	263399
5.55575	244647
5.56388	235415
5.57200	249899
5.58013	269810
5.58825	294627
5.59637	309349
5.60450	293211
5.61262	275101
5.62073	252047
5.62887	232972
5.63698	235208
5.64512	218447
5.65323	220292
5.66135	217234
5.66948	206426
5.67760	206845
5.68573	214702
5.69385	200512
5.70197	197608
5.71010	213055
5.71822	209075
5.72633	210560
5.73447	210175
5.74258	205552
5.75072	203005
5.75883	199683
5.76695	204752
5.77508	202085
5.78320	195992
5.79133	196255
5.79945	193674
5.80757	195148
5.81570	196652
5.82382	194478
5.83195	193178
5.84007	201346
5.84818	215162
5.85632	226042
5.86443	245572
5.87255	287977
5.88068	315532
5.88880	352262
5.89693	369388
5.90505	354851
5.91317	298701
5.92130	242899
5.92942	200565
5.93755	178085
5.94567	161688
5.95378	157417
5.96192	153855
5.97003	148134
5.97817	151116
5.98628	149913
5.99440	148733
6.00253	147718
6.01065	155594
6.01877	170156
6.02690	216302
6.03502	340029
6.04315	499259
6.05127	579102
6.05938	542796
6.06752	425320
6.07563	325207
6.08377	276415
6.09188	251814
6.10000	240839
6.10813	224305
6.11625	216187
6.12437	212445
6.13250	204720
6.14062	207094
6.14875	211548
6.15687	212536
6.16498	215341
6.17312	210271
6.18123	209679
6.18937	205672
6.19748	199637
6.20560	198752
6.21373	190273
6.22185	195541
6.22998	200894
6.23810	203298
6.24622	209052
6.25435	209434
6.26247	205254
6.27058	199632
6.27872	194939
6.28683	201664
6.29497	194446
6.30308	196028
6.31120	193782
6.31933	194937
6.32745	190564
6.33558	186467
6.34370	187263
6.35182	198374
6.35995	196596
6.36807	191852
6.37618	195606
6.38432	197589
6.39243	200640
6.40057	198499
6.40868	202022
6.41680	196844
6.42493	200328
6.43305	205429
6.44118	202101
6.44930	201410
6.45742	198856
6.46555	200771
6.47367	212717
6.48180	243375
6.48992	271564
6.49803	279651
6.50617	276984
6.51428	240184
6.52240	229410
6.53053	219310
6.53865	217098
6.54678	217041
6.55490	289110
6.56302	482664
6.57115	872884
6.57927	1365264
6.58740	1426944
6.59552	1159241
6.60363	808590
6.61177	546744
6.61988	411489
6.62802	330466
6.63613	294603
6.64425	253321
6.65238	240354
6.66050	220321
6.66862	211067
6.67675	201585
6.68487	189563
6.69300	190848
6.70112	181648
6.70923	172330
6.71737	164659
6.72548	154013
6.73362	157506
6.74173	146990
6.74985	146642
6.75798	159107
6.76610	179164
6.77422	207579
6.78235	230993
6.79047	240738
6.79860	218805
6.80672	182655
6.81483	151790
6.82297	137456
6.83108	138642
6.83922	131422
6.84733	125102
6.85545	112833
6.86358	110234
6.87170	115474
6.87983	129708
6.88795	150710
6.89607	163147
6.90420	166255
6.91232	148003
6.92043	122918
6.92857	110152
6.93668	109673
6.94482	103417
6.95293	99874
6.96105	95559
6.96918	90260
6.97730	89973
6.98543	95258
6.99355	96172
7.00167	96597
7.00980	92339
7.01792	87826
7.02605	90432
7.03417	80770
7.04228	80398
7.05042	95609
7.05853	110695
7.06665	162954
7.07478	218212
7.08290	248107
7.09103	231824
7.09915	214766
7.10727	238607
7.11540	437221
7.12352	900316
7.13165	1478700
7.13977	1780535
7.14788	1577884
7.15602	1063681
7.16413	615100
7.17225	341405
7.18038	204000
7.18850	142979
7.19663	117678
7.20475	106047
7.21287	101561
7.22100	108460
7.22912	100511
7.23725	95303
7.24537	104108
7.25348	106177
7.26162	108448
7.26973	112883
7.27787	117393
7.28598	112985
7.29410	110176
7.30223	104421
7.31035	104452
7.31847	108947
7.32660	113650
7.33472	110682
7.34285	118201
7.35097	111609
7.35908	103375
7.36722	92485
7.37533	89653
7.38347	87077
7.39158	79426
7.39970	81292
7.40783	80125
7.41595	80236
7.42407	77808
7.43220	76633
7.44032	80723
7.44845	83435
7.45657	106867
7.46468	150018
7.47282	227604
7.48093	354992
7.48907	467918
7.49718	573868
7.50530	569300
7.51343	506816
7.52155	400307
7.52968	271808
7.53780	187502
7.54592	141741
7.55405	107660
7.56217	96707
7.57028	88842
7.57842	83769
7.58653	82505
7.59467	78007
7.60278	70491
7.61090	74022
7.61903	74423
7.62715	69462
7.63528	70519
7.64340	69456
7.65152	77120
7.65965	76206
7.66777	87092
7.67590	81908
7.68402	81943
7.69213	80754
7.70027	84382
7.70838	82799
7.71650	81537
7.72463	86410
7.73275	86626
7.74088	93904
7.74900	95187
7.75712	87808
7.76525	86078
7.77337	81904
7.78150	74202
7.78962	78785
7.79773	81983
7.80587	84595
7.81398	92795
7.82212	98288
7.83023	100948
7.83835	109562
7.84648	104298
7.85460	110902
7.86272	123985
7.87085	141323
7.87897	149183
7.88710	139603
7.89522	123648
7.90333	103507
7.91147	84457
7.91958	75845
7.92772	70159
7.93583	72123
7.94395	59564
7.95208	65368
7.96020	64207
7.96832	66573
7.97645	68312
7.98457	62329
7.99270	62382
8.00082	60803
8.00893	62053
8.01707	59022
8.02518	63464
8.03332	57549
8.04143	62111
8.04955	60335
8.05768	62450
8.06580	71982
8.07393	82459
8.08205	94083
8.09017	102942
8.09830	91288
8.10642	85506
8.11453	72166
8.12267	64364
8.13078	60355
8.13892	60166
8.14703	61512
8.15515	56143
8.16328	57440
8.17140	61926
8.17953	57136
8.18765	60610
8.19577	60093
8.20390	61108
8.21202	57296
8.22013	57130
8.22827	53671
8.23638	55510
8.24452	54553
8.25263	56070
8.26075	59371
8.26888	62363
8.27700	59944
8.28513	60710
8.29325	57201
8.30137	52654
8.30950	53169
8.31762	53857
8.32575	61833
8.33387	57012
8.34198	52707
8.35012	53646
8.35823	50365
8.36635	54238
8.37448	50233
8.38260	50387
8.39073	50830
8.39885	49615
8.40697	49115
8.41510	50360
8.42322	46697
8.43135	48233
8.43947	49391
8.44758	59201
8.45572	91232
8.46383	157920
8.47197	253301
8.48008	316388
8.48820	319822
8.49633	256063
8.50445	166230
8.51257	108873
8.52070	80081
8.52882	77935
8.53695	73893
8.54507	77698
8.55318	79213
8.56132	79388
8.56943	78857
8.57757	73376
8.58568	65878
8.59380	61223
8.60193	59926
8.61005	57324
8.61817	58734
8.62630	62304
8.63442	60150
8.64255	67655
8.65067	69135
8.65878	75121
8.66692	66659
8.67503	63447
8.68317	55345
8.69128	51420
8.69940	53401
8.70753	53506
8.71565	60921
8.72378	86392
8.73190	144310
8.74002	278002
8.74815	425701
8.75627	567267
8.76438	592445
8.77252	510019
8.78063	388448
8.78877	281559
8.79688	221836
8.80500	192636
8.81313	189114
8.82125	176488
8.82938	152921
8.83750	143849
8.84562	132766
8.85375	141072
8.86187	133731
8.87000	134634
8.87812	146229
8.88623	155635
8.89437	151344
8.90248	145948
8.91060	132265
8.91873	125471
8.92685	126430
8.93498	123763
8.94310	125051
8.95122	122250
8.95935	112784
8.96747	106219
8.97560	106125
8.98372	98353
8.99183	95349
8.99997	95990
9.00808	90864
9.01620	94659
9.02433	90976
9.03245	98048
9.04058	99720
9.04870	104834
9.05682	125442
9.06495	128361
9.07307	142037
9.08120	130021
9.08932	120739
9.09743	113040
9.10557	99989
9.11368	99422
9.12182	91984
9.12993	95734
9.13805	87709
9.14618	88430
9.15430	83339
9.16242	78438
9.17055	81010
9.17867	82029
9.18680	80792
9.19492	84822
9.20303	81070
9.21117	82731
9.21928	81208
9.22742	75992
9.23553	78871
9.24365	74764
9.25178	72924
9.25990	76877
9.26802	74999
9.27615	74959
9.28427	83103
9.29240	77216
9.30052	77725
9.30863	70072
9.31677	70830
9.32488	65025
9.33302	68929
9.34113	67867
9.34925	68775
9.35738	81673
9.36550	90554
9.37363	104857
9.38175	130142
9.38987	143729
9.39800	149284
9.40612	146268
9.41423	115669
9.42237	99618
9.43048	88898
9.43862	77663
9.44673	78287
9.45485	79760
9.46298	87639
9.47110	92716
9.47923	95811
9.48735	99856
9.49547	93647
9.50360	81365
9.51172	83268
9.51985	73327
9.52797	77970
9.53608	82960
9.54422	75692
9.55233	77591
9.56045	71048
9.56858	60484
9.57670	52965
9.58483	49756
9.59295	49656
9.60107	49775
9.60920	48456
9.61732	47080
9.62545	48659
9.63357	47474
9.64168	45503
9.64982	45910
9.65793	39432
9.66605	44816
9.67418	44979
9.68230	41081
9.69043	43595
9.69855	39949
9.70667	36662
9.71480	42958
9.72292	35567
9.73105	38253
9.73917	37388
9.74728	38160
9.75542	39074
9.76353	39935
9.77167	35691
9.77978	38020
9.78790	37085
9.79603	39669
9.80415	40880
9.81227	38608
9.82040	41765
9.82852	41471
9.83665	43886
9.84477	41656
9.85288	39890
9.86102	39597
9.86913	43266
9.87727	56300
9.88538	74955
9.89350	110840
9.90163	152440
9.90975	186373
9.91788	186151
9.92600	165976
9.93412	140734
9.94225	112338
9.95037	88198
9.95848	79628
9.96662	66708
9.97473	63441
9.98287	63179
9.99098	64797
9.99910	60717
10.00723	66124
10.01535	66159
10.02348	58762
10.03160	60343
10.03972	56036
10.04785	57242
10.05597	56824
10.06408	53040
10.07222	50511
10.08033	55857
10.08847	51611
10.09658	49918
10.10470	48914
10.11283	52803
10.12095	51537
10.12908	48690
10.13720	46679
10.14532	47224
10.15345	42503
10.16157	44237
10.16970	44074
10.17782	45938
10.18593	50929
10.19407	50184
10.20218	52697
10.21030	72299
10.21843	129793
10.22655	306318
10.23468	683455
10.24280	1309441
10.25092	2084494
10.25905	2983644
10.26717	4218773
10.27530	6067905
10.28342	8308375
10.29153	9807404
10.29967	9367801
10.30778	7065350
10.31590	4347737
10.32403	2545375
10.33215	1708498
10.34028	1329929
10.34840	1078012
10.35652	807437
10.36465	586551
10.37277	448113
10.38090	356016
10.38902	305331
10.39713	277429
10.40527	258832
10.41338	246513
10.42152	222638
10.42963	202875
10.43775	186991
10.44588	172185
10.45400	160981
10.46212	145873
10.47025	138275
10.47837	130623
10.48650	125949
10.49462	121409
10.50273	120357
10.51087	120501
10.51898	121259
10.52712	121396
10.53523	117199
10.54335	111265
10.55148	106573
10.55960	101148
10.56773	95276
10.57585	93498
10.58397	91879
10.59210	91238
10.60022	83975
10.60833	82228
10.61647	81639
10.62458	78063
10.63272	77497
10.64083	76895
10.64895	80124
10.65708	77291
10.66520	79136
10.67333	81597
10.68145	78746
10.68957	79782
10.69770	84877
10.70582	79207
10.71393	77620
10.72207	73904
10.73018	71450
10.73832	73298
10.74643	67469
10.75455	65132
10.76268	71547
10.77080	66684
10.77893	66456
10.78705	68707
10.79517	63249
10.80330	63159
10.81142	56921
10.81955	58335
10.82767	57931
10.83578	50667
10.84392	56771
10.85203	53934
10.86015	54252
10.86828	53582
10.87640	50982
10.88453	55198
10.89265	51896
10.90077	53683
10.90890	53077
10.91702	55162
10.92515	52076
10.93327	49583
10.94138	53889
10.94952	54138
10.95763	52181
10.96577	50714
10.97388	50914
10.98200	55233
10.99013	50900
10.99825	51581
11.00637	46187
11.01450	47214
11.02262	45084
11.03075	51055
11.03887	49823
11.04698	53053
11.05512	58499
11.06323	56123
11.07137	59577
11.07948	53225
11.08760	52137
11.09573	46881
11.10385	48627
11.11197	43776
11.12010	45985
11.12822	46003
11.13635	47412
11.14447	44263
11.15258	50192
11.16072	46837
11.16883	51266
11.17697	44160
11.18508	43719
11.19320	45970
11.20133	36533
11.20945	38582
11.21758	40117
11.22570	39159
11.23382	38776
11.24195	38818
11.25007	39384
11.25818	43865
11.26632	50526
11.27443	77564
11.28257	131239
11.29068	241262
11.29880	408976
11.30693	592492
11.31505	728558
11.32318	746006
11.33130	645244
11.33942	489792
11.34755	358432
11.35567	263800
11.36380	206367
11.37192	167774
11.38003	147348
11.38817	123928
11.39628	108726
11.40440	85904
11.41253	79883
11.42065	73162
11.42878	74851
11.43690	83302
11.44502	117525
11.45315	147016
11.46127	175155
11.46940	194337
11.47752	196559
11.48563	167034
11.49377	147379
11.50188	122819
11.51000	104550
11.51813	99022
11.52625	86363
11.53438	89614
11.54250	82551
11.55062	82629
11.55875	86873
11.56687	98369
11.57500	121610
11.58312	138414
11.59123	146040
11.59937	139219
11.60748	116725
11.61562	99508
11.62373	77043
11.63185	71997
11.63998	63842
11.64810	55624
11.65622	54736
11.66435	56589
11.67247	59272
11.68060	56659
11.68872	53972
11.69683	56753
11.70497	53489
11.71308	56778
11.72122	52296
11.72933	53400
11.73745	47273
11.74558	49686
11.75370	44409
11.76182	45289
11.76995	48156
11.77807	45289
11.78620	48602
11.79432	46593
11.80243	50234
11.81057	53375
11.81868	57333
11.82682	52585
11.83493	56082
11.84305	52423
11.85118	52387
11.85930	41669
11.86743	39728
11.87555	41427
11.88367	41144
11.89180	47442
11.89992	55085
11.90803	48838
11.91617	45937
11.92428	42781
11.93242	41734
11.94053	45872
11.94865	56950
11.95678	79745
11.96490	122756
11.97303	157757
11.98115	174301
11.98927	162937
11.99740	130478
12.00552	97640
12.01365	76338
12.02177	73176
12.02988	61131
12.03802	57612
12.04613	54539
12.05425	55431
12.06238	55051
12.07050	56339
12.07863	56648
12.08675	61659
12.09487	58110
12.10300	61584
12.11112	65145
12.11925	67959
12.12737	60696
12.13548	61071
12.14362	51585
12.15173	50462
12.15985	51774
12.16798	48994
12.17610	45179
12.18423	50524
12.19235	47979
12.20047	43157
12.20860	44608
12.21672	47986
12.22485	44809
12.23297	42038
12.24108	44060
12.24922	43528
12.25733	49940
12.26547	43301
12.27358	39354
12.28170	39137
12.28983	42323
12.29795	44431
12.30607	41187
12.31420	39159
12.32232	38689
12.33045	37536
12.33857	36463
12.34668	35654
12.35482	36959
12.36293	41177
12.37107	46027
12.37918	53400
12.38730	72827
12.39543	82524
12.40355	94895
12.41168	101318
12.41980	84072
12.42792	75022
12.43605	67529
12.44417	58071
12.45228	55409
12.46042	56321
12.46853	52455
12.47667	45134
12.48478	46944
12.49290	51752
12.50103	55200
12.50915	71584
12.51728	93303
12.52540	122530
12.53352	142315
12.54165	141935
12.54977	126433
12.55788	100810
12.56602	80665
12.57413	64322
12.58227	61041
12.59038	57745
12.59850	53963
12.60663	49617
12.61475	48989
12.62288	46995
12.63100	48061
12.63912	45439
12.64725	46166
12.65537	42269
12.66350	40708
12.67162	43036
12.67973	39099
12.68787	42033
12.69598	48284
12.70410	46702
12.71223	46891
12.72035	50108
12.72848	44674
12.73660	43702
12.74472	41194
12.75285	40125
12.76097	35949
12.76910	35627
12.77722	36223
12.78533	40857
12.79347	34260
12.80158	33143
12.80970	35382
12.81783	35260
12.82595	35033
12.83408	30714
12.84220	35517
12.85032	37497
12.85845	35538
12.86657	32519
12.87470	26851
12.88282	29629
12.89093	32929
12.89907	30269
12.90718	29112
12.91532	32756
12.92343	38154
12.93155	46889
12.93968	61287
12.94780	73264
12.95592	86772
12.96405	80043
12.97217	72200
12.98030	58756
12.98842	56620
12.99653	47899
13.00467	43829
13.01278	35578
13.02092	42151
13.02903	41892
13.03715	40632
13.04528	37287
13.05340	35918
13.06153	39167
13.06965	37667
13.07777	35539
13.08590	34260
13.09402	35796
13.10213	35436
13.11027	34676
13.11838	35917
13.12652	33293
13.13463	36107
13.14275	34370
13.15088	34760
13.15900	38891
13.16713	41161
13.17525	40854
13.18337	38800
13.19150	40892
13.19962	41600
13.20775	42302
13.21587	42038
13.22398	39078
13.23212	37074
13.24023	35257
13.24835	32597
13.25648	35485
13.26460	34475
13.27273	31099
13.28085	30149
13.28897	32576
13.29710	32588
13.30522	33394
13.31335	32190
13.32147	38645
13.32958	32947
13.33772	32285
13.34583	32931
13.35395	33646
13.36208	29432
13.37020	30616
13.37833	33784
13.38645	31842
13.39457	32487
13.40270	30004
13.41082	30013
13.41895	31443
13.42707	31890
13.43518	31203
13.44332	32066
13.45143	32422
13.45957	34417
13.46768	31141
13.47580	30152
13.48393	31702
13.49205	31567
13.50017	31541
13.50830	32651
13.51642	33620
13.52455	31415
13.53267	31156
13.54078	32381
13.54892	35584
13.55703	36388
13.56517	38733
13.57328	50536
13.58140	71072
13.58953	105001
13.59765	134977
13.60577	166977
13.61390	149607
13.62202	115181
13.63015	84132
13.63827	68575
13.64638	53894
13.65452	46019
13.66263	40954
13.67077	39375
13.67888	39997
13.68700	34387
13.69513	39955
13.70325	39475
13.71138	62458
13.71950	118899
13.72762	261482
13.73575	543593
13.74387	923651
13.75198	1316495
13.76012	1465307
13.76823	1393665
13.77637	1116896
13.78448	792790
13.79260	607880
13.80073	513782
13.80885	494140
13.81698	511488
13.82510	488407
13.83322	427585
13.84135	363684
13.84947	289929
13.85758	233118
13.86572	193961
13.87383	161875
13.88197	141324
13.89008	129562
13.89820	120236
13.90633	113076
13.91445	107817
13.92258	103159
13.93070	103904
13.93882	99569
13.94695	109545
13.95507	115987
13.96320	112890
13.97132	118150
13.97943	106523
13.98757	100348
13.99568	94143
14.00380	96813
14.01193	92213
14.02005	86209
14.02818	84746
14.03630	81275
14.04442	85408
14.05255	79909
14.06067	78481
14.06880	74749
14.07692	72095
14.08503	69992
14.09317	69993
14.10128	68398
14.10942	72851
14.11753	72460
14.12565	70703
14.13378	72686
14.14190	76783
14.15002	76370
14.15815	78713
14.16627	83785
14.17440	112658
14.18252	137294
14.19063	191817
14.19877	242348
14.20688	257866
14.21502	248418
14.22313	218658
14.23125	192332
14.23938	177214
14.24750	158018
14.25563	142112
14.26375	123620
14.27187	116823
14.28000	97078
14.28812	94496
14.29623	91035
14.30437	89292
14.31248	83580
14.32062	81036
14.32873	80191
14.33685	75548
14.34498	73978
14.35310	69155
14.36123	67747
14.36935	77351
14.37747	107622
14.38560	176391
14.39372	287990
14.40183	417926
14.40997	475796
14.41808	445937
14.42622	346280
14.43433	235595
14.44245	163824
14.45058	124411
14.45870	95026
14.46683	89841
14.47495	82668
14.48307	79701
14.49120	77215
14.49932	74768
14.50745	67008
14.51557	68675
14.52368	64348
14.53182	60239
14.53993	52434
14.54805	50222
14.55618	52459
14.56430	50412
14.57243	49930
14.58055	47209
14.58867	44168
14.59680	47873
14.60492	44451
14.61305	45861
14.62117	46924
14.62928	43104
14.63742	42973
14.64553	41865
14.65365	42398
14.66178	40663
14.66990	43004
14.67803	39606
14.68615	39747
14.69427	46729
14.70240	42247
14.71052	43202
14.71865	46655
14.72677	43648
14.73488	42902
14.74302	46948
14.75113	48282
14.75927	48294
14.76738	57510
14.77550	86037
14.78363	192614
14.79175	460930
14.79987	1056818
14.80800	1866228
14.81612	2646266
14.82425	3010128
14.83237	2730643
14.84048	2064216
14.84862	1364797
14.85673	835197
14.86487	548934
14.87298	392959
14.88110	296436
14.88923	240072
14.89735	205187
14.90548	179854
14.91360	165619
14.92172	157089
14.92985	138040
14.93797	129303
14.94608	119430
14.95422	107765
14.96233	112859
14.97047	105343
14.97858	102422
14.98670	91317
14.99483	97529
15.00295	94703
15.01108	82871
15.01920	82403
15.02732	83775
15.03545	82799
15.04357	81834
15.05168	71136
15.05982	68408
15.06793	69416
15.07607	63140
15.08418	64805
15.09230	62206
15.10043	62075
15.10855	66982
15.11668	75190
15.12480	77224
15.13292	84465
15.14105	78414
15.14917	85019
15.15730	72217
15.16542	62031
15.17353	56750
15.18167	55403
15.18978	47923
15.19790	44330
15.20603	45940
15.21415	45282
15.22228	46063
15.23040	40977
15.23852	42518
15.24665	42983
15.25477	39458
15.26290	40931
15.27102	40416
15.27913	46044
15.28727	40630
15.29538	39133
15.30352	37760
15.31163	37531
15.31975	35041
15.32788	40864
15.33600	37457
15.34412	39688
15.35225	38010
15.36037	34692
15.36850	37246
15.37662	39314
15.38473	38387
15.39287	37022
15.40098	35904
15.40912	34860
15.41723	36811
15.42535	39266
15.43348	37719
15.44160	35777
15.44972	39168
15.45785	49372
15.46597	64509
15.47410	91752
15.48222	114054
15.49033	138975
15.49847	147811
15.50658	157843
15.51472	156344
15.52283	161230
15.53095	156033
15.53908	153210
15.54720	135700
15.55533	115907
15.56345	91559
15.57157	69250
15.57970	58399
15.58782	53328
15.59593	48239
15.60407	44484
15.61218	42001
15.62032	44510
15.62843	38099
15.63655	40238
15.64468	38339
15.65280	35577
15.66093	37714
15.66905	35617
15.67717	37575
15.68530	34037
15.69342	33968
15.70153	34234
15.70967	34800
15.71778	34699
15.72592	36712
15.73403	42118
15.74215	54861
15.75028	82973
15.75840	130980
15.76653	200911
15.77465	276560
15.78277	306544
15.79090	286564
15.79902	228145
15.80715	166849
15.81527	118709
15.82338	95398
15.83152	77929
15.83963	66164
15.84775	60945
15.85588	54435
15.86400	56239
15.87213	59973
15.88025	53236
15.88837	52599
15.89650	49418
15.90462	48179
15.91275	45413
15.92087	46735
15.92898	54666
15.93712	56204
15.94523	66104
15.95337	76595
15.96148	82442
15.96960	94872
15.97773	96928
15.98585	83383
15.99397	69735
16.00210	65103
16.01022	64810
16.01835	65873
16.02647	60472
16.03458	63113
16.04272	60043
16.05083	55628
16.05897	48927
16.06708	46806
16.07520	46332
16.08333	41884
16.09145	42671
16.09957	43061
16.10770	45190
16.11582	46734
16.12395	49294
16.13207	49336
16.14018	50356
16.14832	52665
16.15643	51198
16.16457	47291
16.17268	45007
16.18080	43815
16.18893	43027
16.19705	38732
16.20518	42507
16.21330	45566
16.22142	40049
16.22955	39026
16.23767	38448
16.24578	40530
16.25392	37674
16.26203	40221
16.27017	40296
16.27828	41765
16.28640	47277
16.29453	47416
16.30265	50705
16.31078	46508
16.31890	46408
16.32702	46668
16.33515	48170
16.34327	57974
16.35140	70305
16.35952	84232
16.36763	92740
16.37577	98112
16.38388	79010
16.39200	68164
16.40013	59497
16.40825	52126
16.41638	53553
16.42450	51426
16.43262	54641
16.44075	78092
16.44887	119926
16.45700	201330
16.46512	317066
16.47323	407706
16.48137	442447
16.48948	379268
16.49760	293045
16.50573	199462
16.51385	139614
16.52198	103144
16.53010	88053
16.53822	77652
16.54635	68201
16.55447	67607
16.56260	66576
16.57072	69865
16.57883	68055
16.58697	73174
16.59508	77873
16.60322	94277
16.61133	90394
16.61945	82922
16.62758	77517
16.63570	72017
16.64382	61079
16.65195	56108
16.66007	55133
16.66820	50660
16.67632	49098
16.68443	44347
16.69257	49406
16.70068	46593
16.70882	44607
16.71693	46907
16.72505	45684
16.73318	43779
16.74130	41185
16.74943	43970
16.75755	43567
16.76567	44664
16.77380	46920
16.78192	44357
16.79003	46984
16.79817	37841
16.80628	36827
16.81442	36238
16.82253	30804
16.83065	34183
16.83878	35796
16.84690	37327
16.85503	35899
16.86315	36430
16.87127	31317
16.87940	34035
16.88752	32379
16.89563	33451
16.90377	33259
16.91188	33653
16.92002	34068
16.92813	37007
16.93625	32803
16.94438	34485
16.95250	31521
16.96063	31594
16.96875	31905
16.97687	36989
16.98500	35941
16.99312	35944
17.00125	34173
17.00937	37177
17.01748	43464
17.02562	39114
17.03373	44564
17.04185	48076
17.04998	47386
17.05810	49290
17.06623	50749
17.07435	44979
17.08247	39012
17.09060	35613
17.09872	38151
17.10685	39999
17.11497	39630
17.12308	41493
17.13122	43951
17.13933	38448
17.14745	41470
17.15558	40734
17.16370	38059
17.17183	38818
17.17995	39562
17.18807	39759
17.19620	37808
17.20432	35678
17.21245	35182
17.22057	35912
17.22868	34373
17.23682	34323
17.24493	40560
17.25307	31098
17.26118	36368
17.26930	35868
17.27743	33715
17.28555	34011
17.29367	33678
17.30180	36632
17.30992	38123
17.31805	40267
17.32617	45741
17.33428	52270
17.34242	55403
17.35053	61568
17.35867	53966
17.36678	53452
17.37490	50898
17.38303	50049
17.39115	50727
17.39928	48384
17.40740	51301
17.41552	50118
17.42365	52055
17.43177	51183
17.43988	49501
17.44802	44232
17.45613	40969
17.46427	43906
17.47238	38067
17.48050	40625
17.48863	36568
17.49675	36685
17.50488	38853
17.51300	35619
17.52112	40385
17.52925	43833
17.53737	45370
17.54548	48768
17.55362	71945
17.56173	117854
17.56987	217157
17.57798	398957
17.58610	681229
17.59423	1046009
17.60235	1231798
17.61048	1213228
17.61860	976089
17.62672	700274
17.63485	455044
17.64297	298216
17.65110	213908
17.65922	167025
17.66733	147837
17.67547	129892
17.68358	116466
17.69170	103740
17.69983	96677
17.70795	84813
17.71608	81689
17.72420	76589
17.73232	69778
17.74045	65462
17.74857	64897
17.75670	63502
17.76482	60543
17.77293	56655
17.78107	62526
17.78918	78901
17.79732	110285
17.80543	160450
17.81355	219474
17.82168	279797
17.82980	290836
17.83792	279358
17.84605	217384
17.85417	179428
17.86230	150138
17.87042	125659
17.87853	108278
17.88667	90705
17.89478	81147
17.90292	75015
17.91103	69215
17.91915	67513
17.92728	62717
17.93540	59106
17.94352	57659
17.95165	60885
17.95977	56943
17.96790	52239
17.97602	51810
17.98413	52235
17.99227	49357
18.00038	54222
18.00852	63704
18.01663	67677
18.02475	76525
18.03288	97650
18.04100	110816
18.04913	167160
18.05725	324753
18.06537	658464
18.07350	1223705
18.08162	1846515
18.08973	2333263
18.09787	2403398
18.10598	2115303
18.11412	1578466
18.12223	1135053
18.13035	826387
18.13848	649652
18.14660	536864
18.15473	464535
18.16285	403531
18.17097	357965
18.17910	321007
18.18722	296271
18.19533	266712
18.20347	252500
18.21158	224722
18.21972	218368
18.22783	194090
18.23595	181112
18.24408	184674
18.25220	170042
18.26033	150543
18.26845	147646
18.27657	129140
18.28470	109947
18.29282	92662
18.30095	73135
18.30907	68136
18.31718	59656
18.32532	55534
18.33343	57562
18.34155	53540
18.34968	52694
18.35780	46779
18.36593	53539
18.37405	53966
18.38217	51138
18.39030	56736
18.39842	74142
18.40655	113045
18.41467	156254
18.42278	196752
18.43092	237369
18.43903	276326
18.44717	329632
18.45528	406265
18.46340	495612
18.47153	591523
18.47965	636706
18.48777	625801
18.49590	548283
18.50402	475999
18.51215	403878
18.52027	341208
18.52838	312911
18.53652	297398
18.54463	281715
18.55277	275786
18.56088	266749
18.56900	267940
18.57713	263501
18.58525	256584
18.59337	262586
18.60150	258562
18.60962	261276
18.61775	257056
18.62587	258280
18.63398	253439
18.64212	256675
18.65023	245952
18.65837	238658
18.66648	233526
18.67460	220565
18.68273	222173
18.69085	217982
18.69898	217397
18.70710	209641
18.71522	207459
18.72335	209869
18.73147	208333
18.73958	196033
18.74772	197370
18.75583	193563
18.76397	196807
18.77208	191956
18.78020	184447
18.78833	190097
18.79645	185261
18.80458	183089
18.81270	188688
18.82082	187988
18.82895	189851
18.83707	186076
18.84520	175845
18.85332	179488
18.86143	175265
18.86957	175818
18.87768	170410
18.88580	173258
18.89393	176715
18.90205	168754
18.91018	170450
18.91830	166443
18.92642	165100
18.93455	170584
18.94267	174527
18.95080	169109
18.95892	172713
18.96703	173784
18.97517	163099
18.98328	163564
18.99140	162611
18.99953	154197
19.00765	147057
19.01578	147067
19.02390	147239
19.03202	141338
19.04015	145245
19.04827	150375
19.05640	158722
19.06452	190027
19.07263	285304
19.08077	434546
19.08888	692434
19.09702	917975
19.10513	1055165
19.11325	1055655
19.12138	894229
19.12950	675766
19.13762	473839
19.14575	333900
19.15387	258236
19.16200	211776
19.17012	191785
19.17823	175061
19.18637	164697
19.19448	157504
19.20262	152393
19.21073	149126
19.21885	139832
19.22698	138566
19.23510	137039
19.24322	134970
19.25135	131967
19.25947	132226
19.26760	128972
19.27572	127939
19.28383	127980
19.29197	131292
19.30008	126152
19.30822	129945
19.31633	127162
19.32445	121750
19.33258	127483
19.34070	130438
19.34883	146189
19.35695	167172
19.36507	188300
19.37320	202860
19.38132	201501
19.38943	189996
19.39757	167360
19.40568	146062
19.41382	128858
19.42193	125010
19.43005	117810
19.43818	118092
19.44630	119008
19.45443	117368
19.46255	108213
19.47067	114950
19.47880	124545
19.48692	143138
19.49505	185037
19.50317	223777
19.51128	249830
19.51942	240830
19.52753	227796
19.53565	185631
19.54378	157569
19.55190	137922
19.56003	121435
19.56815	109277
19.57627	104852
19.58440	98601
19.59252	101846
19.60065	93910
19.60877	92616
19.61688	89664
19.62502	91669
19.63313	94858
19.64127	115092
19.64938	132774
19.65750	171993
19.66563	203364
19.67375	244563
19.68187	263164
19.69000	257858
19.69812	244666
19.70625	222325
19.71437	202875
19.72248	180913
19.73062	154381
19.73873	144229
19.74687	129667
19.75498	117812
19.76310	119575
19.77123	119326
19.77935	128349
19.78747	133547
19.79560	137944
19.80372	142139
19.81185	139391
19.81997	129635
19.82808	121006
19.83622	119664
19.84433	158425
19.85247	299498
19.86058	714884
19.86870	1690345
19.87683	3255883
19.88495	5527513
19.89308	7569860
19.90120	8837586
19.90932	8625684
19.91745	7093246
19.92557	5081617
19.93368	3292708
19.94182	2207000
19.94993	1619623
19.95807	1275284
19.96618	1055270
19.97430	952211
19.98243	876718
19.99055	788826
19.99868	756780
20.00680	695444
20.01492	659590
20.02305	627610
20.03117	581169
20.03928	530370
20.04742	457723
20.05553	394890
20.06367	332050
20.07178	275327
20.07990	232481
20.08803	214668
20.09615	205171
20.10428	188639
20.11240	166516
20.12052	157295
20.12865	145208
20.13677	142876
20.14490	137262
20.15302	144718
20.16113	153994
20.16927	165766
20.17738	173040
20.18550	201731
20.19363	197678
20.20175	202997
20.20988	189894
20.21800	171662
20.22612	164625
20.23425	152118
20.24237	144745
20.25050	154875
20.25862	180334
20.26673	203953
20.27487	230754
20.28298	244410
20.29112	249925
20.29923	236250
20.30735	211455
20.31548	186985
20.32360	161839
20.33172	142110
20.33985	120592
20.34797	110490
20.35610	102195
20.36422	97273
20.37233	81807
20.38047	80844
20.38858	75420
20.39672	75213
20.40483	72660
20.41295	76094
20.42108	77166
20.42920	79932
20.43732	86425
20.44545	89410
20.45357	93750
20.46170	88782
20.46982	86793
20.47793	83966
20.48607	83486
20.49418	76611
20.50232	68029
20.51043	65568
20.51855	71817
20.52668	70330
20.53480	73574
20.54293	67973
20.55105	69939
20.55917	71589
20.56730	67912
20.57542	67610
20.58353	65352
20.59167	66377
20.59978	61023
20.60792	62648
20.61603	63247
20.62415	61992
20.63228	65622
20.64040	64621
20.64853	67845
20.65665	69123
20.66477	69992
20.67290	63750
20.68102	62480
20.68915	64420
20.69727	61278
20.70538	62111
20.71352	58786
20.72163	60737
20.72975	57632
20.73788	61949
20.74600	61454
20.75413	64691
20.76225	67322
20.77037	71912
20.77850	83458
20.78662	114147
20.79475	170525
20.80287	243264
20.81098	359273
20.81912	413012
20.82723	427848
20.83535	369950
20.84348	279417
20.85160	191625
20.85973	132250
20.86785	97841
20.87597	88589
20.88410	78860
20.89222	73236
20.90035	70756
20.90847	73122
20.91658	70727
20.92472	72750
20.93283	73957
20.94097	71493
20.94908	68208
20.95720	68777
20.96533	64787
20.97345	64232
20.98157	61929
20.98970	60545
20.99782	58052
21.00595	67087
21.01407	64791
21.02218	61485
21.03032	62769
21.03843	66605
21.04657	63094
21.05468	69156
21.06280	59691
21.07093	58428
21.07905	58947
21.08717	57136
21.09530	60410
21.10342	57658
21.11155	57868
21.11967	55301
21.12778	57781
21.13592	63265
21.14403	75864
21.15217	85421
21.16028	96552
21.16840	98752
21.17653	96450
21.18465	84508
21.19278	78906
21.20090	65968
21.20902	61913
21.21715	62040
21.22527	60272
21.23338	60709
21.24152	55888
21.24963	56659
21.25777	54671
21.26588	57356
21.27400	52348
21.28213	54906
21.29025	48827
21.29838	53785
21.30650	48997
21.31462	48703
21.32275	45868
21.33087	48459
21.33900	46929
21.34712	44410
21.35523	49888
21.36337	46016
21.37148	50744
21.37960	58102
21.38773	65274
21.39585	78954
21.40398	86605
21.41210	99024
21.42022	92960
21.42835	90561
21.43647	77902
21.44460	75216
21.45272	60108
21.46083	55389
21.46897	56972
21.47708	53298
21.48520	49486
21.49333	50779
21.50145	49698
21.50958	47704
21.51770	46986
21.52582	48924
21.53395	49718
21.54207	47067
21.55020	45842
21.55832	45777
21.56643	47974
21.57457	57495
21.58268	61329
21.59082	65461
21.59893	69390
21.60705	70157
21.61518	71201
21.62330	74220
21.63142	71618
21.63955	77044
21.64767	81853
21.65580	88942
21.66392	91297
21.67203	92755
21.68017	97395
21.68828	95143
21.69642	84910
21.70453	79064
21.71265	70497
21.72078	65630
21.72890	58012
21.73703	55953
21.74515	53935
21.75327	57582
21.76140	55218
21.76952	55679
21.77763	55170
21.78577	53106
21.79388	51668
21.80202	52387
21.81013	52981
21.81825	59334
21.82638	64699
21.83450	68151
21.84263	71545
21.85075	68080
21.85887	69938
21.86700	60307
21.87512	58836
21.88323	59994
21.89137	55898
21.89948	53595
21.90762	52273
21.91573	51392
21.92385	56635
21.93198	57321
21.94010	60818
21.94823	66201
21.95635	73139
21.96447	73875
21.97260	78786
21.98072	74916
21.98885	81546
21.99697	82960
22.00508	85974
22.01322	86163
22.02133	88299
22.02945	88446
22.03758	86495
22.04570	94011
22.05383	92005
22.06195	88842
22.07007	90763
22.07820	90316
22.08632	86727
22.09445	91312
22.10257	89019
22.11068	86527
22.11882	85144
22.12693	85643
22.13507	83314
22.14318	86441
22.15130	84506
22.15943	73697
22.16755	68912
22.17567	64889
22.18380	59430
22.19192	56726
22.20005	56496
22.20817	56866
22.21628	54736
22.22442	55231
22.23253	54103
22.24067	58047
22.24878	53010
22.25690	57287
22.26503	52688
22.27315	60073
22.28127	60242
22.28940	64188
22.29752	67349
22.30565	62047
22.31377	66197
22.32188	64395
22.33002	62517
22.33813	65056
22.34627	58858
22.35438	61684
22.36250	58844
22.37063	56086
22.37875	63389
22.38688	67493
22.39500	76947
22.40312	110425
22.41125	129074
22.41937	154049
22.42748	165302
22.43562	153105
22.44373	125267
22.45187	106088
22.45998	86924
22.46810	85675
22.47623	103877
22.48435	133718
22.49248	162783
22.50060	186022
22.50872	201621
22.51685	196387
22.52497	197143
22.53308	183909
22.54122	178387
22.54933	178274
22.55747	177741
22.56558	170799
22.57370	166001
22.58183	168953
22.58995	165761
22.59808	154233
22.60620	158894
22.61432	162253
22.62245	150643
22.63057	150988
22.63870	154820
22.64682	156859
22.65493	157784
22.66307	155651
22.67118	156226
22.67930	157479
22.68743	157858
22.69555	163241
22.70368	174219
22.71180	177070
22.71992	173653
22.72805	180209
22.73617	174417
22.74430	165377
22.75242	160277
22.76053	154022
22.76867	156877
22.77678	155604
22.78492	161787
22.79303	187363
22.80115	199773
22.80928	211694
22.81740	220756
22.82552	217242
22.83365	188127
22.84177	176406
22.84990	163308
22.85802	154904
22.86613	156590
22.87427	155903
22.88238	168618
22.89052	171776
22.89863	199059
22.90675	227954
22.91488	261290
22.92300	280656
22.93112	293799
22.93925	272261
22.94737	247015
22.95550	208011
22.96362	182746
22.97173	158987
22.97987	146994
22.98798	140120
22.99612	136994
23.00423	123035
23.01235	124875
23.02048	117845
23.02860	118072
23.03673	115416
23.04485	106408
23.05297	111209
23.06110	108984
23.06922	109314
23.07733	109164
23.08547	112875
23.09358	107820
23.10172	109155
23.10983	104614
23.11795	95461
23.12608	94543
23.13420	94841
23.14233	98457
23.15045	98995
23.15857	89920
23.16670	92282
23.17482	90828
23.18295	90803
23.19107	89637
23.19918	85445
23.20732	86916
23.21543	87740
23.22355	86246
23.23168	84340
23.23980	86605
23.24793	88773
23.25605	92043
23.26417	102122
23.27230	103360
23.28042	98371
23.28855	93642
23.29667	92877
23.30478	90863
23.31292	87707
23.32103	89764
23.32915	96748
23.33728	112725
23.34540	135242
23.35353	181395
23.36165	239562
23.36977	318709
23.37790	395481
23.38602	475666
23.39415	557339
23.40227	632976
23.41038	656551
23.41852	691345
23.42663	693369
23.43477	683576
23.44288	653882
23.45100	631367
23.45913	584928
23.46725	552045
23.47537	512602
23.48350	461917
23.49162	438834
23.49975	404396
23.50787	370531
23.51598	344903
23.52412	315248
23.53223	302980
23.54037	287673
23.54848	273712
23.55660	258820
23.56473	262582
23.57285	275202
23.58097	293007
23.58910	326522
23.59722	357227
23.60535	382732
23.61347	386946
23.62158	334742
23.62972	297567
23.63783	244908
23.64597	229883
23.65408	224700
23.66220	229058
23.67033	230272
23.67845	214771
23.68658	196141
23.69470	168514
23.70282	148228
23.71095	130732
23.71907	118416
23.72718	117645
23.73532	117478
23.74343	118647
23.75157	148225
23.75968	226767
23.76780	382376
23.77593	656923
23.78405	1053443
23.79218	1403661
23.80030	1584827
23.80842	1519912
23.81655	1348118
23.82467	1130531
23.83280	912513
23.84092	711626
23.84903	557431
23.85717	469610
23.86528	388685
23.87340	340578
23.88153	294074
23.88965	282955
23.89778	265948
23.90590	251181
23.91402	239382
23.92215	235950
23.93027	218134
23.93840	206178
23.94652	184262
23.95463	170251
23.96277	164004
23.97088	156488
23.97900	147347
23.98713	137415
23.99525	134380
24.00338	132082
24.01150	146963
24.01962	164276
24.02775	183000
24.03587	202749
24.04400	210489
24.05212	191744
24.06023	164393
24.06837	146228
24.07648	124604
24.08462	107186
24.09273	102744
24.10085	100502
24.10898	100636
24.11710	97202
24.12522	97814
24.13335	99301
24.14147	101657
24.14960	102140
24.15772	104613
24.16583	100572
24.17397	105387
24.18208	104270
24.19022	105884
24.19833	120947
24.20645	143360
24.21458	183707
24.22270	203130
24.23083	204056
24.23895	208914
24.24707	219369
24.25520	225928
24.26332	227342
24.27143	229363
24.27957	229945
24.28768	234243
24.29582	223385
24.30393	229533
24.31205	221559
24.32018	228529
24.32830	233672
24.33643	224877
24.34455	222179
24.35267	224400
24.36080	233519
24.36892	234394
24.37703	242175
24.38517	255921
24.39328	273068
24.40142	286895
24.40953	280686
24.41765	268187
24.42578	242826
24.43390	230138
24.44203	219160
24.45015	212451
24.45827	229732
24.46640	236813
24.47452	263707
24.48265	285805
24.49077	292027
24.49888	301107
24.50702	294525
24.51513	299500
24.52325	289949
24.53138	285097
24.53950	310763
24.54763	311150
24.55575	318138
24.56387	311498
24.57200	301790
24.58012	289644
24.58825	261919
24.59637	242820
24.60448	236931
24.61262	241153
24.62073	228623
24.62885	230993
24.63698	229546
24.64510	231683
24.65323	228223
24.66135	220519
24.66947	227348
24.67760	227607
24.68572	216161
24.69385	223959
24.70197	221892
24.71008	215090
24.71822	212592
24.72633	214419
24.73447	221526
24.74258	215720
24.75070	202911
24.75883	205018
24.76695	210656
24.77507	206904
24.78320	203912
24.79132	214470
24.79945	212209
24.80757	207434
24.81568	196875
24.82382	201448
24.83193	214784
24.84007	241183
24.84818	296708
24.85630	352117
24.86443	448220
24.87255	565029
24.88068	703511
24.88880	824515
24.89692	860002
24.90505	802226
24.91317	666860
24.92128	521609
24.92942	379457
24.93753	285151
24.94567	231533
24.95378	189726
24.96190	164188
24.97003	142570
24.97815	138256
24.98628	117697
24.99440	105653
25.00252	97499
25.01065	90851
25.01877	85400
25.02690	82955
25.03502	90773
25.04313	80258
25.05127	78367
25.05938	78844
25.06750	81640
25.07563	83727
25.08375	85243
25.09188	99365
25.10000	153647
25.10812	305794
25.11625	635891
25.12437	1270581
25.13250	2232997
25.14062	3210938
25.14873	3640159
25.15687	3538579
25.16498	2842507
25.17310	1959847
25.18123	1206932
25.18935	701087
25.19748	382451
25.20560	235387
25.21372	165064
25.22185	131702
25.22997	133219
25.23810	137271
25.24622	167486
25.25433	210200
25.26247	260482
25.27058	305614
25.27872	318249
25.28683	298148
25.29495	260966
25.30308	207423
25.31120	154740
25.31932	123513
25.32745	103913
25.33557	96391
25.34370	85612
25.35182	82861
25.35993	75831
25.36807	69812
25.37618	75936
25.38432	78218
25.39243	93598
25.40055	118603
25.40868	155412
25.41680	192051
25.42492	221766
25.43305	232958
25.44117	244889
25.44930	258915
25.45742	261538
25.46553	277179
25.47367	280930
25.48178	278067
25.48992	278695
25.49803	276845
25.50615	276634
25.51428	280941
25.52240	276685
25.53053	273113
25.53865	272832
25.54677	278390
25.55490	270062
25.56302	264361
25.57113	268451
25.57927	270155
25.58738	266795
25.59552	265014
25.60363	261637
25.61175	263791
25.61988	254285
25.62800	245496
25.63613	246050
25.64425	243318
25.65237	247917
25.66050	239916
25.66862	237638
25.67675	239959
25.68487	235180
25.69298	228130
25.70112	230730
25.70923	229758
25.71735	223139
25.72548	224156
25.73360	218285
25.74173	217020
25.74985	215905
25.75797	212561
25.76610	209143
25.77422	205040
25.78235	210683
25.79047	209070
25.79858	201845
25.80672	197373
25.81483	197381
25.82295	195312
25.83108	200637
25.83920	192735
25.84733	202903
25.85545	196888
25.86357	194711
25.87170	186461
25.87982	188659
25.88795	174905
25.89607	174568
25.90418	173388
25.91232	172680
25.92043	164505
25.92857	163252
25.93668	162369
25.94480	164833
25.95293	161724
25.96105	156224
25.96917	151091
25.97730	150841
25.98542	155740
25.99355	146815
26.00167	143805
26.00978	143408
26.01792	140328
26.02603	142307
26.03417	138990
26.04228	131187
26.05040	131563
26.05853	133677
26.06665	135526
26.07478	133171
26.08290	127110
26.09102	129818
26.09915	128978
26.10727	134093
26.11538	130875
26.12352	126108
26.13163	126881
26.13977	130109
26.14788	125547
26.15600	128324
26.16413	124788
26.17225	121897
26.18038	119274
26.18850	116662
26.19662	112993
26.20475	113044
26.21287	110988
26.22098	112461
26.22912	103817
26.23723	105945
26.24537	108804
26.25348	105493
26.26160	99615
26.26973	106816
26.27785	98374
26.28598	98756
26.29410	97719
26.30222	97717
26.31035	93328
26.31847	91389
26.32660	91013
26.33472	90561
26.34283	85787
26.35097	90324
26.35908	90122
26.36720	93410
26.37533	93223
26.38345	97626
26.39158	100153
26.39970	107909
26.40782	104778
26.41595	97555
26.42407	96122
26.43220	90658
26.44032	88979
26.44843	87357
26.45657	83361
26.46468	83296
26.47280	80228
26.48093	80101
26.48905	87255
26.49718	79778
26.50530	77798
26.51342	75658
26.52155	74245
26.52967	74694
26.53780	72637
26.54592	70718
26.55403	72730
26.56217	69899
26.57028	71436
26.57842	62970
26.58653	66757
26.59465	68060
26.60278	64275
26.61090	65842
26.61902	65134
26.62715	66571
26.63527	66561
26.64340	64251
26.65152	68510
26.65963	70336
26.66777	76163
26.67588	78949
26.68402	77712
26.69213	69366
26.70025	69721
26.70838	65494
26.71650	66369
26.72463	59143
26.73275	62293
26.74087	61358
26.74900	59824
26.75712	63447
26.76523	60131
26.77337	62883
26.78148	65298
26.78962	68833
26.79773	66698
26.80585	72584
26.81398	66912
26.82210	69174
26.83023	61844
26.83835	60243
26.84647	59607
26.85460	62397
26.86272	59334
26.87083	57231
26.87897	56096
26.88708	53741
26.89522	52200
26.90333	57676
26.91145	53676
26.91958	50845
26.92770	52824
26.93583	57012
26.94395	55879
26.95207	55753
26.96020	58716
26.96832	61679
26.97645	74150
26.98457	84058
26.99268	107258
27.00082	148634
27.00893	185842
27.01705	229342
27.02518	260921
27.03330	283698
27.04143	280230
27.04955	253550
27.05767	220138
27.06580	194446
27.07392	169212
27.08205	145556
27.09017	134269
27.09828	122708
27.10642	114314
27.11453	109767
27.12267	107870
27.13078	101628
27.13890	103590
27.14703	101275
27.15515	88761
27.16327	93994
27.17140	93901
27.17952	103402
27.18765	97597
27.19577	97617
27.20388	91277
27.21202	83242
27.22013	80559
27.22827	78218
27.23638	80430
27.24450	75550
27.25263	77577
27.26075	75008
27.26887	69581
27.27700	67943
27.28512	61183
27.29325	66132
27.30137	60922
27.30948	61118
27.31762	59957
27.32573	61721
27.33387	59695
27.34198	57543
27.35010	60593
27.35823	64192
27.36635	66202
27.37448	67639
27.38260	61269
27.39072	62335
27.39885	55143
27.40697	57119
27.41508	54993
27.42322	52511
27.43133	52493
27.43947	52750
27.44758	51155
27.45570	55001
27.46383	57841
27.47195	49274
27.48008	52288
27.48820	52548
27.49632	54056
27.50445	57206
27.51257	53716
27.52070	56291
27.52882	56270
27.53693	62197
27.54507	61074
27.55318	56053
27.56130	56015
27.56943	58583
27.57755	67150
27.58568	70369
27.59380	79952
27.60192	88010
27.61005	85383
27.61817	75165
27.62630	69788
27.63442	65255
27.64253	59831
27.65067	57098
27.65878	51068
27.66690	55110
27.67503	55054
27.68315	56391
27.69128	60561
27.69940	58389
27.70752	54801
27.71565	55614
27.72377	56604
27.73190	53464
27.74002	49121
27.74813	47580
27.75627	46526
27.76438	47026
27.77252	50381
27.78063	50650
27.78875	54786
27.79688	52710
27.80500	50961
27.81312	48762
27.82125	48916
27.82937	51081
27.83750	51555
27.84562	49637
27.85373	47682
27.86187	46778
27.86998	46241
27.87812	49631
27.88623	47246
27.89435	44397
27.90248	46320
27.91060	46248
27.91872	44643
27.92685	44161
27.93497	42550
27.94310	42725
27.95122	43515
27.95933	42656
27.96747	44051
27.97558	44317
27.98372	43914
27.99183	42242
27.99995	44721
28.00808	50314
28.01620	55580
28.02433	59058
28.03245	68129
28.04057	71732
28.04870	80325
28.05682	83222
28.06493	84356
28.07307	76388
28.08118	67227
28.08932	69512
28.09743	65340
28.10555	60025
28.11368	58833
28.12180	54358
28.12993	51198
28.13805	48782
28.14617	44983
28.15430	40832
28.16242	47122
28.17055	44311
28.17867	49492
28.18678	55999
28.19492	61906
28.20303	73763
28.21115	87399
28.21928	88091
28.22740	83291
28.23553	82762
28.24365	82747
28.25177	66667
28.25990	63510
28.26802	60257
28.27615	58806
28.28427	51018
28.29238	53349
28.30052	57781
28.30863	57985
28.31675	64670
28.32488	69147
28.33300	72037
28.34113	74415
28.34925	82740
28.35737	86205
28.36550	84822
28.37362	90238
28.38175	99072
28.38987	97888
28.39798	101900
28.40612	106520
28.41423	103517
28.42237	95848
28.43048	98835
28.43860	93361
28.44673	87256
28.45485	83308
28.46297	78020
28.47110	74799
28.47922	74525
28.48735	71691
28.49547	71270
28.50358	67620
28.51172	66611
28.51983	64112
28.52797	64263
28.53608	62662
28.54420	56732
28.55233	61384
28.56045	55829
28.56858	59231
28.57670	55600
28.58482	51863
28.59295	51889
28.60107	55658
28.60918	50065
28.61732	52740
28.62543	54738
28.63357	53486
28.64168	60686
28.64980	59392
28.65793	55490
28.66605	60302
28.67418	60023
28.68230	59536
28.69042	65364
28.69855	55741
28.70667	53073
28.71478	49090
28.72292	53257
28.73103	49993
28.73917	48368
28.74728	54773
28.75540	64211
28.76353	66554
28.77165	67896
28.77978	67456
28.78790	73446
28.79602	68543
28.80415	64236
28.81227	66550
28.82040	61281
28.82852	62419
28.83663	59029
28.84477	54873
28.85288	51984
28.86100	52217
28.86913	60612
28.87725	61631
28.88538	69030
28.89350	73308
28.90162	78071
28.90975	77566
28.91787	67574
28.92600	62227
28.93412	61286
28.94223	56806
28.95037	56670
28.95848	55299
28.96660	57945
28.97473	54303
28.98285	52912
28.99098	48592
28.99910	49549
29.00722	47358
29.01535	45444
29.02347	51709
29.03160	48667
29.03972	50118
29.04783	47665
29.05597	47256
29.06408	47211
29.07222	48726
29.08033	50394
29.08845	49717
29.09658	52282
29.10470	49892
29.11282	51450
29.12095	44719
29.12907	46954
29.13720	45511
29.14532	40253
29.15343	45781
29.16157	48936
29.16968	44995
29.17782	49817
29.18593	57336
29.19405	69162
29.20218	87895
29.21030	101816
29.21843	110568
29.22655	112310
29.23467	108010
29.24280	98058
29.25092	94344
29.25903	86112
29.26717	87645
29.27528	86501
29.28342	84931
29.29153	73524
29.29965	64604
29.30778	57212
29.31590	48251
29.32403	48511
29.33215	42001
29.34027	46391
29.34840	45332
29.35652	45792
29.36463	46816
29.37277	42457
29.38088	41712
29.38902	46934
29.39713	44889
29.40525	43303
29.41338	41886
29.42150	43724
29.42963	49457
29.43775	49331
29.44587	45193
29.45400	45058
29.46212	46957
29.47025	42568
29.47837	49247
29.48648	50560
29.49462	49250
29.50273	46485
29.51085	46788
29.51898	47853
29.52710	45182
29.53523	42254
29.54335	44848
29.55147	41108
29.55960	45324
29.56772	40394
29.57585	42648
29.58397	40307
29.59208	43124
29.60022	40164
29.60833	46296
29.61647	38770
29.62458	39050
29.63270	43702
29.64083	41185
29.64895	40215
29.65707	41242
29.66520	40702
29.67332	41081
29.68145	45210
29.68957	54573
29.69768	55362
29.70582	53580
29.71393	52817
29.72207	45366
29.73018	44506
29.73830	44411
29.74643	41872
29.75455	42975
29.76267	43256
29.77080	41323
29.77892	47477
29.78705	41658
29.79517	41526
29.80328	43703
29.81142	37695
29.81953	40691
29.82767	39015
29.83578	36760
29.84390	39603
29.85203	40418
29.86015	40483
29.86828	45645
29.87640	57083
29.88452	62074
29.89265	74631
29.90077	79663
29.90888	86087
29.91702	77432
29.92513	68328
29.93327	59812
29.94138	53749
29.94950	49720
29.95763	48557
29.96575	48285
29.97388	51840
29.98200	59158
29.99012	57524
29.99825	61337
30.00637	63451
30.01448	67130
30.02262	64544
30.03073	67492
30.03887	69895
30.04698	64850
30.05510	71289
30.06323	70594
30.07135	70253
30.07948	72204
30.08760	66546
30.09572	71176
30.10385	70584
30.11197	66659
30.12010	62021
30.12822	64251
30.13633	56175
30.14447	59791
30.15258	57847
30.16070	57744
30.16883	58704
30.17695	55273
30.18508	51694
30.19320	58335
30.20132	58716
30.20945	54383
30.21757	54348
30.22570	55151
30.23382	53843
30.24193	48145
30.25007	47114
30.25818	48898
30.26632	47454
30.27443	43296
30.28255	44008
30.29068	43891
30.29880	44556
30.30692	42082
30.31505	45346
30.32317	48191
30.33130	47971
30.33942	50623
30.34753	45798
30.35567	44440
30.36378	45623
30.37192	46900
30.38003	45899
30.38815	44450
30.39628	43743
30.40440	43652
30.41253	43181
30.42065	41411
30.42877	42578
30.43690	38618
30.44502	44125
30.45313	40044
30.46127	41129
30.46938	40043
30.47752	40580
30.48563	40954
30.49375	38272
30.50188	39483
30.51000	42307
30.51813	39490
30.52625	40933
30.53437	42109
30.54250	43966
30.55062	41909
30.55873	37363
30.56687	39729
30.57498	38425
30.58312	39471
30.59123	45650
30.59935	43035
30.60748	40615
30.61560	38306
30.62373	42166
30.63185	40942
30.63997	39278
30.64810	39701
30.65622	37418
30.66435	37991
30.67247	38835
30.68058	40180
30.68872	36091
30.69683	39519
30.70495	38627
30.71308	39270
30.72120	38675
30.72933	38772
30.73745	39712
30.74557	38371
30.75370	42524
30.76182	41479
30.76995	41142
30.77807	49634
30.78618	61506
30.79432	79151
30.80243	93242
30.81055	102571
30.81868	102750
30.82680	102021
30.83493	84581
30.84305	71611
30.85117	63108
30.85930	60548
30.86742	57590
30.87555	58632
30.88367	59334
30.89178	60438
30.89992	57604
30.90803	56360
30.91617	57732
30.92428	57612
30.93240	63032
30.94053	57752
30.94865	58109
30.95677	64429
30.96490	62181
30.97302	61101
30.98115	62006
30.98927	61310
30.99738	57346
31.00552	61876
31.01363	61297
31.02177	60771
31.02988	66757
31.03800	67521
31.04613	67311
31.05425	63691
31.06238	71112
31.07050	66676
31.07862	66285
31.08675	75384
31.09487	77391
31.10298	83845
31.11112	88117
31.11923	85812
31.12737	83458
31.13548	81651
31.14360	77069
31.15173	69874
31.15985	72391
31.16798	74529
31.17610	74049
31.18422	87267
31.19235	96695
31.20047	114430
31.20858	142015
31.21672	161835
31.22483	183390
31.23297	179866
31.24108	167506
31.24920	147872
31.25733	109445
31.26545	98682
31.27358	80823
31.28170	66345
31.28982	66494
31.29795	63346
31.30607	59920
31.31420	61947
31.32232	64141
31.33043	62667
31.33857	65637
31.34668	62592
31.35480	62616
31.36293	58568
31.37105	60625
31.37918	63484
31.38730	62657
31.39542	65368
31.40355	62688
31.41167	58141
31.41980	58096
31.42792	55881
31.43603	55764
31.44417	53860
31.45228	51829
31.46042	53176
31.46853	57557
31.47665	54666
31.48478	49631
31.49290	53932
31.50102	52403
31.50915	51067
31.51727	54384
31.52540	52608
31.53352	54211
31.54163	57737
31.54977	57199
31.55788	54907
31.56602	59001
31.57413	53414
31.58225	52524
31.59038	55068
31.59850	48843
31.60662	54444
31.61475	53973
31.62287	50354
31.63100	48149
31.63912	49857
31.64723	51352
31.65537	54027
31.66348	57526
31.67162	53104
31.67973	56078
31.68785	55316
31.69598	58651
31.70410	50101
31.71223	48068
31.72035	50662
31.72847	49718
31.73660	49671
31.74472	46547
31.75283	46366
31.76097	47502
31.76908	46667
31.77722	45249
31.78533	47317
31.79345	50924
31.80158	51656
31.80970	50915
31.81783	44008
31.82595	47821
31.83407	51139
31.84220	52788
31.85032	53889
31.85843	53675
31.86657	50772
31.87468	51075
31.88282	53104
31.89093	52025
31.89905	61188
31.90718	65361
31.91530	66933
31.92343	71413
31.93155	70934
31.93967	69449
31.94780	67615
31.95592	73367
31.96405	68840
31.97217	71716
31.98028	72608
31.98842	73459
31.99653	77569
32.00465	77795
32.01278	79978
32.02090	78159
32.02903	77157
32.03715	69175
32.04527	70164
32.05340	70536
32.06152	69750
32.06965	63290
32.07777	65980
32.08588	61086
32.09402	60599
32.10213	62784
32.11027	57842
32.11838	53509
32.12650	55318
32.13463	54950
32.14275	53099
32.15087	53640
32.15900	53499
32.16712	50648
32.17525	51624
32.18337	50665
32.19148	51820
32.19962	53441
32.20773	52320
32.21587	48365
32.22398	48300
32.23210	46244
32.24023	46401
32.24835	49848
32.25647	49844
32.26460	50771
32.27272	52332
32.28085	54355
32.28897	51557
32.29708	46856
32.30522	47072
32.31333	47256
32.32147	48841
32.32958	43247
32.33770	45717
32.34583	43807
32.35395	46693
32.36208	46990
32.37020	46985
32.37832	45101
32.38645	47134
32.39457	47891
32.40268	40883
32.41082	42232
32.41893	46368
32.42707	42862
32.43518	44490
32.44330	44109
32.45143	43443
32.45955	43843
32.46768	44583
32.47580	41743
32.48392	47519
32.49205	42970
32.50017	47208
32.50830	46521
32.51642	46075
32.52453	46847
32.53267	40455
32.54078	43175
32.54890	42801
32.55703	44894
32.56515	45502
32.57328	47472
32.58140	43867
32.58952	44230
32.59765	44452
32.60577	44102
32.61390	43436
32.62202	43051
32.63013	40912
32.63827	42474
32.64638	51479
32.65450	54461
32.66263	55124
32.67075	56858
32.67888	56069
32.68700	54454
32.69512	54389
32.70325	50729
32.71137	48971
32.71950	46262
32.72762	42724
32.73573	45138
32.74387	44643
32.75198	46389
32.76012	44763
32.76823	46948
32.77635	45018
32.78448	43413
32.79260	43620
32.80072	44003
32.80885	41637
32.81697	40989
32.82510	42487
32.83322	41444
32.84133	44478
32.84947	41234
32.85758	42551
32.86572	46582
32.87383	43374
32.88195	45723
32.89008	38790
32.89820	45535
32.90633	45341
32.91445	45740
32.92257	47116
32.93070	49317
32.93882	43067
32.94693	43025
32.95507	43221
32.96318	46647
32.97132	46753
32.97943	52630
32.98755	56477
32.99568	62585
33.00380	68630
33.01193	72003
33.02005	69216
33.02817	60118
33.03630	56224
33.04442	55792
33.05253	55862
33.06067	55806
33.06878	54193
33.07692	59063
33.08503	62438
33.09315	62511
33.10128	68475
33.10940	76842
33.11753	78874
33.12565	77178
33.13377	73391
33.14190	66068
33.15002	62167
33.15815	56279
33.16627	53071
33.17438	49730
33.18252	47510
33.19063	48265
33.19875	48024
33.20688	49288
33.21500	48753
33.22313	49033
33.23125	51906
33.23937	44935
33.24750	46406
33.25562	49583
33.26375	42000
33.27187	43557
33.27998	46183
33.28812	47914
33.29623	44092
33.30435	45416
33.31248	46140
33.32060	48355
33.32873	44488
33.33685	46938
33.34497	47650
33.35310	44870
33.36122	49510
33.36935	55262
33.37747	52276
33.38558	45395
33.39372	46084
33.40183	44702
33.40997	48037
33.41808	46178
33.42620	42619
33.43433	48912
33.44245	42367
33.45057	47117
33.45870	42247
33.46682	42119
33.47495	42798
33.48307	41811
33.49118	44347
33.49932	45387
33.50743	49331
33.51557	45702
33.52368	48555
33.53180	51345
33.53993	51692
33.54805	51291
33.55618	51746
33.56430	54826
33.57242	52810
33.58055	52509
33.58867	47121
33.59678	49781
33.60492	45876
33.61303	46753
33.62117	46464
33.62928	48119
33.63740	48146
33.64553	48296
33.65365	46196
33.66178	50716
33.66990	48832
33.67802	45278
33.68615	50438
33.69427	49178
33.70238	44420
33.71052	43500
33.71863	43393
33.72677	44941
33.73488	44375
33.74300	41771
33.75113	41177
33.75925	41402
33.76738	42480
33.77550	44298
33.78362	43231
33.79175	44713
33.79987	42290
33.80800	42223
33.81612	41838
33.82423	43719
33.83237	41039
33.84048	44305
33.84860	45988
33.85673	43133
33.86485	44535
33.87298	48821
33.88110	42278
33.88922	49046
33.89735	46937
33.90547	47458
33.91360	47518
33.92172	47560
33.92983	50587
33.93797	43235
33.94608	47202
33.95422	44256
33.96233	48115
33.97045	45926
33.97858	45833
33.98670	45823
33.99482	49313
34.00295	50500
34.01107	45800
34.01920	50001
34.02732	54863
34.03543	48860
34.04357	44368
34.05168	45022
34.05982	49794
34.06793	51248
34.07605	54269
34.08418	55587
34.09230	55912
34.10042	53655
34.10855	58247
34.11667	57064
34.12480	54622
34.13292	61900
34.14103	60029
34.14917	59140
34.15728	57890
34.16542	62776
34.17353	61501
34.18165	53921
34.18978	57138
34.19790	60384
34.20603	55691
34.21415	63372
34.22227	56909
34.23040	60797
34.23852	58274
34.24663	54768
34.25477	60845
34.26288	56552
34.27102	54456
34.27913	57809
34.28725	57378
34.29538	57129
34.30350	56641
34.31163	57563
34.31975	60169
34.32787	60433
34.33600	57275
34.34412	59049
34.35223	59996
34.36037	54997
34.36848	50076
34.37662	49483
34.38473	52292
34.39285	55638
34.40098	52036
34.40910	54391
34.41723	53459
34.42535	50758
34.43347	54238
34.44160	54220
34.44972	54592
34.45785	53130
34.46597	52782
34.47408	50005
34.48222	51999
34.49033	53891
34.49845	51439
34.50658	54734
34.51470	57763
34.52283	64211
34.53095	65747
34.53907	70420
34.54720	72878
34.55532	77545
34.56345	76239
34.57157	78536
34.57968	74161
34.58782	70732
34.59593	69878
34.60407	67173
34.61218	65637
34.62030	62061
34.62843	61949
34.63655	58178
34.64467	56243
34.65280	56885
34.66092	56320
34.66905	56170
34.67717	58481
34.68528	55053
34.69342	56292
34.70153	52282
34.70967	49167
34.71778	50989
34.72590	49969
34.73403	51389
34.74215	55050
34.75027	54515
34.75840	57546
34.76652	55084
34.77465	58129
34.78277	53755
34.79088	54561
34.79902	56125
34.80713	55307
34.81527	56221
34.82338	55639
34.83150	56973
34.83963	59641
34.84775	57477
34.85588	57385
34.86400	57791
34.87212	62228
34.88025	57452
34.88837	59385
34.89648	54736
34.90462	60121
34.91273	60212
34.92087	59972
34.92898	60523
34.93710	63341
34.94523	63634
34.95335	71531
34.96148	68914
34.96960	68082
34.97772	71413
34.98585	65005
34.99397	65528
35.00210	61821
35.01022	61802
35.01833	60346
35.02647	56708
35.03458	58060
35.04270	54848
35.05083	52368
35.05895	55261
35.06708	54819
35.07520	53983
35.08332	53050
35.09145	53223
35.09957	54235
35.10770	56768
35.11582	52200
35.12393	51143
35.13207	50475
35.14018	52200
35.14830	56266
35.15643	51976
35.16455	55355
35.17268	52457
35.18080	54242
35.18892	49125
35.19705	52956
35.20517	49399
35.21330	51201
35.22142	49979
35.22953	49280
35.23767	51484
35.24578	50270
35.25392	54759
35.26203	54857
35.27015	53135
35.27828	52490
35.28640	52970
35.29452	55015
35.30265	51854
35.31077	50980
35.31890	51712
35.32702	52632
35.33513	49969
35.34327	48895
35.35138	48813
35.35952	48301
35.36763	52229
35.37575	55862
35.38388	53709
35.39200	49292
35.40013	55413
35.40825	52604
35.41637	53798
35.42450	56617
35.43262	55849
35.44073	56503
35.44887	54468
35.45698	62585
35.46512	57614
35.47323	57923
35.48135	54517
35.48948	57369
35.49760	55654
35.50573	54328
35.51385	56785
35.52197	54468
35.53010	57580
35.53822	52222
35.54633	53147
35.55447	52202
35.56258	50271
35.57072	54107
35.57883	50906
35.58695	52077
35.59508	52977
35.60320	51882
35.61133	54289
35.61945	51904
35.62757	50071
35.63570	55626
35.64382	53468
35.65195	52542
35.66007	49425
35.66818	54574
35.67632	56309
35.68443	52773
35.69255	55296
35.70068	51656
35.70880	54288
35.71693	56849
35.72505	55415
35.73317	57029
35.74130	55946
35.74942	60557
35.75755	60672
35.76567	59293
35.77378	59499
35.78192	57707
35.79003	61527
35.79817	53261
35.80628	54790
35.81440	56903
35.82253	55704
35.83065	53696
35.83877	51736
35.84690	53674
35.85502	53006
35.86315	60029
35.87127	51931
35.87938	50015
35.88752	52817
35.89563	53415
35.90377	53482
35.91188	49740
35.92000	52894
35.92813	51620
35.93625	50486
35.94437	46537
35.95250	52317
35.96062	50944
35.96875	52903
35.97687	48932
35.98498	50308
35.99312	55289
36.00123	51489
36.00937	56260
36.01748	54975
36.02560	58677
36.03373	60007
36.04185	53828
36.04998	55234
36.05810	59924
36.06622	55627
36.07435	55633
36.08247	53341
36.09058	54020
36.09872	56925
36.10683	56687
36.11497	55467
36.12308	50677
36.13120	59921
36.13933	54715
36.14745	56454
36.15558	51959
36.16370	54506
36.17182	54578
36.17995	56539
36.18807	55495
36.19618	53629
36.20432	56750
36.21243	59694
36.22057	53306
36.22868	54336
36.23680	50157
36.24493	55492
36.25305	52165
36.26118	55422
36.26930	57560
36.27742	54387
36.28555	62394
36.29367	62328
36.30180	64441
36.30992	68264
36.31803	66511
36.32617	61317
36.33428	60789
36.34240	61758
36.35053	57129
36.35865	53854
36.36678	54246
36.37490	57074
36.38302	53370
36.39115	56956
36.39927	57873
36.40740	54615
36.41552	60671
36.42363	56950
36.43177	59308
36.43988	62895
36.44802	58096
36.45613	60646
36.46425	57275
36.47238	59679
36.48050	59549
36.48862	60518
36.49675	60757
36.50487	62559
36.51300	57964
36.52112	64896
36.52923	64166
36.53737	61925
36.54548	61818
36.55362	56648
36.56173	62155
36.56985	59941
36.57798	58344
36.58610	60658
36.59422	60422
36.60235	58297
36.61047	58349
36.61860	62060
36.62672	58302
36.63483	60662
36.64297	59359
36.65108	60866
36.65922	62876
36.66733	60863
36.67545	62921
36.68358	61907
36.69170	61989
36.69983	65339
36.70795	58817
36.71607	59719
36.72420	63784
36.73232	63889
36.74043	62249
36.74857	59186
36.75668	59077
36.76482	62770
36.77293	60357
36.78105	58379
36.78918	59675
36.79730	60020
36.80543	61864
36.81355	60462
36.82167	64972
36.82980	56795
36.83792	60203
36.84605	60351
36.85417	56586
36.86228	62346
36.87042	56918
36.87853	56092
36.88665	57162
36.89478	63150
36.90290	59520
36.91103	63725
36.91915	60963
36.92727	59086
36.93540	60952
36.94352	72255
36.95165	69344
36.95977	76262
36.96788	80349
36.97602	85684
36.98413	74972
36.99225	72958
37.00038	71584
37.00850	65084
37.01663	63609
37.02475	62952
37.03287	63109
37.04100	57567
37.04912	57733
37.05725	62195
37.06537	62373
37.07348	60767
37.08162	59303
37.08973	64968
37.09787	71005
37.10598	64966
37.11410	61413
37.12223	64634
37.13035	62110
37.13847	60299
37.14660	59591
37.15472	60524
37.16285	63920
37.17097	63746
37.17908	59006
37.18722	59175
37.19533	66217
37.20347	59236
37.21158	62054
37.21970	60717
37.22783	63174
37.23595	62846
37.24407	57376
37.25220	61874
37.26032	58112
37.26845	64716
37.27657	65929
37.28468	62144
37.29282	62924
37.30093	60453
37.30907	65974
37.31718	66803
37.32530	69885
37.33343	76258
37.34155	78443
37.34968	80816
37.35780	81476
37.36592	79817
37.37405	78767
37.38217	79669
37.39028	79628
37.39842	74518
37.40653	76360
37.41467	73323
37.42278	76299
37.43090	73567
37.43903	73806
37.44715	70479
37.45528	70831
37.46340	70201
37.47152	70091
37.47965	70809
37.48777	67329
