C:\MassHunter\GCMS\1\data\JTB-E18\JTB-E18-031-06.D Thu Oct 03 11:37:40 2019
Start of data points
2.09530,149988
2.10342,134575
2.11153,133268
2.11967,136435
2.12778,129786
2.13592,128843
2.14403,128813
2.15215,127403
2.16028,117757
2.16840,119119
2.17653,108953
2.18465,112586
2.19277,106014
2.20090,107856
2.20902,106627
2.21715,105961
2.22527,107225
2.23338,103893
2.24152,98332
2.24963,113884
2.25775,423948
2.26588,1537506
2.27400,1328586
2.28213,586646
2.29025,381098
2.29837,319610
2.30650,292652
2.31462,254265
2.32275,234710
2.33087,222844
2.33898,208522
2.34712,195554
2.35523,180921
2.36337,179885
2.37148,228341
2.37960,209460
2.38773,177464
2.39585,163002
2.40397,161903
2.41210,170854
2.42022,165471
2.42835,155595
2.43647,165760
2.44458,160164
2.45272,152496
2.46083,138206
2.46897,144195
2.47708,151507
2.48520,157945
2.49333,144508
2.50145,137488
2.50957,144399
2.51770,133108
2.52582,137635
2.53395,143126
2.54207,174961
2.55018,202387
2.55832,164936
2.56643,145081
2.57457,137304
2.58268,141055
2.59080,196202
2.59893,514904
2.60705,622973
2.61518,414834
2.62330,286977
2.63142,241292
2.63955,206523
2.64767,188033
2.65578,179532
2.66392,193710
2.67203,192552
2.68017,165876
2.68828,149835
2.69640,137705
2.70453,141416
2.71265,136425
2.72078,134261
2.72890,136534
2.73702,131156
2.74515,128977
2.75327,128008
2.76138,127378
2.76952,153408
2.77763,177064
2.78577,159869
2.79388,145781
2.80200,159255
2.81013,207402
2.81825,413705
2.82638,479461
2.83450,302782
2.84262,199773
2.85075,193178
2.85887,185769
2.86700,159101
2.87512,146140
2.88323,137334
2.89137,128429
2.89948,124221
2.90760,125458
2.91573,121573
2.92385,118242
2.93198,118420
2.94010,116473
2.94822,118031
2.95635,115985
2.96447,125840
2.97260,120869
2.98072,119336
2.98883,138694
2.99697,148436
3.00508,154711
3.01322,246748
3.02133,511404
3.02945,736584
3.03758,1457149
3.04570,4348959
3.05382,6289357
3.06195,4224728
3.07007,2090397
3.07820,1850044
3.08632,2321786
3.09443,3067089
3.10257,3672088
3.11068,2738500
3.11882,1785264
3.12693,1370909
3.13505,1122723
3.14318,938651
3.15130,821151
3.15942,735943
3.16755,704550
3.17567,787056
3.18380,1053656
3.19192,1018903
3.20003,772220
3.20817,659545
3.21628,587234
3.22442,536346
3.23253,469158
3.24065,435721
3.24878,386161
3.25690,356960
3.26503,364544
3.27315,467981
3.28127,770260
3.28940,1386490
3.29752,1912862
3.30563,1939067
3.31377,1600900
3.32188,1306433
3.33002,1102124
3.33813,952163
3.34625,838720
3.35438,792657
3.36250,894931
3.37063,1018277
3.37875,952564
3.38687,856642
3.39500,1310084
3.40312,2310233
3.41125,2570641
3.41937,1757218
3.42748,1034864
3.43562,728840
3.44373,611524
3.45185,542312
3.45998,517633
3.46810,471752
3.47623,436677
3.48435,410824
3.49247,387282
3.50060,373878
3.50872,358001
3.51685,349399
3.52497,340998
3.53308,342718
3.54122,328377
3.54933,317417
3.55745,380183
3.56558,461877
3.57370,465501
3.58183,385624
3.58995,345197
3.59807,350595
3.60620,469983
3.61432,870244
3.62245,1506061
3.63057,1665129
3.63868,1206100
3.64682,754027
3.65493,845304
3.66307,1723394
3.67118,2692641
3.67930,2374743
3.68743,1483785
3.69555,1024506
3.70367,820069
3.71180,700875
3.71992,646230
3.72805,598884
3.73617,541605
3.74428,523841
3.75242,504066
3.76053,497102
3.76867,478173
3.77678,465042
3.78490,450501
3.79303,529771
3.80115,774431
3.80927,983109
3.81740,861079
3.82552,648088
3.83365,537788
3.84177,476054
3.84988,428877
3.85802,403743
3.86613,385558
3.87427,374456
3.88238,360903
3.89050,350836
3.89863,347489
3.90675,386210
3.91488,439540
3.92300,475054
3.93112,484327
3.93925,705720
3.94737,1504678
3.95548,2472928
3.96362,2460299
3.97173,1636952
3.97987,1245613
3.98798,2477103
3.99610,6502603
4.00423,1.064573E+07
4.01235,1.040711E+07
4.02048,6469417
4.02860,3412837
4.03672,2075173
4.04485,1522597
4.05297,1236392
4.06110,1018012
4.06922,871415
4.07733,777639
4.08547,683959
4.09358,616672
4.10170,568755
4.10983,521391
4.11795,481094
4.12608,486104
4.13420,508576
4.14232,523571
4.15045,508904
4.15857,459294
4.16670,431293
4.17482,389762
4.18293,376092
4.19107,364572
4.19918,550637
4.20730,1844677
4.21543,5618711
4.22355,1.094346E+07
4.23168,1.385652E+07
4.23980,1.205095E+07
4.24792,8000403
4.25605,5372081
4.26417,3930766
4.27230,2962351
4.28042,2327417
4.28853,1863817
4.29667,1557701
4.30478,1315365
4.31292,1141024
4.32103,1014396
4.32915,916716
4.33728,858585
4.34540,806691
4.35352,758782
4.36165,705095
4.36977,653859
4.37790,609967
4.38602,573977
4.39413,552475
4.40227,511956
4.41038,491767
4.41852,476533
4.42663,453697
4.43475,440479
4.44288,450343
4.45100,438736
4.45913,416723
4.46725,403030
4.47537,387051
4.48350,376929
4.49162,360280
4.49973,351663
4.50787,337209
4.51598,334343
4.52412,324613
4.53223,317091
4.54035,312029
4.54848,305456
4.55660,299412
4.56473,294978
4.57285,290149
4.58097,279832
4.58910,274593
4.59722,274826
4.60533,272204
4.61347,303877
4.62158,363043
4.62972,430689
4.63783,447172
4.64595,394328
4.65408,332646
4.66220,296116
4.67033,278368
4.67845,274448
4.68657,257706
4.69470,247594
4.70282,244860
4.71095,240530
4.71907,233828
4.72718,226473
4.73532,231930
4.74343,229592
4.75155,221504
4.75968,220086
4.76780,214542
4.77593,214689
4.78405,230662
4.79217,282004
4.80030,317649
4.80842,315623
4.81655,280715
4.82467,243687
4.83278,248948
4.84092,257161
4.84903,251264
4.85717,254511
4.86528,244365
4.87340,236505
4.88153,225498
4.88965,214961
4.89777,210634
4.90590,209752
4.91402,261427
4.92215,360515
4.93027,537789
4.93838,722389
4.94652,820146
4.95463,785093
4.96277,659808
4.97088,543525
4.97900,492212
4.98713,424950
4.99525,403457
5.00337,383005
5.01150,382492
5.01962,474604
5.02775,640873
5.03587,770478
5.04398,725649
5.05212,612746
5.06023,506201
5.06837,452286
5.07648,427990
5.08460,400350
5.09273,414171
5.10085,427678
5.10898,453290
5.11710,438726
5.12522,401607
5.13335,367329
5.14147,340040
5.14958,351289
5.15772,368223
5.16583,390768
5.17397,419487
5.18208,420020
5.19020,405902
5.19833,372329
5.20645,351351
5.21458,323985
5.22270,305733
5.23082,298662
5.23895,300018
5.24707,291034
5.25518,273713
5.26332,264039
5.27143,254260
5.27957,240609
5.28768,239102
5.29580,230504
5.30393,227967
5.31205,232573
5.32018,233145
5.32830,231473
5.33642,238726
5.34455,226871
5.35267,220694
5.36080,218477
5.36892,205682
5.37703,199054
5.38517,205206
5.39328,202029
5.40140,198763
5.40953,197827
5.41765,198575
5.42578,194630
5.43390,189294
5.44202,195185
5.45015,190714
5.45827,189089
5.46640,184810
5.47452,181514
5.48263,183311
5.49077,178243
5.49888,185399
5.50702,187991
5.51513,180968
5.52325,183136
5.53138,184305
5.53950,181917
5.54762,184201
5.55575,177386
5.56387,192749
5.57200,193665
5.58012,199293
5.58823,191442
5.59637,191802
5.60448,178407
5.61262,186122
5.62073,200005
5.62885,203717
5.63698,207707
5.64510,200646
5.65322,190009
5.66135,186420
5.66947,190069
5.67760,194856
5.68572,207750
5.69383,214048
5.70197,219161
5.71008,225981
5.71822,231238
5.72633,226744
5.73445,214471
5.74258,207037
5.75070,213219
5.75883,214776
5.76695,230175
5.77507,223725
5.78320,211080
5.79132,217045
5.79943,299568
5.80757,450955
5.81568,700414
5.82382,941122
5.83193,979855
5.84005,835439
5.84818,620144
5.85630,425515
5.86443,321196
5.87255,262509
5.88067,237797
5.88880,229698
5.89692,240636
5.90505,276145
5.91317,349376
5.92128,442457
5.92942,474667
5.93753,450938
5.94565,359304
5.95378,304328
5.96190,282130
5.97003,275115
5.97815,285046
5.98627,292772
5.99440,268120
6.00252,221111
6.01065,193877
6.01877,177694
6.02688,167559
6.03502,151900
6.04313,152806
6.05125,141287
6.05938,137051
6.06750,137130
6.07563,136718
6.08375,131776
6.09187,132596
6.10000,132144
6.10812,141207
6.11625,151523
6.12437,183423
6.13248,257493
6.14062,292792
6.14873,288773
6.15687,237389
6.16498,208470
6.17310,193154
6.18123,180009
6.18935,191490
6.19747,197457
6.20560,191841
6.21372,180566
6.22185,171147
6.22997,163492
6.23808,165888
6.24622,156737
6.25433,160319
6.26247,166001
6.27058,164715
6.27870,164743
6.28683,160305
6.29495,166637
6.30307,176890
6.31120,176053
6.31932,189299
6.32745,196716
6.33557,210562
6.34368,210528
6.35182,196727
6.35993,197338
6.36807,200893
6.37618,191968
6.38430,192778
6.39243,187034
6.40055,201074
6.40868,197352
6.41680,202636
6.42492,194348
6.43305,201490
6.44117,203733
6.44928,204636
6.45742,203895
6.46553,197582
6.47367,208386
6.48178,211983
6.48990,215024
6.49803,224147
6.50615,218802
6.51428,221951
6.52240,227842
6.53052,222269
6.53865,226629
6.54677,231512
6.55490,226016
6.56302,236362
6.57113,240212
6.57927,236220
6.58738,239296
6.59550,233474
6.60363,231097
6.61175,236932
6.61988,229241
6.62800,232037
6.63612,220967
6.64425,231219
6.65237,250865
6.66050,253752
6.66862,265573
6.67673,287572
6.68487,317543
6.69298,348164
6.70112,351020
6.70923,315341
6.71735,276494
6.72548,254970
6.73360,246604
6.74172,221518
6.74985,173873
6.75797,153208
6.76610,153814
6.77422,190345
6.78233,260198
6.79047,411709
6.79858,578640
6.80672,684955
6.81483,661905
6.82295,526299
6.83108,362268
6.83920,267755
6.84732,246161
6.85545,228085
6.86357,220169
6.87170,201420
6.87982,162355
6.88793,128806
6.89607,120378
6.90418,109137
6.91232,108311
6.92043,126084
6.92855,157872
6.93668,212673
6.94480,266148
6.95293,286439
6.96105,273030
6.96917,236933
6.97730,190142
6.98542,146908
6.99353,129876
7.00167,107104
7.00978,102321
7.01792,98537
7.02603,94593
7.03415,95843
7.04228,93910
7.05040,92668
7.05853,86380
7.06665,84152
7.07477,84411
7.08290,86699
7.09102,78907
7.09913,78360
7.10727,74013
7.11538,71063
7.12352,77429
7.13163,86081
7.13975,91990
7.14788,101217
7.15600,127363
7.16413,130450
7.17225,138554
7.18037,146223
7.18850,146292
7.19662,158709
7.20475,197828
7.21287,360380
7.22098,665044
7.22912,998032
7.23723,1047476
7.24535,869206
7.25348,582614
7.26160,374580
7.26973,267058
7.27785,211346
7.28597,179039
7.29410,162685
7.30222,179294
7.31035,206341
7.31847,228708
7.32658,229278
7.33472,207023
7.34283,180363
7.35097,145867
7.35908,120635
7.36720,109669
7.37533,109190
7.38345,107228
7.39157,105593
7.39970,108806
7.40782,134273
7.41595,146049
7.42407,156628
7.43218,156760
7.44032,153548
7.44843,129120
7.45657,112719
7.46468,98739
7.47280,93139
7.48093,85204
7.48905,82889
7.49717,78608
7.50530,81830
7.51342,82375
7.52155,100074
7.52967,108884
7.53778,124089
7.54592,135783
7.55403,141261
7.56217,131745
7.57028,121276
7.57840,105645
7.58653,93153
7.59465,83705
7.60278,80916
7.61090,75296
7.61902,80318
7.62715,73501
7.63527,74762
7.64338,76335
7.65152,73178
7.65963,72995
7.66777,70152
7.67588,68523
7.68400,67686
7.69213,71535
7.70025,64025
7.70838,68628
7.71650,69821
7.72462,71662
7.73275,70633
7.74087,64457
7.74900,66624
7.75712,70559
7.76523,72885
7.77337,65331
7.78148,66822
7.78960,69543
7.79773,72506
7.80585,71253
7.81398,74625
7.82210,67773
7.83022,64555
7.83835,64225
7.84647,62275
7.85460,63167
7.86272,61230
7.87083,63327
7.87897,67579
7.88708,68597
7.89520,66815
7.90333,63644
7.91145,68743
7.91958,69510
7.92770,83425
7.93582,88346
7.94395,87809
7.95207,87369
7.96020,81894
7.96832,74745
7.97643,70963
7.98457,68855
7.99268,58928
8.00082,60983
8.00893,62880
8.01705,63576
8.02518,62790
8.03330,60548
8.04142,60531
8.04955,60495
8.05767,57864
8.06580,59110
8.07392,56115
8.08203,60500
8.09017,63787
8.09828,56506
8.10642,57712
8.11453,58386
8.12265,65761
8.13078,64230
8.13890,69807
8.14702,74175
8.15515,67539
8.16327,64764
8.17140,61670
8.17952,56317
8.18763,56528
8.19577,53689
8.20388,58070
8.21202,57901
8.22013,58482
8.22825,55978
8.23638,55522
8.24450,53910
8.25263,54522
8.26075,56564
8.26887,54071
8.27700,55602
8.28512,54487
8.29323,57931
8.30137,64093
8.30948,68187
8.31762,73251
8.32573,72321
8.33385,63204
8.34198,57477
8.35010,52868
8.35823,54025
8.36635,51020
8.37447,51417
8.38260,53849
8.39072,55693
8.39885,50538
8.40697,52924
8.41508,51767
8.42322,54910
8.43133,48127
8.43945,51449
8.44758,52899
8.45570,50313
8.46383,49930
8.47195,52031
8.48007,50497
8.48820,50554
8.49632,53421
8.50445,56757
8.51257,56118
8.52068,62104
8.52882,82546
8.53693,110029
8.54505,130763
8.55318,136246
8.56130,117849
8.56943,92140
8.57755,76169
8.58567,64561
8.59380,58301
8.60192,58809
8.61005,56080
8.61817,55603
8.62628,54489
8.63442,53690
8.64253,53842
8.65067,54046
8.65878,52597
8.66690,51636
8.67503,56095
8.68315,54399
8.69127,54898
8.69940,57023
8.70752,57852
8.71565,63107
8.72377,81892
8.73188,118760
8.74002,167154
8.74813,198202
8.75627,203095
8.76438,181735
8.77250,151271
8.78063,115773
8.78875,99006
8.79688,86018
8.80500,88311
8.81312,83638
8.82125,86290
8.82937,83747
8.83748,89567
8.84562,84458
8.85373,82186
8.86187,77600
8.86998,82789
8.87810,78689
8.88623,72997
8.89435,75106
8.90248,72208
8.91060,72603
8.91872,73541
8.92685,76667
8.93497,75076
8.94308,83028
8.95122,85984
8.95933,84994
8.96747,71633
8.97558,80751
8.98370,75231
8.99183,73218
8.99995,70052
9.00808,73068
9.01620,70407
9.02432,67431
9.03245,65274
9.04057,64135
9.04870,62739
9.05682,69155
9.06493,67637
9.07307,62367
9.08118,64753
9.08930,64194
9.09743,70000
9.10555,69517
9.11368,74064
9.12180,71571
9.12992,68380
9.13805,68086
9.14617,64284
9.15430,62395
9.16242,63872
9.17053,58529
9.17867,60657
9.18678,60207
9.19490,56253
9.20303,54530
9.21115,56420
9.21928,59341
9.22740,56891
9.23552,53355
9.24365,60006
9.25177,65071
9.25990,69445
9.26802,66770
9.27613,72947
9.28427,77160
9.29238,70762
9.30052,63398
9.30863,61868
9.31675,59115
9.32488,63353
9.33300,64907
9.34112,64881
9.34925,62325
9.35737,58504
9.36550,59425
9.37362,55639
9.38173,56554
9.38987,56826
9.39798,54665
9.40612,59970
9.41423,64779
9.42235,63966
9.43048,64804
9.43860,65269
9.44673,64032
9.45485,57339
9.46297,56485
9.47110,51769
9.47922,53827
9.48733,54843
9.49547,55145
9.50358,59233
9.51172,61285
9.51983,68560
9.52795,59725
9.53608,58263
9.54420,53885
9.55233,49418
9.56045,46729
9.56857,46301
9.57670,49781
9.58482,56113
9.59293,51359
9.60107,53040
9.60918,50324
9.61732,48864
9.62543,52190
9.63355,53734
9.64168,53814
9.64980,54160
9.65793,46038
9.66605,46372
9.67417,43034
9.68230,42742
9.69042,41647
9.69855,41671
9.70667,39624
9.71478,41778
9.72292,36310
9.73103,40623
9.73915,40510
9.74728,39009
9.75540,36124
9.76353,40236
9.77165,41391
9.77977,41973
9.78790,39286
9.79602,39162
9.80415,36380
9.81227,40729
9.82038,38228
9.82852,40013
9.83663,40269
9.84477,40806
9.85288,40415
9.86100,40865
9.86913,42048
9.87725,37324
9.88537,36003
9.89350,38866
9.90162,41947
9.90975,43042
9.91787,49551
9.92598,64244
9.93412,82455
9.94223,98304
9.95037,118781
9.95848,117857
9.96660,105919
9.97473,88360
9.98285,65401
9.99097,56402
9.99910,51399
10.00722,47906
10.01535,43972
10.02347,46164
10.03158,44385
10.03972,42203
10.04783,43205
10.05597,43317
10.06408,45588
10.07220,45578
10.08033,42840
10.08845,41757
10.09658,45894
10.10470,41777
10.11282,39232
10.12095,42035
10.12907,40147
10.13718,41906
10.14532,38058
10.15343,40782
10.16157,37169
10.16968,38838
10.17780,39917
10.18593,39520
10.19405,38262
10.20218,38511
10.21030,38373
10.21842,41550
10.22655,44952
10.23467,44159
10.24280,47917
10.25092,55371
10.25903,77528
10.26717,153561
10.27528,294153
10.28340,546166
10.29153,859078
10.29965,1264564
10.30778,1788045
10.31590,2644814
10.32402,3576456
10.33215,4016476
10.34027,3627154
10.34840,2585568
10.35652,1536038
10.36463,878631
10.37277,531413
10.38088,369269
10.38900,268299
10.39713,208098
10.40525,176862
10.41338,152307
10.42150,136644
10.42962,123037
10.43775,117348
10.44587,110069
10.45400,109017
10.46212,100424
10.47023,97595
10.47837,94650
10.48648,95258
10.49462,83600
10.50273,87342
10.51085,79074
10.51898,79116
10.52710,71794
10.53522,74651
10.54335,74399
10.55147,70204
10.55960,68946
10.56772,66481
10.57583,72919
10.58397,65615
10.59208,64264
10.60022,62578
10.60833,55704
10.61645,60657
10.62458,58044
10.63270,58914
10.64082,53421
10.64895,56519
10.65707,55238
10.66520,57364
10.67332,58946
10.68143,57930
10.68957,61197
10.69768,57151
10.70582,53493
10.71393,53436
10.72205,51739
10.73018,52404
10.73830,57425
10.74643,55084
10.75455,53578
10.76267,52866
10.77080,48682
10.77892,45533
10.78703,48562
10.79517,48349
10.80328,51674
10.81142,44499
10.81953,45481
10.82765,46460
10.83578,43640
10.84390,44578
10.85203,41790
10.86015,43142
10.86827,41670
10.87640,42380
10.88452,40425
10.89265,42067
10.90077,42330
10.90888,39124
10.91702,40897
10.92513,40905
10.93325,42771
10.94138,40693
10.94950,38796
10.95763,42874
10.96575,43114
10.97387,45617
10.98200,46003
10.99012,41775
10.99825,41118
11.00637,43536
11.01448,41527
11.02262,40268
11.03073,38564
11.03885,37838
11.04698,44809
11.05510,40516
11.06323,40708
11.07135,45189
11.07947,46483
11.08760,49848
11.09572,51357
11.10385,47792
11.11197,48951
11.12008,47270
11.12822,42631
11.13633,48303
11.14447,46469
11.15258,48857
11.16070,46589
11.16883,46629
11.17695,47145
11.18507,47698
11.19320,50268
11.20132,46392
11.20945,48324
11.21757,45929
11.22568,45933
11.23382,42835
11.24193,47039
11.25007,51480
11.25818,60664
11.26630,73023
11.27443,88640
11.28255,90730
11.29068,102385
11.29880,99379
11.30692,103767
11.31505,111273
11.32317,123980
11.33128,135598
11.33942,138055
11.34753,132815
11.35567,114512
11.36378,94870
11.37190,86141
11.38003,73752
11.38815,69352
11.39628,71181
11.40440,63979
11.41252,58969
11.42065,58023
11.42877,56031
11.43688,49499
11.44502,54347
11.45313,52973
11.46127,54176
11.46938,55597
11.47750,63187
11.48563,72448
11.49375,80148
11.50188,81166
11.51000,84161
11.51812,73938
11.52625,75772
11.53437,70061
11.54250,67325
11.55062,62020
11.55873,60226
11.56687,52336
11.57498,52246
11.58310,54772
11.59123,55996
11.59935,61939
11.60748,76134
11.61560,78987
11.62372,80719
11.63185,73851
11.63997,65263
11.64810,58319
11.65622,56794
11.66433,50502
11.67247,54874
11.68058,56850
11.68870,64359
11.69683,75458
11.70495,68217
11.71308,70700
11.72120,73457
11.72932,65838
11.73745,62047
11.74557,62748
11.75370,55597
11.76182,50957
11.76993,53516
11.77807,48961
11.78618,50431
11.79432,51745
11.80243,51542
11.81055,51481
11.81868,49815
11.82680,49555
11.83492,46680
11.84305,44168
11.85117,40660
11.85930,41715
11.86742,38451
11.87553,39856
11.88367,39061
11.89178,40414
11.89992,46681
11.90803,47270
11.91615,51779
11.92428,56829
11.93240,54949
11.94053,53831
11.94865,53160
11.95677,48387
11.96490,44663
11.97302,36866
11.98113,45642
11.98927,44462
11.99738,47050
12.00552,52008
12.01363,54792
12.02175,51593
12.02988,45763
12.03800,45727
12.04613,40020
12.05425,42092
12.06237,40857
12.07050,38090
12.07862,37216
12.08675,40157
12.09487,39919
12.10298,43557
12.11112,39366
12.11923,38938
12.12735,41317
12.13548,39694
12.14360,40736
12.15173,37416
12.15985,39979
12.16797,36672
12.17610,34491
12.18422,35762
12.19235,36266
12.20047,34727
12.20858,32206
12.21672,34299
12.22483,38490
12.23295,35539
12.24108,33882
12.24920,36796
12.25733,36039
12.26545,37086
12.27357,36841
12.28170,37656
12.28982,37459
12.29795,37141
12.30607,39398
12.31418,37432
12.32232,36854
12.33043,38430
12.33857,37540
12.34668,35282
12.35480,34375
12.36293,35110
12.37105,37516
12.37917,35628
12.38730,39424
12.39542,45272
12.40355,52077
12.41167,62395
12.41978,73867
12.42792,74860
12.43603,72257
12.44417,62163
12.45228,54269
12.46040,48196
12.46853,45359
12.47665,40930
12.48477,38222
12.49290,38434
12.50102,38709
12.50915,36760
12.51727,34780
12.52538,40628
12.53352,41717
12.54163,51257
12.54977,57612
12.55788,71495
12.56600,72743
12.57413,75498
12.58225,70004
12.59038,56971
12.59850,46994
12.60662,45105
12.61475,47038
12.62287,41509
12.63098,36122
12.63912,35939
12.64723,37554
12.65537,37771
12.66348,35818
12.67160,41617
12.67973,34324
12.68785,35207
12.69598,37247
12.70410,37088
12.71222,40028
12.72035,48553
12.72847,48992
12.73658,49148
12.74472,46271
12.75283,42647
12.76097,39656
12.76908,39690
12.77720,42289
12.78533,42252
12.79345,41351
12.80158,41910
12.80970,37105
12.81782,36267
12.82595,34817
12.83407,34599
12.84220,33290
12.85032,35500
12.85843,34846
12.86657,36363
12.87468,34701
12.88280,31297
12.89093,33249
12.89905,33159
12.90718,31895
12.91530,35195
12.92342,37112
12.93155,43324
12.93967,49507
12.94780,63725
12.95592,70611
12.96403,78683
12.97217,83759
12.98028,80495
12.98842,76375
12.99653,63055
13.00465,62362
13.01278,52572
13.02090,52490
13.02902,46381
13.03715,47253
13.04527,43247
13.05340,40459
13.06152,40564
13.06963,40758
13.07777,36362
13.08588,36844
13.09402,32107
13.10213,34697
13.11025,34897
13.11838,34977
13.12650,38081
13.13463,36353
13.14275,36482
13.15087,34943
13.15900,38381
13.16712,38288
13.17523,34166
13.18337,34395
13.19148,36355
13.19962,36038
13.20773,34645
13.21585,37608
13.22398,34728
13.23210,38546
13.24023,41533
13.24835,41445
13.25647,43662
13.26460,41434
13.27272,40895
13.28083,44462
13.28897,36678
13.29708,40543
13.30522,41702
13.31333,41086
13.32145,45899
13.32958,45331
13.33770,39191
13.34583,34303
13.35395,37854
13.36207,33877
13.37020,35120
13.37832,36817
13.38645,34753
13.39457,34456
13.40268,34894
13.41082,33823
13.41893,33518
13.42705,34826
13.43518,33718
13.44330,32585
13.45143,30691
13.45955,29291
13.46767,29777
13.47580,31793
13.48392,29379
13.49205,29819
13.50017,32877
13.50828,32364
13.51642,32788
13.52453,33205
13.53265,35049
13.54078,36635
13.54890,41238
13.55703,42500
13.56515,37897
13.57327,39573
13.58140,38759
13.58952,42132
13.59765,51134
13.60577,63299
13.61388,78711
13.62202,87014
13.63013,92536
13.63827,75484
13.64638,64439
13.65450,56603
13.66263,43885
13.67075,44023
13.67887,43235
13.68700,37374
13.69512,45823
13.70325,41365
13.71137,39930
13.71948,45194
13.72762,36281
13.73573,34950
13.74387,40751
13.75198,50185
13.76010,52618
13.76823,66127
13.77635,78091
13.78448,79072
13.79260,79401
13.80072,81545
13.80885,90947
13.81697,87238
13.82508,97301
13.83322,85352
13.84133,91541
13.84947,75639
13.85758,64633
13.86570,58091
13.87383,55372
13.88195,50269
13.89008,54607
13.89820,52790
13.90632,51806
13.91445,49513
13.92257,44688
13.93068,44064
13.93882,40754
13.94693,40823
13.95507,40864
13.96318,42188
13.97130,39874
13.97943,39666
13.98755,39661
13.99568,41736
14.00380,39936
14.01192,40205
14.02005,41067
14.02817,37301
14.03630,37024
14.04442,36744
14.05253,35572
14.06067,35605
14.06878,34393
14.07690,33137
14.08503,36791
14.09315,33264
14.10128,31883
14.10940,32899
14.11752,33258
14.12565,34489
14.13377,45786
14.14190,62506
14.15002,76760
14.15813,83116
14.16627,88710
14.17438,88866
14.18252,82392
14.19063,70888
14.19875,73817
14.20688,61724
14.21500,59039
14.22312,64506
14.23125,59067
14.23937,59645
14.24750,57295
14.25562,56134
14.26373,51788
14.27187,52040
14.27998,47422
14.28812,45240
14.29623,45170
14.30435,44247
14.31248,39276
14.32060,34949
14.32872,34487
14.33685,34933
14.34497,32363
14.35310,33607
14.36122,27135
14.36933,32472
14.37747,33976
14.38558,37125
14.39372,49697
14.40183,73848
14.40995,98318
14.41808,122096
14.42620,126286
14.43433,116505
14.44245,92822
14.45057,70011
14.45870,60665
14.46682,54695
14.47493,49166
14.48307,44220
14.49118,43781
14.49932,42520
14.50743,39980
14.51555,35824
14.52368,37798
14.53180,37121
14.53993,37134
14.54805,39349
14.55617,35387
14.56430,38048
14.57242,35634
14.58053,32514
14.58867,36440
14.59678,33389
14.60492,35041
14.61303,33048
14.62115,32576
14.62928,27802
14.63740,32701
14.64553,33225
14.65365,31695
14.66177,30279
14.66990,31476
14.67802,32824
14.68615,29835
14.69427,28209
14.70238,32249
14.71052,29298
14.71863,32345
14.72675,30049
14.73488,30155
14.74300,32475
14.75113,34547
14.75925,36925
14.76737,31396
14.77550,34704
14.78362,42703
14.79175,66953
14.79987,132971
14.80798,265220
14.81612,473090
14.82423,677698
14.83237,742902
14.84048,667688
14.84860,504777
14.85673,344920
14.86485,216742
14.87297,149863
14.88110,121472
14.88922,95180
14.89735,88890
14.90547,82422
14.91358,73560
14.92172,67663
14.92983,65742
14.93797,59585
14.94608,60067
14.95420,62380
14.96233,55358
14.97045,53284
14.97857,48903
14.98670,49635
14.99482,48144
15.00295,44512
15.01107,46239
15.01918,49311
15.02732,47431
15.03543,45787
15.04357,47739
15.05168,41175
15.05980,41209
15.06793,42611
15.07605,39572
15.08418,41997
15.09230,38800
15.10042,38793
15.10855,41178
15.11667,40401
15.12478,41791
15.13292,41468
15.14103,43786
15.14917,38160
15.15728,38532
15.16540,39675
15.17353,39357
15.18165,37173
15.18978,34727
15.19790,34049
15.20602,32801
15.21415,36179
15.22227,33391
15.23040,33029
15.23852,31973
15.24663,32214
15.25477,31237
15.26288,30321
15.27100,31229
15.27913,34050
15.28725,29320
15.29538,31701
15.30350,30282
15.31162,33225
15.31975,31064
15.32787,32447
15.33600,28987
15.34412,30005
15.35223,29058
15.36037,32339
15.36848,29862
15.37660,29356
15.38473,30902
15.39285,31909
15.40098,31035
15.40910,32147
15.41722,29600
15.42535,27296
15.43347,27904
15.44160,31259
15.44972,26934
15.45783,28023
15.46597,33625
15.47408,36286
15.48222,42396
15.49033,46381
15.49845,46678
15.50658,47884
15.51470,44473
15.52282,44799
15.53095,38549
15.53907,39438
15.54720,32147
15.55532,32474
15.56343,31361
15.57157,31275
15.57968,32476
15.58782,25617
15.59593,32543
15.60405,34721
15.61218,28478
15.62030,30671
15.62843,27971
15.63655,29833
15.64467,28404
15.65280,29103
15.66092,26880
15.66903,28520
15.67717,29021
15.68528,28819
15.69342,32335
15.70153,29532
15.70965,30186
15.71778,28774
15.72590,35180
15.73403,29452
15.74215,34886
15.75027,40399
15.75840,48984
15.76652,62215
15.77463,74671
15.78277,90075
15.79088,88062
15.79902,79605
15.80713,69081
15.81525,56113
15.82338,48491
15.83150,43114
15.83963,37693
15.84775,39608
15.85587,34566
15.86400,32823
15.87212,35884
15.88025,32926
15.88837,35417
15.89648,35013
15.90462,33787
15.91273,33351
15.92085,33865
15.92898,34821
15.93710,33477
15.94523,34438
15.95335,34931
15.96147,30639
15.96960,36668
15.97772,36156
15.98585,36896
15.99397,42472
16.00208,50887
16.01022,51195
16.01833,60689
16.02645,63530
16.03458,53488
16.04270,48881
16.05083,46907
16.05895,42981
16.06707,39274
16.07520,34966
16.08332,31883
16.09145,30142
16.09957,31465
16.10768,35493
16.11582,34276
16.12393,35301
16.13207,33188
16.14018,34536
16.14830,32538
16.15643,35125
16.16455,35398
16.17267,36874
16.18080,35470
16.18892,36276
16.19705,31106
16.20517,29512
16.21328,31412
16.22142,30047
16.22953,30772
16.23767,31780
16.24578,29952
16.25390,30258
16.26203,29378
16.27015,33275
16.27828,28857
16.28640,32641
16.29452,31562
16.30265,30570
16.31077,32301
16.31888,32542
16.32702,29759
16.33513,32937
16.34327,32012
16.35138,30840
16.35950,30838
16.36763,32252
16.37575,32777
16.38388,33142
16.39200,33248
16.40012,32897
16.40825,29831
16.41637,30546
16.42448,31754
16.43262,29997
16.44073,34095
16.44887,44248
16.45698,61944
16.46510,81880
16.47323,98831
16.48135,109660
16.48948,110154
16.49760,90933
16.50572,68002
16.51385,54175
16.52197,46598
16.53010,41962
16.53822,38181
16.54633,39813
16.55447,35685
16.56258,36649
16.57070,39348
16.57883,38566
16.58695,35241
16.59508,36127
16.60320,32934
16.61132,33645
16.61945,34239
16.62757,31579
16.63570,34071
16.64382,33731
16.65193,33804
16.66007,32695
16.66818,33146
16.67632,32335
16.68443,31117
16.69255,31360
16.70068,27159
16.70880,31774
16.71692,33679
16.72505,31806
16.73317,32155
16.74130,33345
16.74942,29677
16.75753,30138
16.76567,30627
16.77378,33468
16.78192,31731
16.79003,31432
16.79815,30523
16.80628,29737
16.81440,29639
16.82252,31796
16.83065,30150
16.83877,29838
16.84690,30404
16.85502,32395
16.86313,32028
16.87127,30213
16.87938,29291
16.88752,27644
16.89563,29871
16.90375,30435
16.91188,31081
16.92000,28288
16.92813,30959
16.93625,28483
16.94437,29492
16.95250,28301
16.96062,29449
16.96873,26665
16.97687,29802
16.98498,30788
16.99312,30209
17.00123,29466
17.00935,27978
17.01748,31324
17.02560,29268
17.03373,33987
17.04185,30563
17.04997,32502
17.05810,30215
17.06622,33317
17.07433,31365
17.08247,29200
17.09058,32151
17.09872,30457
17.10683,28438
17.11495,30742
17.12308,27078
17.13120,30696
17.13933,33293
17.14745,31210
17.15557,30962
17.16370,32549
17.17182,29243
17.17995,31267
17.18807,31290
17.19618,30321
17.20432,30171
17.21243,27210
17.22055,24694
17.22868,28554
17.23680,30100
17.24493,30636
17.25305,29926
17.26117,32179
17.26930,29417
17.27742,27030
17.28555,26583
17.29367,30194
17.30178,29517
17.30992,27936
17.31803,27857
17.32617,32597
17.33428,32044
17.34240,33311
17.35053,31375
17.35865,36572
17.36677,35772
17.37490,33071
17.38302,33508
17.39115,34322
17.39927,33989
17.40738,34629
17.41552,37240
17.42363,34712
17.43177,33644
17.43988,30387
17.44800,31375
17.45613,32183
17.46425,31014
17.47237,30117
17.48050,29054
17.48862,32027
17.49675,35522
17.50487,34054
17.51298,41103
17.52112,37321
17.52923,41533
17.53737,43193
17.54548,45700
17.55360,48169
17.56173,57643
17.56985,67985
17.57798,86434
17.58610,103736
17.59422,116700
17.60235,127639
17.61047,124765
17.61858,108003
17.62672,90764
17.63483,76636
17.64297,60071
17.65108,60378
17.65920,51103
17.66733,49597
17.67545,52960
17.68358,44401
17.69170,42949
17.69982,41378
17.70795,41827
17.71607,40713
17.72420,41444
17.73232,39472
17.74043,41343
17.74857,37411
17.75668,39932
17.76480,39214
17.77293,39737
17.78105,37047
17.78918,45167
17.79730,48456
17.80542,56319
17.81355,67901
17.82167,79979
17.82980,80081
17.83792,77699
17.84603,72572
17.85417,65676
17.86228,57185
17.87040,50857
17.87853,46624
17.88665,46397
17.89478,40827
17.90290,40042
17.91102,40039
17.91915,36683
17.92727,37337
17.93540,37174
17.94352,37477
17.95163,37274
17.95977,35286
17.96788,30106
17.97602,34146
17.98413,33830
17.99225,34708
18.00038,36734
18.00850,38794
18.01662,41086
18.02475,45633
18.03287,44031
18.04100,49298
18.04912,54218
18.05723,81100
18.06537,139149
18.07348,253557
18.08162,433877
18.08973,600165
18.09785,683230
18.10598,635848
18.11410,479517
18.12222,333706
18.13035,235999
18.13847,191734
18.14660,171880
18.15472,192604
18.16283,208118
18.17097,234566
18.17908,242027
18.18722,251217
18.19533,252643
18.20345,248015
18.21158,252391
18.21970,250034
18.22783,255874
18.23595,240917
18.24407,243238
18.25220,232952
18.26032,232964
18.26843,223898
18.27657,225424
18.28468,216217
18.29282,209228
18.30093,210174
18.30905,190652
18.31718,189019
18.32530,191378
18.33343,183404
18.34155,177949
18.34967,176822
18.35780,173813
18.36592,171147
18.37405,172626
18.38217,165209
18.39028,160104
18.39842,160576
18.40653,159859
18.41465,153202
18.42278,159543
18.43090,153679
18.43903,154788
18.44715,162763
18.45527,160908
18.46340,174903
18.47152,180727
18.47965,178608
18.48777,173078
18.49588,161721
18.50402,157323
18.51213,146473
18.52027,133768
18.52838,130427
18.53650,123896
18.54463,117135
18.55275,123173
18.56087,119815
18.56900,112102
18.57712,114472
18.58525,111887
18.59337,110163
18.60148,113322
18.60962,106175
18.61773,108267
18.62587,112863
18.63398,105267
18.64210,98530
18.65023,99197
18.65835,95839
18.66647,98287
18.67460,94578
18.68272,99835
18.69085,94917
18.69897,88409
18.70708,95854
18.71522,91464
18.72333,81115
18.73147,83874
18.73958,75707
18.74770,84017
18.75583,79783
18.76395,76703
18.77208,80752
18.78020,80481
18.78832,74348
18.79645,73137
18.80457,74045
18.81268,75944
18.82082,72978
18.82893,71365
18.83707,72436
18.84518,69379
18.85330,73396
18.86143,70942
18.86955,64905
18.87768,69128
18.88580,66114
18.89392,63838
18.90205,69170
18.91017,65981
18.91828,63710
18.92642,69033
18.93453,63581
18.94267,62898
18.95078,61672
18.95890,63136
18.96703,61366
18.97515,58890
18.98328,61968
18.99140,58172
18.99952,55494
19.00765,56389
19.01577,58235
19.02390,55448
19.03202,54345
19.04013,52615
19.04827,56116
19.05638,49216
19.06450,57604
19.07263,60603
19.08075,66858
19.08888,76495
19.09700,88556
19.10512,84985
19.11325,86390
19.12137,76465
19.12950,72239
19.13762,71579
19.14573,71180
19.15387,66060
19.16198,68680
19.17012,70437
19.17823,59873
19.18635,60845
19.19448,53186
19.20260,50251
19.21072,53229
19.21885,49671
19.22697,51441
19.23510,46819
19.24322,46000
19.25133,47231
19.25947,48744
19.26758,46142
19.27572,50556
19.28383,52353
19.29195,52811
19.30008,51850
19.30820,51752
19.31632,47457
19.32445,49741
19.33257,46267
19.34070,47591
19.34882,47093
19.35693,51680
19.36507,59591
19.37318,58110
19.38132,61231
19.38943,58046
19.39755,52402
19.40568,54237
19.41380,49753
19.42193,47770
19.43005,55051
19.43817,68306
19.44630,78361
19.45442,80308
19.46253,90733
19.47067,90633
19.47878,80217
19.48692,65141
19.49503,59433
19.50315,52800
19.51128,50126
19.51940,46711
19.52753,47767
19.53565,42898
19.54377,44130
19.55190,46861
19.56002,38851
19.56815,41674
19.57627,39634
19.58438,40171
19.59252,39980
19.60063,37834
19.60875,41885
19.61688,42854
19.62500,48255
19.63313,57677
19.64125,74683
19.64937,88667
19.65750,105944
19.66562,107908
19.67375,104063
19.68187,95044
19.68998,85561
19.69812,71487
19.70623,66031
19.71435,66662
19.72248,59496
19.73060,54188
19.73873,52666
19.74685,49371
19.75497,50174
19.76310,50765
19.77122,48005
19.77935,46367
19.78747,48000
19.79558,49812
19.80372,50897
19.81183,47406
19.81997,44390
19.82808,42294
19.83620,46204
19.84433,50305
19.85245,68364
19.86057,121847
19.86870,228921
19.87682,406431
19.88495,663211
19.89307,932877
19.90118,1053023
19.90932,978305
19.91743,763880
19.92557,540728
19.93368,373536
19.94180,263067
19.94993,202002
19.95805,166558
19.96617,148643
19.97430,138108
19.98242,127622
19.99055,121134
19.99867,115604
20.00678,114263
20.01492,99440
20.02303,94687
20.03117,98251
20.03928,84101
20.04740,76468
20.05553,76274
20.06365,65801
20.07178,61771
20.07990,59605
20.08802,56269
20.09615,58883
20.10427,54830
20.11238,47726
20.12052,50391
20.12863,48794
20.13677,48835
20.14488,47692
20.15300,51371
20.16113,55076
20.16925,56518
20.17738,56067
20.18550,58113
20.19362,53940
20.20175,55561
20.20987,54509
20.21800,51570
20.22612,59718
20.23423,62352
20.24237,73377
20.25048,80398
20.25860,87271
20.26673,91257
20.27485,86459
20.28298,77642
20.29110,76299
20.29922,60754
20.30735,57316
20.31547,50340
20.32360,53185
20.33172,44584
20.33983,45495
20.34797,44633
20.35608,43876
20.36420,40192
20.37233,42592
20.38045,38912
20.38858,41009
20.39670,42209
20.40482,50423
20.41295,47977
20.42107,51295
20.42920,46943
20.43732,48011
20.44543,46571
20.45357,43063
20.46168,44229
20.46982,44444
20.47793,39665
20.48605,35869
20.49418,36603
20.50230,35502
20.51042,40169
20.51855,40723
20.52667,36075
20.53480,37800
20.54292,38940
20.55103,39462
20.55917,37909
20.56728,32529
20.57542,35092
20.58353,33887
20.59165,34840
20.59978,36609
20.60790,38687
20.61603,38526
20.62415,36004
20.63227,34028
20.64040,36084
20.64852,34943
20.65663,33873
20.66477,34538
20.67288,39366
20.68102,37569
20.68913,33448
20.69725,37975
20.70538,33663
20.71350,34978
20.72163,37837
20.72975,38264
20.73787,38124
20.74600,36606
20.75412,35008
20.76223,38457
20.77037,40709
20.77848,43788
20.78662,49763
20.79473,60685
20.80285,65308
20.81098,75405
20.81910,78082
20.82723,70067
20.83535,63738
20.84347,54693
20.85160,46330
20.85972,41234
20.86785,41835
20.87597,43014
20.88408,41329
20.89222,34741
20.90033,36902
20.90845,38980
20.91658,36684
20.92470,35794
20.93283,37002
20.94095,40114
20.94907,36901
20.95720,34502
20.96532,36634
20.97345,33255
20.98157,36106
20.98968,35089
20.99782,35389
21.00593,34197
21.01407,31208
21.02218,34167
21.03030,36072
21.03843,32341
21.04655,32568
21.05467,36034
21.06280,34999
21.07092,34494
21.07905,34371
21.08717,35084
21.09528,37018
21.10342,33322
21.11153,33815
21.11967,34623
21.12778,37679
21.13590,37333
21.14403,39447
21.15215,47716
21.16027,43866
21.16840,42403
21.17652,39393
21.18465,38340
21.19277,43944
21.20088,43218
21.20902,41396
21.21713,44992
21.22527,47461
21.23338,47313
21.24150,48370
21.24963,48738
21.25775,45318
21.26588,46520
21.27400,49418
21.28212,48300
21.29025,47284
21.29837,47118
21.30648,45821
21.31462,43068
21.32273,45746
21.33087,44843
21.33898,44533
21.34710,43226
21.35523,42869
21.36335,44670
21.37148,43404
21.37960,44425
21.38772,45045
21.39585,50163
21.40397,52819
21.41208,53966
21.42022,50919
21.42833,47593
21.43647,45241
21.44458,45304
21.45270,46571
21.46083,45592
21.46895,44529
21.47708,47423
21.48520,41580
21.49332,44576
21.50145,45671
21.50957,48606
21.51770,43175
21.52582,44199
21.53393,42694
21.54207,41512
21.55018,44588
21.55830,46237
21.56643,40743
21.57455,45861
21.58268,48752
21.59080,53433
21.59892,58104
21.60705,55762
21.61517,53262
21.62330,51499
21.63142,47311
21.63953,45497
21.64767,45013
21.65578,43845
21.66392,44834
21.67203,47381
21.68015,50180
21.68828,41970
21.69640,41408
21.70452,41826
21.71265,40520
21.72077,38724
21.72890,37718
21.73702,40415
21.74513,37937
21.75327,39604
21.76138,38851
21.76952,40202
21.77763,42184
21.78575,44081
21.79388,46078
21.80200,46164
21.81012,44288
21.81825,44387
21.82637,39227
21.83450,39050
21.84262,34271
21.85073,36404
21.85887,37336
21.86698,36789
21.87512,36190
21.88323,35267
21.89135,35815
21.89948,34180
21.90760,41222
21.91573,52816
21.92385,65432
21.93197,82244
21.94010,89766
21.94822,92478
21.95633,100460
21.96447,107530
21.97258,100963
21.98072,99089
21.98883,102619
21.99695,102870
22.00508,110922
22.01320,102134
22.02133,104234
22.02945,105545
22.03757,104229
22.04570,100877
22.05382,106438
22.06195,94767
22.07007,99947
22.07818,92977
22.08632,98819
22.09443,95884
22.10255,95879
22.11068,91543
22.11880,86888
22.12693,83513
22.13505,82585
22.14317,80388
22.15130,81213
22.15942,81579
22.16755,80467
22.17567,80152
22.18378,77815
22.19192,77152
22.20003,78157
22.20815,72522
22.21628,70463
22.22440,67257
22.23253,68011
22.24065,68216
22.24877,65016
22.25690,66093
22.26502,63574
22.27315,59128
22.28127,60763
22.28938,61700
22.29752,61197
22.30563,63045
22.31377,61193
22.32188,56536
22.33000,58363
22.33813,59389
22.34625,57753
22.35437,57362
22.36250,52356
22.37062,55044
22.37875,55274
22.38687,54180
22.39498,59371
22.40312,63532
22.41123,65639
22.41937,62011
22.42748,66002
22.43560,56585
22.44373,59236
22.45185,53409
22.45997,58046
22.46810,53776
22.47622,52096
22.48435,54216
22.49247,55082
22.50058,55272
22.50872,53815
22.51683,51337
22.52497,51369
22.53308,46463
22.54120,46127
22.54933,47715
22.55745,42646
22.56558,41711
22.57370,41158
22.58182,43995
22.58995,42016
22.59807,41526
22.60618,36595
22.61432,41307
22.62243,39138
22.63057,40328
22.63868,41232
22.64680,41095
22.65493,41939
22.66305,40177
22.67118,40836
22.67930,38532
22.68742,41115
22.69555,42209
22.70367,39079
22.71180,42950
22.71992,41960
22.72803,40564
22.73617,40147
22.74428,42068
22.75240,42274
22.76053,41235
22.76865,38379
22.77678,37919
22.78490,39319
22.79302,40135
22.80115,44512
22.80927,44406
22.81740,43392
22.82552,40252
22.83363,44233
22.84177,43072
22.84988,39572
22.85802,40059
22.86613,41604
22.87425,45527
22.88238,47394
22.89050,49952
22.89862,52290
22.90675,72704
22.91487,82446
22.92300,92792
22.93112,96646
22.93923,87836
22.94737,83996
22.95548,77269
22.96362,66236
22.97173,63994
22.97985,57282
22.98798,53874
22.99610,50649
23.00422,48165
23.01235,43780
23.02047,43895
23.02860,43160
23.03672,41475
23.04483,39240
23.05297,38504
23.06108,39611
23.06922,39516
23.07733,39846
23.08545,38563
23.09358,38543
23.10170,37190
23.10983,37518
23.11795,38640
23.12607,36412
23.13420,36270
23.14232,34819
23.15043,34568
23.15857,36980
23.16668,36691
23.17482,32680
23.18293,32843
23.19105,30770
23.19918,37414
23.20730,33893
23.21543,34287
23.22355,33255
23.23167,36897
23.23980,36995
23.24792,36431
23.25603,35473
23.26417,38629
23.27228,39897
23.28042,38379
23.28853,36506
23.29665,37202
23.30478,33802
23.31290,39132
23.32103,40273
23.32915,40279
23.33727,46222
23.34540,55395
23.35352,69286
23.36165,83675
23.36977,101339
23.37788,111541
23.38602,132956
23.39413,134436
23.40225,138361
23.41038,143241
23.41850,139894
23.42663,142791
23.43475,127092
23.44287,126401
23.45100,121968
23.45912,117144
23.46725,105129
23.47537,99202
23.48348,95522
23.49162,88661
23.49973,83002
23.50787,77130
23.51598,77531
23.52410,72796
23.53223,74769
23.54035,69272
23.54847,69351
23.55660,69631
23.56472,67298
23.57285,69857
23.58097,71413
23.58908,85417
23.59722,82396
23.60533,87555
23.61347,76407
23.62158,74150
23.62970,69101
23.63783,67334
23.64595,63805
23.65407,66526
23.66220,61651
23.67032,66528
23.67845,75382
23.68657,82762
23.69468,103657
23.70282,108758
23.71093,117421
23.71907,125885
23.72718,139163
23.73530,158859
23.74343,255785
23.75155,441477
23.75968,835792
23.76780,1489103
23.77592,2154494
23.78405,2552085
23.79217,2650264
23.80028,2355796
23.80842,1846145
23.81653,1400312
23.82467,1088433
23.83278,831382
23.84090,669688
23.84903,550121
23.85715,457987
23.86528,399615
23.87340,359855
23.88152,322766
23.88965,313070
23.89777,278629
23.90590,260735
23.91402,249182
23.92213,239475
23.93027,229089
23.93838,208777
23.94650,193099
23.95463,182919
23.96275,187826
23.97088,173949
23.97900,168523
23.98712,160538
23.99525,164401
24.00337,147450
24.01150,139999
24.01962,147496
24.02773,146229
24.03587,139619
24.04398,133405
24.05210,128500
24.06023,130457
24.06835,122696
24.07648,119736
24.08460,117028
24.09272,116320
24.10085,108384
24.10897,110432
24.11710,102008
24.12522,99513
24.13333,103401
24.14147,96437
24.14958,101724
24.15772,100962
24.16583,100560
24.17395,99927
24.18208,101408
24.19020,105578
24.19832,101796
24.20645,101313
24.21457,95017
24.22270,90361
24.23082,89516
24.23893,82050
24.24707,83006
24.25518,81454
24.26332,78105
24.27143,77395
24.27955,75659
24.28768,77459
24.29580,74346
24.30392,73609
24.31205,82686
24.32017,84656
24.32830,85672
24.33642,102899
24.34453,105884
24.35267,100067
24.36078,91826
24.36892,85674
24.37703,71639
24.38515,69163
24.39328,66585
24.40140,63302
24.40953,65352
24.41765,61358
24.42577,70117
24.43390,64309
24.44202,65371
24.45013,67170
24.45827,76074
24.46638,73653
24.47452,70525
24.48263,74396
24.49075,69979
24.49888,66811
24.50700,61589
24.51513,62296
24.52325,62915
24.53137,61702
24.53950,60928
24.54762,65873
24.55575,63683
24.56387,63916
24.57198,61514
24.58012,57606
24.58823,53936
24.59635,55064
24.60448,50923
24.61260,52928
24.62073,50348
24.62885,51058
24.63697,49783
24.64510,54552
24.65322,45853
24.66135,50332
24.66947,55005
24.67758,50278
24.68572,51909
24.69383,47266
24.70195,43284
24.71008,43744
24.71820,46462
24.72633,48274
24.73445,50272
24.74257,47310
24.75070,47093
24.75882,47599
24.76695,51028
24.77507,49277
24.78318,47713
24.79132,52233
24.79943,50596
24.80757,48198
24.81568,49743
24.82380,49951
24.83193,55907
24.84005,59090
24.84817,71670
24.85630,77563
24.86442,98920
24.87255,103861
24.88067,121314
24.88878,120905
24.89692,115587
24.90503,102625
24.91317,91831
24.92128,88195
24.92940,93438
24.93753,107151
24.94565,109015
24.95378,116820
24.96190,121841
24.97002,124560
24.97815,130343
24.98627,119284
24.99438,124525
25.00252,124155
25.01063,118991
25.01877,125073
25.02688,122518
25.03500,115541
25.04313,119819
25.05125,115910
25.05938,116596
25.06750,122277
25.07562,113313
25.08375,118472
25.09187,120748
25.09998,142278
25.10812,186605
25.11623,251421
25.12437,361341
25.13248,464573
25.14060,551134
25.14873,546205
25.15685,469159
25.16498,363065
25.17310,269048
25.18122,188862
25.18935,149137
25.19747,133374
25.20560,113130
25.21372,111451
25.22183,103100
25.22997,98055
25.23808,105438
25.24620,113213
25.25433,118219
25.26245,123710
25.27058,116749
25.27870,123736
25.28682,109075
25.29495,93367
25.30307,89995
25.31120,85935
25.31932,79498
25.32743,78186
25.33557,76366
25.34368,72130
25.35180,65379
25.35993,64438
25.36805,64408
25.37618,65043
25.38430,63884
25.39242,61188
25.40055,59975
25.40867,60091
25.41680,60021
25.42492,62191
25.43303,58819
25.44117,60900
25.44928,58027
25.45742,60549
25.46553,55285
25.47365,54399
25.48178,52340
25.48990,54749
25.49802,55009
25.50615,51786
25.51427,50490
25.52240,50287
25.53052,50360
25.53863,54938
25.54677,47235
25.55488,49728
25.56302,49599
25.57113,47624
25.57925,51349
25.58738,47540
25.59550,50507
25.60363,45957
25.61175,47545
25.61987,45488
25.62800,45010
25.63612,43021
25.64423,43983
25.65237,41274
25.66048,45201
25.66862,47075
25.67673,42600
25.68485,44800
25.69298,42275
25.70110,47297
25.70923,46873
25.71735,44304
25.72547,41662
25.73360,43609
25.74172,43021
25.74983,43029
25.75797,41211
25.76608,47815
25.77422,41827
25.78233,45664
25.79045,39863
25.79858,41846
25.80670,42334
25.81483,41073
25.82295,41944
25.83107,45665
25.83920,45786
25.84732,44601
25.85545,46023
25.86357,43922
25.87168,42843
25.87982,39610
25.88793,40379
25.89605,40786
25.90418,40433
25.91230,37136
25.92043,37016
25.92855,38746
25.93667,36959
25.94480,40414
25.95292,40678
25.96105,40692
25.96917,36855
25.97728,36098
25.98542,39634
25.99353,36302
26.00167,36363
26.00978,35581
26.01790,33922
26.02603,38634
26.03415,39367
26.04227,37819
26.05040,37125
26.05852,35287
26.06665,40030
26.07477,40649
26.08288,40273
26.09102,37315
26.09913,40132
26.10727,41560
26.11538,42484
26.12350,43350
26.13163,41827
26.13975,44590
26.14787,45330
26.15600,42131
26.16412,46629
26.17225,45586
26.18037,43810
26.18848,43461
26.19662,40067
26.20473,37403
26.21287,45086
26.22098,38507
26.22910,37444
26.23723,43060
26.24535,37213
26.25348,35476
26.26160,35361
26.26972,35867
26.27785,36381
26.28597,35095
26.29408,36301
26.30222,34942
26.31033,34257
26.31847,34740
26.32658,32895
26.33470,35549
26.34283,33796
26.35095,32854
26.35908,35128
26.36720,35067
26.37532,36075
26.38345,36477
26.39157,36927
26.39970,38498
26.40782,33348
26.41593,35755
26.42407,37733
26.43218,35795
26.44030,38483
26.44843,36658
26.45655,37817
26.46468,34132
26.47280,33044
26.48092,33984
26.48905,34491
26.49717,36328
26.50530,35480
26.51342,36768
26.52153,35953
26.52967,34187
26.53778,34368
26.54590,31512
26.55403,40125
26.56215,34612
26.57028,32846
26.57840,38364
26.58652,31820
26.59465,35730
26.60277,34049
26.61090,37221
26.61902,32866
26.62713,34119
26.63527,35458
26.64338,38152
26.65152,35211
26.65963,35571
26.66775,35639
26.67588,32748
26.68400,36449
26.69212,32289
26.70025,34886
26.70837,32814
26.71650,36703
26.72462,33454
26.73273,33830
26.74087,32812
26.74898,37550
26.75712,34477
26.76523,37364
26.77335,33263
26.78148,34258
26.78960,36019
26.79772,37683
26.80585,34944
26.81397,36382
26.82210,35523
26.83022,36616
26.83833,32857
26.84647,33600
26.85458,37547
26.86272,34972
26.87083,32620
26.87895,33959
26.88708,35262
26.89520,32320
26.90333,34935
26.91145,31847
26.91957,37811
26.92770,36313
26.93582,33437
26.94393,40358
26.95207,51584
26.96018,78217
26.96832,121204
26.97643,171610
26.98455,247236
26.99268,307868
27.00080,335859
27.00893,342628
27.01705,327604
27.02517,301143
27.03330,233073
27.04142,194473
27.04955,156982
27.05767,129304
27.06578,109647
27.07392,93572
27.08203,86334
27.09015,80509
27.09828,72650
27.10640,67591
27.11453,71158
27.12265,67630
27.13077,62204
27.13890,63679
27.14702,55570
27.15515,59095
27.16327,57310
27.17138,56832
27.17952,58807
27.18763,59010
27.19575,51629
27.20388,55258
27.21200,49606
27.22013,48988
27.22825,47369
27.23637,45612
27.24450,48556
27.25262,43116
27.26075,48818
27.26887,43728
27.27698,40296
27.28512,44875
27.29323,39238
27.30137,44850
27.30948,42371
27.31760,42615
27.32573,39044
27.33385,39584
27.34197,39909
27.35010,38342
27.35822,41884
27.36635,39055
27.37447,40439
27.38258,38657
27.39072,38195
27.39883,37926
27.40697,40120
27.41508,36841
27.42320,39166
27.43133,34745
27.43945,38266
27.44758,36929
27.45570,36757
27.46382,37253
27.47195,38068
27.48007,39310
27.48818,38536
27.49632,36323
27.50443,36494
27.51257,35973
27.52068,39880
27.52880,38411
27.53693,38262
27.54505,39240
27.55318,38014
27.56130,37678
27.56942,38756
27.57755,36840
27.58567,38565
27.59378,41439
27.60192,38727
27.61003,37811
27.61817,36199
27.62628,38005
27.63440,34507
27.64253,34106
27.65065,38195
27.65878,32914
27.66690,37607
27.67502,36865
27.68315,35282
27.69127,34329
27.69940,36632
27.70752,37264
27.71563,36978
27.72377,36391
27.73188,40726
27.74000,39972
27.74813,39145
27.75625,41182
27.76438,37535
27.77250,35899
27.78062,33515
27.78875,34917
27.79687,31165
27.80500,33259
27.81312,39965
27.82123,33872
27.82937,32082
27.83748,32734
27.84560,33023
27.85373,37467
27.86185,33661
27.86998,34277
27.87810,34486
27.88622,32495
27.89435,28935
27.90247,31643
27.91060,28476
27.91872,31401
27.92683,32440
27.93497,31079
27.94308,32302
27.95122,31638
27.95933,31929
27.96745,32307
27.97558,34194
27.98370,35728
27.99182,35719
27.99995,34126
28.00807,35663
28.01620,38839
28.02432,35994
28.03243,39250
28.04057,38673
28.04868,34775
28.05682,41223
28.06493,35889
28.07305,41000
28.08118,39480
28.08930,43608
28.09743,49496
28.10555,45844
28.11367,49738
28.12180,50420
28.12992,44830
28.13803,41943
28.14617,44060
28.15428,38598
28.16242,39122
28.17053,33137
28.17865,36861
28.18678,36028
28.19490,35155
28.20303,37161
28.21115,37269
28.21927,37830
28.22740,37477
28.23552,36033
28.24363,39999
28.25177,38552
28.25988,38013
28.26802,47227
28.27613,57085
28.28425,65694
28.29238,82819
28.30050,94730
28.30863,102227
28.31675,116059
28.32487,111221
28.33300,113852
28.34112,104251
28.34925,102686
28.35737,97154
28.36548,85812
28.37362,79577
28.38173,72639
28.38985,70103
28.39798,70140
28.40610,62340
28.41423,58754
28.42235,51973
28.43047,51198
28.43860,49367
28.44672,48257
28.45485,44666
28.46297,44843
28.47108,45763
28.47922,40569
28.48733,42445
28.49547,38392
28.50358,40781
28.51170,44724
28.51983,38620
28.52795,41010
28.53607,42410
28.54420,36713
28.55232,40077
28.56045,36653
28.56857,40638
28.57668,37097
28.58482,35123
28.59293,35979
28.60107,35282
28.60918,34429
28.61730,40942
28.62543,39298
28.63355,36338
28.64167,38937
28.64980,39025
28.65792,37510
28.66605,40645
28.67417,42204
28.68228,42419
28.69042,42791
28.69853,48267
28.70667,50050
28.71478,49514
28.72290,47671
28.73103,43447
28.73915,37406
28.74728,36613
28.75540,30585
28.76352,34496
28.77165,35354
28.77977,31374
28.78788,34737
28.79602,35216
28.80413,36083
28.81227,34150
28.82038,36701
28.82850,33961
28.83663,33306
28.84475,30406
28.85288,34027
28.86100,35008
28.86912,32608
28.87725,36928
28.88537,35552
28.89348,40202
28.90162,33832
28.90973,37190
28.91787,33711
28.92598,32984
28.93410,34509
28.94223,33150
28.95035,35363
28.95848,34720
28.96660,33932
28.97472,33675
28.98285,32155
28.99097,31882
28.99910,32404
29.00722,32132
29.01533,29998
29.02347,31924
29.03158,32824
29.03970,34412
29.04783,35134
29.05595,34382
29.06408,35986
29.07220,32134
29.08032,38801
29.08845,33108
29.09657,33161
29.10470,28251
29.11282,33063
29.12093,31919
29.12907,31630
29.13718,33203
29.14532,32765
29.15343,32050
29.16155,31979
29.16968,32906
29.17780,36410
29.18592,35285
29.19405,35620
29.20217,40120
29.21030,42992
29.21842,39451
29.22653,39694
29.23467,42107
29.24278,37450
29.25092,40441
29.25903,33494
29.26715,36300
29.27528,33869
29.28340,31851
29.29153,35889
29.29965,32693
29.30777,33148
29.31590,30922
29.32402,33973
29.33213,29920
29.34027,29596
29.34838,30609
29.35652,30683
29.36463,31078
29.37275,30794
29.38088,31399
29.38900,31939
29.39713,32504
29.40525,31938
29.41337,31794
29.42150,32578
29.42962,32402
29.43773,31361
29.44587,32457
29.45398,30697
29.46212,34605
29.47023,32871
29.47835,33396
29.48648,32317
29.49460,36608
29.50273,33417
29.51085,36114
29.51897,33046
29.52710,33106
29.53522,32665
29.54335,30378
29.55147,31443
29.55958,32704
29.56772,35180
29.57583,34439
29.58395,35861
29.59208,35088
29.60020,34490
29.60833,37704
29.61645,34032
29.62457,33278
29.63270,29238
29.64082,28063
29.64895,35902
29.65707,30347
29.66518,30850
29.67332,35000
29.68143,30953
29.68955,34088
29.69768,31600
29.70580,32111
29.71393,32764
29.72205,32705
29.73017,35896
29.73830,29936
29.74642,30600
29.75455,30320
29.76267,28477
29.77078,27476
29.77892,27414
29.78703,26572
29.79517,29734
29.80328,29403
29.81140,29452
29.81953,29725
29.82765,27233
29.83577,29810
29.84390,30197
29.85202,32460
29.86015,32180
29.86827,31120
29.87638,35587
29.88452,44866
29.89263,45905
29.90077,50195
29.90888,51681
29.91700,56500
29.92513,56931
29.93325,59502
29.94138,61070
29.94950,61578
29.95762,63310
29.96575,65961
29.97387,65586
29.98198,65566
29.99012,67273
29.99823,67362
30.00637,69689
30.01448,62897
30.02260,59215
30.03073,57105
30.03885,60005
30.04698,60351
30.05510,54798
30.06322,55386
30.07135,48220
30.07947,47753
30.08758,52657
30.09572,49148
30.10383,48473
30.11197,46521
30.12008,49236
30.12820,45850
30.13633,48724
30.14445,45093
30.15258,43735
30.16070,41934
30.16882,40833
30.17695,42134
30.18507,40173
30.19320,40774
30.20132,41316
30.20943,38638
30.21757,41384
30.22568,41290
30.23380,40120
30.24193,38215
30.25005,40512
30.25818,36966
30.26630,36543
30.27442,37975
30.28255,38907
30.29067,32683
30.29880,33202
30.30692,35128
30.31503,37319
30.32317,37687
30.33128,36749
30.33942,34113
30.34753,39017
30.35565,33645
30.36378,35303
30.37190,34235
30.38002,37711
30.38815,36950
30.39627,34852
30.40440,36692
30.41252,31676
30.42063,35876
30.42877,32422
30.43688,34978
30.44502,32380
30.45313,35657
30.46125,33172
30.46938,30269
30.47750,32749
30.48562,34990
30.49375,34700
30.50187,37106
30.51000,33781
30.51812,36899
30.52623,32065
30.53437,30704
30.54248,32121
30.55062,30316
30.55873,36963
30.56685,36037
30.57498,33293
30.58310,34658
30.59123,30821
30.59935,32743
30.60747,31005
30.61560,34192
30.62372,35039
30.63183,31342
30.63997,31062
30.64808,31822
30.65622,32812
30.66433,31351
30.67245,30713
30.68058,32649
30.68870,35863
30.69683,32005
30.70495,31505
30.71307,32205
30.72120,31730
30.72932,33194
30.73743,34816
30.74557,31226
30.75368,31638
30.76182,34302
30.76993,35045
30.77805,35013
30.78618,38396
30.79430,45897
30.80243,45005
30.81055,43174
30.81867,42737
30.82680,41100
30.83492,38016
30.84305,34912
30.85117,32057
30.85928,29373
30.86742,32852
30.87553,32328
30.88365,30616
30.89178,31550
30.89990,31324
30.90803,33076
30.91615,31020
30.92427,33913
30.93240,34186
30.94052,30718
30.94865,31658
30.95677,32983
30.96488,28957
30.97302,30551
30.98113,36762
30.98927,31216
30.99738,31718
31.00550,32921
31.01363,31641
31.02175,32579
31.02987,30260
31.03800,35610
31.04612,27683
31.05425,30987
31.06237,32166
31.07048,32912
31.07862,38013
31.08673,35614
31.09487,38704
31.10298,37132
31.11110,38218
31.11923,35211
31.12735,36919
31.13547,36797
31.14360,37834
31.15172,37259
31.15985,37074
31.16797,49157
31.17608,48191
31.18422,66346
31.19233,83846
31.20047,90404
31.20858,96971
31.21670,105223
31.22483,88884
31.23295,75709
31.24108,64749
31.24920,52439
31.25732,41451
31.26545,40430
31.27357,35175
31.28168,36066
31.28982,31547
31.29793,32787
31.30607,31888
31.31418,32294
31.32230,34232
31.33043,34020
31.33855,35644
31.34668,35594
31.35480,35093
31.36292,35835
31.37105,32631
31.37917,32075
31.38730,34650
31.39542,32883
31.40353,31832
31.41167,33156
31.41978,31067
31.42790,34236
31.43603,30749
31.44415,29776
31.45228,33501
31.46040,33578
31.46852,33395
31.47665,31297
31.48477,33866
31.49290,34384
31.50102,34209
31.50913,32627
31.51727,31310
31.52538,31521
31.53350,32613
31.54163,31353
31.54975,29124
31.55788,31924
31.56600,29009
31.57412,32175
31.58225,29320
31.59037,34139
31.59850,34992
31.60662,32772
31.61473,31703
31.62287,32748
31.63098,32484
31.63912,32352
31.64723,30960
31.65535,32625
31.66348,34837
31.67160,36758
31.67972,36972
31.68785,36803
31.69597,34539
31.70410,34707
31.71222,35970
31.72033,30370
31.72847,31337
31.73658,29394
31.74472,35128
31.75283,31507
31.76095,30482
31.76908,34499
31.77720,34659
31.78533,35373
31.79345,30725
31.80157,30561
31.80970,35769
31.81782,33359
31.82593,37938
31.83407,37232
31.84218,39951
31.85032,46553
31.85843,45707
31.86655,55427
31.87468,55276
31.88280,56335
31.89093,57743
31.89905,57712
31.90717,56582
31.91530,50287
31.92342,51440
31.93153,50023
31.93967,52835
31.94778,47565
31.95592,45111
31.96403,46717
31.97215,43500
31.98028,46403
31.98840,46081
31.99653,43701
32.00465,44412
32.01277,41971
32.02090,40835
32.02902,40131
32.03715,38910
32.04527,35701
32.05338,36132
32.06152,33940
32.06963,33761
32.07775,38827
32.08588,37287
32.09400,35378
32.10213,34660
32.11025,33830
32.11837,32258
32.12650,32446
32.13462,30112
32.14275,33638
32.15087,34579
32.15898,34244
32.16712,32039
32.17523,30887
32.18335,35269
32.19148,31839
32.19960,33364
32.20773,32210
32.21585,32614
32.22397,33976
32.23210,32321
32.24022,33629
32.24835,32957
32.25647,33760
32.26458,36259
32.27272,33751
32.28083,36820
32.28897,35415
32.29708,29893
32.30520,34338
32.31333,33975
32.32145,34400
32.32957,33664
32.33770,34544
32.34582,33093
32.35395,34136
32.36207,34935
32.37018,34803
32.37832,34960
32.38643,32293
32.39457,31339
32.40268,33799
32.41080,33752
32.41893,32361
32.42705,33630
32.43518,32165
32.44330,33141
32.45142,30710
32.45955,38210
32.46767,30202
32.47578,33032
32.48392,35869
32.49203,31037
32.50017,34214
32.50828,31085
32.51640,31903
32.52453,31694
32.53265,33286
32.54078,31103
32.54890,32925
32.55702,35595
32.56515,36454
32.57327,36661
32.58138,45128
32.58952,45938
32.59763,46800
32.60577,44072
32.61388,40616
32.62200,37293
32.63013,35879
32.63825,34223
32.64638,32947
32.65450,34565
32.66262,31808
32.67075,35472
32.67887,37691
32.68700,39834
32.69512,39242
32.70323,34188
32.71137,34120
32.71948,38197
32.72760,32737
32.73573,32587
32.74385,35959
32.75198,35621
32.76010,32675
32.76822,34625
32.77635,35242
32.78447,34462
32.79260,34053
32.80072,33486
32.80883,34863
32.81697,39142
32.82508,32849
32.83322,33076
32.84133,34766
32.84945,32722
32.85758,32760
32.86570,29852
32.87382,36520
32.88195,35030
32.89007,36375
32.89820,36954
32.90632,34584
32.91443,33923
32.92257,32690
32.93068,32126
32.93882,32633
32.94693,33384
32.95505,36667
32.96318,34032
32.97130,35350
32.97942,35956
32.98755,36710
32.99567,38900
33.00380,38355
33.01192,36170
33.02003,37226
33.02817,38513
33.03628,37225
33.04442,35364
33.05253,35213
33.06065,35626
33.06878,35463
33.07690,38779
33.08503,42697
33.09315,36435
33.10127,43111
33.10940,40337
33.11752,41386
33.12563,42412
33.13377,45094
33.14188,38205
33.15002,37380
33.15813,32269
33.16625,37399
33.17438,34332
33.18250,36157
33.19063,37147
33.19875,33484
33.20687,34722
33.21500,34368
33.22312,37792
33.23123,32195
33.23937,35725
33.24748,36436
33.25562,35050
33.26373,31937
33.27185,38936
33.27998,33859
33.28810,33019
33.29623,32813
33.30435,37683
33.31247,35930
33.32060,35534
33.32872,37806
33.33685,32691
33.34497,32596
33.35308,34368
33.36122,33850
33.36933,33763
33.37745,35626
33.38558,33742
33.39370,33961
33.40183,37988
33.40995,32503
33.41807,32586
33.42620,31931
33.43432,36035
33.44245,32811
33.45057,33223
33.45868,34719
33.46682,32426
33.47493,32339
33.48307,34136
33.49118,31931
33.49930,37400
33.50743,36116
33.51555,37332
33.52367,35314
33.53180,36185
33.53992,39153
33.54805,39069
33.55617,41497
33.56428,40933
33.57242,38137
33.58053,34594
33.58867,39117
33.59678,37290
33.60490,41868
33.61303,40256
33.62115,39810
33.62927,43555
33.63740,42624
33.64552,40451
33.65365,43665
33.66177,44589
33.66988,47066
33.67802,44514
33.68613,46428
33.69427,48460
33.70238,52869
33.71050,51149
33.71863,55153
33.72675,53967
33.73488,51877
33.74300,53316
33.75112,53902
33.75925,54024
33.76737,59379
33.77548,62355
33.78362,54035
33.79173,61757
33.79987,57534
33.80798,54667
33.81610,55786
33.82423,53889
33.83235,52335
33.84048,50761
33.84860,53168
33.85672,52428
33.86485,54187
33.87297,52112
33.88110,53015
33.88922,52060
33.89733,52482
33.90547,49545
33.91358,52661
33.92170,46945
33.92983,51021
33.93795,47268
33.94608,47232
33.95420,47622
33.96232,44006
33.97045,48139
33.97857,45789
33.98670,42503
33.99482,41116
34.00293,39854
34.01107,46162
34.01918,42004
34.02730,42317
34.03543,42459
34.04355,39637
34.05168,44765
34.05980,42043
34.06792,44480
34.07605,45020
34.08417,37174
34.09230,40421
34.10042,41772
34.10853,42118
34.11667,43775
34.12478,38167
34.13292,41607
34.14103,38165
34.14915,41466
34.15728,43620
34.16540,43663
34.17352,38688
34.18165,39206
34.18977,42270
34.19790,38208
34.20602,39533
34.21413,42335
34.22227,39495
34.23038,40248
34.23852,36187
34.24663,38472
34.25475,38923
34.26288,38785
34.27100,38453
34.27912,45576
34.28725,37436
34.29537,38071
34.30350,37860
34.31162,38784
34.31973,39352
34.32787,42946
34.33598,42637
34.34412,41784
34.35223,42741
34.36035,40867
34.36848,38730
34.37660,38415
34.38473,39401
34.39285,38666
34.40097,42059
34.40910,43695
34.41722,40976
34.42533,45823
34.43347,42946
34.44158,48121
34.44972,46969
34.45783,56065
34.46595,56537
34.47408,65144
34.48220,67905
34.49033,70113
34.49845,70643
34.50657,66877
34.51470,65926
34.52282,63317
34.53095,64601
34.53907,61489
34.54718,63496
34.55532,59541
34.56343,53276
34.57155,58007
34.57968,59449
34.58780,58928
34.59593,54704
34.60405,61048
34.61217,57107
34.62030,54794
34.62842,60359
34.63655,55787
34.64467,55760
34.65278,52688
34.66092,52977
34.66903,49123
34.67717,50506
34.68528,49863
34.69340,49666
34.70153,49804
34.70965,45897
34.71777,47736
34.72590,45409
34.73402,44969
34.74215,45118
34.75027,42457
34.75838,46903
34.76652,40858
34.77463,41155
34.78277,43241
34.79088,41113
34.79900,43495
34.80713,42685
34.81525,41015
34.82337,41020
34.83150,39931
34.83962,40741
34.84775,39662
34.85587,43121
34.86398,44562
34.87212,43968
34.88023,41163
34.88837,43484
34.89648,42027
34.90460,41963
34.91273,42217
34.92085,44658
34.92898,44872
34.93710,45247
34.94522,40604
34.95335,44681
34.96147,42398
34.96958,41852
34.97772,41001
34.98583,40326
34.99397,42397
35.00208,39280
35.01020,44364
35.01833,40768
35.02645,40518
35.03458,41458
35.04270,40498
35.05082,39581
35.05895,43977
35.06707,41046
35.07518,44154
35.08332,41291
35.09143,42818
35.09957,39337
35.10768,39444
35.11580,40941
35.12393,41471
35.13205,39390
35.14018,38735
35.14830,44110
35.15642,40157
35.16455,40141
35.17267,42507
35.18080,46870
35.18892,39739
35.19703,41092
35.20517,41769
35.21328,43839
35.22140,41768
35.22953,42770
35.23765,42051
35.24578,41861
35.25390,44003
35.26202,43967
35.27015,44752
35.27827,46544
35.28640,43090
35.29452,42488
35.30263,39457
35.31077,41805
35.31888,42061
35.32702,43649
35.33513,43325
35.34325,40575
35.35138,42103
35.35950,47208
35.36762,44084
35.37575,43825
35.38387,40059
35.39200,42521
35.40012,44165
35.40823,43361
35.41637,46768
35.42448,45135
35.43262,44892
35.44073,47186
35.44885,43033
35.45698,46692
35.46510,47488
35.47322,47136
35.48135,48049
35.48947,48519
35.49760,46412
35.50572,46750
35.51383,48099
35.52197,47293
35.53008,47272
35.53822,45940
35.54633,44393
35.55445,47385
35.56258,46451
35.57070,47258
35.57883,50287
35.58695,48627
35.59507,46592
35.60320,46542
35.61132,50937
35.61943,46890
35.62757,47117
35.63568,44497
35.64382,47279
35.65193,46199
35.66005,45608
35.66818,45963
35.67630,48593
35.68443,43053
35.69255,46404
35.70067,46267
35.70880,42973
35.71692,48664
35.72505,49745
35.73317,46929
35.74128,43943
35.74942,44440
35.75753,45850
35.76565,45298
35.77378,48207
35.78190,46194
35.79003,47504
35.79815,45053
35.80627,46129
35.81440,48783
35.82252,46237
35.83065,41464
35.83877,45637
35.84688,46182
35.85502,42845
35.86313,47192
35.87125,46104
35.87938,45997
35.88750,48305
35.89563,44369
35.90375,42498
35.91187,45380
35.92000,49076
35.92812,44945
35.93625,43018
35.94437,44409
35.95248,44602
35.96062,45904
35.96873,42764
35.97687,47360
35.98498,46259
35.99310,44398
36.00123,50618
36.00935,48347
36.01747,48935
36.02560,47266
36.03372,46381
36.04185,45132
36.04997,45996
36.05808,49565
36.06622,53110
36.07433,47746
36.08247,47754
36.09058,51184
36.09870,46954
36.10683,44894
36.11495,47379
36.12307,48725
36.13120,45862
36.13932,46777
36.14745,42015
36.15557,42187
36.16368,43797
36.17182,51249
36.17993,45384
36.18807,49317
36.19618,47098
36.20430,47124
36.21243,50191
36.22055,54122
36.22868,52376
36.23680,58819
36.24492,62385
36.25305,58907
36.26117,57632
36.26928,49833
36.27742,51326
36.28553,49835
36.29367,48643
36.30178,48199
36.30990,47283
36.31803,48556
36.32615,47593
36.33428,42660
36.34240,46879
36.35052,47669
36.35865,50014
36.36677,49079
36.37490,48400
36.38302,47794
36.39113,51931
36.39927,50323
36.40738,51094
36.41550,53110
36.42363,52349
36.43175,54649
36.43988,49691
36.44800,47559
36.45612,51008
36.46425,52505
36.47237,50805
36.48050,48115
36.48862,48351
36.49673,44246
36.50487,49250
36.51298,47169
36.52110,50711
36.52923,53976
36.53735,43929
36.54548,50530
36.55360,49870
36.56172,50301
36.56985,53810
36.57797,49816
36.58610,50132
36.59422,49962
36.60233,54645
36.61047,52031
36.61858,49199
36.62672,45055
36.63483,48893
36.64295,47407
36.65108,47420
36.65920,50229
36.66732,52517
36.67545,50127
36.68357,46961
36.69170,48762
36.69982,47703
36.70793,49520
36.71607,53340
36.72418,48182
36.73232,50090
36.74043,49619
36.74855,49690
36.75668,53569
36.76480,49106
36.77293,45980
36.78105,46099
36.78917,51641
36.79730,50644
36.80542,49467
36.81353,53930
36.82167,50327
36.82978,50229
36.83792,50222
36.84603,46361
36.85415,48861
36.86228,48516
36.87040,50066
36.87853,50066
36.88665,51098
36.89477,50646
36.90290,50166
36.91102,51589
36.91913,48740
36.92727,52291
36.93538,49951
36.94352,52073
36.95163,52616
36.95975,56039
36.96788,58578
36.97600,56114
36.98413,53834
36.99225,59967
37.00037,62150
37.00850,67467
37.01662,66940
37.02475,72831
37.03287,73198
37.04098,78473
37.04912,69143
37.05723,55253
37.06535,62851
37.07348,60485
37.08160,55575
37.08973,53352
37.09785,53061
37.10597,53457
37.11410,54868
37.12222,55245
37.13035,53345
37.13847,53317
37.14658,51813
37.15472,51637
37.16283,55107
37.17095,57956
37.17908,55958
37.18720,57733
37.19533,53175
37.20345,52560
37.21157,54471
37.21970,55364
37.22782,55721
37.23595,57565
37.24407,58438
37.25218,61337
37.26032,67680
37.26843,72477
37.27657,71235
37.28468,71680
37.29280,79738
37.30093,76168
37.30905,66592
37.31717,64993
37.32530,65881
37.33342,63583
37.34155,59079
37.34967,63848
37.35778,60557
37.36592,64930
37.37403,63606
37.38217,59316
37.39028,61544
37.39840,61247
37.40653,60796
37.41465,65575
37.42278,58470
37.43090,59762
37.43902,60372
37.44715,56003
37.45527,59903
37.46338,59653
37.47152,56045
37.47963,60947
37.48777,61288
