Z:\data\JTB-E02\BACandBLUE\JTB-E02-208-13.D Thu Mar 14 11:56:56 2019
Start of data points
2.09518	58934
2.10330	68547
2.11142	58304
2.11955	57522
2.12767	53593
2.13580	56734
2.14392	56085
2.15203	52282
2.16017	60902
2.16828	55156
2.17642	55395
2.18453	54576
2.19265	54717
2.20078	43567
2.20890	49039
2.21703	50042
2.22515	44051
2.23327	50960
2.24140	45034
2.24952	48352
2.25763	51237
2.26577	50873
2.27388	205132
2.28202	1089020
2.29013	1104602
2.29825	478556
2.30638	314026
2.31450	264300
2.32263	230905
2.33075	197768
2.33887	188891
2.34700	167433
2.35512	159089
2.36323	142235
2.37137	130874
2.37948	128983
2.38762	121157
2.39573	117976
2.40385	115461
2.41198	114015
2.42010	106882
2.42823	123571
2.43635	112940
2.44447	98585
2.45260	104101
2.46072	102988
2.46885	103966
2.47697	94328
2.48508	92511
2.49322	100709
2.50133	105668
2.50945	98193
2.51758	92609
2.52570	93558
2.53383	88660
2.54195	91174
2.55007	90528
2.55820	101905
2.56632	172529
2.57445	182403
2.58257	145217
2.59068	121404
2.59882	125820
2.60693	164112
2.61505	420905
2.62318	559345
2.63130	347885
2.63943	235355
2.64755	188345
2.65567	157837
2.66380	140127
2.67192	124849
2.68005	120089
2.68817	112322
2.69628	104248
2.70442	104915
2.71253	99405
2.72067	96045
2.72878	92729
2.73690	90143
2.74503	92856
2.75315	92142
2.76127	88704
2.76940	88001
2.77752	89263
2.78565	89008
2.79377	85025
2.80188	87938
2.81002	79519
2.81813	89732
2.82627	85130
2.83438	82126
2.84250	84709
2.85063	82847
2.85875	81188
2.86688	80730
2.87500	80197
2.88312	73032
2.89125	79401
2.89937	83233
2.90748	78426
2.91562	73812
2.92373	72663
2.93187	74166
2.93998	68612
2.94810	78021
2.95623	73786
2.96435	80408
2.97248	95370
2.98060	90767
2.98872	80681
2.99685	75280
3.00497	79359
3.01308	87636
3.02122	82617
3.02933	70096
3.03747	78203
3.04558	73341
3.05370	74256
3.06183	74109
3.06995	72965
3.07808	77237
3.08620	226808
3.09432	974986
3.10245	2167959
3.11057	3518906
3.11870	4609002
3.12682	3436404
3.13493	2087580
3.14307	1565656
3.15118	1252482
3.15930	1009435
3.16743	830043
3.17555	705167
3.18368	587948
3.19180	511827
3.19992	451036
3.20805	395302
3.21617	351482
3.22430	320469
3.23242	296946
3.24053	273844
3.24867	252449
3.25678	237937
3.26492	214331
3.27303	201792
3.28115	191643
3.28928	251479
3.29740	660824
3.30552	2152085
3.31365	4495143
3.32177	5384525
3.32990	4193324
3.33802	2680807
3.34613	1744624
3.35427	1321897
3.36238	1087805
3.37052	915976
3.37863	786790
3.38675	696668
3.39488	623303
3.40300	576025
3.41112	521972
3.41925	488316
3.42737	458050
3.43550	445453
3.44362	405155
3.45173	395362
3.45987	375321
3.46798	392409
3.47612	390851
3.48423	397246
3.49235	378430
3.50048	346579
3.50860	331294
3.51673	307710
3.52485	287485
3.53297	281125
3.54110	276552
3.54922	258898
3.55733	254025
3.56547	255245
3.57358	330007
3.58172	448650
3.58983	470805
3.59795	363986
3.60608	297791
3.61420	287186
3.62233	271300
3.63045	255519
3.63857	243545
3.64670	237308
3.65482	209286
3.66295	212058
3.67107	204881
3.67918	200186
3.68732	197850
3.69543	191368
3.70355	181525
3.71168	183775
3.71980	182943
3.72793	172416
3.73605	166502
3.74417	176403
3.75230	163894
3.76042	162488
3.76855	164910
3.77667	159211
3.78478	157308
3.79292	156121
3.80103	215572
3.80915	662423
3.81728	2037858
3.82540	3204985
3.83353	2747260
3.84165	1679569
3.84977	1112760
3.85790	869169
3.86602	733477
3.87415	626956
3.88227	564335
3.89038	502639
3.89852	458527
3.90663	421066
3.91477	394891
3.92288	360056
3.93100	334089
3.93913	320212
3.94725	368152
3.95537	712971
3.96350	1890689
3.97162	3494751
3.97975	3783541
3.98787	2606375
3.99598	1812082
4.00412	3099341
4.01223	8574441
4.02037	1.557985E+07
4.02848	1.632459E+07
4.03660	1.084406E+07
4.04473	5712012
4.05285	3319765
4.06097	2323314
4.06910	1776057
4.07722	1434425
4.08535	1189808
4.09347	1001424
4.10158	870470
4.10972	757366
4.11783	687134
4.12597	621435
4.13408	580372
4.14220	571738
4.15033	617841
4.15845	630795
4.16658	580988
4.17470	520309
4.18282	500017
4.19095	466251
4.19907	409750
4.20718	375710
4.21532	335674
4.22343	342040
4.23157	383787
4.23968	418898
4.24780	397701
4.25593	349187
4.26405	319122
4.27218	291044
4.28030	265397
4.28842	255925
4.29655	260234
4.30467	244458
4.31280	224386
4.32092	228500
4.32903	225878
4.33717	233640
4.34528	219021
4.35340	221820
4.36153	205495
4.36965	208517
4.37778	210223
4.38590	203340
4.39402	197332
4.40215	189372
4.41027	178550
4.41840	185043
4.42652	184753
4.43463	170595
4.44277	178680
4.45088	176135
4.45900	178810
4.46713	166465
4.47525	165494
4.48338	165348
4.49150	157851
4.49962	161344
4.50775	165863
4.51587	154391
4.52400	152195
4.53212	150626
4.54023	151394
4.54837	148157
4.55648	147831
4.56462	153567
4.57273	146895
4.58085	148067
4.58898	145862
4.59710	139267
4.60522	138303
4.61335	136294
4.62147	137413
4.62960	133980
4.63772	137808
4.64583	136634
4.65397	132139
4.66208	135446
4.67022	132987
4.67833	133737
4.68645	140885
4.69458	130269
4.70270	137331
4.71083	134175
4.71895	136078
4.72707	123582
4.73520	122913
4.74332	123244
4.75143	120999
4.75957	122450
4.76768	118745
4.77582	118235
4.78393	117082
4.79205	125464
4.80018	131496
4.80830	154998
4.81643	163903
4.82455	159626
4.83267	146170
4.84080	160576
4.84892	176561
4.85703	173599
4.86517	158974
4.87328	157067
4.88142	138013
4.88953	142340
4.89765	132828
4.90578	123856
4.91390	123161
4.92203	126970
4.93015	124359
4.93827	140648
4.94640	222496
4.95452	436119
4.96265	853339
4.97077	1305885
4.97888	1441727
4.98702	1305332
4.99513	989788
5.00325	754925
5.01138	592049
5.01950	503816
5.02763	444158
5.03575	405966
5.04387	372327
5.05200	351019
5.06012	321878
5.06825	319270
5.07637	301502
5.08448	293056
5.09262	274717
5.10073	266145
5.10885	252030
5.11698	236151
5.12510	232691
5.13323	220608
5.14135	215025
5.14947	214040
5.15760	211768
5.16572	204545
5.17385	211911
5.18197	198331
5.19008	194564
5.19822	194439
5.20633	182531
5.21447	178708
5.22258	175937
5.23070	186428
5.23883	184456
5.24695	203544
5.25507	192386
5.26320	186217
5.27132	175609
5.27945	159854
5.28757	154952
5.29568	158248
5.30382	149161
5.31193	145206
5.32007	147512
5.32818	154509
5.33630	177775
5.34443	204423
5.35255	215449
5.36068	207208
5.36880	181613
5.37692	172895
5.38505	163533
5.39317	173448
5.40128	177345
5.40942	161264
5.41753	156850
5.42567	154206
5.43378	141372
5.44190	141036
5.45003	141549
5.45815	138799
5.46628	133876
5.47440	130058
5.48252	129721
5.49065	125425
5.49877	122805
5.50688	132874
5.51502	133734
5.52313	142233
5.53127	141624
5.53938	135205
5.54750	136378
5.55563	132538
5.56375	123042
5.57188	122615
5.58000	134308
5.58812	155527
5.59625	185053
5.60437	196381
5.61250	185345
5.62062	163048
5.62873	142125
5.63687	143198
5.64498	136370
5.65310	132475
5.66123	135208
5.66935	131602
5.67748	134312
5.68560	158782
5.69372	189568
5.70185	221362
5.70997	220566
5.71810	177007
5.72622	155181
5.73433	147646
5.74247	140599
5.75058	121892
5.75872	123739
5.76683	116586
5.77495	119396
5.78308	115284
5.79120	114692
5.79932	111987
5.80745	110588
5.81557	115605
5.82370	108067
5.83182	112390
5.83993	112101
5.84807	106082
5.85618	112772
5.86432	115585
5.87243	109785
5.88055	110999
5.88868	106936
5.89680	105752
5.90492	99042
5.91305	86290
5.92117	84902
5.92930	83148
5.93742	78503
5.94553	80805
5.95367	83486
5.96178	85178
5.96992	89425
5.97803	106054
5.98615	122049
5.99428	131372
6.00240	123658
6.01053	112537
6.01865	104946
6.02677	95386
6.03490	95399
6.04302	91405
6.05113	87696
6.05927	82695
6.06738	85649
6.07552	84455
6.08363	82831
6.09175	82700
6.09988	78295
6.10800	84793
6.11613	79546
6.12425	78878
6.13237	84831
6.14050	84206
6.14862	82824
6.15673	90844
6.16487	96075
6.17298	91012
6.18112	93119
6.18923	95276
6.19735	95724
6.20548	98293
6.21360	102826
6.22173	98318
6.22985	105047
6.23797	111366
6.24610	108911
6.25422	108701
6.26235	105727
6.27047	106985
6.27858	110614
6.28672	110078
6.29483	112536
6.30295	114910
6.31108	118944
6.31920	120937
6.32733	127849
6.33545	126500
6.34357	129678
6.35170	132909
6.35982	141656
6.36795	136590
6.37607	137647
6.38418	131821
6.39232	135500
6.40043	138033
6.40857	144121
6.41668	149614
6.42480	146880
6.43293	147332
6.44105	143748
6.44917	149498
6.45730	143052
6.46542	152425
6.47355	148062
6.48167	154948
6.48978	160762
6.49792	157124
6.50603	155671
6.51417	160929
6.52228	159516
6.53040	161760
6.53853	152840
6.54665	160299
6.55478	165435
6.56290	169610
6.57102	172601
6.57915	176341
6.58727	179168
6.59538	165944
6.60352	173417
6.61163	178773
6.61977	178479
6.62788	184561
6.63600	182496
6.64413	197062
6.65225	286722
6.66038	631647
6.66850	1422997
6.67662	2516565
6.68475	2902292
6.69287	2419500
6.70098	1536923
6.70912	959472
6.71723	661651
6.72537	545545
6.73348	457533
6.74160	430143
6.74973	378039
6.75785	352157
6.76598	338004
6.77410	314277
6.78222	304798
6.79035	296606
6.79847	285468
6.80660	271411
6.81472	277755
6.82283	265690
6.83097	265044
6.83908	267468
6.84720	274356
6.85533	303660
6.86345	303368
6.87158	314243
6.87970	283555
6.88782	262363
6.89595	255875
6.90407	236134
6.91220	248695
6.92032	240889
6.92843	236659
6.93657	238442
6.94468	241635
6.95280	240528
6.96093	254058
6.96905	271916
6.97718	296631
6.98530	321297
6.99342	326528
7.00155	226217
7.00967	181566
7.01780	154586
7.02592	140909
7.03403	128923
7.04217	131949
7.05028	123422
7.05842	114067
7.06653	114010
7.07465	107690
7.08278	113653
7.09090	106158
7.09902	97107
7.10715	100607
7.11527	94180
7.12340	90059
7.13152	90190
7.13963	101543
7.14777	117747
7.15588	151283
7.16402	186379
7.17213	216712
7.18025	205463
7.18838	169938
7.19650	132784
7.20463	107598
7.21275	106064
7.22087	95399
7.22900	94988
7.23712	104575
7.24523	93274
7.25337	96505
7.26148	97388
7.26962	91628
7.27773	89826
7.28585	92263
7.29398	89944
7.30210	103423
7.31023	104742
7.31835	112918
7.32647	115574
7.33460	103550
7.34272	100392
7.35083	94774
7.35897	87565
7.36708	85919
7.37522	85976
7.38333	82987
7.39145	83736
7.39958	85871
7.40770	77178
7.41583	77875
7.42395	76440
7.43207	75646
7.44020	74684
7.44832	74678
7.45645	75357
7.46457	77216
7.47268	72262
7.48082	75970
7.48893	69082
7.49705	71941
7.50518	69219
7.51330	73265
7.52143	69118
7.52955	70270
7.53767	71174
7.54580	62437
7.55392	65168
7.56205	71205
7.57017	67816
7.57828	62195
7.58642	63176
7.59453	62256
7.60267	63640
7.61078	64801
7.61890	62440
7.62703	64117
7.63515	63937
7.64327	63732
7.65140	63769
7.65952	60687
7.66765	58399
7.67577	62687
7.68388	60830
7.69202	59837
7.70013	63430
7.70827	59125
7.71638	59908
7.72450	57545
7.73263	56954
7.74075	61387
7.74887	60913
7.75700	59608
7.76512	64785
7.77325	61575
7.78137	61334
7.78948	65249
7.79762	62568
7.80573	65699
7.81387	64406
7.82198	63524
7.83010	59279
7.83823	54418
7.84635	55775
7.85448	59032
7.86260	57987
7.87072	57839
7.87885	55931
7.88697	57698
7.89508	53766
7.90322	52194
7.91133	54718
7.91947	61608
7.92758	77830
7.93570	121278
7.94383	200139
7.95195	295383
7.96008	352647
7.96820	331548
7.97632	255507
7.98445	188987
7.99257	125109
8.00068	102644
8.00882	86359
8.01693	76488
8.02507	73022
8.03318	68288
8.04130	64096
8.04943	60585
8.05755	58482
8.06568	57034
8.07380	56613
8.08192	55042
8.09005	56354
8.09817	56522
8.10630	54824
8.11442	56508
8.12253	59887
8.13067	51682
8.13878	48631
8.14690	53587
8.15503	54827
8.16315	54654
8.17128	51836
8.17940	54289
8.18752	53119
8.19565	54880
8.20377	54269
8.21190	54780
8.22002	48155
8.22813	53466
8.23627	48798
8.24438	46196
8.25252	45202
8.26063	51566
8.26875	54513
8.27688	50884
8.28500	53146
8.29312	57802
8.30125	51589
8.30937	48524
8.31750	50657
8.32562	46357
8.33373	45233
8.34187	49244
8.34998	48123
8.35812	46426
8.36623	50266
8.37435	56412
8.38248	57485
8.39060	54899
8.39872	52242
8.40685	50980
8.41497	50232
8.42310	48416
8.43122	47560
8.43933	50558
8.44747	46967
8.45558	46866
8.46372	44514
8.47183	44929
8.47995	47645
8.48808	42514
8.49620	42097
8.50433	44201
8.51245	43382
8.52057	45174
8.52870	44262
8.53682	44839
8.54493	42652
8.55307	45458
8.56118	50348
8.56932	57740
8.57743	82290
8.58555	131621
8.59368	227791
8.60180	350787
8.60993	406853
8.61805	354672
8.62617	286900
8.63430	201180
8.64242	158381
8.65055	117948
8.65867	87766
8.66678	68667
8.67492	58556
8.68303	64344
8.69115	61627
8.69928	59520
8.70740	57062
8.71553	52016
8.72365	50745
8.73177	48335
8.73990	63288
8.74802	96101
8.75615	189161
8.76427	362146
8.77238	560735
8.78052	719574
8.78863	743795
8.79675	612168
8.80488	440936
8.81300	308536
8.82113	219218
8.82925	171249
8.83737	141089
8.84550	128400
8.85362	103797
8.86175	91975
8.86987	82548
8.87798	79637
8.88612	85889
8.89423	97005
8.90237	104059
8.91048	111172
8.91860	101099
8.92673	102455
8.93485	99541
8.94297	93321
8.95110	95498
8.95922	89158
8.96735	87142
8.97547	88037
8.98358	85302
8.99172	83189
8.99983	86445
9.00797	83389
9.01608	83163
9.02420	72342
9.03233	74454
9.04045	71870
9.04857	72529
9.05670	72362
9.06482	70286
9.07295	71561
9.08107	74491
9.08918	74553
9.09732	70457
9.10543	73474
9.11357	76462
9.12168	67329
9.12980	69364
9.13793	68541
9.14605	65083
9.15418	62764
9.16230	58816
9.17042	65622
9.17855	63860
9.18667	61447
9.19478	68038
9.20292	65372
9.21103	58818
9.21917	61769
9.22728	58568
9.23540	64189
9.24353	60174
9.25165	59303
9.25978	57451
9.26790	62743
9.27602	60725
9.28415	60702
9.29227	57643
9.30040	55249
9.30852	54703
9.31663	58175
9.32477	57688
9.33288	60929
9.34100	55790
9.34913	55609
9.35725	58293
9.36538	51915
9.37350	58161
9.38162	53343
9.38975	54617
9.39787	48992
9.40600	49955
9.41412	53832
9.42223	55474
9.43037	53732
9.43848	57824
9.44660	55122
9.45473	56134
9.46285	52244
9.47098	53017
9.47910	54211
9.48722	54657
9.49535	58468
9.50347	61262
9.51160	63160
9.51972	65612
9.52783	74000
9.53597	60695
9.54408	64759
9.55222	58795
9.56033	65976
9.56845	77889
9.57658	81510
9.58470	93797
9.59282	89827
9.60095	83374
9.60907	70250
9.61720	60910
9.62532	54100
9.63343	52873
9.64157	52743
9.64968	48900
9.65782	47303
9.66593	45170
9.67405	42798
9.68218	43800
9.69030	41764
9.69843	40215
9.70655	38893
9.71467	37621
9.72280	37197
9.73092	36854
9.73903	40396
9.74717	40644
9.75528	36982
9.76342	37647
9.77153	36981
9.77965	37145
9.78778	36960
9.79590	37761
9.80403	37542
9.81215	38375
9.82027	37806
9.82840	38621
9.83652	34345
9.84463	38373
9.85277	37702
9.86088	39356
9.86902	37238
9.87713	42113
9.88525	39768
9.89338	47305
9.90150	48520
9.90963	49226
9.91775	50896
9.92587	47709
9.93400	43172
9.94212	43379
9.95025	45718
9.95837	50425
9.96648	53736
9.97462	61399
9.98273	57426
9.99085	61562
9.99898	61558
10.00710	57740
10.01523	51561
10.02335	50749
10.03147	46178
10.03960	39563
10.04772	36788
10.05585	42287
10.06397	37683
10.07208	41614
10.08022	40620
10.08833	45515
10.09647	49292
10.10458	47834
10.11270	42638
10.12083	49150
10.12895	40073
10.13707	40691
10.14520	38691
10.15332	36714
10.16145	37446
10.16957	35636
10.17768	38183
10.18582	37112
10.19393	39947
10.20207	36573
10.21018	38056
10.21830	35633
10.22643	40660
10.23455	37953
10.24267	42101
10.25080	44869
10.25892	48515
10.26705	54357
10.27517	51525
10.28328	46581
10.29142	47236
10.29953	42637
10.30767	38571
10.31578	38727
10.32390	40186
10.33203	40580
10.34015	41445
10.34828	42925
10.35640	51750
10.36452	54492
10.37265	63260
10.38077	62808
10.38888	58305
10.39702	51841
10.40513	52493
10.41327	48987
10.42138	48084
10.42950	46656
10.43763	43592
10.44575	40465
10.45388	39757
10.46200	38007
10.47012	40107
10.47825	40322
10.48637	45671
10.49448	38553
10.50262	41037
10.51073	42337
10.51887	37132
10.52698	36859
10.53510	35787
10.54323	37913
10.55135	35613
10.55948	36838
10.56760	40200
10.57572	38577
10.58385	38152
10.59197	38667
10.60010	39922
10.60822	38059
10.61633	43367
10.62447	43108
10.63258	43410
10.64070	48143
10.64883	45423
10.65695	43943
10.66508	35523
10.67320	34652
10.68132	35393
10.68945	36321
10.69757	31306
10.70570	35651
10.71382	33524
10.72193	37868
10.73007	42987
10.73818	36316
10.74632	36035
10.75443	39987
10.76255	36009
10.77068	39169
10.77880	36684
10.78692	33575
10.79505	36240
10.80317	34668
10.81130	35126
10.81942	32720
10.82753	34956
10.83567	34280
10.84378	30570
10.85192	32723
10.86003	31053
10.86815	32608
10.87628	32219
10.88440	29978
10.89252	33125
10.90065	31950
10.90877	31441
10.91690	33753
10.92502	31970
10.93313	33296
10.94127	36343
10.94938	31146
10.95752	33962
10.96563	33701
10.97375	35134
10.98188	31614
10.99000	30874
10.99813	33219
11.00625	29188
11.01437	31308
11.02250	29223
11.03062	31665
11.03873	30620
11.04687	33612
11.05498	31037
11.06312	30517
11.07123	32050
11.07935	31451
11.08748	32616
11.09560	31147
11.10373	28032
11.11185	28693
11.11997	28442
11.12810	25754
11.13622	29816
11.14435	31949
11.15247	29637
11.16058	31559
11.16872	32252
11.17683	32181
11.18495	33824
11.19308	33742
11.20120	37957
11.20933	40319
11.21745	34622
11.22557	34829
11.23370	34836
11.24182	32274
11.24995	30710
11.25807	29085
11.26618	36473
11.27432	32610
11.28243	34051
11.29055	33024
11.29868	31767
11.30680	30456
11.31493	30442
11.32305	33128
11.33117	38432
11.33930	33604
11.34742	30662
11.35555	32507
11.36367	29671
11.37178	28270
11.37992	30405
11.38803	29876
11.39617	29600
11.40428	28984
11.41240	29513
11.42053	32614
11.42865	30724
11.43677	29687
11.44490	29163
11.45302	26937
11.46115	28786
11.46927	30989
11.47738	34429
11.48552	42165
11.49363	49848
11.50177	68051
11.50988	89614
11.51800	102544
11.52613	100212
11.53425	89116
11.54237	73338
11.55050	60694
11.55862	51068
11.56675	44272
11.57487	41990
11.58298	39985
11.59112	36785
11.59923	34180
11.60737	38093
11.61548	31772
11.62360	34016
11.63173	34200
11.63985	33916
11.64798	35472
11.65610	31705
11.66422	34362
11.67235	34219
11.68047	34462
11.68858	37363
11.69672	38327
11.70483	40986
11.71297	36136
11.72108	37304
11.72920	35834
11.73733	35693
11.74545	32996
11.75358	30996
11.76170	34838
11.76982	33251
11.77795	34441
11.78607	36064
11.79420	32094
11.80232	39401
11.81043	33473
11.81857	32458
11.82668	39593
11.83480	37362
11.84293	34289
11.85105	34499
11.85918	36595
11.86730	42488
11.87542	47953
11.88355	46604
11.89167	55630
11.89980	54051
11.90792	51679
11.91603	43864
11.92417	43140
11.93228	42176
11.94042	40110
11.94853	41960
11.95665	37707
11.96478	35682
11.97290	33831
11.98102	31138
11.98915	32753
11.99727	34830
12.00540	39527
12.01352	48473
12.02163	61418
12.02977	70504
12.03788	74738
12.04602	70060
12.05413	62690
12.06225	48065
12.07038	45297
12.07850	39721
12.08662	39417
12.09475	36895
12.10287	35222
12.11100	38125
12.11912	37746
12.12723	37689
12.13537	34770
12.14348	34378
12.15162	32224
12.15973	35159
12.16785	28872
12.17598	30167
12.18410	33394
12.19223	32325
12.20035	38877
12.20847	29019
12.21660	31381
12.22472	31375
12.23283	28712
12.24097	33521
12.24908	31524
12.25722	31388
12.26533	35765
12.27345	32333
12.28158	28691
12.28970	33074
12.29783	31550
12.30595	30059
12.31407	29023
12.32220	28586
12.33032	30500
12.33843	30680
12.34657	28526
12.35468	35624
12.36282	35467
12.37093	30973
12.37905	31263
12.38718	31735
12.39530	30003
12.40343	32367
12.41155	31663
12.41967	33534
12.42780	36244
12.43592	38839
12.44405	35847
12.45217	35319
12.46028	31422
12.46842	30801
12.47653	28595
12.48465	31570
12.49278	31896
12.50090	29598
12.50903	29306
12.51715	29797
12.52527	31504
12.53340	33010
12.54152	31472
12.54965	29866
12.55777	38503
12.56588	32180
12.57402	29633
12.58213	34639
12.59027	33823
12.59838	36242
12.60650	39912
12.61463	38792
12.62275	33628
12.63087	31198
12.63900	31786
12.64712	37808
12.65525	32378
12.66337	30660
12.67148	30900
12.67962	30290
12.68773	24993
12.69587	28570
12.70398	33092
12.71210	33125
12.72023	34611
12.72835	42298
12.73647	43872
12.74460	38345
12.75272	40008
12.76085	37498
12.76897	36474
12.77708	30880
12.78522	31706
12.79333	29783
12.80147	29215
12.80958	32830
12.81770	31624
12.82583	36084
12.83395	25037
12.84208	29071
12.85020	30281
12.85832	30612
12.86645	30727
12.87457	28670
12.88268	28385
12.89082	28209
12.89893	29033
12.90707	30055
12.91518	29158
12.92330	31895
12.93143	32079
12.93955	29635
12.94768	31182
12.95580	30627
12.96392	26464
12.97205	24471
12.98017	29552
12.98830	30007
12.99642	28829
13.00453	34040
13.01267	33991
13.02078	30520
13.02890	32484
13.03703	29627
13.04515	30528
13.05328	26961
13.06140	29355
13.06952	27289
13.07765	33224
13.08577	28653
13.09390	28741
13.10202	30406
13.11013	29077
13.11827	30183
13.12638	34002
13.13450	28118
13.14263	30826
13.15075	29383
13.15888	31634
13.16700	30003
13.17512	27477
13.18325	29787
13.19137	32541
13.19950	30792
13.20762	28718
13.21573	31772
13.22387	31319
13.23198	31815
13.24012	30254
13.24823	31288
13.25635	31208
13.26448	30060
13.27260	31425
13.28072	28921
13.28885	27539
13.29697	29056
13.30510	28547
13.31322	29593
13.32133	28207
13.32947	29357
13.33758	27481
13.34572	30091
13.35383	29372
13.36195	29809
13.37008	26935
13.37820	26146
13.38632	28969
13.39445	27087
13.40257	29380
13.41070	26172
13.41882	27762
13.42693	26146
13.43507	25802
13.44318	26289
13.45132	26808
13.45943	29442
13.46755	30961
13.47568	28540
13.48380	26167
13.49193	27123
13.50005	26655
13.50817	30841
13.51630	31857
13.52442	26904
13.53253	27264
13.54067	29273
13.54878	28042
13.55692	32135
13.56503	29068
13.57315	30275
13.58128	31210
13.58940	30134
13.59753	26869
13.60565	28225
13.61377	34184
13.62190	26835
13.63002	25632
13.63815	27944
13.64627	36032
13.65438	26810
13.66252	28496
13.67063	27114
13.67875	28940
13.68688	26003
13.69500	23808
13.70313	29146
13.71125	29720
13.71937	29108
13.72750	27646
13.73562	33304
13.74375	32900
13.75187	35284
13.75998	37378
13.76812	49447
13.77623	69659
13.78435	87763
13.79248	121844
13.80060	123434
13.80873	118537
13.81685	99847
13.82497	73469
13.83310	60473
13.84122	52235
13.84935	42885
13.85747	40006
13.86558	40669
13.87372	37444
13.88183	38332
13.88997	35911
13.89808	36777
13.90620	33918
13.91433	31127
13.92245	36292
13.93057	37368
13.93870	34040
13.94682	36598
13.95495	37349
13.96307	41422
13.97118	52301
13.97932	76140
13.98743	111641
13.99557	149873
14.00368	147899
14.01180	150335
14.01993	127082
14.02805	102406
14.03618	88106
14.04430	62383
14.05242	52811
14.06055	49960
14.06867	50220
14.07678	51684
14.08492	46430
14.09303	46847
14.10117	46614
14.10928	44414
14.11740	46042
14.12553	46225
14.13365	42521
14.14178	41663
14.14990	40130
14.15802	38984
14.16615	44408
14.17427	44278
14.18238	40530
14.19052	42706
14.19863	49002
14.20677	65543
14.21488	82385
14.22300	102404
14.23113	119755
14.23925	119591
14.24738	106936
14.25550	101309
14.26362	95192
14.27175	83289
14.27987	80449
14.28800	71402
14.29612	65737
14.30423	62890
14.31237	59934
14.32048	57104
14.32860	54608
14.33673	56792
14.34485	50951
14.35298	47368
14.36110	46755
14.36922	43341
14.37735	44096
14.38547	42273
14.39360	37065
14.40172	36613
14.40983	35981
14.41797	32479
14.42608	28384
14.43422	33148
14.44233	33064
14.45045	31079
14.45858	30915
14.46670	31834
14.47482	33708
14.48295	35639
14.49107	33094
14.49920	30834
14.50732	28674
14.51543	32102
14.52357	31301
14.53168	38542
14.53982	36189
14.54793	32900
14.55605	35674
14.56418	36703
14.57230	30680
14.58042	29715
14.58855	32339
14.59667	29616
14.60480	27726
14.61292	29711
14.62103	29162
14.62917	27086
14.63728	30536
14.64542	32170
14.65353	29457
14.66165	27248
14.66978	30532
14.67790	29355
14.68603	30547
14.69415	29269
14.70227	31389
14.71040	29462
14.71852	29312
14.72663	25699
14.73477	28359
14.74288	27179
14.75102	31928
14.75913	25753
14.76725	29954
14.77538	31815
14.78350	31268
14.79163	27576
14.79975	34660
14.80787	34571
14.81600	31289
14.82412	31998
14.83223	32505
14.84037	35668
14.84848	33995
14.85662	35553
14.86473	32999
14.87285	34495
14.88098	35295
14.88910	36749
14.89723	34272
14.90535	34349
14.91347	32964
14.92160	31838
14.92972	31453
14.93785	33184
14.94597	34698
14.95408	30445
14.96222	34040
14.97033	33911
14.97845	32423
14.98658	28289
14.99470	29781
15.00283	27224
15.01095	31481
15.01907	31954
15.02720	32216
15.03532	31304
15.04345	29501
15.05157	28857
15.05968	28597
15.06782	29825
15.07593	29218
15.08407	29332
15.09218	27477
15.10030	32121
15.10843	30597
15.11655	31037
15.12467	30158
15.13280	28459
15.14092	27112
15.14905	31153
15.15717	27326
15.16528	28560
15.17342	27920
15.18153	33124
15.18967	30889
15.19778	31905
15.20590	29289
15.21403	32046
15.22215	32230
15.23027	28555
15.23840	34567
15.24652	27469
15.25465	26305
15.26277	25906
15.27088	30101
15.27902	26095
15.28713	29523
15.29527	25454
15.30338	26214
15.31150	24833
15.31963	27078
15.32775	25464
15.33588	25260
15.34400	26799
15.35212	26085
15.36025	26494
15.36837	27383
15.37648	27040
15.38462	26819
15.39273	25718
15.40087	28672
15.40898	27628
15.41710	26697
15.42523	24636
15.43335	28195
15.44148	25485
15.44960	25322
15.45772	25118
15.46585	25820
15.47397	25699
15.48210	22964
15.49022	22824
15.49833	28229
15.50647	30334
15.51458	32655
15.52270	37071
15.53083	46620
15.53895	52347
15.54708	57324
15.55520	54060
15.56332	48288
15.57145	39612
15.57957	33627
15.58770	26817
15.59582	29170
15.60393	27654
15.61207	27961
15.62018	28083
15.62830	29438
15.63643	30766
15.64455	28916
15.65268	28516
15.66080	26232
15.66892	25537
15.67705	23573
15.68517	26089
15.69330	29366
15.70142	26335
15.70953	26043
15.71767	28018
15.72578	28231
15.73392	27110
15.74203	24523
15.75015	27715
15.75828	29359
15.76640	25891
15.77452	28065
15.78265	35287
15.79077	40158
15.79890	41841
15.80702	48646
15.81513	44607
15.82327	40591
15.83138	35321
15.83952	31784
15.84763	31454
15.85575	31512
15.86388	34041
15.87200	33635
15.88012	34032
15.88825	28960
15.89637	28849
15.90450	31074
15.91262	31441
15.92073	32517
15.92887	31273
15.93698	30116
15.94512	30278
15.95323	32146
15.96135	35048
15.96948	42304
15.97760	46533
15.98573	58515
15.99385	62775
16.00197	66588
16.01010	67738
16.01822	72969
16.02633	70056
16.03447	68432
16.04258	54926
16.05072	53454
16.05883	47100
16.06695	38803
16.07508	36770
16.08320	41658
16.09133	36878
16.09945	37513
16.10757	36800
16.11570	35350
16.12382	34843
16.13195	36138
16.14007	33976
16.14818	33255
16.15632	31610
16.16443	31110
16.17255	35127
16.18068	30920
16.18880	28899
16.19693	29518
16.20505	29208
16.21317	30866
16.22130	28966
16.22942	29332
16.23755	29957
16.24567	30315
16.25378	30337
16.26192	32554
16.27003	32564
16.27815	30533
16.28628	30619
16.29440	28730
16.30253	28959
16.31065	28439
16.31877	30799
16.32690	28937
16.33502	28441
16.34315	28597
16.35127	30874
16.35938	38062
16.36752	45060
16.37563	50757
16.38377	66137
16.39188	81050
16.40000	82159
16.40813	70403
16.41625	63045
16.42437	50810
16.43250	39056
16.44062	37225
16.44875	35076
16.45687	36447
16.46498	36042
16.47312	31177
16.48123	33517
16.48937	31607
16.49748	33832
16.50560	31980
16.51373	32466
16.52185	29454
16.52998	28389
16.53810	33099
16.54622	30435
16.55435	33411
16.56247	32318
16.57058	32118
16.57872	34248
16.58683	33223
16.59497	34470
16.60308	39316
16.61120	40149
16.61933	42916
16.62745	47846
16.63558	48303
16.64370	41257
16.65182	40184
16.65995	32266
16.66807	33902
16.67618	33716
16.68432	26081
16.69243	29272
16.70057	30884
16.70868	29109
16.71680	27611
16.72493	31315
16.73305	31025
16.74118	27975
16.74930	27093
16.75742	27276
16.76555	24683
16.77367	25958
16.78180	29244
16.78992	29863
16.79803	32031
16.80617	27383
16.81428	30612
16.82240	25383
16.83053	27743
16.83865	25890
16.84678	30677
16.85490	26678
16.86302	26237
16.87115	26858
16.87927	27694
16.88740	26512
16.89552	30275
16.90363	24865
16.91177	25578
16.91988	26430
16.92800	27542
16.93613	27500
16.94425	26074
16.95238	24789
16.96050	26487
16.96862	24961
16.97675	26663
16.98487	26811
16.99300	30287
17.00112	25950
17.00923	25783
17.01737	23984
17.02548	27579
17.03362	25585
17.04173	26094
17.04985	24137
17.05798	23276
17.06610	26726
17.07422	25212
17.08235	25391
17.09047	29999
17.09860	27334
17.10672	26701
17.11483	27446
17.12297	28860
17.13108	29025
17.13922	28255
17.14733	27777
17.15545	26612
17.16358	27345
17.17170	28142
17.17983	30440
17.18795	27519
17.19607	26991
17.20420	27342
17.21232	26377
17.22043	25910
17.22857	26552
17.23668	27683
17.24482	26742
17.25293	25836
17.26105	27101
17.26918	26526
17.27730	26256
17.28543	24032
17.29355	25168
17.30167	27214
17.30980	26042
17.31792	28951
17.32605	26856
17.33417	27841
17.34228	27522
17.35042	35113
17.35853	33502
17.36665	29527
17.37478	35925
17.38290	35278
17.39103	33107
17.39915	30823
17.40727	30492
17.41540	29191
17.42352	28057
17.43165	31708
17.43977	29756
17.44788	30399
17.45602	32754
17.46413	27350
17.47225	29094
17.48038	28404
17.48850	28630
17.49663	30802
17.50475	28380
17.51287	30731
17.52100	29510
17.52912	27793
17.53725	26270
17.54537	30111
17.55348	27785
17.56162	29572
17.56973	28141
17.57787	32351
17.58598	30810
17.59410	28378
17.60223	27548
17.61035	31568
17.61847	24670
17.62660	30979
17.63472	34112
17.64285	46635
17.65097	65814
17.65908	92557
17.66722	145631
17.67533	172308
17.68347	187840
17.69158	173791
17.69970	139852
17.70783	109385
17.71595	85594
17.72407	69756
17.73220	60984
17.74032	54697
17.74845	48391
17.75657	50703
17.76468	42170
17.77282	44015
17.78093	49022
17.78907	40651
17.79718	43410
17.80530	42797
17.81343	42749
17.82155	44812
17.82968	50576
17.83780	52906
17.84592	50026
17.85405	44642
17.86217	43441
17.87028	41348
17.87842	39049
17.88653	36400
17.89467	35015
17.90278	35299
17.91090	36171
17.91903	37308
17.92715	31733
17.93528	30286
17.94340	29074
17.95152	30170
17.95965	30039
17.96777	28841
17.97590	29141
17.98402	30047
17.99213	32055
18.00027	29701
18.00838	31509
18.01650	27870
18.02463	31063
18.03275	30219
18.04088	31489
18.04900	29245
18.05712	27174
18.06525	32633
18.07337	34521
18.08150	36458
18.08962	53578
18.09773	51474
18.10587	54769
18.11398	57776
18.12210	54014
18.13023	48433
18.13835	44134
18.14648	38812
18.15460	34604
18.16272	37520
18.17085	41529
18.17897	42773
18.18710	43482
18.19522	45048
18.20333	42087
18.21147	41434
18.21958	37982
18.22772	35202
18.23583	36429
18.24395	32906
18.25208	30415
18.26020	32849
18.26832	30276
18.27645	31355
18.28457	31041
18.29270	32545
18.30082	32413
18.30893	29993
18.31707	33021
18.32518	29295
18.33332	31390
18.34143	32477
18.34955	32441
18.35768	29808
18.36580	29620
18.37393	31132
18.38205	32419
18.39017	31283
18.39830	27651
18.40642	26321
18.41453	26434
18.42267	27913
18.43078	25236
18.43892	29754
18.44703	28351
18.45515	29117
18.46328	28080
18.47140	29317
18.47953	28960
18.48765	31083
18.49577	32157
18.50390	29061
18.51202	25417
18.52013	30019
18.52827	26524
18.53638	26147
18.54452	26247
18.55263	31487
18.56075	29317
18.56888	27123
18.57700	27252
18.58513	31315
18.59325	30973
18.60137	32439
18.60950	31379
18.61762	33416
18.62575	34369
18.63387	31419
18.64198	32180
18.65012	31045
18.65823	32139
18.66635	30465
18.67448	29028
18.68260	30720
18.69073	28580
18.69885	29994
18.70697	29692
18.71510	30599
18.72322	29243
18.73135	28957
18.73947	30503
18.74758	25501
18.75572	33219
18.76383	33632
18.77195	32545
18.78008	34766
18.78820	29416
18.79633	32440
18.80445	30342
18.81257	36398
18.82070	31963
18.82882	35711
18.83695	37622
18.84507	31179
18.85318	32134
18.86132	30810
18.86943	32539
18.87757	36814
18.88568	33914
18.89380	34825
18.90193	32887
18.91005	32168
18.91817	31262
18.92630	36427
18.93442	38378
18.94255	36142
18.95067	39008
18.95878	38522
18.96692	36620
18.97503	39166
18.98317	33087
18.99128	35297
18.99940	36367
19.00753	36918
19.01565	34865
19.02378	41173
19.03190	36095
19.04002	35286
19.04815	35049
19.05627	34901
19.06438	36065
19.07252	35330
19.08063	37191
19.08877	38385
19.09688	43453
19.10500	49459
19.11313	53580
19.12125	52722
19.12938	53122
19.13750	50618
19.14562	48775
19.15375	49401
19.16187	52621
19.16998	51363
19.17812	57468
19.18623	59292
19.19437	55266
19.20248	59285
19.21060	53538
19.21873	51611
19.22685	48169
19.23498	44257
19.24310	42614
19.25122	39924
19.25935	36864
19.26747	38095
19.27560	39912
19.28372	39329
19.29183	41040
19.29997	43065
19.30808	43790
19.31620	46269
19.32433	42379
19.33245	47161
19.34058	49334
19.34870	50859
19.35682	55976
19.36495	50828
19.37307	50894
19.38120	45261
19.38932	42026
19.39743	44083
19.40557	39288
19.41368	36279
19.42182	35972
19.42993	36170
19.43805	35933
19.44618	34230
19.45430	35147
19.46242	31505
19.47055	28902
19.47867	31341
19.48680	39444
19.49492	32842
19.50303	39609
19.51117	50644
19.51928	61603
19.52742	68885
19.53553	74394
19.54365	69868
19.55178	63202
19.55990	56963
19.56802	41243
19.57615	37426
19.58427	37968
19.59240	37754
19.60052	36220
19.60863	33788
19.61677	29758
19.62488	29955
19.63302	34320
19.64113	36160
19.64925	46146
19.65738	61582
19.66550	84210
19.67363	100419
19.68175	124222
19.68987	125917
19.69800	115622
19.70612	98829
19.71423	79395
19.72237	68432
19.73048	59700
19.73862	54387
19.74673	50069
19.75485	46922
19.76298	50630
19.77110	42591
19.77923	42403
19.78735	40837
19.79547	38887
19.80360	40558
19.81172	43726
19.81985	41214
19.82797	46660
19.83608	43831
19.84422	66122
19.85233	167728
19.86045	525648
19.86858	1740336
19.87670	4734412
19.88483	1.027047E+07
19.89295	1.774278E+07
19.90107	2.53777E+07
19.90920	3.038438E+07
19.91732	3.162917E+07
19.92545	2.777631E+07
19.93357	2.133186E+07
19.94168	1.457911E+07
19.94982	9499186
19.95793	6504493
19.96605	4965552
19.97418	3997718
19.98230	3435824
19.99043	3135696
19.99855	2818232
20.00667	2555322
20.01480	2337167
20.02292	2125947
20.03105	1955036
20.03917	1809244
20.04728	1605431
20.05542	1363636
20.06353	1110219
20.07167	856211
20.07978	629443
20.08790	457031
20.09603	371715
20.10415	319991
20.11227	315403
20.12040	286876
20.12852	261952
20.13665	248463
20.14477	242014
20.15288	236043
20.16102	240297
20.16913	221714
20.17727	225232
20.18538	211132
20.19350	198477
20.20163	193363
20.20975	188578
20.21787	181401
20.22600	169923
20.23412	172680
20.24225	166015
20.25037	163150
20.25848	163462
20.26662	180111
20.27473	193493
20.28287	209365
20.29098	222506
20.29910	223903
20.30723	220039
20.31535	201264
20.32348	186951
20.33160	170173
20.33972	141751
20.34785	124743
20.35597	99613
20.36408	86740
20.37222	69592
20.38033	64289
20.38847	56129
20.39658	57156
20.40470	52678
20.41283	49457
20.42095	51678
20.42908	55416
20.43720	56535
20.44532	61015
20.45345	62212
20.46157	75596
20.46970	74487
20.47782	68182
20.48593	74667
20.49407	64310
20.50218	55943
20.51030	58019
20.51843	52124
20.52655	48321
20.53468	40659
20.54280	41670
20.55092	44201
20.55905	46017
20.56717	41719
20.57530	41685
20.58342	41581
20.59153	39207
20.59967	42310
20.60778	43561
20.61590	41737
20.62403	42232
20.63215	39305
20.64028	38858
20.64840	39925
20.65652	38259
20.66465	38883
20.67277	38209
20.68090	40542
20.68902	38467
20.69713	41537
20.70527	38295
20.71338	37956
20.72152	39779
20.72963	34445
20.73775	39102
20.74588	42079
20.75400	43228
20.76212	39208
20.77025	40606
20.77837	40424
20.78650	39780
20.79462	38627
20.80273	37398
20.81087	38827
20.81898	37891
20.82712	39052
20.83523	41577
20.84335	38402
20.85148	41424
20.85960	41107
20.86773	40824
20.87585	38514
20.88397	38251
20.89210	41575
20.90022	38406
20.90833	38841
20.91647	40653
20.92458	42074
20.93272	39532
20.94083	33653
20.94895	37505
20.95708	36312
20.96520	38859
20.97333	37914
20.98145	36032
20.98957	36814
20.99770	34082
21.00582	37771
21.01393	35296
21.02207	38957
21.03018	37473
21.03832	39824
21.04643	39953
21.05455	42476
21.06268	38845
21.07080	43509
21.07893	44896
21.08705	37540
21.09517	35847
21.10330	33596
21.11142	36695
21.11955	35666
21.12767	35687
21.13578	36384
21.14392	37273
21.15203	42308
21.16015	40067
21.16828	42203
21.17640	40793
21.18453	38640
21.19265	43635
21.20077	40533
21.20890	40994
21.21702	40209
21.22515	44304
21.23327	42706
21.24138	40552
21.24952	41106
21.25763	40057
21.26575	39088
21.27388	38111
21.28200	36116
21.29013	38037
21.29825	39319
21.30637	39850
21.31450	38339
21.32262	38193
21.33075	36250
21.33887	37690
21.34698	38308
21.35512	36904
21.36323	34787
21.37137	34454
21.37948	37716
21.38760	32261
21.39573	36379
21.40385	34094
21.41197	36037
21.42010	37912
21.42822	37455
21.43635	36753
21.44447	32432
21.45258	32732
21.46072	37479
21.46883	33250
21.47697	33813
21.48508	31961
21.49320	39198
21.50133	34940
21.50945	33728
21.51758	30927
21.52570	37833
21.53382	33111
21.54195	33844
21.55007	38500
21.55818	34054
21.56632	32480
21.57443	34040
21.58257	33979
21.59068	33290
21.59880	34285
21.60693	34085
21.61505	33425
21.62318	38992
21.63130	37404
21.63942	39650
21.64755	50357
21.65567	51641
21.66380	51378
21.67192	54776
21.68003	48930
21.68817	45294
21.69628	43352
21.70440	40049
21.71253	36869
21.72065	36502
21.72878	29618
21.73690	32487
21.74502	37602
21.75315	34593
21.76127	36054
21.76940	40091
21.77752	35354
21.78563	33809
21.79377	35844
21.80188	34386
21.81000	34773
21.81813	35467
21.82625	35295
21.83438	43927
21.84250	50860
21.85062	53304
21.85875	56979
21.86687	59324
21.87500	56296
21.88312	54833
21.89123	46081
21.89937	42284
21.90748	41080
21.91562	38318
21.92373	32736
21.93185	34748
21.93998	34284
21.94810	32894
21.95622	34423
21.96435	34311
21.97247	34847
21.98060	33993
21.98872	31974
21.99683	28871
22.00497	33430
22.01308	27268
22.02122	31313
22.02933	31681
22.03745	33746
22.04558	30291
22.05370	32377
22.06182	32383
22.06995	29723
22.07807	29141
22.08620	27073
22.09432	34388
22.10243	30968
22.11057	32344
22.11868	33447
22.12682	32288
22.13493	31626
22.14305	32888
22.15118	33382
22.15930	34378
22.16743	33615
22.17555	31127
22.18367	34517
22.19180	32601
22.19992	34484
22.20803	33808
22.21617	34327
22.22428	32305
22.23242	34843
22.24053	33966
22.24865	35042
22.25678	34486
22.26490	34304
22.27303	34743
22.28115	36165
22.28927	32060
22.29740	34993
22.30552	42297
22.31365	54379
22.32177	72533
22.32988	96430
22.33802	108811
22.34613	127220
22.35425	122906
22.36238	116554
22.37050	97154
22.37863	75533
22.38675	68592
22.39487	54630
22.40300	55452
22.41112	51275
22.41925	45149
22.42737	44976
22.43548	42907
22.44362	40882
22.45173	35599
22.45985	35838
22.46798	37099
22.47610	31190
22.48423	33727
22.49235	34787
22.50047	33110
22.50860	31289
22.51672	30901
22.52485	32522
22.53297	34562
22.54108	29404
22.54922	37491
22.55733	36156
22.56547	31025
22.57358	34215
22.58170	33445
22.58983	32534
22.59795	31686
22.60607	28966
22.61420	33227
22.62232	32114
22.63045	27195
22.63857	28050
22.64668	28985
22.65482	31935
22.66293	30220
22.67107	35754
22.67918	35061
22.68730	44760
22.69543	45981
22.70355	47577
22.71168	46885
22.71980	46771
22.72792	42017
22.73605	38445
22.74417	34870
22.75228	36135
22.76042	35379
22.76853	31446
22.77667	33525
22.78478	28050
22.79290	28815
22.80103	30607
22.80915	38719
22.81728	29788
22.82540	28543
22.83352	30883
22.84165	30172
22.84977	30683
22.85788	31422
22.86602	33052
22.87413	32801
22.88227	35921
22.89038	33590
22.89850	36167
22.90663	36358
22.91475	39883
22.92288	41897
22.93100	44861
22.93912	53648
22.94725	53783
22.95537	62327
22.96350	56124
22.97162	55405
22.97973	53207
22.98787	52856
22.99598	52171
23.00410	46749
23.01223	44110
23.02035	43529
23.02848	39356
23.03660	38445
23.04472	39978
23.05285	35304
23.06097	35825
23.06910	35173
23.07722	34431
23.08533	34888
23.09347	35561
23.10158	32005
23.10970	32991
23.11783	31882
23.12595	34398
23.13408	31385
23.14220	31797
23.15032	30359
23.15845	29830
23.16657	38170
23.17470	30679
23.18282	29341
23.19093	31036
23.19907	31150
23.20718	28771
23.21532	32857
23.22343	28399
23.23155	33918
23.23968	38819
23.24780	41557
23.25592	41833
23.26405	47476
23.27217	51806
23.28030	44816
23.28842	44836
23.29653	45225
23.30467	41736
23.31278	34507
23.32092	33001
23.32903	32556
23.33715	33206
23.34528	33210
23.35340	35074
23.36153	38214
23.36965	36104
23.37777	36489
23.38590	43381
23.39402	46220
23.40213	44799
23.41027	49767
23.41838	46127
23.42652	45836
23.43463	47660
23.44275	46020
23.45088	43791
23.45900	44940
23.46713	47060
23.47525	43338
23.48337	41386
23.49150	41345
23.49962	42153
23.50773	43349
23.51587	40369
23.52398	37295
23.53212	39635
23.54023	42689
23.54835	41297
23.55648	45162
23.56460	48555
23.57273	50552
23.58085	56916
23.58897	62528
23.59710	69180
23.60522	84259
23.61335	82244
23.62147	89830
23.62958	93065
23.63772	114389
23.64583	167606
23.65395	253056
23.66208	388921
23.67020	492033
23.67833	544222
23.68645	537936
23.69457	449770
23.70270	341807
23.71082	251747
23.71895	189807
23.72707	148362
23.73518	115788
23.74332	99984
23.75143	96423
23.75957	110435
23.76768	188383
23.77580	415157
23.78393	849356
23.79205	1575066
23.80017	2362956
23.80830	2887289
23.81642	2831802
23.82455	2406912
23.83267	1891167
23.84078	1347894
23.84892	1005614
23.85703	733297
23.86517	590189
23.87328	457751
23.88140	374502
23.88953	315368
23.89765	284912
23.90577	258615
23.91390	219957
23.92202	217382
23.93015	198894
23.93827	177189
23.94638	166615
23.95452	155893
23.96263	154397
23.97077	149955
23.97888	137058
23.98700	134936
23.99513	129988
24.00325	118941
24.01138	121760
24.01950	116728
24.02762	123393
24.03575	124880
24.04387	126918
24.05198	133036
24.06012	131267
24.06823	125551
24.07637	118017
24.08448	105150
24.09260	99179
24.10073	98291
24.10885	92809
24.11698	83602
24.12510	85128
24.13322	85881
24.14135	82643
24.14947	75330
24.15758	83078
24.16572	79502
24.17383	77684
24.18197	78087
24.19008	75711
24.19820	68269
24.20633	69347
24.21445	69283
24.22258	72736
24.23070	69985
24.23882	72818
24.24695	69689
24.25507	69809
24.26320	67362
24.27132	71122
24.27943	59504
24.28757	59201
24.29568	61714
24.30380	57353
24.31193	55402
24.32005	56315
24.32818	57692
24.33630	55916
24.34442	55227
24.35255	56995
24.36067	48028
24.36880	50354
24.37692	52220
24.38503	52861
24.39317	54317
24.40128	63506
24.40942	72378
24.41753	79254
24.42565	79974
24.43378	79808
24.44190	70573
24.45002	67337
24.45815	57778
24.46627	60618
24.47440	62637
24.48252	67028
24.49063	71154
24.49877	70274
24.50688	72879
24.51502	71368
24.52313	69141
24.53125	72018
24.53938	73351
24.54750	81060
24.55562	92295
24.56375	95228
24.57187	100459
24.58000	101580
24.58812	92714
24.59623	88955
24.60437	80398
24.61248	73925
24.62062	67256
24.62873	60690
24.63685	57425
24.64498	55609
24.65310	59660
24.66123	57390
24.66935	56118
24.67747	54749
24.68560	49730
24.69372	54340
24.70183	46737
24.70997	44699
24.71808	47098
24.72622	47398
24.73433	50436
24.74245	53153
24.75058	47980
24.75870	41685
24.76683	43333
24.77495	47256
24.78307	44992
24.79120	42470
24.79932	42407
24.80745	41337
24.81557	38966
24.82368	40984
24.83182	39779
24.83993	41362
24.84805	42878
24.85618	39862
24.86430	42085
24.87243	51094
24.88055	50025
24.88867	53841
24.89680	55533
24.90492	51129
24.91305	45209
24.92117	44575
24.92928	43990
24.93742	42871
24.94553	36454
24.95365	38831
24.96178	39857
24.96990	39315
24.97803	34856
24.98615	35977
24.99427	34963
25.00240	35136
25.01052	35713
25.01865	37614
25.02677	35091
25.03488	41242
25.04302	37343
25.05113	38491
25.05927	37325
25.06738	37700
25.07550	37476
25.08363	36093
25.09175	35739
25.09987	36724
25.10800	37246
25.11612	36277
25.12425	37765
25.13237	40612
25.14048	42922
25.14862	43935
25.15673	45637
25.16487	43350
25.17298	47430
25.18110	46118
25.18923	42989
25.19735	41039
25.20548	39849
25.21360	43168
25.22172	38474
25.22985	36209
25.23797	41613
25.24608	37108
25.25422	33880
25.26233	36781
25.27047	36671
25.27858	37525
25.28670	36400
25.29483	42483
25.30295	39975
25.31108	38919
25.31920	42611
25.32732	41942
25.33545	39790
25.34357	43026
25.35168	44533
25.35982	39635
25.36793	37993
25.37607	38918
25.38418	37834
25.39230	35621
25.40043	36007
25.40855	41773
25.41668	37642
25.42480	36332
25.43292	35080
25.44105	36547
25.44917	36680
25.45730	34719
25.46542	34835
25.47353	30903
25.48167	36069
25.48978	32885
25.49790	38090
25.50603	34477
25.51415	36476
25.52228	32269
25.53040	33842
25.53852	31989
25.54665	35552
25.55477	31151
25.56290	32996
25.57102	34960
25.57913	31787
25.58727	33912
25.59538	32203
25.60350	35312
25.61163	31720
25.61975	31792
25.62788	37057
25.63600	36014
25.64412	35955
25.65225	36038
25.66037	39628
25.66850	38099
25.67662	38947
25.68473	35659
25.69287	34626
25.70098	31116
25.70912	33949
25.71723	33424
25.72535	33393
25.73348	39740
25.74160	39027
25.74972	36595
25.75785	43191
25.76597	42842
25.77410	37161
25.78222	35565
25.79033	37063
25.79847	36546
25.80658	36298
25.81472	36372
25.82283	42516
25.83095	44444
25.83908	46707
25.84720	42042
25.85533	41650
25.86345	41749
25.87157	38710
25.87970	36248
25.88782	36213
25.89593	34547
25.90407	32102
25.91218	33297
25.92032	34053
25.92843	31913
25.93655	32456
25.94468	34281
25.95280	30376
25.96093	34257
25.96905	31207
25.97717	28703
25.98530	30607
25.99342	28919
26.00153	33976
26.00967	28618
26.01778	26397
26.02592	24775
26.03403	28484
26.04215	29900
26.05028	30570
26.05840	30109
26.06653	33527
26.07465	32685
26.08277	28892
26.09090	31197
26.09902	32019
26.10715	36911
26.11527	31489
26.12338	34146
26.13152	36687
26.13963	36367
26.14775	38189
26.15588	43739
26.16400	39730
26.17213	41085
26.18025	36673
26.18837	37359
26.19650	39261
26.20462	34879
26.21275	32364
26.22087	33241
26.22898	30574
26.23712	33279
26.24523	31403
26.25337	31597
26.26148	28576
26.26960	31055
26.27773	29304
26.28585	33076
26.29397	28990
26.30210	31347
26.31022	32538
26.31835	33377
26.32647	31069
26.33458	33271
26.34272	30281
26.35083	29362
26.35897	30504
26.36708	31799
26.37520	30536
26.38333	30389
26.39145	32119
26.39957	29337
26.40770	28120
26.41582	31923
26.42395	28422
26.43207	27909
26.44018	31992
26.44832	29292
26.45643	32101
26.46457	31465
26.47268	31037
26.48080	25671
26.48893	27231
26.49705	26939
26.50518	31257
26.51330	26391
26.52142	26950
26.52955	28959
26.53767	26849
26.54578	28818
26.55392	29930
26.56203	31148
26.57017	26964
26.57828	28850
26.58640	31452
26.59453	28580
26.60265	31953
26.61078	30997
26.61890	30003
26.62702	27898
26.63515	30311
26.64327	28493
26.65138	29479
26.65952	29781
26.66763	32821
26.67577	33885
26.68388	36329
26.69200	34893
26.70013	37660
26.70825	32136
26.71638	34819
26.72450	35196
26.73262	31590
26.74075	32246
26.74887	32246
26.75700	29107
26.76512	31262
26.77323	30794
26.78137	29912
26.78948	31420
26.79760	31236
26.80573	31840
26.81385	33155
26.82198	32511
26.83010	32693
26.83822	34357
26.84635	34277
26.85447	32246
26.86260	33508
26.87072	30922
26.87883	38100
26.88697	37046
26.89508	31601
26.90322	33450
26.91133	33845
26.91945	33783
26.92758	33301
26.93570	31135
26.94382	32255
26.95195	31514
26.96007	33114
26.96820	30957
26.97632	36587
26.98443	38821
26.99257	56819
27.00068	81474
27.00882	118230
27.01693	179690
27.02505	243422
27.03318	283148
27.04130	310121
27.04942	303494
27.05755	273507
27.06567	238353
27.07380	189527
27.08192	155162
27.09003	128655
27.09817	109697
27.10628	104134
27.11442	86308
27.12253	81987
27.13065	74143
27.13878	75279
27.14690	76286
27.15503	68054
27.16315	66976
27.17127	64839
27.17940	69282
27.18752	63630
27.19563	61175
27.20377	58733
27.21188	55296
27.22002	55399
27.22813	60366
27.23625	51047
27.24438	51121
27.25250	48745
27.26063	49869
27.26875	53846
27.27687	47291
27.28500	44366
27.29312	44386
27.30125	42275
27.30937	46931
27.31748	43985
27.32562	45922
27.33373	42118
27.34185	38412
27.34998	44264
27.35810	40469
27.36623	42785
27.37435	44920
27.38247	43425
27.39060	39699
27.39872	43966
27.40685	44660
27.41497	39927
27.42308	39460
27.43122	36616
27.43933	35183
27.44745	40799
27.45558	40167
27.46370	37832
27.47183	38156
27.47995	37614
27.48807	34254
27.49620	35836
27.50432	34743
27.51245	38664
27.52057	39108
27.52868	35202
27.53682	39502
27.54493	35002
27.55307	40264
27.56118	37916
27.56930	33811
27.57743	37173
27.58555	38587
27.59367	36524
27.60180	36100
27.60992	37063
27.61805	36169
27.62617	35792
27.63428	38140
27.64242	31353
27.65053	32666
27.65867	35732
27.66678	33535
27.67490	32603
27.68303	31528
27.69115	34695
27.69927	31864
27.70740	32457
27.71552	31917
27.72365	32862
27.73177	32213
27.73988	30845
27.74802	33724
27.75613	32193
27.76427	32943
27.77238	35273
27.78050	31509
27.78863	30871
27.79675	35587
27.80488	29162
27.81300	33038
27.82112	32536
27.82925	33888
27.83737	35788
27.84548	37319
27.85362	39078
27.86173	35634
27.86987	37040
27.87798	34509
27.88610	33615
27.89423	34662
27.90235	34196
27.91048	31001
27.91860	31874
27.92672	32543
27.93485	31438
27.94297	32498
27.95110	31731
27.95922	34625
27.96733	39094
27.97547	35541
27.98358	32969
27.99170	30699
27.99983	32220
28.00795	31868
28.01608	32155
28.02420	31861
28.03232	33629
28.04045	32118
28.04857	34320
28.05670	34732
28.06482	34757
28.07293	32083
28.08107	33840
28.08918	32008
28.09732	36887
28.10543	35339
28.11355	34739
28.12168	36681
28.12980	35468
28.13792	34403
28.14605	31596
28.15417	31658
28.16230	30958
28.17042	39360
28.17853	30556
28.18667	30372
28.19478	29819
28.20292	32483
28.21103	33633
28.21915	32114
28.22728	36501
28.23540	38274
28.24352	37364
28.25165	32315
28.25977	33360
28.26790	36967
28.27602	35754
28.28413	34077
28.29227	35199
28.30038	35147
28.30852	34314
28.31663	35232
28.32475	35310
28.33288	36022
28.34100	36665
28.34913	43233
28.35725	51505
28.36537	58694
28.37350	63580
28.38162	71579
28.38973	81960
28.39787	81073
28.40598	88405
28.41412	80098
28.42223	79449
28.43035	80818
28.43848	75167
28.44660	73844
28.45473	68722
28.46285	63048
28.47097	58872
28.47910	56226
28.48722	60920
28.49533	54786
28.50347	50236
28.51158	52323
28.51972	49436
28.52783	43298
28.53595	45025
28.54408	44127
28.55220	43048
28.56033	42187
28.56845	39199
28.57657	39421
28.58470	40222
28.59282	39274
28.60095	43322
28.60907	38924
28.61718	42803
28.62532	36755
28.63343	41414
28.64155	42644
28.64968	41512
28.65780	43018
28.66593	46544
28.67405	42283
28.68217	45237
28.69030	42681
28.69842	45370
28.70655	39012
28.71467	41341
28.72278	42548
28.73092	38931
28.73903	38046
28.74717	36289
28.75528	36358
28.76340	35911
28.77153	36923
28.77965	38024
28.78777	46426
28.79590	49144
28.80402	47679
28.81215	45403
28.82027	42449
28.82838	35035
28.83652	33185
28.84463	35362
28.85277	35021
28.86088	35017
28.86900	35503
28.87713	35224
28.88525	34990
28.89337	31378
28.90150	33911
28.90962	36677
28.91775	34136
28.92587	35020
28.93398	35891
28.94212	37022
28.95023	39038
28.95837	38513
28.96648	42983
28.97460	42055
28.98273	43749
28.99085	43186
28.99898	38136
29.00710	35402
29.01522	37463
29.02335	33868
29.03147	31850
29.03958	33292
29.04772	36116
29.05583	33188
29.06397	35807
29.07208	35862
29.08020	35385
29.08833	33907
29.09645	31296
29.10458	31626
29.11270	34161
29.12082	32300
29.12895	32446
29.13707	31625
29.14520	34041
29.15332	32834
29.16143	32649
29.16957	33835
29.17768	35109
29.18580	33393
29.19393	31993
29.20205	33994
29.21018	34994
29.21830	37056
29.22642	35925
29.23455	36682
29.24267	31794
29.25080	34558
29.25892	38521
29.26703	34440
29.27517	35173
29.28328	35375
29.29140	33723
29.29953	34763
29.30765	31944
29.31578	35282
29.32390	37466
29.33202	32966
29.34015	31620
29.34827	34166
29.35640	31092
29.36452	31185
29.37263	33160
29.38077	33670
29.38888	31898
29.39702	32475
29.40513	34481
29.41325	34487
29.42138	34746
29.42950	30901
29.43762	31962
29.44575	33902
29.45387	31904
29.46200	28141
29.47012	30529
29.47823	33579
29.48637	31050
29.49448	33700
29.50262	34399
29.51073	34079
29.51885	38061
29.52698	35642
29.53510	38494
29.54322	36712
29.55135	34705
29.55947	35609
29.56760	31464
29.57572	30716
29.58383	29942
29.59197	31961
29.60008	30453
29.60822	31472
29.61633	30435
29.62445	31058
29.63258	30884
29.64070	33915
29.64883	32917
29.65695	33555
29.66507	30753
29.67320	35324
29.68132	34385
29.68943	34155
29.69757	34186
29.70568	31218
29.71382	28275
29.72193	28751
29.73005	35184
29.73818	30832
29.74630	32877
29.75443	33863
29.76255	32138
29.77067	32514
29.77880	34272
29.78692	29723
29.79505	31934
29.80317	32215
29.81128	25805
29.81942	27117
29.82753	29309
29.83565	27015
29.84378	28551
29.85190	33229
29.86003	33789
29.86815	34078
29.87627	37681
29.88440	47253
29.89252	67951
29.90065	88740
29.90877	104705
29.91688	110459
29.92502	101830
29.93313	87362
29.94125	69148
29.94938	57977
29.95750	53303
29.96563	42280
29.97375	48158
29.98187	41394
29.99000	42624
29.99812	43151
30.00625	45464
30.01437	54527
30.02248	55628
30.03062	60160
30.03873	61686
30.04687	62308
30.05498	65251
30.06310	63993
30.07123	62195
30.07935	59571
30.08747	62444
30.09560	60181
30.10372	60891
30.11185	62195
30.11997	60100
30.12808	53212
30.13622	53055
30.14433	57049
30.15247	49352
30.16058	54020
30.16870	50203
30.17683	48735
30.18495	46231
30.19308	44382
30.20120	44989
30.20932	45309
30.21745	38487
30.22557	40152
30.23368	42537
30.24182	44420
30.24993	39304
30.25807	41386
30.26618	36472
30.27430	37192
30.28243	37950
30.29055	37649
30.29868	39923
30.30680	35490
30.31492	36791
30.32305	39309
30.33117	39711
30.33928	39365
30.34742	34349
30.35553	34815
30.36367	37701
30.37178	39986
30.37990	38897
30.38803	42683
30.39615	33757
30.40428	37160
30.41240	36502
30.42052	35930
30.42865	33222
30.43677	30946
30.44490	30213
30.45302	34009
30.46113	33464
30.46927	34828
30.47738	32233
30.48550	35338
30.49363	35338
30.50175	35299
30.50988	34324
30.51800	32096
30.52612	32380
30.53425	35354
30.54237	36106
30.55050	27782
30.55862	34630
30.56673	33569
30.57487	32921
30.58298	31472
30.59112	33914
30.59923	29595
30.60735	34221
30.61548	32323
30.62360	32095
30.63172	32363
30.63985	29849
30.64797	29547
30.65610	32493
30.66422	33578
30.67233	30961
30.68047	29246
30.68858	30029
30.69672	30887
30.70483	30134
30.71295	31550
30.72108	32970
30.72920	31850
30.73732	33465
30.74545	30808
30.75357	33855
30.76170	31141
30.76982	31147
30.77793	31785
30.78607	36797
30.79418	34407
30.80232	34330
30.81043	37835
30.81855	40051
30.82668	41156
30.83480	38523
30.84293	35842
30.85105	37445
30.85917	36750
30.86730	34363
30.87542	29953
30.88353	34266
30.89167	34340
30.89978	31600
30.90792	27842
30.91603	31802
30.92415	31972
30.93228	32219
30.94040	32589
30.94853	32154
30.95665	32314
30.96477	38751
30.97290	31029
30.98102	30362
30.98913	31453
30.99727	33164
31.00538	32860
31.01352	33549
31.02163	31727
31.02975	33641
31.03788	38987
31.04600	40786
31.05413	41662
31.06225	41655
31.07037	41975
31.07850	50115
31.08662	58372
31.09475	74759
31.10287	102198
31.11098	130879
31.11912	149102
31.12723	163923
31.13535	136172
31.14348	105426
31.15160	82142
31.15973	59129
31.16785	45826
31.17597	40913
31.18410	39934
31.19222	43828
31.20035	48495
31.20847	56556
31.21658	66838
31.22472	82810
31.23283	84415
31.24097	94986
31.24908	79771
31.25720	70875
31.26533	56091
31.27345	52294
31.28157	43382
31.28970	38684
31.29782	33889
31.30595	33682
31.31407	37448
31.32218	37168
31.33032	31037
31.33843	35583
31.34657	36948
31.35468	33537
31.36280	39828
31.37093	39326
31.37905	43466
31.38717	50513
31.39530	51809
31.40342	53175
31.41155	50527
31.41967	51286
31.42778	42269
31.43592	44146
31.44403	41572
31.45217	39240
31.46028	36229
31.46840	33884
31.47653	35528
31.48465	36218
31.49278	34127
31.50090	38737
31.50902	35622
31.51715	31408
31.52527	31083
31.53338	34117
31.54152	33954
31.54963	35472
31.55777	36147
31.56588	35455
31.57400	31064
31.58213	36232
31.59025	35255
31.59838	33197
31.60650	33380
31.61462	37074
31.62275	33827
31.63087	35039
31.63900	32029
31.64712	35221
31.65523	34536
31.66337	40674
31.67148	36175
31.67960	34711
31.68773	33049
31.69585	37429
31.70398	33316
31.71210	37108
31.72022	34072
31.72835	33841
31.73647	33728
31.74460	31519
31.75272	33000
31.76083	37791
31.76897	35363
31.77708	33523
31.78520	32237
31.79333	38691
31.80145	32530
31.80958	34061
31.81770	37941
31.82582	38726
31.83395	33518
31.84207	37416
31.85020	39412
31.85832	35393
31.86643	37727
31.87457	38452
31.88268	45027
31.89082	45582
31.89893	44591
31.90705	43255
31.91518	43958
31.92330	48464
31.93142	49183
31.93955	49021
31.94767	47741
31.95580	53277
31.96392	50603
31.97203	49154
31.98017	52476
31.98828	49186
31.99642	51115
32.00453	54189
32.01265	53811
32.02078	53957
32.02890	51221
32.03702	50056
32.04515	50421
32.05327	46610
32.06140	46829
32.06952	50046
32.07763	45394
32.08577	45342
32.09388	48219
32.10202	48889
32.11013	42945
32.11825	42424
32.12638	37473
32.13450	39758
32.14263	35383
32.15075	40157
32.15887	35314
32.16700	33328
32.17512	36814
32.18323	34125
32.19137	35911
32.19948	34972
32.20762	37133
32.21573	33505
32.22385	32075
32.23198	35802
32.24010	36362
32.24823	37775
32.25635	36952
32.26447	36118
32.27260	42892
32.28072	39569
32.28885	38542
32.29697	38194
32.30508	37365
32.31322	37212
32.32133	39031
32.32945	37793
32.33758	39145
32.34570	45243
32.35383	51385
32.36195	53396
32.37007	54426
32.37820	53308
32.38632	51742
32.39445	44228
32.40257	43252
32.41068	41713
32.41882	35511
32.42693	38040
32.43505	37143
32.44318	34544
32.45130	40602
32.45943	35296
32.46755	35224
32.47567	33250
32.48380	35841
32.49192	34527
32.50005	32367
32.50817	34094
32.51628	33833
32.52442	35281
32.53253	34905
32.54067	36102
32.54878	31057
32.55690	33199
32.56503	36189
32.57315	38032
32.58127	35769
32.58940	35237
32.59752	37858
32.60565	39526
32.61377	35225
32.62188	31712
32.63002	34152
32.63813	32473
32.64627	29833
32.65438	33386
32.66250	36217
32.67063	35646
32.67875	41179
32.68688	45077
32.69500	43369
32.70312	43211
32.71125	47937
32.71937	39425
32.72748	36123
32.73562	39827
32.74373	38418
32.75187	35373
32.75998	32416
32.76810	34194
32.77623	32594
32.78435	34458
32.79248	31100
32.80060	35068
32.80872	32950
32.81685	33888
32.82497	31331
32.83308	29451
32.84122	33106
32.84933	33007
32.85747	31250
32.86558	32160
32.87370	31070
32.88183	31183
32.88995	33129
32.89808	33060
32.90620	29005
32.91432	31931
32.92245	33734
32.93057	36285
32.93870	31085
32.94682	35625
32.95493	34707
32.96307	36810
32.97118	37294
32.97930	31373
32.98743	35831
32.99555	36505
33.00368	34939
33.01180	33036
33.01992	32212
33.02805	32340
33.03617	33320
33.04430	33018
33.05242	34434
33.06053	33525
33.06867	32891
33.07678	33978
33.08490	35618
33.09303	39955
33.10115	45522
33.10928	48489
33.11740	52606
33.12552	58842
33.13365	65512
33.14177	60708
33.14990	57868
33.15802	54156
33.16613	41468
33.17427	38606
33.18238	37585
33.19052	37852
33.19863	36097
33.20675	39127
33.21488	34486
33.22300	35644
33.23112	40804
33.23925	34300
33.24737	35185
33.25550	34606
33.26362	36291
33.27173	32169
33.27987	37073
33.28798	36424
33.29612	35405
33.30423	34388
33.31235	31202
33.32048	34751
33.32860	40015
33.33673	32299
33.34485	34598
33.35297	31944
33.36110	35514
33.36922	35426
33.37733	31771
33.38547	39275
33.39358	30804
33.40172	35674
33.40983	32667
33.41795	39285
33.42608	35365
33.43420	34072
33.44233	30512
33.45045	35009
33.45857	34708
33.46670	32967
33.47482	33440
33.48295	34184
33.49107	33757
33.49918	33697
33.50732	32003
33.51543	33245
33.52355	32239
33.53168	31468
33.53980	32541
33.54793	38261
33.55605	34769
33.56417	37004
33.57230	35688
33.58042	38267
33.58855	34216
33.59667	34994
33.60478	34779
33.61292	34310
33.62103	33868
33.62915	38536
33.63728	34449
33.64540	32636
33.65353	33591
33.66165	35062
33.66977	32158
33.67790	33942
33.68602	38098
33.69415	32715
33.70227	32679
33.71038	33585
33.71852	34405
33.72663	34859
33.73477	35709
33.74288	30456
33.75100	30684
33.75913	39209
33.76725	32230
33.77537	33584
33.78350	33893
33.79162	32121
33.79975	37090
33.80787	38015
33.81598	38177
33.82412	35756
33.83223	35691
33.84037	32625
33.84848	36172
33.85660	40478
33.86473	37454
33.87285	38278
33.88097	36745
33.88910	38776
33.89722	37194
33.90535	43603
33.91347	37362
33.92158	39058
33.92972	35445
33.93783	33606
33.94597	38813
33.95408	35710
33.96220	36121
33.97033	36028
33.97845	36909
33.98658	36108
33.99470	36460
34.00282	37462
34.01095	36621
34.01907	34711
34.02718	35979
34.03532	34351
34.04343	35038
34.05157	36702
34.05968	33954
34.06780	33265
34.07593	34277
34.08405	36128
34.09218	31382
34.10030	36592
34.10842	36322
34.11655	38048
34.12467	37307
34.13280	36859
34.14092	37328
34.14903	36033
34.15717	33139
34.16528	37011
34.17340	36017
34.18153	30835
34.18965	35903
34.19778	35686
34.20590	34801
34.21402	31423
34.22215	35608
34.23027	35229
34.23840	35755
34.24652	35921
34.25463	33018
34.26277	33267
34.27088	32134
34.27900	34248
34.28713	31224
34.29525	33043
34.30338	33787
34.31150	34234
34.31962	33686
34.32775	37364
34.33587	35278
34.34400	34577
34.35212	38154
34.36023	35554
34.36837	35682
34.37648	39742
34.38462	35789
34.39273	33161
34.40085	35410
34.40898	33363
34.41710	33385
34.42522	32665
34.43335	37048
34.44147	35115
34.44960	40103
34.45772	34190
34.46583	33978
34.47397	36911
34.48208	35603
34.49022	34211
34.49833	35173
34.50645	33086
34.51458	33392
34.52270	37574
34.53083	43415
34.53895	34112
34.54707	41766
34.55520	45130
34.56332	44374
34.57143	52029
34.57957	55337
34.58768	53514
34.59582	53486
34.60393	49731
34.61205	46465
34.62018	47201
34.62830	43777
34.63643	43430
34.64455	39644
34.65267	41572
34.66080	41165
34.66892	39960
34.67703	40613
34.68517	37359
34.69328	37894
34.70142	41607
34.70953	42839
34.71765	41604
34.72578	35915
34.73390	38514
34.74203	38206
34.75015	41688
34.75827	36714
34.76640	35770
34.77452	37957
34.78265	36728
34.79077	39088
34.79888	40557
34.80702	34310
34.81513	42632
34.82325	38931
34.83138	39106
34.83950	38438
34.84763	38621
34.85575	38868
34.86387	38301
34.87200	39890
34.88012	36527
34.88825	35773
34.89637	39593
34.90448	41314
34.91262	41292
34.92073	39523
34.92885	42987
34.93698	38367
34.94510	49478
34.95323	58789
34.96135	96946
34.96947	154091
34.97760	217012
34.98572	287814
34.99385	304717
35.00197	289635
35.01008	223959
35.01822	150982
35.02633	96160
35.03447	73604
35.04258	57109
35.05070	50871
35.05883	51175
35.06695	48161
35.07507	46629
35.08320	48135
35.09132	49953
35.09945	45338
35.10757	49095
35.11568	48818
35.12382	41107
35.13193	41338
35.14007	41327
35.14818	46601
35.15630	48819
35.16443	47957
35.17255	43433
35.18068	45053
35.18880	43043
35.19692	42103
35.20505	39845
35.21317	42505
35.22128	42069
35.22942	41131
35.23753	45354
35.24567	46180
35.25378	41670
35.26190	43741
35.27003	43714
35.27815	41378
35.28628	45994
35.29440	40407
35.30252	41285
35.31065	41438
35.31877	37487
35.32688	41979
35.33502	45905
35.34313	42231
35.35127	42786
35.35938	40360
35.36750	41104
35.37563	48176
35.38375	42640
35.39188	40636
35.40000	37960
35.40812	39370
35.41625	39730
35.42437	39337
35.43250	36935
35.44062	41354
35.44873	41381
35.45687	43129
35.46498	42764
35.47310	43687
35.48123	43734
35.48935	45020
35.49748	42968
35.50560	40688
35.51372	42996
35.52185	42413
35.52997	47649
35.53810	43260
35.54622	41954
35.55433	40475
35.56247	39397
35.57058	42746
35.57872	40100
35.58683	43205
35.59495	42986
35.60308	44010
35.61120	47311
35.61932	45371
35.62745	47614
35.63557	44875
35.64370	49552
35.65182	42577
35.65993	42784
35.66807	44932
35.67618	37159
35.68432	42806
35.69243	38927
35.70055	42812
35.70868	43380
35.71680	43117
35.72492	42982
35.73305	38254
35.74117	39817
35.74930	42746
35.75742	43280
35.76553	43336
35.77367	43375
35.78178	39268
35.78992	42297
35.79803	42097
35.80615	43560
35.81428	41264
35.82240	40046
35.83053	38285
35.83865	42440
35.84677	39733
35.85490	43207
35.86302	41073
35.87113	39833
35.87927	41579
35.88738	42884
35.89552	39223
35.90363	41506
35.91175	38545
35.91988	38394
35.92800	40950
35.93613	40190
35.94425	42403
35.95237	36459
35.96050	37444
35.96862	41226
35.97675	44738
35.98487	45055
35.99298	37869
36.00112	41998
36.00923	47451
36.01735	44708
36.02548	40187
36.03360	44501
36.04173	43091
36.04985	41318
36.05797	41247
36.06610	41156
36.07422	44268
36.08235	42090
36.09047	40164
36.09858	38495
36.10672	40028
36.11483	41740
36.12295	41568
36.13108	38775
36.13920	40877
36.14733	44795
36.15545	44157
36.16357	44450
36.17170	44476
36.17982	46520
36.18795	42245
36.19607	42034
36.20418	41836
36.21232	42178
36.22043	41317
36.22857	39325
36.23668	41182
36.24480	43337
36.25293	43413
36.26105	38812
36.26917	41777
36.27730	39031
36.28542	42416
36.29355	42253
36.30167	40747
36.30978	41220
36.31792	45308
36.32603	45692
36.33417	46186
36.34228	49379
36.35040	50394
36.35853	46833
36.36665	47595
36.37477	38673
36.38290	45058
36.39102	43751
36.39915	42340
36.40727	41698
36.41538	47897
36.42352	43040
36.43163	42498
36.43977	42628
36.44788	44991
36.45600	40734
36.46413	40263
36.47225	38755
36.48038	37308
36.48850	43290
36.49662	42422
36.50475	41524
36.51287	43959
36.52098	41606
36.52912	42278
36.53723	42723
36.54537	38032
36.55348	44351
36.56160	38804
36.56973	38678
36.57785	39447
36.58598	44160
36.59410	38994
36.60222	40664
36.61035	42152
36.61847	47859
36.62660	44972
36.63472	43092
36.64283	41704
36.65097	39338
36.65908	41790
36.66720	45259
36.67533	44381
36.68345	39428
36.69158	44287
36.69970	42866
36.70782	36550
36.71595	42668
36.72407	41841
36.73220	42554
36.74032	43981
36.74843	42637
36.75657	45448
36.76468	41423
36.77280	44288
36.78093	43302
36.78905	43731
36.79718	42031
36.80530	40946
36.81342	43673
36.82155	42223
36.82967	45080
36.83780	43093
36.84592	45231
36.85403	45349
36.86217	44392
36.87028	39348
36.87842	42237
36.88653	41159
36.89465	41469
36.90278	43945
36.91090	44443
36.91902	43157
36.92715	42693
36.93527	40115
36.94340	40364
36.95152	41240
36.95963	41332
36.96777	40811
36.97588	41477
36.98402	44515
36.99213	45112
37.00025	42541
37.00838	45102
37.01650	43334
37.02463	40846
37.03275	45893
37.04087	42660
37.04900	45865
37.05712	42411
37.06523	41126
37.07337	43285
37.08148	48299
37.08962	42132
37.09773	43778
37.10585	47062
37.11398	43405
37.12210	42969
37.13023	44307
37.13835	50681
37.14647	44793
37.15460	42898
37.16272	46568
37.17083	47604
37.17897	43326
37.18708	44151
37.19522	45107
37.20333	50815
37.21145	50719
37.21958	48239
37.22770	44407
37.23583	45189
37.24395	50680
37.25207	46782
37.26020	42858
37.26832	47633
37.27645	47573
37.28457	49038
37.29268	45222
37.30082	45379
37.30893	44780
37.31705	45120
37.32518	47919
37.33330	47831
37.34143	46906
37.34955	45745
37.35767	50987
37.36580	49452
37.37392	57537
37.38205	53606
37.39017	55910
37.39828	54781
37.40642	54527
37.41453	50691
37.42265	55271
37.43078	52153
37.43890	51065
37.44703	51148
37.45515	47923
37.46327	49426
37.47140	49613
37.47952	50256
37.48765	54545
