C:\MassHunter\GCMS\1\data\JTB-E02\BACandBLUE\JTB-E18-020-12.D Tue Jul 09 16:32:34 2019
Start of data points
2.09522,67618
2.10333,65797
2.11147,62063
2.11958,67271
2.12770,63125
2.13583,64091
2.14395,63520
2.15207,61064
2.16020,63947
2.16832,61571
2.17645,63266
2.18457,60714
2.19268,60559
2.20082,61325
2.20893,58589
2.21707,58958
2.22518,61079
2.23330,54168
2.24143,60037
2.24955,56998
2.25768,56406
2.26580,57069
2.27392,125753
2.28205,780441
2.29017,1422427
2.29828,725702
2.30642,351089
2.31453,260267
2.32267,223436
2.33078,199484
2.33890,229690
2.34703,312470
2.35515,207883
2.36328,173187
2.37140,154308
2.37952,140673
2.38765,141156
2.39577,137481
2.40388,125413
2.41202,128733
2.42013,130062
2.42827,119074
2.43638,126485
2.44450,116069
2.45263,117068
2.46075,114131
2.46888,113866
2.47700,114508
2.48512,109096
2.49325,124592
2.50137,197601
2.50950,178638
2.51762,134244
2.52573,123300
2.53387,120546
2.54198,115453
2.55010,116716
2.55823,129112
2.56635,184484
2.57448,175812
2.58260,138621
2.59072,128948
2.59885,120273
2.60697,123916
2.61510,179296
2.62322,267120
2.63133,250355
2.63947,191724
2.64758,155245
2.65572,141655
2.66383,125769
2.67195,120191
2.68008,116064
2.68820,112808
2.69632,112053
2.70445,112220
2.71257,108374
2.72070,106967
2.72882,106841
2.73693,105048
2.74507,107329
2.75318,101298
2.76132,99897
2.76943,106316
2.77755,103494
2.78568,123205
2.79380,210598
2.80192,213256
2.81005,152435
2.81817,139168
2.82630,171981
2.83442,232641
2.84253,300188
2.85067,251372
2.85878,172805
2.86692,150432
2.87503,139016
2.88315,124593
2.89128,121579
2.89940,120887
2.90753,110636
2.91565,103990
2.92377,106212
2.93190,107434
2.94002,102500
2.94813,107532
2.95627,107662
2.96438,98933
2.97252,99680
2.98063,104276
2.98875,104915
2.99688,104855
3.00500,107185
3.01313,109097
3.02125,111661
3.02937,107994
3.03750,102809
3.04562,100222
3.05373,102957
3.06187,117957
3.06998,152315
3.07812,149911
3.08623,129394
3.09435,173035
3.10248,415200
3.11060,1453922
3.11873,2701681
3.12685,2216921
3.13497,1317655
3.14310,929234
3.15122,719883
3.15935,589570
3.16747,511178
3.17558,530770
3.18372,560475
3.19183,860361
3.19995,1765872
3.20808,1973369
3.21620,1332382
3.22433,929503
3.23245,765657
3.24057,635449
3.24870,552469
3.25682,478615
3.26495,424652
3.27307,400221
3.28118,367536
3.28932,432541
3.29743,994283
3.30557,2931150
3.31368,5725316
3.32180,6572055
3.32993,5106632
3.33805,3369657
3.34617,2356592
3.35430,1804176
3.36242,1486261
3.37055,1243834
3.37867,1076590
3.38678,956774
3.39492,867691
3.40303,777398
3.41117,712207
3.41928,661800
3.42740,612865
3.43553,587413
3.44365,573750
3.45177,534718
3.45990,519908
3.46802,489944
3.47615,498659
3.48427,481843
3.49238,479545
3.50052,462165
3.50863,454599
3.51677,425812
3.52488,415067
3.53300,400698
3.54113,397217
3.54925,407367
3.55738,405318
3.56550,378063
3.57362,366738
3.58175,358102
3.58987,346907
3.59798,351486
3.60612,327876
3.61423,335154
3.62237,343154
3.63048,389571
3.63860,495104
3.64673,597605
3.65485,558366
3.66298,531014
3.67110,1348978
3.67922,4836547
3.68735,9044418
3.69547,8412349
3.70360,5007429
3.71172,2985462
3.71983,2215341
3.72797,1838991
3.73608,1574841
3.74420,1386089
3.75233,1252762
3.76045,1123840
3.76858,1036406
3.77670,987335
3.78482,914166
3.79295,852935
3.80107,844473
3.80920,1041995
3.81732,1645375
3.82543,2178198
3.83357,1896932
3.84168,1377482
3.84980,1076673
3.85793,931083
3.86605,850758
3.87418,785040
3.88230,724154
3.89042,683357
3.89855,647243
3.90667,631564
3.91480,636278
3.92292,720841
3.93103,919466
3.93917,1037096
3.94728,947078
3.95542,773178
3.96353,732155
3.97165,784908
3.97978,763034
3.98790,646818
3.99602,575397
4.00415,606525
4.01227,805747
4.02040,1085408
4.02852,1063109
4.03663,832510
4.04477,643070
4.05288,538354
4.06102,488447
4.06913,466366
4.07725,442645
4.08538,416926
4.09350,425246
4.10162,411234
4.10975,395358
4.11787,381362
4.12600,381381
4.13412,391709
4.14223,535761
4.15037,968139
4.15848,1410212
4.16662,1408549
4.17473,1069504
4.18285,813793
4.19098,670230
4.19910,580668
4.20723,607600
4.21535,1424574
4.22347,4912951
4.23160,1.152925E+07
4.23972,1.691162E+07
4.24783,1.740919E+07
4.25597,1.272278E+07
4.26408,7644804
4.27222,5098149
4.28033,3794290
4.28845,2930945
4.29658,2389177
4.30470,1979559
4.31283,1704635
4.32095,1488650
4.32907,1350003
4.33720,1217219
4.34532,1134224
4.35345,1088148
4.36157,1097049
4.36968,1100399
4.37782,1043953
4.38593,957099
4.39405,848000
4.40218,795753
4.41030,752240
4.41843,707588
4.42655,684962
4.43467,658810
4.44280,638542
4.45092,613978
4.45905,600278
4.46717,562886
4.47528,555439
4.48342,535931
4.49153,531511
4.49965,513999
4.50778,500770
4.51590,499939
4.52403,484653
4.53215,472333
4.54027,445803
4.54840,447953
4.55652,466520
4.56465,439713
4.57277,424157
4.58088,403242
4.58902,406165
4.59713,388005
4.60527,382840
4.61338,381719
4.62150,400833
4.62963,520872
4.63775,827915
4.64587,1215781
4.65400,1307292
4.66212,1072527
4.67025,772637
4.67837,614488
4.68648,523954
4.69462,485890
4.70273,438686
4.71087,407473
4.71898,393263
4.72710,377379
4.73523,358688
4.74335,358152
4.75148,330847
4.75960,329193
4.76772,316247
4.77585,316211
4.78397,306230
4.79208,317696
4.80022,360686
4.80833,418113
4.81647,450407
4.82458,422853
4.83270,389716
4.84083,390403
4.84895,408768
4.85708,421654
4.86520,382147
4.87332,350299
4.88145,330319
4.88957,315610
4.89768,319048
4.90582,307178
4.91393,300753
4.92207,295533
4.93018,343807
4.93830,561676
4.94643,1159777
4.95455,2223150
4.96268,3274720
4.97080,3580114
4.97892,3082154
4.98705,2299380
4.99517,1616160
5.00330,1225529
5.01142,983905
5.01953,862790
5.02767,872973
5.03578,1146303
5.04390,1546074
5.05203,1683613
5.06015,1463413
5.06828,1123524
5.07640,922994
5.08452,812050
5.09265,728303
5.10077,671419
5.10890,634545
5.11702,607028
5.12513,577891
5.13327,565642
5.14138,541358
5.14952,527662
5.15763,554591
5.16575,611352
5.17388,685362
5.18200,660873
5.19012,621514
5.19825,612150
5.20637,632746
5.21450,689307
5.22262,683501
5.23073,631292
5.23887,575013
5.24698,528314
5.25512,487277
5.26323,442352
5.27135,404414
5.27948,388572
5.28760,357337
5.29572,353714
5.30385,355370
5.31197,335999
5.32010,337033
5.32822,340414
5.33633,364958
5.34447,380552
5.35258,392792
5.36072,370370
5.36883,350589
5.37695,333131
5.38508,340453
5.39320,359823
5.40133,380924
5.40945,402210
5.41757,389309
5.42570,370390
5.43382,349686
5.44193,331860
5.45007,338246
5.45818,343973
5.46632,343523
5.47443,326437
5.48255,315107
5.49068,295174
5.49880,277367
5.50693,279924
5.51505,271604
5.52317,281580
5.53130,285304
5.53942,279313
5.54753,280892
5.55567,280909
5.56378,325969
5.57192,400794
5.58003,459699
5.58815,448009
5.59628,400310
5.60440,338260
5.61253,302955
5.62065,282225
5.62877,274941
5.63690,280177
5.64502,281524
5.65315,282471
5.66127,277444
5.66938,271304
5.67752,288084
5.68563,311519
5.69375,367960
5.70188,374363
5.71000,357084
5.71813,324573
5.72625,289756
5.73437,267253
5.74250,262903
5.75062,260910
5.75875,248711
5.76687,246540
5.77498,235701
5.78312,237970
5.79123,227654
5.79937,239846
5.80748,228814
5.81560,232551
5.82373,226330
5.83185,235157
5.83997,236250
5.84810,240950
5.85622,247329
5.86435,235881
5.87247,231910
5.88058,221395
5.88872,222092
5.89683,217486
5.90497,209641
5.91308,190328
5.92120,181776
5.92933,172906
5.93745,167942
5.94557,180146
5.95370,195378
5.96182,215634
5.96995,240965
5.97807,277887
5.98618,319526
5.99432,361228
6.00243,343917
6.01057,292741
6.01868,246796
6.02680,217812
6.03493,200123
6.04305,187449
6.05118,185283
6.05930,169418
6.06742,166626
6.07555,172657
6.08367,157489
6.09178,160363
6.09992,154489
6.10803,156892
6.11617,166417
6.12428,191856
6.13240,279725
6.14053,460461
6.14865,670467
6.15678,735077
6.16490,633435
6.17302,458998
6.18115,348508
6.18927,282790
6.19740,244668
6.20552,238666
6.21363,220209
6.22177,213722
6.22988,215701
6.23800,208833
6.24613,205981
6.25425,219191
6.26238,241846
6.27050,239555
6.27862,237167
6.28675,219804
6.29487,203523
6.30300,203635
6.31112,203929
6.31923,206340
6.32737,216291
6.33548,211740
6.34360,213660
6.35173,210122
6.35985,207619
6.36798,193009
6.37610,198950
6.38422,203022
6.39235,204803
6.40047,204489
6.40860,198337
6.41672,193529
6.42483,194949
6.43297,198852
6.44108,190470
6.44922,199927
6.45733,190329
6.46545,196898
6.47358,191943
6.48170,196703
6.48982,194640
6.49795,198642
6.50607,199835
6.51420,199158
6.52232,206917
6.53043,214056
6.53857,209132
6.54668,204058
6.55482,215451
6.56293,231250
6.57105,276700
6.57918,358779
6.58730,396782
6.59542,387863
6.60355,338382
6.61167,280187
6.61980,256922
6.62792,242503
6.63603,240253
6.64417,235574
6.65228,239981
6.66042,293870
6.66853,370636
6.67665,438882
6.68478,441969
6.69290,357997
6.70103,316185
6.70915,270864
6.71727,251657
6.72540,248715
6.73352,255520
6.74163,242380
6.74977,239805
6.75788,233774
6.76602,235446
6.77413,225341
6.78225,213561
6.79038,194894
6.79850,184813
6.80663,176485
6.81475,169688
6.82287,160552
6.83100,152298
6.83912,155228
6.84725,165071
6.85537,167769
6.86348,156111
6.87162,137110
6.87973,122887
6.88785,115604
6.89598,102708
6.90410,99889
6.91223,98908
6.92035,98692
6.92847,92628
6.93660,96054
6.94472,98424
6.95285,100953
6.96097,102506
6.96908,116269
6.97722,135790
6.98533,152533
6.99345,147915
7.00158,133805
7.00970,113587
7.01783,104045
7.02595,98062
7.03407,97211
7.04220,106537
7.05032,104227
7.05845,112073
7.06657,117839
7.07468,109835
7.08282,107426
7.09093,95280
7.09907,93524
7.10718,84178
7.11530,79421
7.12343,79247
7.13155,82905
7.13967,85597
7.14780,100669
7.15592,125315
7.16405,152699
7.17217,162230
7.18028,154167
7.18842,125902
7.19653,106026
7.20467,97254
7.21278,121212
7.22090,221147
7.22903,557043
7.23715,1136869
7.24528,1684228
7.25340,1765798
7.26152,1385849
7.26965,887072
7.27777,552073
7.28588,399570
7.29402,316616
7.30213,242416
7.31027,183977
7.31838,148201
7.32650,134795
7.33463,129279
7.34275,119371
7.35088,114271
7.35900,101363
7.36712,100398
7.37525,98239
7.38337,103756
7.39148,103128
7.39962,97935
7.40773,96399
7.41587,93075
7.42398,92503
7.43210,90977
7.44023,87714
7.44835,97111
7.45648,98734
7.46460,101864
7.47272,94016
7.48085,91658
7.48897,82779
7.49710,88582
7.50522,97989
7.51333,142946
7.52147,235790
7.52958,437011
7.53770,744078
7.54583,1103912
7.55395,1397292
7.56208,1459582
7.57020,1322563
7.57832,996380
7.58645,680433
7.59457,447681
7.60270,304480
7.61082,226526
7.61893,173898
7.62707,151842
7.63518,131563
7.64330,124931
7.65143,112798
7.65955,104474
7.66768,100149
7.67580,96373
7.68392,90228
7.69205,88814
7.70017,86872
7.70830,88039
7.71642,91354
7.72453,84664
7.73267,85220
7.74078,84267
7.74892,82043
7.75703,80433
7.76515,88511
7.77328,88799
7.78140,90977
7.78952,103989
7.79765,114959
7.80577,138952
7.81390,131333
7.82202,128755
7.83013,117892
7.83827,108253
7.84638,99169
7.85452,108374
7.86263,116535
7.87075,145605
7.87888,155896
7.88700,172125
7.89513,165789
7.90325,149754
7.91137,124318
7.91950,111661
7.92762,126528
7.93573,143132
7.94387,173035
7.95198,179279
7.96012,178422
7.96823,151500
7.97635,124147
7.98448,106249
7.99260,91879
8.00073,84665
8.00885,81006
8.01697,74205
8.02510,75435
8.03322,74439
8.04135,75044
8.04947,79394
8.05758,77704
8.06572,77544
8.07383,76217
8.08195,70345
8.09008,73321
8.09820,68048
8.10633,69289
8.11445,75210
8.12257,79119
8.13070,94863
8.13882,122805
8.14695,136884
8.15507,155838
8.16318,145508
8.17132,126713
8.17943,107242
8.18755,94258
8.19568,83280
8.20380,83200
8.21193,86079
8.22005,87780
8.22817,86820
8.23630,88785
8.24442,85526
8.25255,79979
8.26067,72147
8.26878,69454
8.27692,64355
8.28503,67799
8.29317,69784
8.30128,71639
8.30940,72056
8.31753,74863
8.32565,79773
8.33377,76636
8.34190,74247
8.35002,67057
8.35815,67179
8.36627,66284
8.37438,71252
8.38252,72007
8.39063,69512
8.39877,67706
8.40688,64233
8.41500,65174
8.42313,64838
8.43125,62009
8.43937,62980
8.44750,58236
8.45562,63320
8.46375,62779
8.47187,59801
8.47998,59457
8.48812,59156
8.49623,58945
8.50437,61155
8.51248,58983
8.52060,65103
8.52873,85911
8.53685,138559
8.54498,231906
8.55310,318461
8.56122,349686
8.56935,314284
8.57747,218540
8.58558,150278
8.59372,113678
8.60183,99637
8.60997,97982
8.61808,102863
8.62620,92289
8.63433,80258
8.64245,72340
8.65058,72431
8.65870,70237
8.66682,73688
8.67495,72968
8.68307,82606
8.69118,81215
8.69932,86568
8.70743,81813
8.71557,79449
8.72368,81546
8.73180,77416
8.73993,112714
8.74805,235452
8.75618,514160
8.76430,989148
8.77242,1519058
8.78055,1788907
8.78867,1641830
8.79680,1196287
8.80492,738600
8.81303,461093
8.82117,307667
8.82928,229827
8.83740,216880
8.84553,215702
8.85365,210218
8.86178,205291
8.86990,192808
8.87802,182791
8.88615,171879
8.89427,164202
8.90240,152091
8.91052,148011
8.91863,148692
8.92677,145138
8.93488,154512
8.94302,170301
8.95113,176739
8.95925,181918
8.96738,177601
8.97550,166854
8.98362,170012
8.99175,166147
8.99987,154621
9.00800,146724
9.01612,134692
9.02423,129184
9.03237,114458
9.04048,107783
9.04862,109861
9.05673,109049
9.06485,107502
9.07298,101817
9.08110,108952
9.08923,115541
9.09735,138689
9.10547,166004
9.11360,197380
9.12172,209998
9.12983,217483
9.13797,177863
9.14608,152583
9.15422,135570
9.16233,121875
9.17045,116206
9.17858,115073
9.18670,100626
9.19483,98213
9.20295,98593
9.21107,92895
9.21920,91987
9.22732,93440
9.23543,93815
9.24357,90759
9.25168,93142
9.25982,93584
9.26793,93111
9.27605,91182
9.28418,90698
9.29230,88767
9.30043,90721
9.30855,90983
9.31667,85307
9.32480,84036
9.33292,81285
9.34105,78934
9.34917,79083
9.35728,79190
9.36542,86625
9.37353,83157
9.38165,83226
9.38978,88750
9.39790,99398
9.40603,121032
9.41415,148960
9.42227,197272
9.43040,246704
9.43852,275198
9.44665,281927
9.45477,243709
9.46288,191297
9.47102,150382
9.47913,125047
9.48725,105120
9.49538,96541
9.50350,96364
9.51163,115985
9.51975,133997
9.52787,142882
9.53600,141081
9.54412,128989
9.55225,107891
9.56037,89393
9.56848,79592
9.57662,70533
9.58473,68905
9.59287,71797
9.60098,63190
9.60910,61422
9.61723,54834
9.62535,58421
9.63347,53029
9.64160,53253
9.64972,50628
9.65785,52418
9.66597,55070
9.67408,55054
9.68222,61585
9.69033,58903
9.69847,54706
9.70658,54301
9.71470,52473
9.72283,52834
9.73095,53298
9.73908,49147
9.74720,47955
9.75532,48096
9.76345,44929
9.77157,45463
9.77968,47238
9.78782,48535
9.79593,46505
9.80407,45656
9.81218,48906
9.82030,46212
9.82843,48694
9.83655,46188
9.84468,50786
9.85280,47348
9.86092,49865
9.86905,47949
9.87717,48935
9.88528,48891
9.89342,53445
9.90153,50430
9.90967,53392
9.91778,52721
9.92590,66763
9.93403,72163
9.94215,83152
9.95028,104372
9.95840,104210
9.96652,107036
9.97465,96257
9.98277,89936
9.99090,76155
9.99902,77608
10.00713,64157
10.01527,66610
10.02338,62999
10.03150,55520
10.03963,53539
10.04775,47484
10.05588,48409
10.06400,54007
10.07212,57924
10.08025,55390
10.08837,56939
10.09650,62422
10.10462,58989
10.11273,51472
10.12087,57969
10.12898,55764
10.13712,54863
10.14523,51962
10.15335,52998
10.16148,55036
10.16960,50878
10.17772,50827
10.18585,48587
10.19397,47587
10.20210,50265
10.21022,51271
10.21833,55210
10.22647,62930
10.23458,72578
10.24272,80810
10.25083,90967
10.25895,113495
10.26708,199183
10.27520,440431
10.28332,966322
10.29145,1793254
10.29957,2745441
10.30770,3857820
10.31582,5404000
10.32393,7800745
10.33207,1.058731E+07
10.34018,1.19612E+07
10.34832,1.154748E+07
10.35643,9021240
10.36455,6313773
10.37268,4360503
10.38080,3218989
10.38893,2258592
10.39705,1518253
10.40517,1002788
10.41330,666936
10.42142,502919
10.42953,420282
10.43767,391255
10.44578,394657
10.45392,398004
10.46203,406808
10.47015,384407
10.47828,358432
10.48640,339361
10.49453,302563
10.50265,275804
10.51077,255201
10.51890,251200
10.52702,256408
10.53513,258358
10.54327,257049
10.55138,241513
10.55952,237008
10.56763,210755
10.57575,203670
10.58388,196487
10.59200,186359
10.60013,170516
10.60825,159550
10.61637,154636
10.62450,153788
10.63262,141295
10.64075,141396
10.64887,135308
10.65698,126678
10.66512,126119
10.67323,132490
10.68135,122515
10.68948,122215
10.69760,116995
10.70573,120929
10.71385,119066
10.72197,121731
10.73010,120115
10.73822,110158
10.74635,117242
10.75447,107344
10.76258,105995
10.77072,101564
10.77883,98503
10.78697,101396
10.79508,99632
10.80320,112381
10.81133,115673
10.81945,115544
10.82757,112971
10.83570,100831
10.84382,96410
10.85195,89914
10.86007,84276
10.86818,82043
10.87632,83911
10.88443,76261
10.89257,81735
10.90068,77487
10.90880,78337
10.91693,77436
10.92505,75409
10.93317,72555
10.94130,69974
10.94942,72670
10.95755,66925
10.96567,70197
10.97378,74476
10.98192,73976
10.99003,81424
10.99817,82110
11.00628,79454
11.01440,85664
11.02253,81231
11.03065,81919
11.03878,74427
11.04690,71597
11.05502,71656
11.06315,71106
11.07127,75481
11.07938,84487
11.08752,85306
11.09563,87647
11.10377,89270
11.11188,92571
11.12000,80076
11.12813,73098
11.13625,64370
11.14438,65409
11.15250,65733
11.16062,65466
11.16875,68687
11.17687,63317
11.18500,66589
11.19312,63460
11.20123,66078
11.20937,62656
11.21748,61334
11.22560,57894
11.23373,54818
11.24185,53288
11.24998,52176
11.25810,50933
11.26622,48315
11.27435,53489
11.28247,57379
11.29060,79326
11.29872,133639
11.30683,264889
11.31497,572449
11.32308,1125849
11.33120,1809642
11.33933,2424881
11.34745,2662049
11.35558,2400407
11.36370,1868752
11.37182,1282911
11.37995,808644
11.38807,513152
11.39620,388854
11.40432,339464
11.41243,328317
11.42057,319917
11.42868,290285
11.43682,270743
11.44493,242931
11.45305,220377
11.46118,195990
11.46930,188118
11.47742,180804
11.48555,202711
11.49367,221431
11.50180,239482
11.50992,230431
11.51803,211932
11.52617,184473
11.53428,167981
11.54242,150873
11.55053,157426
11.55865,149296
11.56678,153954
11.57490,151717
11.58303,141590
11.59115,140005
11.59927,142903
11.60740,155815
11.61552,179404
11.62363,190797
11.63177,177535
11.63988,151687
11.64802,137060
11.65613,106718
11.66425,96151
11.67238,95464
11.68050,97726
11.68863,99155
11.69675,97924
11.70487,98751
11.71300,99673
11.72112,92863
11.72923,82805
11.73737,75447
11.74548,70786
11.75362,72193
11.76173,71430
11.76985,65104
11.77798,67407
11.78610,66874
11.79423,61849
11.80235,62172
11.81047,62312
11.81860,67386
11.82672,62527
11.83485,60952
11.84297,60374
11.85108,58611
11.85922,59693
11.86733,56823
11.87545,62907
11.88358,58026
11.89170,57942
11.89983,57170
11.90795,54025
11.91607,57238
11.92420,60346
11.93232,62387
11.94045,60328
11.94857,58909
11.95668,56988
11.96482,53235
11.97293,55051
11.98105,62615
11.98918,76054
11.99730,105022
12.00543,139652
12.01355,156625
12.02167,158555
12.02980,136329
12.03792,112334
12.04605,89817
12.05417,80195
12.06228,69894
12.07042,81757
12.07853,85704
12.08667,97989
12.09478,103477
12.10290,104851
12.11103,104498
12.11915,114982
12.12727,121363
12.13540,132566
12.14352,126936
12.15165,112152
12.15977,96239
12.16788,80930
12.17602,65184
12.18413,65982
12.19227,58927
12.20038,60131
12.20850,60429
12.21663,64566
12.22475,62584
12.23288,64767
12.24100,65980
12.24912,63028
12.25725,59454
12.26537,64265
12.27348,63544
12.28162,59954
12.28973,57463
12.29787,55728
12.30598,52621
12.31410,53446
12.32223,52386
12.33035,49817
12.33848,49552
12.34660,50933
12.35472,52251
12.36285,49304
12.37097,49353
12.37908,54234
12.38722,50893
12.39533,55514
12.40347,63622
12.41158,78140
12.41970,90536
12.42783,94267
12.43595,97166
12.44408,98187
12.45220,86496
12.46032,79033
12.46845,75801
12.47657,70093
12.48470,62994
12.49282,63248
12.50093,64621
12.50907,62033
12.51718,61333
12.52530,69501
12.53343,100368
12.54155,158590
12.54968,285031
12.55780,493234
12.56592,678160
12.57405,756587
12.58217,638885
12.59030,450131
12.59842,277500
12.60653,199087
12.61467,141015
12.62278,117385
12.63092,105577
12.63903,94034
12.64715,94308
12.65528,85189
12.66340,70997
12.67152,72667
12.67965,71985
12.68777,68284
12.69590,68531
12.70402,66620
12.71213,65494
12.72027,61984
12.72838,63030
12.73652,64965
12.74463,61820
12.75275,61260
12.76088,61635
12.76900,58986
12.77712,51661
12.78525,55601
12.79337,52598
12.80150,51415
12.80962,50006
12.81773,52773
12.82587,48116
12.83398,46271
12.84212,52372
12.85023,44310
12.85835,50772
12.86648,42858
12.87460,48164
12.88273,40601
12.89085,41180
12.89897,42691
12.90710,41972
12.91522,40687
12.92333,45760
12.93147,43569
12.93958,45042
12.94772,44000
12.95583,46734
12.96395,57354
12.97208,69597
12.98020,81916
12.98833,89725
12.99645,85046
13.00457,81198
13.01270,67699
13.02082,61298
13.02893,57871
13.03707,51941
13.04518,52351
13.05332,51010
13.06143,49385
13.06955,49280
13.07768,48976
13.08580,51367
13.09393,48492
13.10205,52378
13.11017,46074
13.11830,45881
13.12642,43117
13.13455,44642
13.14267,44522
13.15078,43877
13.15892,46007
13.16703,45901
13.17515,49739
13.18328,52147
13.19140,55888
13.19953,56936
13.20765,55812
13.21577,62550
13.22390,58769
13.23202,59691
13.24015,55457
13.24827,49511
13.25638,50151
13.26452,48815
13.27263,45576
13.28077,44630
13.28888,42091
13.29700,44731
13.30513,42498
13.31325,41137
13.32137,42154
13.32950,44408
13.33762,40172
13.34575,41330
13.35387,41690
13.36198,42952
13.37012,38635
13.37823,34969
13.38637,39951
13.39448,39436
13.40260,39194
13.41073,41194
13.41885,35732
13.42697,41572
13.43510,36390
13.44322,38340
13.45135,40990
13.45947,42688
13.46758,48271
13.47572,44523
13.48383,47099
13.49197,45901
13.50008,40528
13.50820,42903
13.51633,42035
13.52445,43063
13.53258,41949
13.54070,44461
13.54882,43452
13.55695,37201
13.56507,44651
13.57318,47735
13.58132,51493
13.58943,55254
13.59757,76871
13.60568,98541
13.61380,138824
13.62193,165658
13.63005,176544
13.63818,160195
13.64630,131919
13.65442,91397
13.66255,73977
13.67067,65070
13.67880,51983
13.68692,51518
13.69503,48360
13.70317,43737
13.71128,47192
13.71940,44681
13.72753,52612
13.73565,80607
13.74378,154090
13.75190,323823
13.76002,667485
13.76815,1113342
13.77627,1523677
13.78440,1701841
13.79252,1566952
13.80063,1304384
13.80877,996613
13.81688,865725
13.82500,864243
13.83313,922949
13.84125,910650
13.84938,826475
13.85750,683726
13.86562,555031
13.87375,418731
13.88187,331161
13.89000,275508
13.89812,244599
13.90623,214237
13.91437,194153
13.92248,174462
13.93062,159878
13.93873,153049
13.94685,140222
13.95498,140693
13.96310,136325
13.97122,137541
13.97935,136300
13.98747,134070
13.99560,140592
14.00372,128844
14.01183,122290
14.01997,118853
14.02808,111656
14.03622,111684
14.04433,105853
14.05245,103103
14.06058,104141
14.06870,102228
14.07682,98693
14.08495,96425
14.09307,99777
14.10120,94285
14.10932,97049
14.11743,93525
14.12557,93745
14.13368,95380
14.14182,94213
14.14993,109573
14.15805,127997
14.16618,160340
14.17430,223588
14.18243,334404
14.19055,452988
14.19867,515259
14.20680,501628
14.21492,406982
14.22303,314556
14.23117,246640
14.23928,214053
14.24742,204443
14.25553,198393
14.26365,180689
14.27178,161485
14.27990,142962
14.28803,128884
14.29615,114989
14.30427,110797
14.31240,97452
14.32052,100269
14.32865,97074
14.33677,89460
14.34488,86091
14.35302,78632
14.36113,68320
14.36925,62345
14.37738,67849
14.38550,73420
14.39363,103307
14.40175,168031
14.40987,275595
14.41800,409498
14.42612,491247
14.43425,466784
14.44237,371033
14.45048,263488
14.45862,181784
14.46673,137429
14.47487,112140
14.48298,108253
14.49110,93842
14.49923,87717
14.50735,82680
14.51547,79080
14.52360,79097
14.53172,79639
14.53985,76150
14.54797,74921
14.55608,67299
14.56422,68275
14.57233,63971
14.58047,59678
14.58858,56750
14.59670,61810
14.60483,58901
14.61295,53163
14.62107,52804
14.62920,55401
14.63732,53754
14.64545,53615
14.65357,56558
14.66168,52734
14.66982,53870
14.67793,51266
14.68607,54615
14.69418,50508
14.70230,50864
14.71043,59018
14.71855,56498
14.72668,55233
14.73480,60663
14.74292,57509
14.75105,60481
14.75917,64043
14.76728,58942
14.77542,63314
14.78353,76761
14.79167,128388
14.79978,300207
14.80790,700950
14.81603,1429225
14.82415,2401946
14.83228,3096980
14.84040,3170034
14.84852,2677422
14.85665,1887260
14.86477,1181421
14.87288,744115
14.88102,499484
14.88913,354592
14.89727,298348
14.90538,249162
14.91350,219917
14.92163,200118
14.92975,189523
14.93788,183660
14.94600,163976
14.95412,157707
14.96225,146053
14.97037,141605
14.97850,132556
14.98662,132165
14.99473,130164
15.00287,121388
15.01098,124076
15.01910,115831
15.02723,116125
15.03535,112135
15.04348,111516
15.05160,108096
15.05972,98177
15.06785,99788
15.07597,91690
15.08410,85107
15.09222,82009
15.10033,80214
15.10847,80296
15.11658,79620
15.12472,80952
15.13283,90294
15.14095,90259
15.14908,96309
15.15720,90452
15.16532,83606
15.17345,76160
15.18157,72287
15.18970,66194
15.19782,63806
15.20593,53150
15.21407,58644
15.22218,56959
15.23032,58304
15.23843,50679
15.24655,50791
15.25468,54553
15.26280,54300
15.27092,53910
15.27905,51767
15.28717,48236
15.29530,42627
15.30342,48141
15.31153,51894
15.31967,45878
15.32778,47618
15.33592,48894
15.34403,46319
15.35215,44143
15.36028,41909
15.36840,44082
15.37653,44582
15.38465,48112
15.39277,49677
15.40090,53827
15.40902,63857
15.41713,66811
15.42527,65007
15.43338,61996
15.44152,63971
15.44963,59782
15.45775,68046
15.46588,96579
15.47400,148853
15.48213,245259
15.49025,358107
15.49837,456357
15.50650,514868
15.51462,498789
15.52275,432982
15.53087,355080
15.53898,284716
15.54712,233518
15.55523,192268
15.56335,164790
15.57148,139576
15.57960,116450
15.58773,98798
15.59585,91465
15.60397,82426
15.61210,80606
15.62022,73070
15.62835,73022
15.63647,68900
15.64458,67156
15.65272,66356
15.66083,62966
15.66895,66149
15.67708,58754
15.68520,58376
15.69333,55312
15.70145,57142
15.70957,52869
15.71770,52693
15.72582,52717
15.73395,56199
15.74207,61689
15.75018,68579
15.75832,86396
15.76643,133509
15.77457,193320
15.78268,268098
15.79080,319350
15.79893,321315
15.80705,272130
15.81517,199536
15.82330,153301
15.83142,117567
15.83955,94577
15.84767,80115
15.85578,79483
15.86392,79773
15.87203,78051
15.88017,75216
15.88828,75126
15.89640,74879
15.90453,77913
15.91265,70075
15.92077,64302
15.92890,65710
15.93702,65087
15.94515,66122
15.95327,77098
15.96138,87540
15.96952,101734
15.97763,117664
15.98577,122964
15.99388,110014
16.00200,101508
16.01013,89932
16.01825,88405
16.02638,81598
16.03450,79484
16.04262,77453
16.05075,70492
16.05887,67135
16.06698,60929
16.07512,61186
16.08323,59960
16.09137,59534
16.09948,57253
16.10760,62108
16.11573,62811
16.12385,68285
16.13198,69191
16.14010,74825
16.14822,76792
16.15635,74962
16.16447,77373
16.17260,72281
16.18072,68354
16.18883,62252
16.19697,60643
16.20508,63378
16.21320,61412
16.22133,59054
16.22945,52557
16.23758,57138
16.24570,50875
16.25382,49295
16.26195,57173
16.27007,58194
16.27820,55779
16.28632,64124
16.29443,70782
16.30257,75559
16.31068,71524
16.31880,76631
16.32693,64470
16.33505,61995
16.34318,61778
16.35130,69874
16.35942,76338
16.36755,83555
16.37567,94209
16.38380,97516
16.39192,91758
16.40003,85502
16.40817,69390
16.41628,64477
16.42442,56744
16.43253,59510
16.44065,62676
16.44878,70301
16.45690,98907
16.46502,142065
16.47315,202354
16.48127,241024
16.48940,259830
16.49752,232438
16.50563,179090
16.51377,134583
16.52188,100390
16.53002,84067
16.53813,72803
16.54625,70696
16.55438,66321
16.56250,64080
16.57063,64797
16.57875,70513
16.58687,76059
16.59500,82332
16.60312,92266
16.61123,100361
16.61937,103949
16.62748,105525
16.63562,93688
16.64373,85943
16.65185,74353
16.65998,69430
16.66810,62283
16.67623,58760
16.68435,55467
16.69247,57154
16.70060,57358
16.70872,52518
16.71683,57350
16.72497,56847
16.73308,52429
16.74122,55321
16.74933,54832
16.75745,56002
16.76558,55820
16.77370,55703
16.78183,51649
16.78995,49051
16.79807,48979
16.80620,48876
16.81432,47586
16.82245,46246
16.83057,44787
16.83868,45570
16.84682,47801
16.85493,46985
16.86305,42860
16.87118,42300
16.87930,46152
16.88743,41929
16.89555,42690
16.90367,40031
16.91180,44357
16.91992,43565
16.92805,44176
16.93617,47096
16.94428,46420
16.95242,41821
16.96053,42261
16.96867,46285
16.97678,44592
16.98490,49003
16.99303,45502
17.00115,44158
17.00927,46341
17.01740,49961
17.02552,51818
17.03365,54400
17.04177,58313
17.04988,64339
17.05802,71703
17.06613,73503
17.07427,75584
17.08238,90371
17.09050,116294
17.09863,143189
17.10675,167897
17.11487,193989
17.12300,199145
17.13112,195979
17.13925,180316
17.14737,160461
17.15548,149312
17.16362,128021
17.17173,113971
17.17987,93807
17.18798,82677
17.19610,74126
17.20423,69426
17.21235,61552
17.22048,63485
17.22860,59932
17.23672,57473
17.24485,52689
17.25297,54824
17.26108,53307
17.26922,55042
17.27733,51497
17.28547,48193
17.29358,44282
17.30170,45730
17.30983,48491
17.31795,55097
17.32608,64443
17.33420,71343
17.34232,75092
17.35045,86242
17.35857,87417
17.36668,84947
17.37482,74646
17.38293,75638
17.39107,73998
17.39918,74094
17.40730,69870
17.41543,75448
17.42355,78337
17.43168,77898
17.43980,75040
17.44792,79694
17.45605,68235
17.46417,66039
17.47230,60146
17.48042,55934
17.48853,54074
17.49667,52031
17.50478,45373
17.51290,49205
17.52103,49149
17.52915,49188
17.53728,49906
17.54540,53012
17.55352,63317
17.56165,86587
17.56977,139680
17.57790,259038
17.58602,428284
17.59413,697411
17.60227,994190
17.61038,1167660
17.61852,1144233
17.62663,942906
17.63475,702697
17.64288,474478
17.65100,344421
17.65912,273501
17.66725,223468
17.67537,199683
17.68350,173825
17.69162,154610
17.69973,140033
17.70787,123458
17.71598,123126
17.72412,114032
17.73223,109022
17.74035,112606
17.74848,102350
17.75660,93501
17.76472,88568
17.77285,87327
17.78097,80225
17.78910,77164
17.79722,75417
17.80533,75504
17.81347,70874
17.82158,75416
17.82972,76439
17.83783,82484
17.84595,93271
17.85408,100405
17.86220,104556
17.87033,105067
17.87845,101957
17.88657,91134
17.89470,78311
17.90282,67970
17.91093,65582
17.91907,55688
17.92718,57644
17.93532,57503
17.94343,57326
17.95155,54920
17.95968,51401
17.96780,51734
17.97593,51927
17.98405,54258
17.99217,51295
18.00030,57145
18.00842,57612
18.01655,69359
18.02467,80465
18.03278,98051
18.04092,108197
18.04903,110494
18.05715,104344
18.06528,97840
18.07340,90884
18.08153,95781
18.08965,107961
18.09777,118036
18.10590,124697
18.11402,128035
18.12215,123819
18.13027,130506
18.13838,122583
18.14652,121056
18.15463,113446
18.16275,111092
18.17088,108290
18.17900,100201
18.18713,89338
18.19525,88223
18.20337,87857
18.21150,79105
18.21962,80466
18.22775,77984
18.23587,74270
18.24398,75865
18.25212,72432
18.26023,68875
18.26837,65253
18.27648,64412
18.28460,60567
18.29273,58083
18.30085,53666
18.30897,49769
18.31710,54333
18.32522,51110
18.33335,48129
18.34147,48656
18.34958,50494
18.35772,47839
18.36583,51235
18.37397,52442
18.38208,57699
18.39020,59485
18.39833,68623
18.40645,83582
18.41457,104165
18.42270,117222
18.43082,141660
18.43895,155889
18.44707,179541
18.45518,206127
18.46332,252744
18.47143,296075
18.47957,354163
18.48768,379595
18.49580,380174
18.50393,373727
18.51205,358467
18.52018,323619
18.52830,314467
18.53642,291908
18.54455,272071
18.55267,275093
18.56078,266317
18.56892,261573
18.57703,270070
18.58517,266659
18.59328,270035
18.60140,277737
18.60953,287697
18.61765,291869
18.62578,303763
18.63390,295826
18.64202,297772
18.65015,298568
18.65827,273264
18.66640,256533
18.67452,253705
18.68263,248065
18.69077,241596
18.69888,247314
18.70700,242167
18.71513,246445
18.72325,235790
18.73138,233399
18.73950,221101
18.74762,217491
18.75575,223731
18.76387,220185
18.77200,212740
18.78012,216353
18.78823,211876
18.79637,207850
18.80448,207904
18.81262,207351
18.82073,210826
18.82885,196376
18.83698,199405
18.84510,203397
18.85322,197304
18.86135,198866
18.86947,199657
18.87760,210019
18.88572,203187
18.89383,197403
18.90197,198093
18.91008,191785
18.91822,190035
18.92633,193799
18.93445,186639
18.94258,197862
18.95070,193146
18.95882,189496
18.96695,185906
18.97507,188849
18.98320,185240
18.99132,187495
18.99943,174029
19.00757,171981
19.01568,180081
19.02382,172352
19.03193,171015
19.04005,167440
19.04818,165663
19.05630,165625
19.06443,189506
19.07255,220981
19.08067,289457
19.08880,398610
19.09692,507180
19.10503,586845
19.11317,622426
19.12128,554721
19.12942,454655
19.13753,363344
19.14565,282306
19.15378,235538
19.16190,211919
19.17003,195007
19.17815,180846
19.18627,173113
19.19440,165474
19.20252,160837
19.21063,159808
19.21877,155520
19.22688,146657
19.23502,146581
19.24313,154028
19.25125,147596
19.25938,137234
19.26750,142242
19.27563,147584
19.28375,142761
19.29187,149741
19.30000,149038
19.30812,151064
19.31625,153008
19.32437,145704
19.33248,145385
19.34062,145113
19.34873,153501
19.35685,173577
19.36498,197830
19.37310,219683
19.38123,232119
19.38935,219860
19.39747,188189
19.40560,171886
19.41372,151375
19.42185,140844
19.42997,139377
19.43808,132984
19.44622,132193
19.45433,129747
19.46247,144640
19.47058,167350
19.47870,219676
19.48683,280480
19.49495,348555
19.50307,373640
19.51120,350448
19.51932,302531
19.52745,243991
19.53557,197249
19.54368,174805
19.55182,160044
19.55993,149432
19.56807,142873
19.57618,134739
19.58430,122113
19.59243,120186
19.60055,114540
19.60867,107108
19.61680,110374
19.62492,115051
19.63305,120760
19.64117,138168
19.64928,167563
19.65742,203365
19.66553,241002
19.67367,286115
19.68178,302612
19.68990,293154
19.69803,292155
19.70615,257909
19.71428,232182
19.72240,205004
19.73052,186975
19.73865,171755
19.74677,156056
19.75488,151156
19.76302,151330
19.77113,164345
19.77927,184958
19.78738,215848
19.79550,243491
19.80363,252585
19.81175,254075
19.81988,242858
19.82800,205554
19.83612,174198
19.84425,153323
19.85237,140735
19.86050,136466
19.86862,151931
19.87673,191655
19.88487,260301
19.89298,345023
19.90110,436955
19.90923,505562
19.91735,528430
19.92548,538386
19.93360,512068
19.94172,485536
19.94985,445425
19.95797,443488
19.96610,416737
19.97422,385235
19.98233,386795
19.99047,363056
19.99858,354687
20.00670,348073
20.01483,349310
20.02295,333804
20.03108,321720
20.03920,303138
20.04732,281546
20.05545,274039
20.06357,293605
20.07170,306285
20.07982,321158
20.08793,336167
20.09607,340948
20.10418,306862
20.11232,271747
20.12043,225237
20.12855,203654
20.13668,192042
20.14480,198428
20.15292,238641
20.16105,331982
20.16917,467858
20.17730,641665
20.18542,830173
20.19353,969511
20.20167,985393
20.20978,942084
20.21792,819546
20.22603,681343
20.23415,568677
20.24228,529560
20.25040,522602
20.25852,593841
20.26665,681649
20.27477,734946
20.28290,750900
20.29102,723399
20.29913,612627
20.30727,511262
20.31538,396804
20.32352,309942
20.33163,257226
20.33975,198204
20.34788,164422
20.35600,144584
20.36413,132667
20.37225,115434
20.38037,114607
20.38850,108037
20.39662,104674
20.40473,97154
20.41287,104491
20.42098,102990
20.42912,106797
20.43723,111138
20.44535,104619
20.45348,113392
20.46160,112427
20.46973,101525
20.47785,101991
20.48597,98715
20.49410,94208
20.50222,87642
20.51035,83585
20.51847,81401
20.52658,85799
20.53472,78193
20.54283,81706
20.55095,79373
20.55908,81421
20.56720,76652
20.57533,76487
20.58345,73150
20.59157,77324
20.59970,75988
20.60782,77448
20.61595,79672
20.62407,80388
20.63218,77779
20.64032,89825
20.64843,90244
20.65655,91421
20.66468,86850
20.67280,87547
20.68093,82733
20.68905,77578
20.69717,78505
20.70530,72958
20.71342,72136
20.72155,68653
20.72967,76484
20.73778,69957
20.74592,73340
20.75403,77209
20.76217,85810
20.77028,98083
20.77840,120010
20.78653,170526
20.79465,281821
20.80277,449568
20.81090,640126
20.81902,799382
20.82715,802503
20.83527,683827
20.84338,500738
20.85152,346547
20.85963,237054
20.86777,165967
20.87588,141649
20.88400,122329
20.89213,115907
20.90025,113908
20.90838,119667
20.91650,115409
20.92462,121713
20.93275,113066
20.94087,122384
20.94898,114509
20.95712,112999
20.96523,103889
20.97337,104700
20.98148,90023
20.98960,85360
20.99773,90359
21.00585,85225
21.01398,87513
21.02210,90616
21.03022,88236
21.03835,87021
21.04647,85654
21.05458,77763
21.06272,84041
21.07083,80491
21.07897,78919
21.08708,76753
21.09520,71868
21.10333,73589
21.11145,70313
21.11958,73471
21.12770,83600
21.13582,99045
21.14395,119816
21.15207,155024
21.16020,179103
21.16832,194305
21.17643,179459
21.18457,164622
21.19268,132726
21.20080,117026
21.20893,100769
21.21705,87162
21.22518,81914
21.23330,81518
21.24142,84154
21.24955,80370
21.25767,76317
21.26580,77819
21.27392,77415
21.28203,71516
21.29017,71525
21.29828,67667
21.30642,70597
21.31453,67238
21.32265,69139
21.33078,64969
21.33890,66258
21.34702,59609
21.35515,64719
21.36327,67116
21.37140,58493
21.37952,61362
21.38763,62704
21.39577,64483
21.40388,68760
21.41202,65879
21.42013,68243
21.42825,70029
21.43638,65377
21.44450,60453
21.45262,61952
21.46075,61795
21.46887,58536
21.47700,61652
21.48512,66012
21.49323,61137
21.50137,58089
21.50948,58633
21.51762,60652
21.52573,58320
21.53385,58823
21.54198,57266
21.55010,63400
21.55823,56924
21.56635,60194
21.57447,67057
21.58260,72491
21.59072,77147
21.59883,89886
21.60697,91735
21.61508,89533
21.62322,93691
21.63133,93452
21.63945,91338
21.64758,98187
21.65570,99648
21.66383,106731
21.67195,109685
21.68007,116297
21.68820,109956
21.69632,106751
21.70443,98291
21.71257,87090
21.72068,81130
21.72882,73915
21.73693,68009
21.74505,65775
21.75318,71634
21.76130,69071
21.76943,64842
21.77755,64917
21.78567,66729
21.79380,64385
21.80192,62506
21.81005,74553
21.81817,77013
21.82628,82768
21.83442,82927
21.84253,82116
21.85065,74430
21.85878,77402
21.86690,72404
21.87503,68803
21.88315,71306
21.89127,68981
21.89940,69057
21.90752,62555
21.91565,67863
21.92377,63046
21.93188,62289
21.94002,65475
21.94813,57340
21.95627,58158
21.96438,55225
21.97250,51478
21.98063,52410
21.98875,51488
21.99687,53689
22.00500,56094
22.01312,55313
22.02125,53767
22.02937,54132
22.03748,54029
22.04562,56388
22.05373,57381
22.06187,57227
22.06998,60303
22.07810,61429
22.08623,66381
22.09435,73897
22.10247,79118
22.11060,80722
22.11872,75491
22.12685,79741
22.13497,82875
22.14308,85166
22.15122,82795
22.15933,90642
22.16747,87475
22.17558,84390
22.18370,85522
22.19183,88812
22.19995,86824
22.20808,90077
22.21620,91229
22.22432,93891
22.23245,91322
22.24057,88055
22.24868,93562
22.25682,96385
22.26493,95158
22.27307,97619
22.28118,104867
22.28930,104867
22.29743,104605
22.30555,99435
22.31368,95438
22.32180,90107
22.32992,89223
22.33805,84421
22.34617,85713
22.35430,74692
22.36242,73761
22.37053,68151
22.37867,78246
22.38678,85441
22.39490,111072
22.40303,145457
22.41115,184892
22.41928,218608
22.42740,220009
22.43552,208836
22.44365,172680
22.45177,143804
22.45990,124163
22.46802,106753
22.47613,110500
22.48427,121478
22.49238,136993
22.50050,147243
22.50863,162602
22.51675,158201
22.52488,144791
22.53300,133213
22.54112,116555
22.54925,103118
22.55737,86928
22.56550,85048
22.57362,78020
22.58173,82336
22.58987,88574
22.59798,105312
22.60612,116411
22.61423,123552
22.62235,128954
22.63048,132721
22.63860,146649
22.64672,146162
22.65485,151941
22.66297,150453
22.67110,159241
22.67922,156865
22.68733,163381
22.69547,159107
22.70358,165654
22.71172,172648
22.71983,170610
22.72795,169167
22.73608,166068
22.74420,163143
22.75232,161421
22.76045,157296
22.76857,161066
22.77670,157197
22.78482,160625
22.79293,167547
22.80107,180952
22.80918,186945
22.81732,183473
22.82543,184984
22.83355,181351
22.84168,166436
22.84980,168687
22.85793,166314
22.86605,187430
22.87417,210996
22.88230,230229
22.89042,254268
22.89853,271636
22.90667,282369
22.91478,322376
22.92292,322252
22.93103,325432
22.93915,304345
22.94728,260086
22.95540,227636
22.96353,186495
22.97165,169292
22.97977,157828
22.98790,150122
22.99602,142310
23.00415,141215
23.01227,134897
23.02038,134326
23.02852,132688
23.03663,130429
23.04475,130912
23.05288,127557
23.06100,127343
23.06913,134360
23.07725,131379
23.08537,125298
23.09350,116142
23.10162,115286
23.10975,118603
23.11787,112277
23.12598,107368
23.13412,112911
23.14223,112530
23.15037,107652
23.15848,107443
23.16660,106944
23.17473,106241
23.18285,107912
23.19097,105633
23.19910,108846
23.20722,105848
23.21535,106751
23.22347,100702
23.23158,105239
23.23972,105814
23.24783,110420
23.25597,111755
23.26408,124358
23.27220,121967
23.28033,116472
23.28845,114277
23.29657,108599
23.30470,108028
23.31282,106444
23.32095,109316
23.32907,117390
23.33718,135722
23.34532,155151
23.35343,181942
23.36157,208981
23.36968,212427
23.37780,214144
23.38593,201765
23.39405,178371
23.40218,147679
23.41030,133424
23.41842,115998
23.42655,113374
23.43467,100766
23.44278,110055
23.45092,104923
23.45903,99275
23.46717,99701
23.47528,95017
23.48340,96163
23.49153,90148
23.49965,99201
23.50778,91562
23.51590,96041
23.52402,96003
23.53215,95356
23.54027,103822
23.54838,101433
23.55652,110944
23.56463,130647
23.57277,164689
23.58088,218139
23.58900,275528
23.59713,352722
23.60525,384861
23.61338,385691
23.62150,334531
23.62962,278490
23.63775,229982
23.64587,196510
23.65400,192505
23.66212,193985
23.67023,184654
23.67837,174942
23.68648,155646
23.69460,132546
23.70273,119759
23.71085,106851
23.71898,104810
23.72710,100588
23.73522,105273
23.74335,130862
23.75147,208905
23.75960,391941
23.76772,754184
23.77583,1324152
23.78397,1965969
23.79208,2426924
23.80022,2515633
23.80833,2267526
23.81645,1968036
23.82458,1531624
23.83270,1225562
23.84082,935662
23.84895,731136
23.85707,585497
23.86520,500654
23.87332,438236
23.88143,393463
23.88957,338102
23.89768,314704
23.90582,303944
23.91393,296855
23.92205,272097
23.93018,257445
23.93830,230507
23.94642,222580
23.95455,201475
23.96267,187309
23.97080,179876
23.97892,175012
23.98703,165149
23.99517,163902
24.00328,190439
24.01142,213647
24.01953,263750
24.02765,330677
24.03578,373888
24.04390,356816
24.05203,312815
24.06015,243734
24.06827,195255
24.07640,150999
24.08452,135079
24.09263,123971
24.10077,113179
24.10888,121786
24.11702,119905
24.12513,118559
24.13325,125898
24.14138,134198
24.14950,139839
24.15763,139681
24.16575,137139
24.17387,144161
24.18200,142045
24.19012,144366
24.19825,147625
24.20637,145396
24.21448,134457
24.22262,126625
24.23073,110190
24.23885,105714
24.24698,96997
24.25510,90405
24.26323,86451
24.27135,82730
24.27947,85016
24.28760,87156
24.29572,85039
24.30385,83095
24.31197,82399
24.32008,78127
24.32822,85793
24.33633,84746
24.34445,81842
24.35258,89178
24.36070,100411
24.36883,128413
24.37695,162172
24.38507,209897
24.39320,244050
24.40132,248406
24.40945,226585
24.41757,221159
24.42568,208110
24.43382,214113
24.44193,226580
24.45007,238286
24.45818,262354
24.46630,267330
24.47443,284057
24.48255,297137
24.49067,309005
24.49880,314105
24.50692,327811
24.51505,335209
24.52317,357711
24.53128,377914
24.53942,441352
24.54753,487199
24.55567,514325
24.56378,525307
24.57190,506308
24.58003,456655
24.58815,418842
24.59627,374409
24.60440,341044
24.61252,317165
24.62065,307597
24.62877,295686
24.63688,292977
24.64502,285550
24.65313,280684
24.66127,275064
24.66938,270035
24.67750,269051
24.68563,264208
24.69375,264111
24.70188,255276
24.71000,249183
24.71812,256567
24.72625,246644
24.73437,235184
24.74248,238766
24.75062,234169
24.75873,244683
24.76687,239388
24.77498,237094
24.78310,237660
24.79123,231942
24.79935,238743
24.80748,236062
24.81560,235918
24.82372,250241
24.83185,264129
24.83997,292631
24.84810,327857
24.85622,381792
24.86433,476599
24.87247,582372
24.88058,689604
24.88870,796022
24.89683,831394
24.90495,756027
24.91308,632717
24.92120,471143
24.92932,338237
24.93745,241132
24.94557,182187
24.95370,145050
24.96182,118155
24.96993,110204
24.97807,109120
24.98618,94956
24.99430,98040
25.00243,95329
25.01055,94559
25.01868,88486
25.02680,86461
25.03492,82905
25.04305,77892
25.05117,82187
25.05930,84481
25.06742,81637
25.07553,90112
25.08367,93338
25.09178,113024
25.09992,193951
25.10803,386418
25.11615,818051
25.12428,1645345
25.13240,2757943
25.14052,3677709
25.14865,4188544
25.15677,4039005
25.16490,3256963
25.17302,2265976
25.18113,1423289
25.18927,837656
25.19738,493308
25.20552,303130
25.21363,216622
25.22175,189199
25.22988,169765
25.23800,186639
25.24613,219364
25.25425,278840
25.26237,343422
25.27050,403174
25.27862,400444
25.28673,401226
25.29487,363149
25.30298,348354
25.31112,347716
25.31923,368561
25.32735,383112
25.33548,406608
25.34360,408554
25.35173,407061
25.35985,406818
25.36797,412517
25.37610,399773
25.38422,402875
25.39233,402217
25.40047,405216
25.40858,399941
25.41672,395993
25.42483,399580
25.43295,392108
25.44108,395126
25.44920,393422
25.45733,383613
25.46545,391805
25.47357,389850
25.48170,376141
25.48982,386966
25.49795,379102
25.50607,380126
25.51418,370134
25.52232,358607
25.53043,362588
25.53855,358784
25.54668,349496
25.55480,350853
25.56293,349582
25.57105,349260
25.57917,350793
25.58730,343156
25.59542,332614
25.60355,330726
25.61167,332705
25.61978,322310
25.62792,314368
25.63603,318292
25.64417,315518
25.65228,309624
25.66040,304055
25.66853,298599
25.67665,295268
25.68477,294791
25.69290,287456
25.70102,289417
25.70915,278797
25.71727,269962
25.72538,273094
25.73352,275931
25.74163,266954
25.74977,260711
25.75788,269003
25.76600,267520
25.77413,260259
25.78225,267716
25.79037,258045
25.79850,265090
25.80662,245590
25.81475,247500
25.82287,245081
25.83098,256141
25.83912,242497
25.84723,241980
25.85537,240820
25.86348,234119
25.87160,226957
25.87973,233581
25.88785,225745
25.89598,220284
25.90410,220446
25.91222,217914
25.92035,210702
25.92847,201027
25.93658,201749
25.94472,206339
25.95283,207293
25.96097,201093
25.96908,196808
25.97720,199907
25.98533,194120
25.99345,188140
26.00158,178880
26.00970,190195
26.01782,178456
26.02595,177255
26.03407,178205
26.04218,177534
26.05032,170787
26.05843,175932
26.06657,175221
26.07468,182345
26.08280,176663
26.09093,176181
26.09905,181255
26.10718,174203
26.11530,172142
26.12342,170821
26.13155,173825
26.13967,170711
26.14780,171490
26.15592,170400
26.16403,171065
26.17217,165100
26.18028,162010
26.18840,159161
26.19653,154385
26.20465,153763
26.21278,149939
26.22090,149997
26.22902,145367
26.23715,143446
26.24527,135777
26.25340,140638
26.26152,132501
26.26963,135792
26.27777,128893
26.28588,128470
26.29402,129739
26.30213,126921
26.31025,127242
26.31838,122982
26.32650,119068
26.33462,124745
26.34275,126167
26.35087,133973
26.35900,142598
26.36712,166016
26.37523,204080
26.38337,241697
26.39148,282969
26.39962,326121
26.40773,332003
26.41585,302515
26.42398,263014
26.43210,216687
26.44022,187784
26.44835,160256
26.45647,142867
26.46460,128991
26.47272,121430
26.48083,121323
26.48897,117145
26.49708,107376
26.50522,103254
26.51333,102982
26.52145,97388
26.52958,98417
26.53770,96214
26.54583,96378
26.55395,97188
26.56207,98415
26.57020,97335
26.57832,94717
26.58643,92656
26.59457,90403
26.60268,87666
26.61082,88083
26.61893,89226
26.62705,87992
26.63518,89768
26.64330,91376
26.65143,83319
26.65955,90439
26.66767,85643
26.67580,94600
26.68392,92658
26.69205,83776
26.70017,83654
26.70828,84274
26.71642,82305
26.72453,86404
26.73265,85553
26.74078,80995
26.74890,82613
26.75703,80975
26.76515,83555
26.77327,86977
26.78140,85916
26.78952,91237
26.79765,91934
26.80577,90247
26.81388,95066
26.82202,92199
26.83013,84325
26.83825,81704
26.84638,78295
26.85450,82412
26.86263,72292
26.87075,73666
26.87887,68939
26.88700,73563
26.89512,74735
26.90325,69465
26.91137,69313
26.91948,71144
26.92762,68197
26.93573,66648
26.94387,74000
26.95198,69090
26.96010,75079
26.96823,96252
26.97635,111603
26.98447,150468
26.99260,200711
27.00072,289013
27.00885,394856
27.01697,495425
27.02508,595636
27.03322,616078
27.04133,590556
27.04947,529127
27.05758,463869
27.06570,394622
27.07383,330359
27.08195,283851
27.09007,246364
27.09820,211450
27.10632,189260
27.11445,180578
27.12257,167981
27.13068,162742
27.13882,151978
27.14693,142424
27.15507,154667
27.16318,143425
27.17130,153390
27.17943,165323
27.18755,157233
27.19568,159100
27.20380,148516
27.21192,140402
27.22005,133444
27.22817,122184
27.23628,115500
27.24442,112609
27.25253,103901
27.26067,99526
27.26878,96579
27.27690,95618
27.28503,88629
27.29315,93105
27.30128,88379
27.30940,92963
27.31752,87853
27.32565,87541
27.33377,88921
27.34190,87638
27.35002,89186
27.35813,88388
27.36627,95616
27.37438,88735
27.38250,88941
27.39063,85893
27.39875,84107
27.40688,77626
27.41500,75029
27.42312,79186
27.43125,80380
27.43937,75581
27.44750,79104
27.45562,75671
27.46373,70959
27.47187,69061
27.47998,66179
27.48810,67606
27.49623,69120
27.50435,78620
27.51248,78196
27.52060,79934
27.52872,85117
27.53685,80675
27.54497,73468
27.55310,75684
27.56122,75498
27.56933,84066
27.57747,82260
27.58558,99049
27.59372,102498
27.60183,109000
27.60995,107858
27.61808,100494
27.62620,91290
27.63432,83528
27.64245,80243
27.65057,77807
27.65870,81082
27.66682,87199
27.67493,101736
27.68307,110122
27.69118,117288
27.69932,118039
27.70743,111153
27.71555,98249
27.72368,84848
27.73180,78947
27.73993,71808
27.74805,67600
27.75617,61583
27.76430,65312
27.77242,64101
27.78053,67491
27.78867,67479
27.79678,67775
27.80492,66591
27.81303,70168
27.82115,65374
27.82928,65827
27.83740,62542
27.84553,63396
27.85365,60116
27.86177,62107
27.86990,55562
27.87802,54240
27.88613,58151
27.89427,57112
27.90238,64052
27.91052,54626
27.91863,56303
27.92675,57789
27.93488,53475
27.94300,53699
27.95113,52522
27.95925,57006
27.96737,58574
27.97550,57037
27.98362,58396
27.99175,58381
27.99987,64439
28.00798,75239
28.01612,99116
28.02423,129831
28.03235,161015
28.04048,221070
28.04860,248035
28.05673,249232
28.06485,234512
28.07297,192480
28.08110,151351
28.08922,115180
28.09735,93931
28.10547,78123
28.11358,77301
28.12172,70785
28.12983,65865
28.13797,63822
28.14608,67465
28.15420,64973
28.16233,62921
28.17045,65023
28.17857,69979
28.18670,74311
28.19482,79239
28.20295,88085
28.21107,103942
28.21918,107732
28.22732,101161
28.23543,105061
28.24357,95160
28.25168,85316
28.25980,73701
28.26793,66077
28.27605,65689
28.28417,69353
28.29230,74134
28.30042,77758
28.30855,87385
28.31667,99748
28.32478,116105
28.33292,122422
28.34103,143089
28.34917,157171
28.35728,167843
28.36540,176328
28.37353,195941
28.38165,204957
28.38978,211984
28.39790,216290
28.40602,214311
28.41415,210997
28.42227,198989
28.43038,184284
28.43852,174065
28.44663,167214
28.45477,162942
28.46288,148067
28.47100,142864
28.47913,144064
28.48725,135142
28.49538,136785
28.50350,130738
28.51162,128039
28.51975,124591
28.52787,111848
28.53600,104371
28.54412,102274
28.55223,93744
28.56037,87567
28.56848,83174
28.57660,83851
28.58473,82106
28.59285,78588
28.60098,80582
28.60910,80562
28.61722,87282
28.62535,86607
28.63347,85658
28.64160,93604
28.64972,83638
28.65783,82800
28.66597,83137
28.67408,78680
28.68220,76253
28.69033,79142
28.69845,73373
28.70658,75023
28.71470,76763
28.72282,72866
28.73095,81095
28.73907,84398
28.74720,93125
28.75532,100068
28.76343,107739
28.77157,102664
28.77968,89518
28.78782,89581
28.79593,80468
28.80405,83382
28.81218,83907
28.82030,84065
28.82842,81355
28.83655,79121
28.84467,72603
28.85280,73193
28.86092,71973
28.86903,74792
28.87717,82133
28.88528,82006
28.89342,86560
28.90153,90950
28.90965,94101
28.91778,92336
28.92590,85299
28.93402,81510
28.94215,80965
28.95027,77964
28.95840,76867
28.96652,74368
28.97463,71666
28.98277,67719
28.99088,59815
28.99902,62221
29.00713,60963
29.01525,61657
29.02338,56973
29.03150,61811
29.03963,58906
29.04775,61286
29.05587,59829
29.06400,60605
29.07212,64238
29.08023,63483
29.08837,63918
29.09648,69369
29.10462,65232
29.11273,58631
29.12085,60407
29.12898,56434
29.13710,56298
29.14523,57265
29.15335,55537
29.16147,68601
29.16960,63054
29.17772,65044
29.18585,71567
29.19397,85974
29.20208,98460
29.21022,118200
29.21833,122720
29.22645,122187
29.23458,122455
29.24270,122151
29.25083,132246
29.25895,140226
29.26707,141090
29.27520,141073
29.28332,134145
29.29145,109006
29.29957,90470
29.30768,78627
29.31582,70285
29.32393,60326
29.33205,57905
29.34018,58819
29.34830,59522
29.35643,56409
29.36455,57732
29.37267,55145
29.38080,53629
29.38892,55352
29.39705,58369
29.40517,55217
29.41328,58141
29.42142,57087
29.42953,58845
29.43767,61627
29.44578,56047
29.45390,56028
29.46203,58409
29.47015,62590
29.47827,56483
29.48640,59467
29.49452,55936
29.50265,54045
29.51077,58134
29.51888,55130
29.52702,57629
29.53513,61940
29.54327,54633
29.55138,55301
29.55950,53303
29.56763,53962
29.57575,50670
29.58388,52624
29.59200,47692
29.60012,49565
29.60825,48052
29.61637,50730
29.62448,49232
29.63262,51587
29.64073,49345
29.64887,54049
29.65698,51239
29.66510,55261
29.67323,56314
29.68135,57082
29.68948,66139
29.69760,62959
29.70572,62196
29.71385,57133
29.72197,59807
29.73008,62224
29.73822,57131
29.74633,59684
29.75447,60729
29.76258,57925
29.77070,54394
29.77883,59689
29.78695,49080
29.79508,49161
29.80320,47133
29.81132,47618
29.81945,50739
29.82757,49196
29.83570,48632
29.84382,44864
29.85193,52144
29.86007,54851
29.86818,69439
29.87630,89773
29.88443,118385
29.89255,148116
29.90068,171550
29.90880,171876
29.91692,146413
29.92505,116732
29.93317,87475
29.94130,80769
29.94942,77639
29.95753,78432
29.96567,83028
29.97378,94158
29.98190,111310
29.99003,113851
29.99815,129628
30.00628,143959
30.01440,141292
30.02252,144830
30.03065,134942
30.03877,134596
30.04690,136223
30.05502,129337
30.06313,125056
30.07127,121806
30.07938,119145
30.08752,120841
30.09563,119856
30.10375,116931
30.11188,113309
30.12000,116145
30.12812,101471
30.13625,102200
30.14437,102671
30.15250,98657
30.16062,94114
30.16873,98892
30.17687,93604
30.18498,95719
30.19312,94364
30.20123,106617
30.20935,98811
30.21748,101396
30.22560,88369
30.23373,87955
30.24185,79358
30.24997,69173
30.25810,69448
30.26622,67814
30.27433,63200
30.28247,65469
30.29058,68383
30.29872,65211
30.30683,61580
30.31495,61908
30.32308,64559
30.33120,64232
30.33933,60946
30.34745,60063
30.35557,67122
30.36370,62977
30.37182,63913
30.37993,58121
30.38807,57801
30.39618,55828
30.40432,55471
30.41243,53695
30.42055,52119
30.42868,55550
30.43680,57036
30.44493,59911
30.45305,54677
30.46117,55336
30.46930,55655
30.47742,52256
30.48555,51211
30.49367,50338
30.50178,53528
30.50992,54047
30.51803,49858
30.52615,51651
30.53428,55589
30.54240,50149
30.55053,52292
30.55865,56834
30.56677,53399
30.57490,57339
30.58302,55490
30.59115,55559
30.59927,55627
30.60738,54008
30.61552,54088
30.62363,50713
30.63177,51323
30.63988,49145
30.64800,54721
30.65613,51095
30.66425,47443
30.67237,49002
30.68050,48483
30.68862,50517
30.69675,48991
30.70487,46852
30.71298,48004
30.72112,48848
30.72923,49459
30.73737,49037
30.74548,50553
30.75360,51238
30.76173,50043
30.76985,59483
30.77797,65448
30.78610,75677
30.79422,89849
30.80235,101107
30.81047,112419
30.81858,112504
30.82672,102720
30.83483,87198
30.84297,71967
30.85108,64439
30.85920,57444
30.86733,59639
30.87545,59388
30.88358,57997
30.89170,55771
30.89982,54079
30.90795,58261
30.91607,48078
30.92418,54156
30.93232,48634
30.94043,49423
30.94857,46140
30.95668,47638
30.96480,50698
30.97293,51637
30.98105,57063
30.98918,62264
30.99730,54940
31.00542,61760
31.01355,59085
31.02167,60668
31.02980,68183
31.03792,65610
31.04603,67114
31.05417,66129
31.06228,71419
31.07040,66085
31.07853,72803
31.08665,78935
31.09478,91807
31.10290,87076
31.11102,91275
31.11915,92070
31.12727,89939
31.13540,82223
31.14352,82202
31.15163,83989
31.15977,79720
31.16788,79554
31.17600,87892
31.18413,96232
31.19225,117666
31.20038,143045
31.20850,172775
31.21662,211663
31.22475,222421
31.23287,216548
31.24100,200305
31.24912,167991
31.25723,133408
31.26537,108482
31.27348,87708
31.28162,75035
31.28973,76855
31.29785,80549
31.30598,74131
31.31410,73215
31.32222,72082
31.33035,72900
31.33847,74167
31.34660,74837
31.35472,75448
31.36283,72810
31.37097,73723
31.37908,70459
31.38722,70859
31.39533,71242
31.40345,72406
31.41158,72077
31.41970,70152
31.42782,69653
31.43595,67938
31.44407,66127
31.45220,64171
31.46032,63020
31.46843,66927
31.47657,70807
31.48468,65288
31.49282,67621
31.50093,68593
31.50905,64666
31.51718,75974
31.52530,79112
31.53343,84493
31.54155,79330
31.54967,76808
31.55780,76757
31.56592,70140
31.57403,73356
31.58217,70912
31.59028,67642
31.59842,61300
31.60653,62085
31.61465,60133
31.62278,60609
31.63090,63453
31.63903,60069
31.64715,65015
31.65527,60594
31.66340,67514
31.67152,62905
31.67965,67468
31.68777,64034
31.69588,60250
31.70402,57426
31.71213,61317
31.72025,57656
31.72838,55716
31.73650,55744
31.74463,55680
31.75275,53593
31.76087,59773
31.76900,54675
31.77712,60009
31.78525,60099
31.79337,56515
31.80148,59260
31.80962,63349
31.81773,59818
31.82585,53752
31.83398,56245
31.84210,54758
31.85023,54948
31.85835,53459
31.86647,56649
31.87460,60297
31.88272,65974
31.89085,67375
31.89897,71033
31.90708,81774
31.91522,84421
31.92333,90664
31.93147,93479
31.93958,98719
31.94770,103118
31.95583,105731
31.96395,104582
31.97207,105217
31.98020,106587
31.98832,112646
31.99645,117799
32.00457,115754
32.01268,102756
32.02082,105200
32.02893,104652
32.03707,100245
32.04518,100123
32.05330,96373
32.06143,94159
32.06955,94430
32.07768,84153
32.08580,78259
32.09392,80513
32.10205,75245
32.11017,79824
32.11828,76196
32.12642,67677
32.13453,69334
32.14267,70361
32.15078,63574
32.15890,62691
32.16703,65374
32.17515,65939
32.18328,63762
32.19140,65649
32.19952,63359
32.20765,61780
32.21577,60962
32.22388,62174
32.23202,62539
32.24013,58847
32.24827,64375
32.25638,62642
32.26450,61953
32.27263,61326
32.28075,62521
32.28888,57591
32.29700,54375
32.30512,59102
32.31325,57371
32.32137,62527
32.32950,54639
32.33762,60072
32.34573,59915
32.35387,60419
32.36198,57364
32.37010,57582
32.37823,56331
32.38635,56916
32.39448,55675
32.40260,52091
32.41072,51902
32.41885,51220
32.42697,56073
32.43510,52007
32.44322,52648
32.45133,51042
32.45947,52560
32.46758,50611
32.47570,48511
32.48383,47195
32.49195,56573
32.50008,50591
32.50820,50121
32.51632,50023
32.52445,50584
32.53257,49454
32.54070,50150
32.54882,50702
32.55693,51259
32.56507,49882
32.57318,49818
32.58132,53455
32.58943,49074
32.59755,51749
32.60568,48941
32.61380,55335
32.62192,52759
32.63005,56824
32.63817,65951
32.64630,70338
32.65442,79579
32.66253,73676
32.67067,68797
32.67878,58558
32.68692,57486
32.69503,53196
32.70315,56017
32.71128,57434
32.71940,53685
32.72753,51916
32.73565,51308
32.74377,50787
32.75190,52824
32.76002,51568
32.76813,51733
32.77627,48942
32.78438,50702
32.79252,45951
32.80063,52214
32.80875,49970
32.81688,50098
32.82500,46747
32.83313,47669
32.84125,53035
32.84937,53032
32.85750,52876
32.86562,55944
32.87375,53670
32.88187,57714
32.88998,67261
32.89812,69108
32.90623,69911
32.91435,74279
32.92248,72976
32.93060,66331
32.93873,63160
32.94685,59841
32.95497,52405
32.96310,54862
32.97122,58000
32.97935,64342
32.98747,71963
32.99558,77364
33.00372,80107
33.01183,77237
33.01995,74259
33.02808,69465
33.03620,61186
33.04433,56706
33.05245,59147
33.06057,65321
33.06870,65545
33.07682,73251
33.08495,78540
33.09307,85790
33.10118,92491
33.10932,94727
33.11743,93047
33.12557,89116
33.13368,81555
33.14180,72825
33.14993,67069
33.15805,67654
33.16617,59667
33.17430,57571
33.18242,55886
33.19055,55038
33.19867,55337
33.20678,54063
33.21492,54101
33.22303,54149
33.23117,55245
33.23928,49164
33.24740,53610
33.25553,57892
33.26365,51114
33.27177,52816
33.27990,51579
33.28802,53406
33.29615,57096
33.30427,53093
33.31238,54047
33.32052,50879
33.32863,56382
33.33677,57853
33.34488,58839
33.35300,59928
33.36113,66046
33.36925,59543
33.37738,61042
33.38550,55345
33.39362,53395
33.40175,54063
33.40987,53294
33.41798,48257
33.42612,46479
33.43423,48795
33.44237,54791
33.45048,49634
33.45860,44553
33.46673,46140
33.47485,51065
33.48298,48859
33.49110,49721
33.49922,52312
33.50735,49801
33.51547,51429
33.52360,50962
33.53172,54402
33.53983,52032
33.54797,57819
33.55608,54756
33.56420,56551
33.57233,58703
33.58045,54226
33.58858,54422
33.59670,50550
33.60482,46934
33.61295,49008
33.62107,56081
33.62920,51252
33.63732,51353
33.64543,58314
33.65357,55207
33.66168,55915
33.66980,59215
33.67793,56592
33.68605,51632
33.69418,49811
33.70230,49384
33.71042,50177
33.71855,47336
33.72667,46870
33.73480,49469
33.74292,49932
33.75103,42868
33.75917,45434
33.76728,47082
33.77542,48569
33.78353,47428
33.79165,44238
33.79978,43389
33.80790,48358
33.81602,44522
33.82415,49106
33.83227,49881
33.84040,51613
33.84852,48784
33.85663,48448
33.86477,49833
33.87288,51439
33.88102,53367
33.88913,61718
33.89725,58055
33.90538,63371
33.91350,55392
33.92163,58935
33.92975,55905
33.93787,55743
33.94600,47986
33.95412,50085
33.96223,48761
33.97037,45115
33.97848,48637
33.98662,46184
33.99473,47054
34.00285,51297
34.01098,45464
34.01910,48984
34.02723,50706
34.03535,47941
34.04347,49731
34.05160,49113
34.05972,48067
34.06783,52520
34.07597,50463
34.08408,54708
34.09222,50760
34.10033,51261
34.10845,50845
34.11658,51300
34.12470,52600
34.13283,52191
34.14095,50809
34.14907,52072
34.15720,49453
34.16532,50966
34.17345,51518
34.18157,51659
34.18968,53069
34.19782,51307
34.20593,50450
34.21405,54208
34.22218,48625
34.23030,48070
34.23843,47811
34.24655,46322
34.25467,49572
34.26280,52918
34.27092,50807
34.27905,51818
34.28717,51031
34.29528,51807
34.30342,45797
34.31153,50887
34.31965,46371
34.32778,49348
34.33590,46345
34.34403,46583
34.35215,47793
34.36027,48017
34.36840,52147
34.37652,51713
34.38465,51786
34.39277,48314
34.40088,51581
34.40902,46827
34.41713,51592
34.42527,48582
34.43338,52623
34.44150,53503
34.44963,49334
34.45775,50729
34.46587,48463
34.47400,49524
34.48212,49599
34.49025,52497
34.49837,54978
34.50648,61929
34.51462,74864
34.52273,87992
34.53087,96937
34.53898,98396
34.54710,102783
34.55523,98935
34.56335,97516
34.57148,94226
34.57960,90266
34.58772,86747
34.59585,83414
34.60397,73370
34.61208,72318
34.62022,71282
34.62833,66529
34.63647,68868
34.64458,60361
34.65270,59030
34.66083,63501
34.66895,59859
34.67708,63673
34.68520,56932
34.69332,58652
34.70145,57630
34.70957,56474
34.71768,56165
34.72582,54392
34.73393,56726
34.74207,51602
34.75018,58053
34.75830,60201
34.76643,54881
34.77455,57287
34.78268,55394
34.79080,58545
34.79892,59152
34.80705,56406
34.81517,61601
34.82330,56202
34.83142,60087
34.83953,60679
34.84767,58295
34.85578,57646
34.86390,58014
34.87203,57706
34.88015,55740
34.88828,57019
34.89640,59037
34.90452,54443
34.91265,55679
34.92077,54791
34.92890,57525
34.93702,64191
34.94513,59017
34.95327,59797
34.96138,64985
34.96952,67149
34.97763,66182
34.98575,61976
34.99388,63657
35.00200,58654
35.01012,55741
35.01825,53905
35.02637,54041
35.03450,49536
35.04262,53548
35.05073,52885
35.05887,50008
35.06698,50096
35.07512,53992
35.08323,54115
35.09135,52561
35.09948,50592
35.10760,52159
35.11572,53882
35.12385,51268
35.13197,52979
35.14010,52500
35.14822,52534
35.15633,54150
35.16447,54570
35.17258,51887
35.18072,51725
35.18883,48041
35.19695,51143
35.20508,50605
35.21320,48848
35.22133,50017
35.22945,51768
35.23757,46351
35.24570,49045
35.25382,51040
35.26193,52105
35.27007,48054
35.27818,48875
35.28632,52687
35.29443,51914
35.30255,53001
35.31068,52026
35.31880,52366
35.32693,52852
35.33505,47574
35.34317,48715
35.35130,50354
35.35942,53186
35.36753,49120
35.37567,55034
35.38378,60444
35.39192,65747
35.40003,72123
35.40815,81683
35.41628,93052
35.42440,101263
35.43253,102630
35.44065,102074
35.44877,90340
35.45690,74954
35.46502,71188
35.47315,70608
35.48127,62768
35.48938,61712
35.49752,60619
35.50563,59630
35.51375,61990
35.52188,59392
35.53000,55549
35.53813,53104
35.54625,55324
35.55437,54618
35.56250,52837
35.57062,52619
35.57875,50578
35.58687,54510
35.59498,52094
35.60312,56105
35.61123,55819
35.61937,51723
35.62748,54644
35.63560,56197
35.64373,55889
35.65185,54225
35.65997,56786
35.66810,54771
35.67622,56913
35.68435,54938
35.69247,54148
35.70058,57164
35.70872,52449
35.71683,59274
35.72497,57227
35.73308,57492
35.74120,55934
35.74933,61314
35.75745,64952
35.76557,67483
35.77370,64235
35.78182,69480
35.78995,60190
35.79807,56905
35.80618,55197
35.81432,58289
35.82243,53026
35.83057,51346
35.83868,51087
35.84680,55798
35.85493,52485
35.86305,51576
35.87118,54889
35.87930,53588
35.88742,50567
35.89555,53119
35.90367,53416
35.91178,53877
35.91992,49087
35.92803,51332
35.93617,51725
35.94428,55708
35.95240,51367
35.96053,51118
35.96865,53947
35.97678,52711
35.98490,58364
35.99302,48499
36.00115,56370
36.00927,54651
36.01740,53310
36.02552,53375
36.03363,55344
36.04177,54703
36.04988,52247
36.05800,55272
36.06613,53812
36.07425,49239
36.08238,52464
36.09050,55678
36.09862,53353
36.10675,53175
36.11487,54835
36.12300,52406
36.13112,59361
36.13923,57609
36.14737,59042
36.15548,56510
36.16360,57942
36.17173,57289
36.17985,58633
36.18798,56041
36.19610,51557
36.20422,53676
36.21235,49046
36.22047,56826
36.22860,52757
36.23672,48961
36.24483,51790
36.25297,49344
36.26108,55898
36.26922,55015
36.27733,60820
36.28545,68475
36.29358,74687
36.30170,74136
36.30982,74439
36.31795,69331
36.32607,65373
36.33420,57742
36.34232,58520
36.35043,56959
36.35857,55807
36.36668,56422
36.37482,55272
36.38293,52892
36.39105,55307
36.39918,58501
36.40730,58191
36.41543,58077
36.42355,55912
36.43167,58807
36.43980,55947
36.44792,52916
36.45603,52829
36.46417,51881
36.47228,55453
36.48042,55082
36.48853,55146
36.49665,51872
36.50478,51586
36.51290,56352
36.52103,54578
36.52915,53748
36.53727,53053
36.54540,54178
36.55352,56691
36.56163,59415
36.56977,59619
36.57788,56915
36.58602,61673
36.59413,57911
36.60225,58683
36.61038,58245
36.61850,61075
36.62663,63192
36.63475,56221
36.64287,61573
36.65100,66130
36.65912,61208
36.66725,61775
36.67537,59288
36.68348,59806
36.69162,61703
36.69973,57893
36.70785,57729
36.71598,59627
36.72410,65047
36.73223,59482
36.74035,60533
36.74847,63332
36.75660,59365
36.76472,61997
36.77285,66969
36.78097,65302
36.78908,62663
36.79722,65197
36.80533,64154
36.81345,65235
36.82158,63327
36.82970,64967
36.83783,66228
36.84595,57064
36.85407,60960
36.86220,56276
36.87032,63840
36.87845,59478
36.88657,61838
36.89468,61622
36.90282,58896
36.91093,58944
36.91907,60180
36.92718,62594
36.93530,60606
36.94343,70978
36.95155,76697
36.95967,80027
36.96780,81532
36.97592,82017
36.98405,75328
36.99217,69925
37.00028,68149
37.00842,67818
37.01653,62600
37.02467,63386
37.03278,62886
37.04090,65333
37.04903,58812
37.05715,61724
37.06528,60815
37.07340,63690
37.08152,62453
37.08965,60116
37.09777,62135
37.10588,61947
37.11402,63366
37.12213,60536
37.13027,60544
37.13838,60058
37.14650,61085
37.15463,57137
37.16275,61749
37.17088,64696
37.17900,59661
37.18712,64557
37.19525,60470
37.20337,62158
37.21148,63110
37.21962,64482
37.22773,65692
37.23587,62339
37.24398,59321
37.25210,59066
37.26023,59795
37.26835,58791
37.27648,61377
37.28460,62674
37.29272,58928
37.30085,62187
37.30897,75456
37.31710,78552
37.32522,88068
37.33333,89729
37.34147,96098
37.34958,96996
37.35770,97002
37.36583,94772
37.37395,87760
37.38208,84951
37.39020,81046
37.39832,76317
37.40645,77077
37.41457,75043
37.42270,77563
37.43082,76518
37.43893,75233
37.44707,74462
37.45518,73367
37.46332,74373
37.47143,71225
37.47955,67597
37.48768,74819
