C:\MassHunter\GCMS\1\data\JTB-E18\JTB-E18-035-08.D Wed Oct 16 14:47:52 2019
Start of data points
2.09537,196295
2.10348,191221
2.11162,188317
2.11973,185591
2.12785,180675
2.13598,167241
2.14410,165186
2.15223,159408
2.16035,158888
2.16847,151135
2.17660,148333
2.18472,142168
2.19285,139022
2.20097,133037
2.20908,132909
2.21722,125716
2.22533,128197
2.23345,122723
2.24158,125744
2.24970,121396
2.25783,119672
2.26595,157300
2.27407,906157
2.28220,2259613
2.29032,1362891
2.29845,555569
2.30657,359750
2.31468,289810
2.32282,250540
2.33093,225562
2.33907,210350
2.34718,197148
2.35530,178494
2.36343,171533
2.37155,168936
2.37967,172435
2.38780,222555
2.39592,195225
2.40405,169232
2.41217,164038
2.42028,201225
2.42842,290683
2.43653,224281
2.44467,190804
2.45278,175844
2.46090,163002
2.46903,149119
2.47715,137064
2.48527,136709
2.49340,144678
2.50152,152983
2.50965,136490
2.51777,136745
2.52588,128167
2.53402,121456
2.54213,120999
2.55027,131371
2.55838,168180
2.56650,179769
2.57463,137329
2.58275,128415
2.59088,126017
2.59900,124289
2.60712,143876
2.61525,224301
2.62337,250967
2.63148,213743
2.63962,164200
2.64773,146986
2.65587,142418
2.66398,136300
2.67210,146947
2.68023,186796
2.68835,184038
2.69648,137918
2.70460,119489
2.71272,121450
2.72085,112455
2.72897,109544
2.73708,112569
2.74522,108556
2.75333,114460
2.76147,103011
2.76958,98813
2.77770,119138
2.78583,163661
2.79395,184149
2.80208,148138
2.81020,142803
2.81832,183787
2.82645,384396
2.83457,788480
2.84270,747629
2.85082,442595
2.85893,306508
2.86707,286717
2.87518,245685
2.88330,197239
2.89143,163813
2.89955,152132
2.90768,144653
2.91580,135355
2.92392,125980
2.93205,120053
2.94017,118104
2.94830,109036
2.95642,109790
2.96453,111983
2.97267,108556
2.98078,102739
2.98892,112928
2.99703,122154
3.00515,129867
3.01328,139132
3.02140,197995
3.02952,481922
3.03765,986355
3.04577,1593416
3.05390,5004466
3.06202,1.142335E+07
3.07013,1.18757E+07
3.07827,6983991
3.08638,3685473
3.09452,2439751
3.10263,2487565
3.11075,3503774
3.11888,3541522
3.12700,2487303
3.13512,1773415
3.14325,1419825
3.15137,1158882
3.15950,972372
3.16762,887592
3.17573,877783
3.18387,927533
3.19198,1359313
3.20012,1754467
3.20823,1423876
3.21635,1028100
3.22448,868345
3.23260,763820
3.24073,649790
3.24885,577651
3.25697,513464
3.26510,454972
3.27322,427448
3.28133,469415
3.28947,822864
3.29758,1733215
3.30572,2911695
3.31383,3364717
3.32195,2827001
3.33008,2164467
3.33820,1711302
3.34633,1428413
3.35445,1235962
3.36257,1097202
3.37070,1163556
3.37882,1520713
3.38695,1636618
3.39507,1454877
3.40318,1737905
3.41132,3596139
3.41943,5514135
3.42755,4652341
3.43568,2739486
3.44380,1629978
3.45193,1184748
3.46005,987410
3.46817,864631
3.47630,767150
3.48442,684339
3.49255,605603
3.50067,565101
3.50878,519703
3.51692,482610
3.52503,465934
3.53315,446963
3.54128,438536
3.54940,412983
3.55753,393231
3.56565,376396
3.57377,357905
3.58190,340345
3.59002,336834
3.59815,320670
3.60627,324787
3.61438,421211
3.62252,920639
3.63063,2170337
3.63877,3285960
3.64688,2869234
3.65500,1799924
3.66313,1464599
3.67125,2761504
3.67937,5346817
3.68750,5863711
3.69562,3955105
3.70375,2388377
3.71187,1748690
3.71998,1404848
3.72812,1219098
3.73623,1073526
3.74437,984322
3.75248,894356
3.76060,847018
3.76873,838985
3.77685,808840
3.78497,772581
3.79310,722188
3.80122,772184
3.80935,1081730
3.81747,1543788
3.82558,1561381
3.83372,1196888
3.84183,887443
3.84997,748501
3.85808,669951
3.86620,613061
3.87433,558309
3.88245,525719
3.89058,513632
3.89870,472226
3.90682,468951
3.91495,490474
3.92307,595924
3.93118,697969
3.93932,689316
3.94743,575721
3.95557,533380
3.96368,514816
3.97180,508263
3.97993,457710
3.98805,417778
3.99618,457090
4.00430,736003
4.01242,1231988
4.02055,1424301
4.02867,1093949
4.03680,733438
4.04492,543859
4.05303,471475
4.06117,415235
4.06928,384055
4.07740,362255
4.08553,340225
4.09365,320288
4.10178,306657
4.10990,286715
4.11802,279871
4.12615,286151
4.13427,308889
4.14240,398106
4.15052,545757
4.15863,595330
4.16677,503220
4.17488,410220
4.18300,352883
4.19113,320863
4.19925,294803
4.20738,468342
4.21550,1781250
4.22362,5929789
4.23175,1.202174E+07
4.23987,1.573096E+07
4.24800,1.464741E+07
4.25612,9991754
4.26423,6210674
4.27237,4067576
4.28048,2799078
4.28862,2085795
4.29673,1594452
4.30485,1270661
4.31298,1066575
4.32110,919982
4.32922,815173
4.33735,732063
4.34547,705966
4.35360,663957
4.36172,638217
4.36983,599513
4.37797,542554
4.38608,496540
4.39422,453841
4.40233,428780
4.41045,402418
4.41858,374168
4.42670,374037
4.43483,358660
4.44295,346774
4.45107,357465
4.45920,361256
4.46732,352454
4.47543,345523
4.48357,328006
4.49168,300326
4.49982,291228
4.50793,284556
4.51605,277193
4.52418,272756
4.53230,270101
4.54043,259492
4.54855,263627
4.55667,259870
4.56480,250631
4.57292,238063
4.58103,234925
4.58917,227377
4.59728,229246
4.60542,230356
4.61353,234491
4.62165,268285
4.62978,380985
4.63790,536699
4.64603,601031
4.65415,538976
4.66227,415791
4.67040,331327
4.67852,293362
4.68665,276737
4.69477,253933
4.70288,237757
4.71102,229084
4.71913,212863
4.72725,213867
4.73538,207793
4.74350,202281
4.75163,206069
4.75975,194925
4.76787,192259
4.77600,189772
4.78412,194976
4.79225,241739
4.80037,348300
4.80848,436223
4.81662,431635
4.82473,351633
4.83287,305971
4.84098,296835
4.84910,297890
4.85723,272700
4.86535,250359
4.87347,234588
4.88160,222108
4.88972,214121
4.89785,211920
4.90597,214511
4.91408,235356
4.92222,313727
4.93033,503104
4.93847,764804
4.94658,972871
4.95470,1000950
4.96283,887824
4.97095,714581
4.97907,596695
4.98720,510695
4.99532,447373
5.00345,405444
5.01157,382196
5.01968,409766
5.02782,597569
5.03593,912238
5.04407,1147245
5.05218,1115345
5.06030,890876
5.06843,713101
5.07655,599396
5.08468,528165
5.09280,504091
5.10092,514342
5.10905,560161
5.11717,583776
5.12528,580645
5.13342,516636
5.14153,456209
5.14967,423610
5.15778,438304
5.16590,456193
5.17403,522844
5.18215,567235
5.19028,583006
5.19840,551250
5.20652,496665
5.21465,448181
5.22277,400898
5.23088,374965
5.23902,358474
5.24713,344563
5.25527,332696
5.26338,295126
5.27150,277810
5.27963,270493
5.28775,270280
5.29588,262816
5.30400,256315
5.31212,242040
5.32025,241124
5.32837,240758
5.33650,260461
5.34462,257549
5.35273,259106
5.36087,239663
5.36898,227780
5.37710,222152
5.38523,216980
5.39335,220770
5.40148,212820
5.40960,206870
5.41772,204438
5.42585,197984
5.43397,195204
5.44210,195408
5.45022,191579
5.45833,194793
5.46647,191177
5.47458,183067
5.48272,179720
5.49083,180084
5.49895,177319
5.50708,177500
5.51520,178598
5.52332,184639
5.53145,179115
5.53957,173100
5.54770,179062
5.55582,182234
5.56393,188114
5.57207,206753
5.58018,214846
5.58832,197883
5.59643,190091
5.60455,182869
5.61268,175835
5.62080,172656
5.62892,177573
5.63705,188095
5.64517,184456
5.65330,182098
5.66142,174077
5.66953,173005
5.67767,193296
5.68578,214446
5.69392,239819
5.70203,251229
5.71015,255440
5.71828,256365
5.72640,262182
5.73453,259631
5.74265,249271
5.75077,254839
5.75890,246021
5.76702,261615
5.77513,270077
5.78327,257716
5.79138,242040
5.79952,264219
5.80763,398434
5.81575,729096
5.82388,1207352
5.83200,1669333
5.84013,1740762
5.84825,1422607
5.85637,970124
5.86450,665180
5.87262,473899
5.88075,364613
5.88887,323260
5.89698,284452
5.90512,324997
5.91323,415174
5.92135,585191
5.92948,727496
5.93760,802281
5.94573,696944
5.95385,569413
5.96197,460714
5.97010,397330
5.97822,390129
5.98635,398668
5.99447,381805
6.00258,342174
6.01072,295759
6.01883,253913
6.02695,224913
6.03508,209569
6.04320,190607
6.05133,181880
6.05945,169203
6.06757,163837
6.07570,155123
6.08382,157331
6.09195,147295
6.10007,143249
6.10818,142299
6.11632,151869
6.12443,186705
6.13257,261686
6.14068,398603
6.14880,450958
6.15693,422653
6.16505,350843
6.17317,281760
6.18130,244044
6.18942,234287
6.19755,245458
6.20567,252072
6.21378,246615
6.22192,224616
6.23003,206657
6.23817,198749
6.24628,194344
6.25440,191170
6.26253,190426
6.27065,189152
6.27877,192292
6.28690,190263
6.29502,186080
6.30315,192878
6.31127,190494
6.31938,212456
6.32752,242263
6.33563,282939
6.34377,304604
6.35188,298555
6.36000,272984
6.36813,240463
6.37625,234650
6.38438,216578
6.39250,220954
6.40062,213997
6.40875,210723
6.41687,219742
6.42498,215034
6.43312,221341
6.44123,214812
6.44937,216468
6.45748,227576
6.46560,222023
6.47373,230538
6.48185,234471
6.48998,233371
6.49810,228511
6.50622,239282
6.51435,238434
6.52247,232451
6.53060,243659
6.53872,245991
6.54683,246409
6.55497,254411
6.56308,254769
6.57120,265904
6.57933,275719
6.58745,267266
6.59558,267473
6.60370,254358
6.61182,227525
6.61995,182282
6.62807,150632
6.63620,141990
6.64432,136907
6.65243,143123
6.66057,152403
6.66868,169542
6.67680,187708
6.68493,176806
6.69305,175975
6.70118,187022
6.70930,219887
6.71742,237576
6.72555,233162
6.73367,201293
6.74180,167880
6.74992,140763
6.75803,126591
6.76617,118211
6.77428,107651
6.78242,107267
6.79053,104165
6.79865,108759
6.80678,110077
6.81490,142219
6.82302,216293
6.83115,346182
6.83927,543854
6.84740,768602
6.85552,929026
6.86363,872307
6.87177,650958
6.87988,446393
6.88802,291645
6.89613,200483
6.90425,154436
6.91238,132674
6.92050,120871
6.92863,109379
6.93675,104298
6.94487,99550
6.95300,95805
6.96112,107915
6.96923,123802
6.97737,161765
6.98548,210030
6.99362,273010
7.00173,341596
7.00985,360201
7.01798,354959
7.02610,292732
7.03423,230203
7.04235,175207
7.05047,134838
7.05860,120019
7.06672,106775
7.07483,98082
7.08297,101698
7.09108,105046
7.09922,104916
7.10733,102265
7.11545,101793
7.12358,102725
7.13170,96047
7.13983,105053
7.14795,109301
7.15607,131292
7.16420,161870
7.17232,270282
7.18045,571972
7.18857,1096790
7.19668,1521907
7.20482,1587376
7.21293,1223362
7.22105,728418
7.22918,442815
7.23730,289693
7.24543,244355
7.25355,217392
7.26167,198907
7.26980,170836
7.27792,157105
7.28605,148185
7.29417,140568
7.30228,147982
7.31042,147173
7.31853,142600
7.32665,129717
7.33478,126279
7.34290,137055
7.35103,158765
7.35915,215674
7.36727,253731
7.37540,291964
7.38352,299147
7.39165,274370
7.39977,224326
7.40788,179488
7.41602,151078
7.42413,125368
7.43227,115574
7.44038,116124
7.44850,114013
7.45663,123956
7.46475,153415
7.47287,174536
7.48100,202613
7.48912,200727
7.49725,190557
7.50537,165444
7.51348,144377
7.52162,121544
7.52973,111713
7.53787,100471
7.54598,109113
7.55410,115999
7.56223,131501
7.57035,151851
7.57848,160891
7.58660,169250
7.59472,156922
7.60285,143634
7.61097,125585
7.61908,110642
7.62722,100630
7.63533,97033
7.64347,90814
7.65158,85003
7.65970,86803
7.66783,82683
7.67595,82904
7.68408,83142
7.69220,76214
7.70032,78939
7.70845,76904
7.71657,79826
7.72470,80726
7.73282,81154
7.74093,78306
7.74907,73864
7.75718,77089
7.76530,71528
7.77343,72580
7.78155,73279
7.78968,70986
7.79780,71860
7.80592,75413
7.81405,72122
7.82217,73535
7.83030,73663
7.83842,72468
7.84653,68067
7.85467,66592
7.86278,68802
7.87090,67647
7.87903,71882
7.88715,69594
7.89528,74999
7.90340,75225
7.91152,81449
7.91965,80733
7.92777,84601
7.93590,93508
7.94402,105200
7.95213,104501
7.96027,109302
7.96838,100879
7.97652,81007
7.98463,75882
7.99275,70209
8.00088,67461
8.00900,66265
8.01712,59328
8.02525,62076
8.03337,58016
8.04150,60341
8.04962,62082
8.05773,61596
8.06587,58171
8.07398,59607
8.08212,66092
8.09023,57741
8.09835,57837
8.10648,56067
8.11460,57556
8.12272,55524
8.13085,58254
8.13897,63380
8.14710,65728
8.15522,69400
8.16333,69740
8.17147,67941
8.17958,67509
8.18772,63473
8.19583,59209
8.20395,57095
8.21208,56922
8.22020,56642
8.22833,56604
8.23645,59825
8.24457,58807
8.25270,55490
8.26082,57096
8.26893,52465
8.27707,55535
8.28518,54052
8.29332,54740
8.30143,52050
8.30955,53086
8.31768,51573
8.32580,53222
8.33393,56994
8.34205,61640
8.35017,55112
8.35830,53020
8.36642,53660
8.37455,52357
8.38267,54399
8.39078,50031
8.39892,49679
8.40703,51623
8.41515,52725
8.42328,51222
8.43140,48469
8.43953,49902
8.44765,45953
8.45577,49614
8.46390,47264
8.47202,51182
8.48015,48290
8.48827,46722
8.49638,53218
8.50452,74726
8.51263,128289
8.52075,195566
8.52888,257414
8.53700,270133
8.54513,217264
8.55325,149303
8.56137,106974
8.56950,83509
8.57762,78070
8.58575,70993
8.59387,68508
8.60198,65730
8.61012,60975
8.61823,60484
8.62637,59487
8.63448,59249
8.64260,52504
8.65073,56806
8.65885,56440
8.66697,51819
8.67510,56259
8.68322,51414
8.69135,51697
8.69947,53287
8.70758,55019
8.71572,60679
8.72383,72983
8.73197,104119
8.74008,143846
8.74820,181007
8.75633,191194
8.76445,169298
8.77258,144140
8.78070,118599
8.78882,96244
8.79695,91499
8.80507,93423
8.81318,85528
8.82132,89685
8.82943,82034
8.83757,80553
8.84568,74226
8.85380,75548
8.86193,72238
8.87005,72562
8.87818,70194
8.88630,70125
8.89442,66711
8.90255,63944
8.91067,66791
8.91878,67393
8.92692,73080
8.93503,81033
8.94317,69844
8.95128,69295
8.95940,65607
8.96753,63358
8.97565,59326
8.98378,59734
8.99190,64477
9.00002,60316
9.00815,58874
9.01627,58024
9.02440,55197
9.03252,55253
9.04063,56528
9.04877,53030
9.05688,53818
9.06500,51747
9.07313,56030
9.08125,51508
9.08938,54735
9.09750,60808
9.10562,61288
9.11375,66595
9.12187,64663
9.13000,70814
9.13812,67925
9.14623,56746
9.15437,57260
9.16248,54754
9.17060,52042
9.17873,49659
9.18685,47883
9.19498,51836
9.20310,50399
9.21122,50051
9.21935,48230
9.22747,47884
9.23560,46407
9.24372,51339
9.25183,45333
9.25997,48761
9.26808,52558
9.27622,45908
9.28433,51288
9.29245,49973
9.30058,46872
9.30870,49565
9.31682,48000
9.32495,49328
9.33307,51507
9.34120,55113
9.34932,59079
9.35743,59407
9.36557,55156
9.37368,48139
9.38182,46814
9.38993,44290
9.39805,41462
9.40618,44481
9.41430,48370
9.42243,56737
9.43055,55111
9.43867,59586
9.44680,59155
9.45492,58720
9.46303,56993
9.47117,51601
9.47928,46646
9.48742,47867
9.49553,45628
9.50365,49512
9.51178,56651
9.51990,60734
9.52803,55975
9.53615,57585
9.54427,53760
9.55240,45676
9.56052,45327
9.56863,40892
9.57677,40127
9.58488,39295
9.59302,37840
9.60113,39071
9.60925,37639
9.61738,37100
9.62550,38571
9.63363,41979
9.64175,44370
9.64987,40254
9.65800,38866
9.66612,43916
9.67425,40461
9.68237,37685
9.69048,34577
9.69862,35712
9.70673,39614
9.71485,33780
9.72298,33013
9.73110,33168
9.73923,33175
9.74735,32718
9.75547,34465
9.76360,33594
9.77172,32599
9.77985,33087
9.78797,34893
9.79608,33627
9.80422,34679
9.81233,32241
9.82047,33392
9.82858,32315
9.83670,37478
9.84483,35937
9.85295,38627
9.86107,33848
9.86920,36364
9.87732,35166
9.88545,34694
9.89357,32303
9.90168,32736
9.90982,35871
9.91793,32575
9.92607,37505
9.93418,41722
9.94230,56461
9.95043,57501
9.95855,58289
9.96667,61847
9.97480,60293
9.98292,55039
9.99105,50835
9.99917,51803
10.00728,45504
10.01542,45120
10.02353,38495
10.03167,36273
10.03978,35802
10.04790,38474
10.05603,37443
10.06415,37091
10.07228,38932
10.08040,33570
10.08852,31569
10.09665,35486
10.10477,40668
10.11288,35304
10.12102,32227
10.12913,35949
10.13727,33197
10.14538,31270
10.15350,32346
10.16163,31440
10.16975,32350
10.17788,33262
10.18600,30969
10.19412,32582
10.20225,28816
10.21037,32324
10.21850,36097
10.22662,37706
10.23473,42492
10.24287,45580
10.25098,73936
10.25910,151531
10.26723,335035
10.27535,683482
10.28348,1215757
10.29160,1959025
10.29972,3037337
10.30785,4631055
10.31597,6422805
10.32410,7291184
10.33222,6657988
10.34033,4720630
10.34847,2770037
10.35658,1537120
10.36470,937907
10.37283,714059
10.38095,578749
10.38908,462083
10.39720,363959
10.40532,294305
10.41345,238724
10.42157,208655
10.42970,182984
10.43782,161621
10.44593,151056
10.45407,135701
10.46218,129288
10.47032,122664
10.47843,116494
10.48655,108866
10.49468,98454
10.50280,101907
10.51092,93782
10.51905,94481
10.52717,92385
10.53530,85150
10.54342,94057
10.55153,80331
10.55967,81155
10.56778,88023
10.57592,79243
10.58403,72553
10.59215,72479
10.60028,76046
10.60840,73056
10.61652,65490
10.62465,64878
10.63277,63534
10.64090,65843
10.64902,59909
10.65713,60702
10.66527,59765
10.67338,59580
10.68152,55612
10.68963,56454
10.69775,57294
10.70588,58591
10.71400,59165
10.72213,59448
10.73025,55146
10.73837,56129
10.74650,56585
10.75462,58113
10.76273,57621
10.77087,51811
10.77898,53552
10.78712,51979
10.79523,49165
10.80335,44802
10.81148,47672
10.81960,46810
10.82773,52100
10.83585,42884
10.84397,47325
10.85210,50946
10.86022,45486
10.86835,46133
10.87647,41804
10.88458,43708
10.89272,44609
10.90083,42589
10.90895,40019
10.91708,42471
10.92520,44014
10.93333,45261
10.94145,44772
10.94957,40912
10.95770,40332
10.96582,39714
10.97395,41141
10.98207,41671
10.99018,42119
10.99832,40903
11.00643,37640
11.01455,41981
11.02268,38592
11.03080,43174
11.03893,40396
11.04705,42624
11.05517,40885
11.06330,38315
11.07142,39518
11.07955,41035
11.08767,41190
11.09578,41308
11.10392,41150
11.11203,37776
11.12017,39946
11.12828,38771
11.13640,41931
11.14453,42117
11.15265,37029
11.16077,35334
11.16890,39314
11.17702,37653
11.18515,37393
11.19327,39911
11.20138,39157
11.20952,41679
11.21763,37658
11.22577,37863
11.23388,35509
11.24200,35211
11.25013,33724
11.25825,34752
11.26638,39746
11.27450,51192
11.28262,64456
11.29075,74316
11.29887,84876
11.30698,93637
11.31512,103323
11.32323,125438
11.33137,151533
11.33948,171219
11.34760,196343
11.35573,188217
11.36385,170558
11.37198,144797
11.38010,120596
11.38822,105177
11.39635,87435
11.40447,77894
11.41258,74675
11.42072,68130
11.42883,68736
11.43697,58594
11.44508,58985
11.45320,54872
11.46133,53462
11.46945,64450
11.47758,61829
11.48570,72908
11.49382,73735
11.50195,77394
11.51007,80875
11.51820,79214
11.52632,64632
11.53443,71427
11.54257,70475
11.55068,71349
11.55880,66137
11.56693,65091
11.57505,60820
11.58318,60790
11.59130,67960
11.59942,75668
11.60755,84655
11.61567,83026
11.62380,81382
11.63192,70212
11.64003,65224
11.64817,56121
11.65628,51744
11.66440,50948
11.67253,46920
11.68065,50220
11.68878,52083
11.69690,57523
11.70502,61541
11.71315,69338
11.72127,65610
11.72940,65304
11.73752,61696
11.74563,61528
11.75377,50498
11.76188,54836
11.77002,51702
11.77813,45608
11.78625,44567
11.79438,47745
11.80250,45822
11.81062,47457
11.81875,44170
11.82687,44368
11.83500,42860
11.84312,41219
11.85123,39648
11.85937,41237
11.86748,39314
11.87562,37489
11.88373,37797
11.89185,39191
11.89998,37958
11.90810,39754
11.91623,45752
11.92435,47686
11.93247,51893
11.94060,56775
11.94872,49804
11.95683,47811
11.96497,48540
11.97308,48015
11.98122,44153
11.98933,49891
11.99745,56080
12.00558,64414
12.01370,56929
12.02183,53822
12.02995,48212
12.03807,42169
12.04620,40891
12.05432,37716
12.06243,38075
12.07057,35744
12.07868,35298
12.08682,35441
12.09493,37901
12.10305,41232
12.11118,37788
12.11930,39597
12.12743,37188
12.13555,38052
12.14367,37365
12.15180,35161
12.15992,36427
12.16805,32979
12.17617,35105
12.18428,31252
12.19242,32592
12.20053,33293
12.20865,35418
12.21678,32910
12.22490,29948
12.23303,31557
12.24115,33922
12.24927,33309
12.25740,32632
12.26552,34188
12.27365,31019
12.28177,34280
12.28988,31121
12.29802,34644
12.30613,31039
12.31427,32761
12.32238,32486
12.33050,31545
12.33863,30051
12.34675,29870
12.35487,35363
12.36300,31810
12.37112,32479
12.37925,37769
12.38737,37075
12.39548,52374
12.40362,68108
12.41173,80655
12.41987,89363
12.42798,80015
12.43610,66040
12.44423,59418
12.45235,44992
12.46047,41847
12.46860,39326
12.47672,40952
12.48485,39424
12.49297,33810
12.50108,34321
12.50922,33817
12.51733,34953
12.52547,38547
12.53358,54320
12.54170,58963
12.54983,79698
12.55795,84651
12.56608,88439
12.57420,71782
12.58232,57359
12.59045,52918
12.59857,45150
12.60668,42679
12.61482,37747
12.62293,38139
12.63107,38780
12.63918,39355
12.64730,38135
12.65543,36731
12.66355,34190
12.67168,37274
12.67980,30773
12.68792,28933
12.69605,30371
12.70417,31610
12.71228,29482
12.72042,27876
12.72853,34784
12.73667,30468
12.74478,31412
12.75290,30565
12.76103,29897
12.76915,32406
12.77728,33170
12.78540,34590
12.79352,36337
12.80165,34525
12.80977,36132
12.81790,34967
12.82602,32997
12.83413,32404
12.84227,35166
12.85038,33372
12.85850,30542
12.86663,32945
12.87475,27949
12.88288,27197
12.89100,28397
12.89912,28894
12.90725,28049
12.91537,30755
12.92350,29527
12.93162,33831
12.93973,34921
12.94787,47103
12.95598,59480
12.96412,74738
12.97223,84157
12.98035,90229
12.98848,86473
12.99660,77786
13.00472,66671
13.01285,64715
13.02097,59080
13.02910,55027
13.03722,53277
13.04533,47583
13.05347,44161
13.06158,44902
13.06972,41228
13.07783,37895
13.08595,41307
13.09408,39876
13.10220,36850
13.11033,35586
13.11845,35227
13.12657,34598
13.13470,36016
13.14282,35485
13.15093,35126
13.15907,36946
13.16718,35729
13.17532,33632
13.18343,33712
13.19155,32766
13.19968,34786
13.20780,33746
13.21593,31008
13.22405,34404
13.23217,36395
13.24030,34050
13.24842,35116
13.25653,36014
13.26467,37138
13.27278,40384
13.28092,41316
13.28903,35463
13.29715,39715
13.30528,44373
13.31340,39379
13.32153,41000
13.32965,42297
13.33777,41093
13.34590,40173
13.35402,38298
13.36215,39225
13.37027,33355
13.37838,40526
13.38652,35020
13.39463,33323
13.40275,34083
13.41088,31604
13.41900,35423
13.42713,30764
13.43525,30431
13.44337,32410
13.45150,34082
13.45962,31447
13.46775,30788
13.47587,29718
13.48398,30918
13.49212,31985
13.50023,30941
13.50835,32082
13.51648,30924
13.52460,33131
13.53273,28150
13.54085,34904
13.54897,32556
13.55710,36005
13.56522,37628
13.57335,35868
13.58147,40771
13.58958,48763
13.59772,60530
13.60583,76735
13.61397,93164
13.62208,100199
13.63020,100337
13.63833,87976
13.64645,75417
13.65457,62373
13.66270,55681
13.67082,51792
13.67895,51911
13.68707,44190
13.69518,44543
13.70332,42839
13.71143,42466
13.71957,42000
13.72768,42016
13.73580,46493
13.74393,64159
13.75205,91278
13.76018,124969
13.76830,163097
13.77642,194214
13.78455,196231
13.79267,190789
13.80078,165178
13.80892,143344
13.81703,136049
13.82517,137205
13.83328,145330
13.84140,140553
13.84953,129284
13.85765,107972
13.86578,91617
13.87390,80556
13.88202,75553
13.89015,65587
13.89827,65046
13.90638,65567
13.91452,66590
13.92263,61410
13.93077,56945
13.93888,55144
13.94700,54596
13.95513,53533
13.96325,50018
13.97138,49660
13.97950,48557
13.98762,47979
13.99575,46837
14.00387,46104
14.01200,46626
14.02012,48053
14.02823,44826
14.03637,47803
14.04448,43123
14.05260,42098
14.06073,43347
14.06885,41583
14.07698,41065
14.08510,37575
14.09322,35642
14.10135,36521
14.10947,33811
14.11760,39634
14.12572,46807
14.13383,56961
14.14197,70141
14.15008,77453
14.15822,80881
14.16633,78038
14.17445,78640
14.18258,72874
14.19070,68785
14.19882,61838
14.20695,59966
14.21507,57828
14.22320,58407
14.23132,54324
14.23943,55306
14.24757,53831
14.25568,49257
14.26382,49498
14.27193,48801
14.28005,45199
14.28818,42077
14.29630,42324
14.30442,37443
14.31255,36208
14.32067,31891
14.32880,35637
14.33692,36054
14.34503,34633
14.35317,33205
14.36128,36982
14.36942,39789
14.37753,41073
14.38565,47155
14.39378,67509
14.40190,95747
14.41003,136274
14.41815,147960
14.42627,146828
14.43440,122686
14.44252,100948
14.45063,75135
14.45877,65382
14.46688,54868
14.47502,47976
14.48313,44606
14.49125,42023
14.49938,44688
14.50750,45005
14.51563,44136
14.52375,38721
14.53187,41140
14.54000,35370
14.54812,38071
14.55623,36931
14.56437,35238
14.57248,32638
14.58062,31290
14.58873,34790
14.59685,34935
14.60498,31515
14.61310,30898
14.62123,31565
14.62935,31743
14.63747,31581
14.64560,31549
14.65372,32909
14.66185,31161
14.66997,29028
14.67808,25763
14.68622,27588
14.69433,32019
14.70245,27867
14.71058,29887
14.71870,33449
14.72683,30385
14.73495,26928
14.74307,30041
14.75120,29703
14.75932,34011
14.76745,32601
14.77557,33886
14.78368,52034
14.79182,100145
14.79993,217526
14.80807,455414
14.81618,847802
14.82430,1214210
14.83243,1342432
14.84055,1152288
14.84867,812270
14.85680,533488
14.86492,341154
14.87305,245580
14.88117,180836
14.88928,144157
14.89742,131787
14.90553,116123
14.91367,104726
14.92178,96106
14.92990,90169
14.93803,82060
14.94615,74266
14.95427,72623
14.96240,70803
14.97052,69416
14.97865,62745
14.98677,63014
14.99488,61732
15.00302,59755
15.01113,57677
15.01927,53185
15.02738,50865
15.03550,54200
15.04363,47558
15.05175,48865
15.05988,49118
15.06800,46568
15.07612,49016
15.08425,46796
15.09237,44217
15.10048,42007
15.10862,47753
15.11673,47738
15.12487,49044
15.13298,48641
15.14110,50263
15.14923,43875
15.15735,45241
15.16548,44341
15.17360,37792
15.18172,40251
15.18985,37900
15.19797,34459
15.20610,37529
15.21422,35959
15.22233,33387
15.23047,32687
15.23858,36249
15.24670,31400
15.25483,33179
15.26295,33075
15.27108,33662
15.27920,32199
15.28732,32577
15.29545,31090
15.30357,31305
15.31170,33759
15.31982,33737
15.32793,32109
15.33607,33918
15.34418,28208
15.35230,31073
15.36043,32072
15.36855,30769
15.37668,32344
15.38480,29963
15.39292,33357
15.40105,29543
15.40917,29382
15.41730,29526
15.42542,31268
15.43353,30971
15.44167,29474
15.44978,32543
15.45792,28168
15.46603,34779
15.47415,41850
15.48228,47285
15.49040,51420
15.49852,56131
15.50665,62014
15.51477,56470
15.52290,52521
15.53102,55693
15.53913,44288
15.54727,41581
15.55538,38779
15.56352,35984
15.57163,31893
15.57975,33599
15.58788,31933
15.59600,36175
15.60413,33382
15.61225,35254
15.62037,31820
15.62850,30631
15.63662,32623
15.64473,28059
15.65287,28139
15.66098,33838
15.66912,30354
15.67723,27267
15.68535,28872
15.69348,27550
15.70160,27782
15.70973,35857
15.71785,30595
15.72597,32211
15.73410,30690
15.74222,35684
15.75033,38379
15.75847,54030
15.76658,68456
15.77472,94548
15.78283,109503
15.79095,108376
15.79908,97454
15.80720,79775
15.81533,64580
15.82345,50862
15.83157,46332
15.83970,42239
15.84782,38950
15.85595,40279
15.86407,42635
15.87218,44221
15.88032,42466
15.88843,45068
15.89655,44103
15.90468,43471
15.91280,41712
15.92093,36755
15.92905,35000
15.93717,33602
15.94530,37272
15.95342,33197
15.96155,39244
15.96967,38384
15.97778,36749
15.98592,42345
15.99403,37032
16.00215,40247
16.01028,42099
16.01840,39811
16.02653,39936
16.03465,37224
16.04277,38249
16.05090,32508
16.05902,33099
16.06715,32403
16.07527,30369
16.08338,34593
16.09152,26907
16.09963,28338
16.10777,29639
16.11588,27279
16.12400,29813
16.13213,34222
16.14025,32974
16.14837,29907
16.15650,31855
16.16462,30747
16.17275,31018
16.18087,36796
16.18898,32098
16.19712,27724
16.20523,31005
16.21337,31612
16.22148,28645
16.22960,26181
16.23773,30461
16.24585,28240
16.25398,31417
16.26210,27510
16.27022,29642
16.27835,29121
16.28647,28197
16.29458,27595
16.30272,30647
16.31083,32506
16.31897,29556
16.32708,27540
16.33520,30236
16.34333,33250
16.35145,32754
16.35958,31836
16.36770,32014
16.37582,32391
16.38395,32755
16.39207,34697
16.40018,28643
16.40832,32260
16.41643,28017
16.42457,27817
16.43268,33001
16.44080,36266
16.44893,47787
16.45705,65290
16.46518,96311
16.47330,114011
16.48142,125186
16.48955,116672
16.49767,91717
16.50580,74377
16.51392,61846
16.52203,53432
16.53017,44281
16.53828,41611
16.54640,43290
16.55453,35038
16.56265,35907
16.57078,37987
16.57890,37248
16.58702,38716
16.59515,35859
16.60327,34587
16.61140,36950
16.61952,36148
16.62763,34303
16.63577,37867
16.64388,37401
16.65202,35924
16.66013,33102
16.66825,30699
16.67638,31381
16.68450,33540
16.69262,29315
16.70075,29229
16.70887,32324
16.71700,30648
16.72512,27784
16.73323,30495
16.74137,33819
16.74948,30544
16.75762,30231
16.76573,29923
16.77385,32083
16.78198,30881
16.79010,29256
16.79822,28631
16.80635,27166
16.81447,29124
16.82260,28773
16.83072,28032
16.83883,29012
16.84697,27901
16.85508,26100
16.86322,28884
16.87133,35731
16.87945,27572
16.88758,32715
16.89570,28396
16.90383,27166
16.91195,26801
16.92007,28142
16.92820,26934
16.93632,28423
16.94443,29959
16.95257,29247
16.96068,29071
16.96882,26677
16.97693,27404
16.98505,28009
16.99318,28319
17.00130,29068
17.00943,30111
17.01755,30573
17.02567,27916
17.03380,30983
17.04192,31190
17.05003,29891
17.05817,30413
17.06628,28711
17.07442,27096
17.08253,29601
17.09065,31590
17.09878,34036
17.10690,33365
17.11503,32501
17.12315,32626
17.13127,35579
17.13940,30912
17.14752,32259
17.15565,29155
17.16377,31015
17.17188,26711
17.18002,28757
17.18813,26787
17.19625,28607
17.20438,27981
17.21250,25929
17.22063,25685
17.22875,27461
17.23687,31264
17.24500,27351
17.25312,25836
17.26125,28314
17.26937,25599
17.27748,29820
17.28562,22710
17.29373,27455
17.30187,27580
17.30998,28607
17.31810,30950
17.32623,28662
17.33435,31612
17.34247,27444
17.35060,35117
17.35872,34558
17.36685,35697
17.37497,36913
17.38308,37708
17.39122,38477
17.39933,35994
17.40747,35885
17.41558,34023
17.42370,30576
17.43183,33180
17.43995,30383
17.44807,31537
17.45620,32394
17.46432,30184
17.47245,28755
17.48057,29443
17.48868,31754
17.49682,34913
17.50493,33050
17.51307,32630
17.52118,38552
17.52930,39514
17.53743,38312
17.54555,41457
17.55368,47496
17.56180,54086
17.56992,75479
17.57805,97957
17.58617,115763
17.59428,139419
17.60242,143447
17.61053,138439
17.61867,123800
17.62678,94882
17.63490,74565
17.64303,65945
17.65115,62010
17.65928,57605
17.66740,54771
17.67552,58540
17.68365,50116
17.69177,52465
17.69990,49004
17.70802,47407
17.71613,46013
17.72427,45253
17.73238,38851
17.74050,42436
17.74863,43814
17.75675,37711
17.76488,37991
17.77300,37323
17.78112,37126
17.78925,37266
17.79737,36177
17.80550,35952
17.81362,37027
17.82173,37775
17.82987,39758
17.83798,40725
17.84610,39790
17.85423,43571
17.86235,42828
17.87048,50525
17.87860,42802
17.88672,42992
17.89485,36146
17.90297,32532
17.91110,34398
17.91922,36333
17.92733,33334
17.93547,29938
17.94358,31337
17.95172,31918
17.95983,29719
17.96795,28432
17.97608,31529
17.98420,31896
17.99232,31442
18.00045,33620
18.00857,37514
18.01670,43062
18.02482,46982
18.03293,48249
18.04107,50746
18.04918,67619
18.05732,102438
18.06543,178643
18.07355,249037
18.08168,340070
18.08980,395176
18.09792,442699
18.10605,449200
18.11417,431184
18.12230,407546
18.13042,387044
18.13853,374691
18.14667,373484
18.15478,364526
18.16292,358982
18.17103,346547
18.17915,340952
18.18728,345259
18.19540,327777
18.20353,318655
18.21165,315730
18.21977,302932
18.22790,305761
18.23602,299328
18.24413,282449
18.25227,285307
18.26038,277516
18.26852,259249
18.27663,261526
18.28475,248752
18.29288,244558
18.30100,254459
18.30913,240390
18.31725,232978
18.32537,229362
18.33350,228379
18.34162,211569
18.34975,219104
18.35787,203686
18.36598,212075
18.37412,201535
18.38223,196545
18.39035,185558
18.39848,184521
18.40660,181743
18.41473,187901
18.42285,178926
18.43097,179338
18.43910,188914
18.44722,191507
18.45535,195981
18.46347,206409
18.47158,211502
18.47972,214080
18.48783,207025
18.49597,193226
18.50408,176990
18.51220,167190
18.52033,155178
18.52845,148673
18.53657,149741
18.54470,142723
18.55282,140701
18.56095,137563
18.56907,127001
18.57718,130567
18.58532,130332
18.59343,128117
18.60157,129529
18.60968,122229
18.61780,118375
18.62593,126221
18.63405,120380
18.64217,113680
18.65030,116945
18.65842,109178
18.66655,110783
18.67467,105295
18.68278,103392
18.69092,101329
18.69903,101527
18.70717,101362
18.71528,100657
18.72340,90409
18.73153,92763
18.73965,91564
18.74778,93301
18.75590,90498
18.76402,89264
18.77215,83321
18.78027,88021
18.78838,83920
18.79652,83787
18.80463,79570
18.81277,83084
18.82088,79857
18.82900,80457
18.83713,78808
18.84525,77780
18.85338,76711
18.86150,76411
18.86962,73209
18.87775,72237
18.88587,75075
18.89398,74506
18.90212,77598
18.91023,69387
18.91837,73753
18.92648,71948
18.93460,71903
18.94273,72691
18.95085,72046
18.95898,70435
18.96710,66397
18.97522,67811
18.98335,66987
18.99147,63816
18.99960,62123
19.00772,60489
19.01583,62006
19.02397,59064
19.03208,63855
19.04020,58669
19.04833,60284
19.05645,60532
19.06458,65859
19.07270,63067
19.08082,70277
19.08895,74346
19.09707,79961
19.10520,77443
19.11332,77292
19.12143,72335
19.12957,72176
19.13768,71339
19.14582,68655
19.15393,64763
19.16205,69003
19.17018,67349
19.17830,62731
19.18642,61717
19.19455,58560
19.20267,54444
19.21080,53683
19.21892,52253
19.22703,50684
19.23517,50534
19.24328,52813
19.25142,49226
19.25953,52182
19.26765,50446
19.27578,51406
19.28390,50699
19.29202,51428
19.30015,49301
19.30827,49969
19.31640,48940
19.32452,49457
19.33263,49305
19.34077,47065
19.34888,52621
19.35702,53120
19.36513,58490
19.37325,59617
19.38138,55536
19.38950,57916
19.39763,51087
19.40575,45279
19.41387,50621
19.42200,54676
19.43012,59757
19.43823,67226
19.44637,72578
19.45448,73725
19.46262,75621
19.47073,68045
19.47885,58136
19.48698,51438
19.49510,52276
19.50323,50801
19.51135,48364
19.51947,48736
19.52760,47282
19.53572,46686
19.54385,42951
19.55197,47320
19.56008,44092
19.56822,44456
19.57633,42767
19.58445,44173
19.59258,37212
19.60070,38751
19.60883,44975
19.61695,49374
19.62507,58911
19.63320,83403
19.64132,109466
19.64945,130981
19.65757,150647
19.66568,157838
19.67382,143338
19.68193,127833
19.69005,116237
19.69818,97053
19.70630,84435
19.71443,77781
19.72255,70266
19.73067,61518
19.73880,59580
19.74692,57060
19.75505,53607
19.76317,51315
19.77128,47271
19.77942,57558
19.78753,56443
19.79567,54076
19.80378,53364
19.81190,50738
19.82003,45801
19.82815,50394
19.83627,45279
19.84440,51528
19.85252,60943
19.86065,90811
19.86877,161539
19.87688,266431
19.88502,417356
19.89313,587717
19.90127,691812
19.90938,654533
19.91750,556602
19.92563,406172
19.93375,286998
19.94187,204710
19.95000,161672
19.95812,147405
19.96625,129341
19.97437,119114
19.98248,112459
19.99062,109158
19.99873,103127
20.00687,98154
20.01498,97162
20.02310,93353
20.03123,83536
20.03935,82883
20.04748,78498
20.05560,72102
20.06372,71670
20.07185,62315
20.07997,63524
20.08808,62380
20.09622,60223
20.10433,60379
20.11247,58254
20.12058,53985
20.12870,52697
20.13683,51944
20.14495,53076
20.15308,54023
20.16120,55742
20.16932,62090
20.17745,60938
20.18557,62374
20.19370,64374
20.20182,64438
20.20993,60733
20.21807,64342
20.22618,74516
20.23430,96778
20.24243,105544
20.25055,129768
20.25868,130995
20.26680,128367
20.27492,117346
20.28305,105385
20.29117,91653
20.29930,72104
20.30742,66611
20.31553,61037
20.32367,56379
20.33178,50390
20.33990,48429
20.34803,42637
20.35615,42154
20.36428,42145
20.37240,44151
20.38052,42738
20.38865,49017
20.39677,48236
20.40490,50080
20.41302,51923
20.42113,55291
20.42927,54894
20.43738,56168
20.44552,53530
20.45363,44833
20.46175,44480
20.46988,38754
20.47800,42018
20.48612,40363
20.49425,38834
20.50237,38259
20.51050,38066
20.51862,37527
20.52673,41739
20.53487,39470
20.54298,36589
20.55112,38702
20.55923,38939
20.56735,39481
20.57548,37112
20.58360,36555
20.59173,40589
20.59985,35873
20.60797,36423
20.61610,35055
20.62422,36083
20.63233,35401
20.64047,36733
20.64858,32516
20.65672,38634
20.66483,38204
20.67295,36239
20.68108,38548
20.68920,36443
20.69733,37485
20.70545,34004
20.71357,33915
20.72170,33478
20.72982,35248
20.73793,37496
20.74607,37179
20.75418,35569
20.76232,37786
20.77043,45168
20.77855,44718
20.78668,54485
20.79480,67290
20.80293,79530
20.81105,96007
20.81917,92335
20.82730,83563
20.83542,75576
20.84355,66769
20.85167,51730
20.85978,50326
20.86792,44522
20.87603,41806
20.88415,43370
20.89228,46353
20.90040,39560
20.90853,39570
20.91665,40278
20.92477,38655
20.93290,36049
20.94102,36131
20.94915,40831
20.95727,37014
20.96538,35798
20.97352,33938
20.98163,33566
20.98975,34817
20.99788,35596
21.00600,32548
21.01413,37227
21.02225,34479
21.03037,31779
21.03850,36358
21.04662,33087
21.05475,35803
21.06287,33610
21.07098,32945
21.07912,37672
21.08723,34134
21.09537,33897
21.10348,31620
21.11160,34285
21.11973,35972
21.12785,40247
21.13597,51398
21.14410,55378
21.15222,60077
21.16035,60907
21.16847,59482
21.17658,51542
21.18472,49922
21.19283,46184
21.20097,39991
21.20908,41313
21.21720,43254
21.22533,44601
21.23345,49970
21.24158,49000
21.24970,48377
21.25782,53735
21.26595,53630
21.27407,54139
21.28218,52051
21.29032,51379
21.29843,48877
21.30657,50282
21.31468,54177
21.32280,48347
21.33093,52188
21.33905,52198
21.34718,49333
21.35530,50733
21.36342,45971
21.37155,51179
21.37967,52438
21.38778,46901
21.39592,54740
21.40403,50106
21.41217,54653
21.42028,52765
21.42840,54564
21.43653,51394
21.44465,52640
21.45278,50580
21.46090,53173
21.46902,53282
21.47715,54639
21.48527,56088
21.49340,52029
21.50152,54679
21.50963,52380
21.51777,56488
21.52588,52919
21.53400,49167
21.54213,50144
21.55025,52048
21.55838,52160
21.56650,59304
21.57462,60760
21.58275,73136
21.59087,77499
21.59900,80965
21.60712,77127
21.61523,69293
21.62337,61214
21.63148,62157
21.63962,51361
21.64773,53016
21.65585,51116
21.66398,49008
21.67210,46757
21.68022,48082
21.68835,46144
21.69647,42366
21.70460,44747
21.71272,43200
21.72083,43715
21.72897,40662
21.73708,40785
21.74522,43186
21.75333,38892
21.76145,42959
21.76958,48842
21.77770,56223
21.78582,55850
21.79395,57545
21.80207,58255
21.81020,52892
21.81832,46797
21.82643,44366
21.83457,42624
21.84268,44514
21.85082,35792
21.85893,39848
21.86705,34929
21.87518,36330
21.88330,38716
21.89143,37388
21.89955,38640
21.90767,45056
21.91580,49076
21.92392,70813
21.93203,95808
21.94017,108777
21.94828,112776
21.95642,115395
21.96453,117061
21.97265,127181
21.98078,123257
21.98890,119629
21.99703,123970
22.00515,125939
22.01327,121313
22.02140,125861
22.02952,123630
22.03765,117878
22.04577,123004
22.05388,124824
22.06202,121790
22.07013,121732
22.07825,119411
22.08638,113503
22.09450,112377
22.10263,113515
22.11075,110384
22.11887,105866
22.12700,102413
22.13512,102285
22.14325,102154
22.15137,100090
22.15948,98258
22.16762,98461
22.17573,94496
22.18385,101613
22.19198,93457
22.20010,87510
22.20823,91071
22.21635,86643
22.22447,80447
22.23260,82678
22.24072,82253
22.24885,77138
22.25697,77432
22.26508,75061
22.27322,78267
22.28133,76507
22.28947,82005
22.29758,74199
22.30570,71995
22.31383,76154
22.32195,74834
22.33007,70628
22.33820,67601
22.34632,66883
22.35445,67527
22.36257,65156
22.37068,59233
22.37882,63156
22.38693,70777
22.39507,71399
22.40318,68187
22.41130,76730
22.41943,71586
22.42755,75124
22.43567,68734
22.44380,63143
22.45192,59599
22.46005,56675
22.46817,57701
22.47628,58074
22.48442,58625
22.49253,58979
22.50067,64819
22.50878,58596
22.51690,60304
22.52503,51948
22.53315,52366
22.54128,49122
22.54940,47954
22.55752,49170
22.56565,47937
22.57377,48481
22.58188,46738
22.59002,43881
22.59813,43603
22.60627,40068
22.61438,41547
22.62250,40796
22.63063,39480
22.63875,40627
22.64688,39076
22.65500,41558
22.66312,42485
22.67125,46281
22.67937,42601
22.68750,49641
22.69562,53888
22.70373,54970
22.71187,62146
22.71998,56896
22.72810,54278
22.73623,59141
22.74435,48089
22.75248,45677
22.76060,43607
22.76872,44694
22.77685,49709
22.78497,51333
22.79310,54320
22.80122,54346
22.80933,54823
22.81747,59504
22.82558,53789
22.83370,46807
22.84183,48741
22.84995,46737
22.85808,43028
22.86620,49664
22.87432,47720
22.88245,52974
22.89057,59542
22.89870,70834
22.90682,89537
22.91493,112057
22.92307,125223
22.93118,147173
22.93932,144018
22.94743,124348
22.95555,108706
22.96368,96473
22.97180,86400
22.97992,83743
22.98805,80149
22.99617,69102
23.00430,69938
23.01242,59146
23.02053,56775
23.02867,54246
23.03678,49162
23.04492,48832
23.05303,43747
23.06115,45932
23.06928,45742
23.07740,44645
23.08553,42002
23.09365,42486
23.10177,43386
23.10990,45452
23.11802,38506
23.12613,39560
23.13427,41240
23.14238,40500
23.15052,37578
23.15863,35657
23.16675,36616
23.17488,37439
23.18300,40968
23.19113,41747
23.19925,39514
23.20737,34867
23.21550,36453
23.22362,35899
23.23173,37357
23.23987,38574
23.24798,40246
23.25612,36344
23.26423,40061
23.27235,39495
23.28048,41339
23.28860,38062
23.29673,37944
23.30485,36421
23.31297,35836
23.32110,38649
23.32922,37098
23.33735,36924
23.34547,44013
23.35358,47943
23.36172,49965
23.36983,52307
23.37795,53337
23.38608,48794
23.39420,48026
23.40233,44883
23.41045,41152
23.41857,45631
23.42670,40709
23.43482,41371
23.44295,41199
23.45107,33500
23.45918,36015
23.46732,36149
23.47543,34791
23.48355,34561
23.49168,36601
23.49980,37676
23.50793,37295
23.51605,34144
23.52417,33351
23.53230,32499
23.54042,35365
23.54855,38137
23.55667,34633
23.56478,43920
23.57292,44881
23.58103,52092
23.58917,58578
23.59728,64031
23.60540,67098
23.61353,66529
23.62165,59779
23.62977,52345
23.63790,47905
23.64602,50994
23.65415,52454
23.66227,51774
23.67038,59098
23.67852,76682
23.68663,91844
23.69477,106545
23.70288,123903
23.71100,127829
23.71913,133212
23.72725,146015
23.73538,193019
23.74350,286290
23.75162,510174
23.75975,923088
23.76787,1500266
23.77598,2135922
23.78412,2495086
23.79223,2506398
23.80037,2152954
23.80848,1716954
23.81660,1302500
23.82473,1003020
23.83285,799609
23.84098,647471
23.84910,542597
23.85722,468674
23.86535,408524
23.87347,375003
23.88160,339642
23.88972,309421
23.89783,283178
23.90597,273441
23.91408,253692
23.92220,240452
23.93033,224223
23.93845,220746
23.94658,217389
23.95470,200193
23.96282,188870
23.97095,180761
23.97907,167034
23.98720,168876
23.99532,165326
24.00343,159595
24.01157,155829
24.01968,154432
24.02780,155510
24.03593,154161
24.04405,157199
24.05218,152134
24.06030,145297
24.06842,144922
24.07655,138095
24.08467,138391
24.09280,125718
24.10092,121839
24.10903,117024
24.11717,117618
24.12528,120701
24.13342,119801
24.14153,121774
24.14965,126337
24.15778,125124
24.16590,123625
24.17402,115564
24.18215,110693
24.19027,109144
24.19840,102262
24.20652,97107
24.21463,98005
24.22277,92331
24.23088,85828
24.23902,84616
24.24713,87248
24.25525,80862
24.26338,77237
24.27150,76942
24.27962,74736
24.28775,73259
24.29587,76640
24.30400,79237
24.31212,81998
24.32023,89473
24.32837,93535
24.33648,92128
24.34462,95093
24.35273,81694
24.36085,75429
24.36898,66202
24.37710,65048
24.38523,66472
24.39335,64836
24.40147,60804
24.40960,67018
24.41772,72215
24.42583,74856
24.43397,81566
24.44208,86372
24.45022,85184
24.45833,89902
24.46645,77666
24.47458,75909
24.48270,70336
24.49083,66717
24.49895,60163
24.50707,59018
24.51520,57488
24.52332,58757
24.53145,59524
24.53957,65452
24.54768,63929
24.55582,69148
24.56393,66643
24.57205,62586
24.58018,58121
24.58830,56631
24.59643,53338
24.60455,51557
24.61267,50985
24.62080,55745
24.62892,49835
24.63705,45788
24.64517,49986
24.65328,47647
24.66142,46375
24.66953,51537
24.67765,46077
24.68578,42772
24.69390,44685
24.70203,49313
24.71015,42442
24.71827,41704
24.72640,44063
24.73452,40779
24.74265,45536
24.75077,43940
24.75888,43647
24.76702,43186
24.77513,46416
24.78327,46877
24.79138,50452
24.79950,47435
24.80763,47479
24.81575,48952
24.82387,58532
24.83200,53418
24.84012,59188
24.84825,69970
24.85637,79717
24.86448,93832
24.87262,106109
24.88073,119339
24.88887,117653
24.89698,113721
24.90510,115494
24.91323,118501
24.92135,125974
24.92948,144294
24.93760,150795
24.94572,152090
24.95385,160101
24.96197,159886
24.97008,159807
24.97822,160088
24.98633,155784
24.99447,145100
25.00258,151636
25.01070,154433
25.01883,149392
25.02695,151223
25.03508,143706
25.04320,149332
25.05132,144473
25.05945,143467
25.06757,135860
25.07568,143098
25.08382,145533
25.09193,157674
25.10007,185235
25.10818,257231
25.11630,363138
25.12443,503583
25.13255,684295
25.14068,834455
25.14880,833422
25.15692,734720
25.16505,560984
25.17317,416875
25.18130,311321
25.18942,227430
25.19753,196320
25.20567,171916
25.21378,152874
25.22190,145252
25.23003,157463
25.23815,188369
25.24628,209583
25.25440,246777
25.26252,275150
25.27065,288195
25.27877,280344
25.28690,232256
25.29502,188777
25.30313,165739
25.31127,125432
25.31938,116097
25.32750,108734
25.33563,108489
25.34375,94997
25.35188,93411
25.36000,88523
25.36812,88577
25.37625,83611
25.38437,84160
25.39250,84874
25.40062,86771
25.40873,81390
25.41687,78542
25.42498,78893
25.43312,72824
25.44123,68984
25.44935,63671
25.45748,70475
25.46560,68119
25.47372,67624
25.48185,63574
25.48997,64104
25.49810,63629
25.50622,67454
25.51433,65914
25.52247,65303
25.53058,63139
25.53872,51102
25.54683,56543
25.55495,62380
25.56308,58924
25.57120,58601
25.57933,53125
25.58745,55335
25.59557,51376
25.60370,56342
25.61182,52861
25.61993,53509
25.62807,50473
25.63618,54235
25.64432,52823
25.65243,48430
25.66055,52504
25.66868,45885
25.67680,48952
25.68493,48100
25.69305,51608
25.70117,45555
25.70930,45269
25.71742,48476
25.72553,50001
25.73367,52421
25.74178,45875
25.74992,45655
25.75803,47117
25.76615,47092
25.77428,43398
25.78240,44798
25.79053,46574
25.79865,42880
25.80677,44227
25.81490,46764
25.82302,42372
25.83115,44299
25.83927,46851
25.84738,47020
25.85552,43819
25.86363,44247
25.87175,45059
25.87988,38223
25.88800,42001
25.89613,44165
25.90425,39902
25.91237,39057
25.92050,42427
25.92862,42128
25.93675,43804
25.94487,40679
25.95298,38724
25.96112,40501
25.96923,40252
25.97737,40074
25.98548,39129
25.99360,37301
26.00173,36410
26.00985,37496
26.01797,40037
26.02610,38417
26.03422,37646
26.04235,34708
26.05047,42192
26.05858,40929
26.06672,39153
26.07483,38936
26.08297,37550
26.09108,37913
26.09920,38181
26.10733,37861
26.11545,40432
26.12357,39487
26.13170,42676
26.13982,42373
26.14795,40784
26.15607,44118
26.16418,44853
26.17232,44557
26.18043,45236
26.18857,46133
26.19668,44086
26.20480,42774
26.21293,39349
26.22105,43379
26.22918,43191
26.23730,40304
26.24542,37410
26.25355,39296
26.26167,38652
26.26978,42506
26.27792,38059
26.28603,37627
26.29417,41435
26.30228,37100
26.31040,36730
26.31853,37407
26.32665,40311
26.33478,37962
26.34290,40991
26.35102,39116
26.35915,35537
26.36727,41881
26.37538,40802
26.38352,40918
26.39163,40102
26.39977,42497
26.40788,47274
26.41600,42067
26.42413,39456
26.43225,37604
26.44038,37593
26.44850,36961
26.45662,41098
26.46475,36870
26.47287,42250
26.48100,40688
26.48912,36146
26.49723,37646
26.50537,38003
26.51348,39682
26.52160,41727
26.52973,32228
26.53785,35356
26.54598,34769
26.55410,35247
26.56222,32052
26.57035,35905
26.57847,31955
26.58660,31664
26.59472,36797
26.60283,35537
26.61097,34267
26.61908,35238
26.62722,34256
26.63533,34856
26.64345,34214
26.65158,37574
26.65970,35979
26.66782,37372
26.67595,35527
26.68407,38502
26.69220,33913
26.70032,36261
26.70843,33933
26.71657,35450
26.72468,33886
26.73282,35174
26.74093,35711
26.74905,34987
26.75718,36622
26.76530,32791
26.77342,32685
26.78155,39872
26.78967,38854
26.79780,40508
26.80592,38703
26.81403,33871
26.82217,33294
26.83028,34759
26.83842,32975
26.84653,31081
26.85465,32087
26.86278,31889
26.87090,31450
26.87903,31506
26.88715,30929
26.89527,31303
26.90340,34257
26.91152,35499
26.91963,33328
26.92777,35488
26.93588,39031
26.94402,51642
26.95213,78946
26.96025,114143
26.96838,180328
26.97650,279131
26.98463,380246
26.99275,469147
27.00087,530971
27.00900,498291
27.01712,468728
27.02525,396958
27.03337,323405
27.04148,251519
27.04962,201088
27.05773,169148
27.06585,145792
27.07398,115839
27.08210,102363
27.09023,94340
27.09835,88924
27.10647,82637
27.11460,75929
27.12272,76476
27.13085,71296
27.13897,69817
27.14708,70664
27.15522,69647
27.16333,68821
27.17145,73941
27.17958,74090
27.18770,68154
27.19583,63140
27.20395,53299
27.21207,56352
27.22020,54602
27.22832,52019
27.23645,52476
27.24457,53276
27.25268,47907
27.26082,43873
27.26893,48622
27.27707,44172
27.28518,43941
27.29330,45888
27.30143,43521
27.30955,43060
27.31767,43322
27.32580,42183
27.33392,43734
27.34205,42570
27.35017,41753
27.35828,43285
27.36642,41359
27.37453,41245
27.38267,47525
27.39078,43787
27.39890,43345
27.40703,41534
27.41515,41364
27.42328,41843
27.43140,39479
27.43952,43174
27.44765,44551
27.45577,43656
27.46388,41538
27.47202,39694
27.48013,43412
27.48827,37519
27.49638,43781
27.50450,37479
27.51263,40366
27.52075,38748
27.52888,41642
27.53700,40689
27.54512,39908
27.55325,36778
27.56137,39222
27.56948,41881
27.57762,44412
27.58573,41021
27.59387,41314
27.60198,42846
27.61010,37680
27.61823,36087
27.62635,34959
27.63448,38101
27.64260,38813
27.65072,36118
27.65885,36291
27.66697,38135
27.67510,38065
27.68322,36272
27.69133,35599
27.69947,33232
27.70758,34922
27.71570,35970
27.72383,37977
27.73195,39578
27.74008,42134
27.74820,42536
27.75632,40221
27.76445,44201
27.77257,41951
27.78070,43275
27.78882,42972
27.79693,42068
27.80507,38515
27.81318,36766
27.82130,35789
27.82943,36163
27.83755,35633
27.84568,33365
27.85380,33668
27.86192,34887
27.87005,37518
27.87817,33012
27.88630,33064
27.89442,33782
27.90253,30680
27.91067,32897
27.91878,31280
27.92692,31773
27.93503,31249
27.94315,32924
27.95128,30271
27.95940,37097
27.96752,33031
27.97565,34647
27.98377,36310
27.99190,38017
28.00002,39549
28.00813,45249
28.01627,40484
28.02438,40443
28.03252,41827
28.04063,49419
28.04875,42106
28.05688,42549
28.06500,40108
28.07313,38513
28.08125,37301
28.08937,35791
28.09750,41585
28.10562,45295
28.11373,50189
28.12187,51896
28.12998,47061
28.13812,44328
28.14623,43089
28.15435,37216
28.16248,37246
28.17060,36823
28.17873,33481
28.18685,36184
28.19497,37561
28.20310,37925
28.21122,37983
28.21933,40213
28.22747,37377
28.23558,33454
28.24372,37756
28.25183,36545
28.25995,50171
28.26808,55476
28.27620,66182
28.28433,83900
28.29245,93566
28.30057,122310
28.30870,123044
28.31682,124696
28.32495,128633
28.33307,127392
28.34118,123100
28.34932,107624
28.35743,99507
28.36555,93485
28.37368,90719
28.38180,80947
28.38993,72261
28.39805,71589
28.40617,63591
28.41430,56705
28.42242,55172
28.43055,54103
28.43867,48596
28.44678,46609
28.45492,50811
28.46303,47561
28.47117,44312
28.47928,42304
28.48740,41234
28.49553,45328
28.50365,39219
28.51177,39623
28.51990,42479
28.52802,38241
28.53615,38363
28.54427,40775
28.55238,41196
28.56052,33724
28.56863,36635
28.57677,36916
28.58488,34340
28.59300,38181
28.60113,37288
28.60925,35382
28.61737,37345
28.62550,35578
28.63362,36141
28.64175,41901
28.64987,42972
28.65798,43498
28.66612,45738
28.67423,46536
28.68237,43830
28.69048,47768
28.69860,49030
28.70673,43099
28.71485,44988
28.72298,38829
28.73110,36774
28.73922,36638
28.74735,33455
28.75547,34551
28.76358,33460
28.77172,33003
28.77983,33636
28.78797,36672
28.79608,32524
28.80420,36196
28.81233,32476
28.82045,30540
28.82858,35145
28.83670,32864
28.84482,30081
28.85295,33680
28.86107,31097
28.86918,34637
28.87732,36249
28.88543,36387
28.89357,35258
28.90168,37746
28.90980,33837
28.91793,35843
28.92605,33658
28.93418,35636
28.94230,33768
28.95042,37409
28.95855,35851
28.96667,35579
28.97480,39015
28.98292,36306
28.99103,36223
28.99917,30919
29.00728,32175
29.01540,33847
29.02353,29182
29.03165,32021
29.03978,30958
29.04790,32418
29.05602,35212
29.06415,34312
29.07227,32393
29.08040,38489
29.08852,33803
29.09663,33819
29.10477,33963
29.11288,31782
29.12102,35644
29.12913,34768
29.13725,30465
29.14538,30789
29.15350,33426
29.16162,31244
29.16975,34322
29.17787,32571
29.18600,34140
29.19412,35967
29.20223,39869
29.21037,41157
29.21848,38596
29.22662,41586
29.23473,39535
29.24285,41497
29.25098,39326
29.25910,35821
29.26723,37896
29.27535,34223
29.28347,33762
29.29160,29899
29.29972,30451
29.30783,32730
29.31597,30449
29.32408,28894
29.33222,30787
29.34033,32124
29.34845,29591
29.35658,28913
29.36470,29748
29.37283,26004
29.38095,33424
29.38907,31093
29.39720,30930
29.40532,32072
29.41343,28419
29.42157,33147
29.42968,32569
29.43782,30551
29.44593,31603
29.45405,31284
29.46218,32339
29.47030,30197
29.47843,30381
29.48655,33317
29.49467,33280
29.50280,38344
29.51092,34499
29.51905,35185
29.52717,32818
29.53528,27631
29.54342,30350
29.55153,27123
29.55965,31242
29.56778,34716
29.57590,30745
29.58403,34722
29.59215,35107
29.60027,35609
29.60840,34921
29.61652,34501
29.62465,30373
29.63277,36134
29.64088,33070
29.64902,29745
29.65713,29645
29.66525,30740
29.67338,32091
29.68150,29991
29.68963,28760
29.69775,29271
29.70587,30006
29.71400,32116
29.72212,29511
29.73025,30296
29.73837,29528
29.74648,33443
29.75462,28877
29.76273,30956
29.77087,29565
29.77898,32737
29.78710,28312
29.79523,26802
29.80335,27627
29.81147,27358
29.81960,32443
29.82772,30957
29.83585,28946
29.84397,27382
29.85208,29801
29.86022,31042
29.86833,38355
29.87647,40858
29.88458,50517
29.89270,57558
29.90083,65339
29.90895,64476
29.91708,68359
29.92520,65603
29.93332,70762
29.94145,64505
29.94957,64964
29.95768,70025
29.96582,68741
29.97393,67713
29.98207,65215
29.99018,64821
29.99830,61564
30.00643,59478
30.01455,54753
30.02268,56681
30.03080,57095
30.03892,57958
30.04705,54760
30.05517,60914
30.06328,60124
30.07142,62743
30.07953,56802
30.08767,58027
30.09578,53176
30.10390,57054
30.11203,52535
30.12015,55555
30.12828,53096
30.13640,53221
30.14452,50849
30.15265,49990
30.16077,46288
30.16890,50992
30.17702,42474
30.18513,46278
30.19327,47684
30.20138,41436
30.20950,42398
30.21763,45491
30.22575,43085
30.23388,41937
30.24200,38198
30.25012,41020
30.25825,40707
30.26637,40007
30.27450,37524
30.28262,41029
30.29073,39347
30.29887,38461
30.30698,39121
30.31512,38758
30.32323,38250
30.33135,39871
30.33948,38851
30.34760,39419
30.35572,38526
30.36385,40564
30.37197,35374
30.38010,38866
30.38822,34899
30.39633,33599
30.40447,34594
30.41258,36125
30.42072,33973
30.42883,33847
30.43695,33148
30.44508,33158
30.45320,32653
30.46132,31389
30.46945,31935
30.47757,34590
30.48570,34087
30.49382,33235
30.50193,29850
30.51007,31188
30.51818,32135
30.52632,30515
30.53443,34775
30.54255,29650
30.55068,33981
30.55880,32899
30.56693,30880
30.57505,28461
30.58317,30010
30.59130,30734
30.59942,29132
30.60753,34871
30.61567,33593
30.62378,34710
30.63192,31747
30.64003,27678
30.64815,28873
30.65628,31805
30.66440,30077
30.67253,32081
30.68065,33484
30.68877,32093
30.69690,31678
30.70502,30883
30.71313,28477
30.72127,28610
30.72938,32721
30.73752,31042
30.74563,29655
30.75375,29912
30.76188,32363
30.77000,37411
30.77813,42644
30.78625,47615
30.79437,52478
30.80250,56031
30.81062,56543
30.81875,49750
30.82687,44315
30.83498,39773
30.84312,36773
30.85123,33229
30.85935,35858
30.86748,32341
30.87560,29305
30.88373,32505
30.89185,33691
30.89997,33212
30.90810,31578
30.91622,28806
30.92435,29048
30.93247,32001
30.94058,31625
30.94872,31378
30.95683,32360
30.96497,32915
30.97308,29101
30.98120,31067
30.98933,31790
30.99745,31498
31.00557,31894
31.01370,29701
31.02182,32014
31.02995,30826
31.03807,29674
31.04618,31504
31.05432,32385
31.06243,34552
31.07057,37705
31.07868,41142
31.08680,44439
31.09493,45168
31.10305,48930
31.11117,45445
31.11930,44121
31.12742,40370
31.13555,37187
31.14367,38162
31.15178,38737
31.15992,36552
31.16803,30520
31.17617,34497
31.18428,32088
31.19240,34192
31.20053,32754
31.20865,30605
31.21678,29419
31.22490,31852
31.23302,31473
31.24115,30373
31.24927,37234
31.25738,32407
31.26552,30134
31.27363,29613
31.28177,30040
31.28988,31423
31.29800,32691
31.30613,35099
31.31425,33548
31.32238,37917
31.33050,31429
31.33862,33747
31.34675,34652
31.35487,35228
31.36300,32956
31.37112,30028
31.37923,31231
31.38737,33077
31.39548,31505
31.40360,30026
31.41173,29033
31.41985,31215
31.42798,28826
31.43610,30353
31.44422,30986
31.45235,31991
31.46047,31823
31.46860,35766
31.47672,37697
31.48483,36647
31.49297,36797
31.50108,33004
31.50920,33685
31.51733,37150
31.52545,34647
31.53358,34687
31.54170,34736
31.54982,35912
31.55795,33948
31.56607,36759
31.57420,36267
31.58232,34997
31.59043,31521
31.59857,30585
31.60668,33093
31.61482,29525
31.62293,33258
31.63105,31818
31.63918,35316
31.64730,31443
31.65542,34613
31.66355,31593
31.67167,32303
31.67980,29448
31.68792,34461
31.69603,35545
31.70417,34968
31.71228,33264
31.72042,32520
31.72853,31338
31.73665,33569
31.74478,30651
31.75290,29590
31.76102,30753
31.76915,29853
31.77727,34443
31.78540,27406
31.79352,31935
31.80163,35851
31.80977,33360
31.81788,36364
31.82602,40960
31.83413,39839
31.84225,43950
31.85038,47372
31.85850,55370
31.86663,55577
31.87475,57417
31.88287,57199
31.89100,54117
31.89912,56531
31.90723,55768
31.91537,52079
31.92348,51579
31.93162,49967
31.93973,49270
31.94785,46715
31.95598,48336
31.96410,45133
31.97223,47022
31.98035,44942
31.98847,47846
31.99660,45423
32.00472,47365
32.01285,42258
32.02097,43492
32.02908,40695
32.03722,41914
32.04533,43491
32.05345,39321
32.06158,35291
32.06970,37283
32.07783,34044
32.08595,31241
32.09407,34954
32.10220,33198
32.11032,35218
32.11845,31547
32.12657,30881
32.13468,36984
32.14282,32937
32.15093,32039
32.15905,31696
32.16718,32006
32.17530,33502
32.18343,30143
32.19155,32792
32.19967,30679
32.20780,34477
32.21592,31970
32.22405,28535
32.23217,34741
32.24028,31321
32.24842,31233
32.25653,31891
32.26467,33108
32.27278,32498
32.28090,32985
32.28903,31871
32.29715,30817
32.30527,32467
32.31340,32115
32.32152,32394
32.32965,31132
32.33777,33044
32.34588,34544
32.35402,34795
32.36213,32583
32.37027,29539
32.37838,32778
32.38650,33415
32.39463,35976
32.40275,31066
32.41088,28933
32.41900,29588
32.42712,30252
32.43525,32461
32.44337,29622
32.45148,31662
32.45962,26852
32.46773,29292
32.47587,31987
32.48398,31086
32.49210,31840
32.50023,27713
32.50835,27016
32.51648,29961
32.52460,30463
32.53272,30826
32.54085,32361
32.54897,32124
32.55708,33772
32.56522,34449
32.57333,35497
32.58147,34487
32.58958,38854
32.59770,36671
32.60583,34200
32.61395,34012
32.62208,31013
32.63020,31839
32.63832,28484
32.64645,28276
32.65457,30946
32.66270,29887
32.67082,36298
32.67893,31516
32.68707,34771
32.69518,33098
32.70330,32323
32.71143,35566
32.71955,33890
32.72768,32994
32.73580,35933
32.74392,31488
32.75205,33164
32.76017,32701
32.76830,28208
32.77642,30268
32.78453,27887
32.79267,27172
32.80078,31099
32.80892,29658
32.81703,31102
32.82515,30493
32.83328,29992
32.84140,30496
32.84952,25933
32.85765,28737
32.86577,34787
32.87390,28751
32.88202,29936
32.89013,31279
32.89827,30347
32.90638,31179
32.91452,30936
32.92263,31534
32.93075,30608
32.93888,32874
32.94700,30422
32.95512,33675
32.96325,39772
32.97137,40982
32.97950,45824
32.98762,49850
32.99573,56967
33.00387,56143
33.01198,47994
33.02012,44476
33.02823,44150
33.03635,38198
33.04448,36498
33.05260,34132
33.06073,33329
33.06885,33166
33.07697,37768
33.08510,42555
33.09322,37577
33.10133,45001
33.10947,48146
33.11758,39666
33.12572,39812
33.13383,38631
33.14195,35938
33.15008,37225
33.15820,35659
33.16633,34892
33.17445,33518
33.18257,32741
33.19070,32842
33.19882,32081
33.20693,31290
33.21507,31407
33.22318,31366
33.23132,30815
33.23943,30008
33.24755,30637
33.25568,29101
33.26380,30972
33.27193,30310
33.28005,31637
33.28817,28229
33.29630,28879
33.30442,31532
33.31255,31831
33.32067,29357
33.32878,31172
33.33692,28994
33.34503,36739
33.35315,31118
33.36128,37798
33.36940,32914
33.37753,29296
33.38565,31757
33.39377,29240
33.40190,30233
33.41002,31745
33.41815,31088
33.42627,33658
33.43438,28730
33.44252,31363
33.45063,30192
33.45877,31717
33.46688,29790
33.47500,31478
33.48313,31007
33.49125,34105
33.49937,34832
33.50750,32226
33.51562,32919
33.52375,32621
33.53187,33843
33.53998,32582
33.54812,34662
33.55623,32876
33.56437,32685
33.57248,33816
33.58060,33308
33.58873,31505
33.59685,32101
33.60497,32481
33.61310,31710
33.62122,33302
33.62935,32051
33.63747,35667
33.64558,35099
33.65372,34281
33.66183,33201
33.66997,32596
33.67808,35534
33.68620,31370
33.69433,33378
33.70245,31004
33.71058,29111
33.71870,32831
33.72682,33401
33.73495,35735
33.74307,36804
33.75118,33310
33.75932,35590
33.76743,34490
33.77557,35114
33.78368,35287
33.79180,32398
33.79993,36343
33.80805,32948
33.81618,31082
33.82430,36050
33.83242,35509
33.84055,34576
33.84867,33084
33.85680,35045
33.86492,36829
33.87303,38843
33.88117,31843
33.88928,35558
33.89740,35274
33.90553,34157
33.91365,34768
33.92178,35031
33.92990,34649
33.93802,30832
33.94615,33985
33.95427,33789
33.96240,38240
33.97052,34587
33.97863,33954
33.98677,32715
33.99488,31655
34.00300,34679
34.01113,28618
34.01925,30542
34.02738,32932
34.03550,33365
34.04362,35658
34.05175,30642
34.05987,32317
34.06800,35657
34.07612,31430
34.08423,33323
34.09237,30442
34.10048,32170
34.10862,35269
34.11673,35024
34.12485,29902
34.13298,31900
34.14110,35122
34.14922,33759
34.15735,31892
34.16547,30736
34.17360,31745
34.18172,32545
34.18983,34731
34.19797,31183
34.20608,32207
34.21422,31722
34.22233,31473
34.23045,28342
34.23858,32614
34.24670,30882
34.25482,32535
34.26295,35826
34.27107,31380
34.27920,31354
34.28732,33272
34.29543,27937
34.30357,34130
34.31168,31722
34.31982,33994
34.32793,31495
34.33605,32809
34.34418,33895
34.35230,31119
34.36043,32989
34.36855,34228
34.37667,31455
34.38480,34508
34.39292,28414
34.40103,31557
34.40917,30196
34.41728,32097
34.42542,33500
34.43353,37176
34.44165,41063
34.44978,45310
34.45790,48057
34.46603,54464
34.47415,56421
34.48227,57830
34.49040,58782
34.49852,51586
34.50665,54123
34.51477,51923
34.52288,48076
34.53102,46282
34.53913,48159
34.54725,43323
34.55538,42201
34.56350,40005
34.57163,38127
34.57975,37992
34.58787,38546
34.59600,37881
34.60412,36687
34.61225,38062
34.62037,36348
34.62848,35016
34.63662,34467
34.64473,37406
34.65285,35568
34.66098,34113
34.66910,34569
34.67723,37350
34.68535,38281
34.69347,36057
34.70160,38343
34.70972,35377
34.71785,35283
34.72597,33429
34.73408,33847
34.74222,36126
34.75033,34905
34.75847,41551
34.76658,34164
34.77470,34801
34.78283,34768
34.79095,36664
34.79907,37844
34.80720,35051
34.81532,38495
34.82345,33264
34.83157,35074
34.83968,33507
34.84782,32702
34.85593,38749
34.86407,35341
34.87218,33770
34.88030,33375
34.88843,39148
34.89655,34782
34.90468,33733
34.91280,33274
34.92092,33585
34.92905,36441
34.93717,34217
34.94528,37762
34.95342,39063
34.96153,36751
34.96967,34597
34.97778,35804
34.98590,33582
34.99403,34273
35.00215,34890
35.01028,39298
35.01840,35702
35.02652,35315
35.03465,36427
35.04277,37170
35.05088,35468
35.05902,35567
35.06713,38092
35.07527,33552
35.08338,35722
35.09150,34979
35.09963,39483
35.10775,33466
35.11588,34187
35.12400,38857
35.13212,35947
35.14025,31800
35.14837,36244
35.15650,36350
35.16462,34180
35.17273,34927
35.18087,37774
35.18898,33652
35.19710,35338
35.20523,34394
35.21335,34319
35.22148,33081
35.22960,34298
35.23772,31429
35.24585,35117
35.25397,37453
35.26210,37348
35.27022,35380
35.27833,34085
35.28647,38404
35.29458,37526
35.30270,37318
35.31083,38438
35.31895,35714
35.32708,34535
35.33520,35553
35.34332,35212
35.35145,38990
35.35957,35569
35.36770,35441
35.37582,35531
35.38393,38106
35.39207,35783
35.40018,34864
35.40832,37414
35.41643,41831
35.42455,35671
35.43268,34806
35.44080,36861
35.44892,37121
35.45705,37127
35.46517,37354
35.47330,36163
35.48142,36866
35.48953,36636
35.49767,37365
35.50578,38149
35.51392,37575
35.52203,40441
35.53015,42853
35.53828,37313
35.54640,38939
35.55453,39975
35.56265,45845
35.57077,47274
35.57890,49258
35.58702,40980
35.59513,50056
35.60327,45114
35.61138,42904
35.61952,40654
35.62763,41494
35.63575,42789
35.64388,41546
35.65200,41360
35.66013,39039
35.66825,38146
35.67637,41722
35.68450,40454
35.69262,39407
35.70075,36561
35.70887,40544
35.71698,39137
35.72512,41614
35.73323,39488
35.74135,38310
35.74948,38383
35.75760,42492
35.76573,40891
35.77385,44875
35.78197,39043
35.79010,39918
35.79822,38156
35.80635,40650
35.81447,39865
35.82258,41850
35.83072,40762
35.83883,41741
35.84695,40532
35.85508,38389
35.86320,39378
35.87133,39642
35.87945,39290
35.88757,39984
35.89570,40413
35.90382,39668
35.91195,37407
35.92007,38922
35.92818,37152
35.93632,39207
35.94443,36825
35.95257,41217
35.96068,39581
35.96880,36933
35.97693,35584
35.98505,39105
35.99317,44658
36.00130,39780
36.00942,38354
36.01755,38595
36.02567,44185
36.03378,40456
36.04192,44878
36.05003,41917
36.05817,39918
36.06628,38713
36.07440,36647
36.08253,39028
36.09065,45612
36.09877,37633
36.10690,39923
36.11502,37183
36.12315,38889
36.13127,42838
36.13938,41048
36.14752,39453
36.15563,41342
36.16377,39286
36.17188,41580
36.18000,39792
36.18813,38940
36.19625,44755
36.20438,42305
36.21250,44465
36.22062,44655
36.22875,47542
36.23687,49951
36.24498,44429
36.25312,44875
36.26123,42586
36.26937,41688
36.27748,42691
36.28560,36891
36.29373,40929
36.30185,40081
36.30998,38813
36.31810,40385
36.32622,39625
36.33435,40803
36.34247,41442
36.35060,41159
36.35872,40085
36.36683,41684
36.37497,40472
36.38308,39451
36.39120,43627
36.39933,41666
36.40745,41182
36.41558,42853
36.42370,40611
36.43182,38340
36.43995,40842
36.44807,39713
36.45620,43102
36.46432,41501
36.47243,43614
36.48057,40315
36.48868,38837
36.49680,41147
36.50493,43199
36.51305,42151
36.52118,40940
36.52930,42035
36.53742,41163
36.54555,43095
36.55367,40300
36.56180,41212
36.56992,43732
36.57803,40196
36.58617,41935
36.59428,41442
36.60242,41673
36.61053,42095
36.61865,41956
36.62678,42102
36.63490,43545
36.64302,38997
36.65115,43930
36.65927,39652
36.66740,39987
36.67552,40614
36.68363,40168
36.69177,40517
36.69988,37941
36.70802,41120
36.71613,42763
36.72425,40394
36.73238,40108
36.74050,41060
36.74863,43922
36.75675,39437
36.76487,40809
36.77300,43478
36.78112,41177
36.78923,44001
36.79737,39195
36.80548,39792
36.81362,43867
36.82173,42505
36.82985,41181
36.83798,42703
36.84610,44536
36.85423,45316
36.86235,41383
36.87047,45159
36.87860,43626
36.88672,49637
36.89483,43874
36.90297,43807
36.91108,41499
36.91922,47451
36.92733,46608
36.93545,46622
36.94358,50368
36.95170,52441
36.95983,54640
36.96795,48542
36.97607,49709
36.98420,52642
36.99232,47919
37.00045,50031
37.00857,54371
37.01668,53680
37.02482,56956
37.03293,58687
37.04105,55440
37.04918,54588
37.05730,52287
37.06543,45781
37.07355,46458
37.08167,45448
37.08980,45424
37.09792,45694
37.10605,46966
37.11417,46580
37.12228,42457
37.13042,46186
37.13853,52934
37.14665,45834
37.15478,42543
37.16290,47761
37.17103,44013
37.17915,48288
37.18727,45783
37.19540,51404
37.20352,48860
37.21165,51784
37.21977,49405
37.22788,55324
37.23602,57414
37.24413,60304
37.25227,55650
37.26038,64481
37.26850,67566
37.27663,69937
37.28475,65368
37.29287,68743
37.30100,63370
37.30912,54795
37.31725,59718
37.32537,57110
37.33348,53954
37.34162,51952
37.34973,52919
37.35787,48504
37.36598,52497
37.37410,54713
37.38223,54512
37.39035,50029
37.39848,52502
37.40660,49625
37.41472,52122
37.42285,49176
37.43097,51205
37.43908,48844
37.44722,50742
37.45533,49441
37.46347,52546
37.47158,52556
37.47970,49132
37.48783,46346
