Z:\data\JTB-E02\BACandBLUE\JTB-E02-189-22.D Mon Dec 10 17:37:58 2018
Start of data points
2.09542,120585
2.10353,124230
2.11165,133947
2.11978,128036
2.12790,125621
2.13602,120350
2.14415,122024
2.15227,125241
2.16040,115854
2.16852,123894
2.17663,108262
2.18477,111790
2.19288,107703
2.20102,108621
2.20913,107340
2.21725,97916
2.22538,98523
2.23350,108391
2.24162,96207
2.24975,103186
2.25787,100327
2.26600,99711
2.27412,274802
2.28223,941823
2.29037,1268439
2.29848,724178
2.30662,401324
2.31473,312970
2.32285,273914
2.33098,238355
2.33910,228562
2.34723,210712
2.35535,193741
2.36347,193992
2.37160,186539
2.37972,181653
2.38783,174984
2.39597,173254
2.40408,172496
2.41222,163969
2.42033,164409
2.42845,166577
2.43658,166923
2.44470,159181
2.45283,162563
2.46095,155331
2.46907,164016
2.47720,160398
2.48532,157763
2.49345,154270
2.50157,165000
2.50968,173913
2.51782,158406
2.52593,153832
2.53405,152374
2.54218,148829
2.55030,144992
2.55843,150973
2.56655,160674
2.57467,157883
2.58280,147491
2.59092,140441
2.59905,138846
2.60717,146452
2.61528,210551
2.62342,341729
2.63153,309832
2.63965,237034
2.64778,188929
2.65590,169471
2.66403,158553
2.67215,150049
2.68027,142813
2.68840,145121
2.69652,138966
2.70465,139432
2.71277,138647
2.72088,140137
2.72902,133930
2.73713,133176
2.74527,128991
2.75338,126283
2.76150,126505
2.76963,130356
2.77775,211691
2.78587,1437281
2.79400,5291636
2.80212,6898933
2.81025,4233685
2.81837,2302469
2.82648,1636013
2.83462,1298652
2.84273,1007507
2.85087,792952
2.85898,669485
2.86710,562488
2.87523,495383
2.88335,432964
2.89147,377283
2.89960,368642
2.90772,322170
2.91585,298540
2.92397,280300
2.93208,260138
2.94022,249062
2.94833,243395
2.95647,224716
2.96458,218394
2.97270,220320
2.98083,219177
2.98895,197684
2.99708,200748
3.00520,205642
3.01332,210928
3.02145,207348
3.02957,202409
3.03768,195932
3.04582,185609
3.05393,173880
3.06207,165968
3.07018,167723
3.07830,162473
3.08643,170266
3.09455,251540
3.10268,488841
3.11080,1210045
3.11892,2918543
3.12705,3699289
3.13517,2622788
3.14330,1614891
3.15142,1139665
3.15953,867453
3.16767,695355
3.17578,683463
3.18390,808776
3.19203,1389454
3.20015,3982534
3.20828,7213851
3.21640,6699494
3.22452,4443545
3.23265,3044175
3.24077,2327708
3.24890,1820761
3.25702,1485226
3.26513,1231384
3.27327,1038637
3.28138,913574
3.28950,837602
3.29763,1250928
3.30575,3983970
3.31388,1.137131E+07
3.32200,1.893581E+07
3.33012,1.980225E+07
3.33825,1.508163E+07
3.34637,9411627
3.35450,5730173
3.36262,3840006
3.37073,2825572
3.37887,2144720
3.38698,1721359
3.39512,1421839
3.40323,1205293
3.41135,1053740
3.41948,936568
3.42760,824267
3.43572,783192
3.44385,779754
3.45197,776523
3.46010,742862
3.46822,680988
3.47633,791626
3.48447,1030849
3.49258,1043340
3.50072,827945
3.50883,633586
3.51695,537347
3.52508,465221
3.53320,455428
3.54133,466443
3.54945,532871
3.55757,582921
3.56570,534577
3.57382,437835
3.58193,392513
3.59007,363684
3.59818,344051
3.60632,338338
3.61443,332385
3.62255,320045
3.63068,312888
3.63880,321767
3.64693,345560
3.65505,355046
3.66317,425780
3.67130,1821884
3.67942,1.164637E+07
3.68753,3.42634E+07
3.69567,5.179921E+07
3.70378,5.335184E+07
3.71192,4.178098E+07
3.72003,2.923709E+07
3.72815,2.187957E+07
3.73628,1.754208E+07
3.74440,1.444847E+07
3.75253,1.226794E+07
3.76065,1.069386E+07
3.76877,9384318
3.77690,8146896
3.78502,7111032
3.79315,6419538
3.80127,5802559
3.80938,5400865
3.81752,5246030
3.82563,5454640
3.83375,5686917
3.84188,5286553
3.85000,4628955
3.85813,4148279
3.86625,3781059
3.87437,3482345
3.88250,3263521
3.89062,3056881
3.89875,2857804
3.90687,2725083
3.91498,2564360
3.92312,2534667
3.93123,2781675
3.93935,3406079
3.94748,3855405
3.95560,3431985
3.96373,2792211
3.97185,2390614
3.97997,2287292
3.98810,2168399
3.99622,1966963
4.00435,1806326
4.01247,1714793
4.02058,1711911
4.02872,1747238
4.03683,1742644
4.04497,1602884
4.05308,1483541
4.06120,1390975
4.06933,1329589
4.07745,1263023
4.08557,1229214
4.09370,1206926
4.10182,1179688
4.10995,1185164
4.11807,1164550
4.12618,1113751
4.13432,1054704
4.14243,1038723
4.15057,1007609
4.15868,1013686
4.16680,1023467
4.17493,986245
4.18305,996565
4.19118,988875
4.19930,993434
4.20742,956732
4.21555,1009837
4.22367,1906993
4.23178,5619724
4.23992,1.382162E+07
4.24803,2.276656E+07
4.25617,2.948611E+07
4.26428,3.42864E+07
4.27240,3.677218E+07
4.28053,3.406982E+07
4.28865,1.971696E+07
4.29678,9902546
4.30490,7119705
4.31302,5609000
4.32115,4543892
4.32927,3785362
4.33738,3216026
4.34552,2769978
4.35363,2453814
4.36177,2246666
4.36988,2201551
4.37800,2432949
4.38613,2724001
4.39425,2676925
4.40238,2238661
4.41050,1818047
4.41862,1537546
4.42675,1358465
4.43487,1241531
4.44300,1171009
4.45112,1105981
4.45923,1029510
4.46737,975076
4.47548,931000
4.48360,913871
4.49173,885652
4.49985,846131
4.50798,827132
4.51610,827191
4.52422,785920
4.53235,791172
4.54047,780284
4.54860,773316
4.55672,804912
4.56483,870335
4.57297,903376
4.58108,838227
4.58922,750907
4.59733,699705
4.60545,668425
4.61358,648467
4.62170,646374
4.62982,672872
4.63795,896882
4.64607,1578215
4.65420,2736927
4.66232,3534645
4.67043,3284596
4.67857,2405087
4.68668,1758733
4.69482,1456678
4.70293,1329436
4.71105,1103256
4.71918,932416
4.72730,812621
4.73542,711996
4.74355,663402
4.75167,609034
4.75980,594307
4.76792,575798
4.77603,561794
4.78417,546526
4.79228,530601
4.80042,548773
4.80853,607172
4.81665,767969
4.82478,892251
4.83290,886455
4.84103,775673
4.84915,713036
4.85727,783611
4.86540,885764
4.87352,924351
4.88163,839393
4.88977,715115
4.89788,628976
4.90602,574845
4.91413,553910
4.92225,522393
4.93038,498103
4.93850,500351
4.94663,539113
4.95475,833740
4.96287,1870723
4.97100,4168668
4.97912,6959402
4.98725,8488116
4.99537,7815070
5.00348,5844928
5.01162,3886938
5.01973,2625405
5.02785,1915999
5.03598,1584000
5.04410,1642632
5.05223,2023222
5.06035,2484625
5.06847,2509937
5.07660,2125456
5.08472,1718181
5.09285,1455899
5.10097,1244019
5.10908,1127813
5.11722,1048798
5.12533,970406
5.13345,887087
5.14158,847103
5.14970,787857
5.15783,782805
5.16595,916544
5.17407,1192469
5.18220,1587757
5.19032,1747675
5.19845,1614838
5.20657,1394092
5.21468,1334888
5.22282,1512008
5.23093,1662917
5.23907,1544961
5.24718,1288672
5.25530,1066753
5.26343,897013
5.27155,780143
5.27967,651674
5.28780,580382
5.29592,546805
5.30405,519486
5.31217,517162
5.32028,483601
5.32842,473782
5.33653,468566
5.34467,478794
5.35278,512046
5.36090,526449
5.36903,525667
5.37715,491865
5.38528,455723
5.39340,449530
5.40152,483180
5.40965,572366
5.41777,690847
5.42588,719516
5.43402,657131
5.44213,569456
5.45027,505081
5.45838,505886
5.46650,593093
5.47463,746575
5.48275,804421
5.49088,730868
5.49900,595659
5.50712,494265
5.51525,432530
5.52337,405696
5.53148,390257
5.53962,379967
5.54773,389453
5.55587,391170
5.56398,464545
5.57210,752230
5.58023,1440319
5.58835,2346573
5.59648,2921853
5.60460,2805989
5.61272,2099190
5.62085,1383178
5.62897,919345
5.63710,690565
5.64522,564019
5.65333,502374
5.66147,468200
5.66958,427882
5.67770,408230
5.68583,394452
5.69395,403573
5.70208,452271
5.71020,555647
5.71832,595629
5.72645,595283
5.73457,571648
5.74270,504886
5.75082,444045
5.75893,390761
5.76707,365798
5.77518,347608
5.78330,341023
5.79143,338372
5.79955,328732
5.80768,318043
5.81580,312877
5.82392,314890
5.83205,312838
5.84017,306633
5.84830,312439
5.85642,308278
5.86453,316096
5.87267,298373
5.88078,298033
5.88892,299120
5.89703,289740
5.90515,286098
5.91328,279157
5.92140,306913
5.92952,370088
5.93765,453589
5.94577,489792
5.95390,455969
5.96202,405667
5.97013,415526
5.97827,503623
5.98638,624548
5.99452,805718
6.00263,998330
6.01075,1181223
6.01888,1198793
6.02700,1017983
6.03513,798738
6.04325,583330
6.05137,458495
6.05950,377420
6.06762,334533
6.07573,312742
6.08387,305913
6.09198,313586
6.10012,304544
6.10823,299866
6.11635,275254
6.12448,273360
6.13260,285173
6.14073,405656
6.14885,749955
6.15697,1428824
6.16510,2071616
6.17322,2250173
6.18133,1883048
6.18947,1377450
6.19758,1015078
6.20572,794258
6.21383,651839
6.22195,580298
6.23008,529867
6.23820,490688
6.24633,460201
6.25445,463654
6.26257,494463
6.27070,593267
6.27882,742391
6.28695,795044
6.29507,744231
6.30318,609033
6.31132,501523
6.31943,456756
6.32755,427760
6.33568,422240
6.34380,432730
6.35193,416421
6.36005,420413
6.36817,414431
6.37630,394105
6.38442,367648
6.39255,372613
6.40067,374464
6.40878,390323
6.41692,371679
6.42503,354415
6.43317,333237
6.44128,322532
6.44940,330237
6.45753,341899
6.46565,351207
6.47377,383444
6.48190,396321
6.49002,387358
6.49815,372829
6.50627,347153
6.51438,333057
6.52252,347745
6.53063,349126
6.53877,363735
6.54688,369555
6.55500,355117
6.56313,358949
6.57125,395440
6.57937,615024
6.58750,1197439
6.59562,2210848
6.60375,3059019
6.61187,3099187
6.61998,2363543
6.62812,1493949
6.63623,915288
6.64437,649926
6.65248,511635
6.66060,426052
6.66873,378253
6.67685,344605
6.68498,341354
6.69310,325034
6.70122,309255
6.70935,293388
6.71747,261283
6.72558,262371
6.73372,252369
6.74183,245482
6.74997,240909
6.75808,240279
6.76620,234559
6.77433,235625
6.78245,221028
6.79058,226287
6.79870,219611
6.80682,216933
6.81495,216776
6.82307,203244
6.83118,198943
6.83932,192130
6.84743,198575
6.85557,199549
6.86368,201718
6.87180,201699
6.87993,200896
6.88805,215998
6.89618,229074
6.90430,232980
6.91242,220538
6.92055,204416
6.92867,185663
6.93680,176457
6.94492,171641
6.95303,167235
6.96117,162503
6.96928,157320
6.97740,163784
6.98553,179707
6.99365,203101
7.00178,224689
7.00990,235972
7.01802,212962
7.02615,197169
7.03427,180509
7.04240,183910
7.05052,185759
7.05863,178146
7.06677,167351
7.07488,188544
7.08302,233661
7.09113,353881
7.09925,539367
7.10738,748115
7.11550,888735
7.12362,892569
7.13175,755556
7.13987,556076
7.14800,422067
7.15612,340360
7.16423,337613
7.17237,377272
7.18048,523466
7.18862,987856
7.19673,2402649
7.20485,5195456
7.21298,8763429
7.22110,1.094355E+07
7.22922,1.004502E+07
7.23735,6532131
7.24547,3173220
7.25360,1216198
7.26172,476547
7.26983,270245
7.27797,226154
7.28608,218096
7.29422,209100
7.30233,214432
7.31045,221879
7.31858,221618
7.32670,226099
7.33483,215580
7.34295,205947
7.35107,218334
7.35920,259468
7.36732,322544
7.37543,401965
7.38357,480548
7.39168,489785
7.39982,438918
7.40793,381334
7.41605,332342
7.42418,272920
7.43230,239416
7.44043,217160
7.44855,187967
7.45667,177788
7.46480,174496
7.47292,176235
7.48105,172520
7.48917,189619
7.49728,207526
7.50542,203075
7.51353,196629
7.52165,183773
7.52978,200412
7.53790,184956
7.54603,201190
7.55415,293183
7.56227,575618
7.57040,1326694
7.57852,3029991
7.58665,6053776
7.59477,1.002527E+07
7.60288,1.394938E+07
7.61102,1.62705E+07
7.61913,1.608992E+07
7.62725,1.328731E+07
7.63538,9480909
7.64350,5850855
7.65163,3459924
7.65975,2052254
7.66787,1328554
7.67600,923965
7.68412,660374
7.69225,478342
7.70037,361052
7.70848,304336
7.71662,313667
7.72473,392452
7.73287,543216
7.74098,675507
7.74910,778957
7.75723,862598
7.76535,816763
7.77347,758795
7.78160,650076
7.78972,569948
7.79785,486888
7.80597,436352
7.81408,407596
7.82222,407532
7.83033,452565
7.83847,494488
7.84658,508020
7.85470,466275
7.86283,390148
7.87095,336926
7.87908,326603
7.88720,344416
7.89532,401843
7.90345,489082
7.91157,634911
7.91968,814796
7.92782,896409
7.93593,818660
7.94407,667141
7.95218,497511
7.96030,429507
7.96843,405258
7.97655,398210
7.98468,375105
7.99280,342490
8.00092,303164
8.00905,253821
8.01717,226430
8.02528,200620
8.03342,187403
8.04153,165380
8.04967,160500
8.05778,161070
8.06590,160715
8.07403,152941
8.08215,160535
8.09028,160536
8.09840,164845
8.10652,163521
8.11465,152952
8.12277,145374
8.13090,147113
8.13902,147227
8.14713,166097
8.15527,227879
8.16338,327468
8.17150,426099
8.17963,488941
8.18775,462209
8.19588,385547
8.20400,298553
8.21212,241817
8.22025,209095
8.22837,184531
8.23650,180352
8.24462,171570
8.25273,156929
8.26087,148263
8.26898,134948
8.27710,135020
8.28523,131626
8.29335,123887
8.30148,124616
8.30960,122844
8.31772,118093
8.32585,131455
8.33397,134138
8.34210,150516
8.35022,200662
8.35833,237353
8.36647,248086
8.37458,232369
8.38272,198206
8.39083,162037
8.39895,132089
8.40708,115242
8.41520,111247
8.42332,110990
8.43145,97870
8.43957,105088
8.44770,99877
8.45582,111122
8.46393,109603
8.47207,110282
8.48018,112741
8.48832,111426
8.49643,108267
8.50455,108254
8.51268,102053
8.52080,114187
8.52893,145201
8.53705,203752
8.54517,273528
8.55330,340997
8.56142,320937
8.56953,254346
8.57767,184841
8.58578,137794
8.59392,116411
8.60203,106967
8.61015,106100
8.61828,104917
8.62640,107982
8.63453,127488
8.64265,141422
8.65077,164379
8.65890,182774
8.66702,187283
8.67513,174449
8.68327,154987
8.69138,134498
8.69952,110751
8.70763,110729
8.71575,101215
8.72388,98438
8.73200,104361
8.74013,97507
8.74825,104943
8.75637,105543
8.76450,107243
8.77262,103852
8.78075,107735
8.78887,129937
8.79698,200058
8.80512,338748
8.81323,565723
8.82135,737772
8.82948,821713
8.83760,709557
8.84573,569855
8.85385,436979
8.86197,356932
8.87010,303452
8.87822,264883
8.88635,244006
8.89447,226083
8.90258,216395
8.91072,206493
8.91883,211339
8.92697,213397
8.93508,261715
8.94320,349057
8.95133,443535
8.95945,493857
8.96757,433027
8.97570,368831
8.98382,282234
8.99195,273166
9.00007,338595
9.00818,424939
9.01632,470919
9.02443,486059
9.03257,414100
9.04068,329769
9.04880,265485
9.05693,223729
9.06505,204331
9.07317,180936
9.08130,176255
9.08942,166864
9.09755,168692
9.10567,184880
9.11378,226404
9.12192,318990
9.13003,451893
9.13817,652302
9.14628,784985
9.15440,795051
9.16253,648647
9.17065,467166
9.17878,350760
9.18690,289710
9.19502,256275
9.20315,244516
9.21127,235047
9.21938,216125
9.22752,206410
9.23563,202710
9.24377,189348
9.25188,200514
9.26000,214534
9.26813,213141
9.27625,213662
9.28438,215230
9.29250,210493
9.30062,195044
9.30875,182743
9.31687,183468
9.32498,171291
9.33312,172225
9.34123,169528
9.34937,160588
9.35748,159847
9.36560,163939
9.37373,147150
9.38185,142647
9.38998,149302
9.39810,150247
9.40622,173479
9.41435,229971
9.42247,368343
9.43060,584265
9.43872,837943
9.44683,1093571
9.45497,1282649
9.46308,1412046
9.47120,1450046
9.47933,1349477
9.48745,1141599
9.49558,859610
9.50370,628132
9.51182,461418
9.51995,379473
9.52807,373654
9.53620,408002
9.54432,453204
9.55243,494402
9.56057,511991
9.56868,493846
9.57682,412161
9.58493,343398
9.59305,276612
9.60118,219593
9.60930,199214
9.61742,177329
9.62555,166792
9.63367,165538
9.64180,156424
9.64992,155978
9.65803,150050
9.66617,151113
9.67428,146093
9.68242,137167
9.69053,141016
9.69865,146131
9.70678,149085
9.71490,143276
9.72303,133860
9.73115,133319
9.73927,138387
9.74740,135682
9.75552,132418
9.76363,116423
9.77177,115182
9.77988,110836
9.78802,110744
9.79613,113671
9.80425,101500
9.81238,107832
9.82050,102307
9.82863,98805
9.83675,100995
9.84487,100413
9.85300,103652
9.86112,106714
9.86923,103418
9.87737,106531
9.88548,99268
9.89362,97199
9.90173,101777
9.90985,98855
9.91798,92903
9.92610,96518
9.93423,98795
9.94235,110430
9.95047,119041
9.95860,169961
9.96672,299005
9.97485,557222
9.98297,948654
9.99108,1340752
9.99922,1581001
10.00733,1498208
10.01545,1191865
10.02358,827764
10.03170,516128
10.03983,361834
10.04795,327194
10.05607,330582
10.06420,339515
10.07232,353953
10.08045,362019
10.08857,337694
10.09668,319820
10.10482,292836
10.11293,276054
10.12105,248386
10.12918,222903
10.13730,220673
10.14543,203484
10.15355,195907
10.16167,189148
10.16980,184081
10.17792,178887
10.18605,178721
10.19417,168299
10.20228,170236
10.21042,158125
10.21853,160832
10.22667,151737
10.23478,150903
10.24290,146944
10.25103,146815
10.25915,159276
10.26727,203167
10.27540,338648
10.28352,766562
10.29165,1847312
10.29977,3808161
10.30788,6552893
10.31602,9908488
10.32413,1.363043E+07
10.33227,1.779962E+07
10.34038,2.322584E+07
10.34850,3.014465E+07
10.35663,3.832117E+07
10.36475,4.646338E+07
10.37288,5.115747E+07
10.38100,4.975721E+07
10.38912,3.796748E+07
10.39725,2.44346E+07
10.40537,1.796489E+07
10.41348,1.549624E+07
10.42162,1.267806E+07
10.42973,9011804
10.43787,5917823
10.44598,4026152
10.45410,3169210
10.46223,2984422
10.47035,2971024
10.47848,2954469
10.48660,2726370
10.49472,2339551
10.50285,1884863
10.51097,1453203
10.51908,1185716
10.52722,1011551
10.53533,866190
10.54347,796422
10.55158,747508
10.55970,703279
10.56783,666591
10.57595,631704
10.58408,600140
10.59220,580279
10.60032,581812
10.60845,564295
10.61657,518504
10.62470,497864
10.63282,463704
10.64093,440186
10.64907,432099
10.65718,413250
10.66530,397460
10.67343,385158
10.68155,365647
10.68968,348116
10.69780,344304
10.70592,351556
10.71405,364932
10.72217,395991
10.73030,422009
10.73842,439378
10.74653,432276
10.75467,423854
10.76278,374673
10.77092,355876
10.77903,320302
10.78715,309375
10.79528,300186
10.80340,273998
10.81152,289232
10.81965,299124
10.82777,351058
10.83590,409057
10.84402,452637
10.85213,459991
10.86027,420319
10.86838,351719
10.87652,298093
10.88463,258431
10.89275,225595
10.90088,219096
10.90900,216394
10.91712,209245
10.92525,205100
10.93337,214396
10.94150,209705
10.94962,206897
10.95773,201087
10.96587,197779
10.97398,191961
10.98212,184865
10.99023,189377
10.99835,186351
11.00648,185343
11.01460,200737
11.02273,237113
11.03085,284160
11.03897,331824
11.04710,353706
11.05522,357552
11.06333,325155
11.07147,292296
11.07958,259476
11.08772,281645
11.09583,312331
11.10395,383812
11.11208,431524
11.12020,481341
11.12833,473802
11.13645,475228
11.14457,409824
11.15270,349045
11.16082,302370
11.16893,258901
11.17707,246296
11.18518,234172
11.19332,222668
11.20143,210194
11.20955,199064
11.21768,174819
11.22580,157341
11.23393,148122
11.24205,144146
11.25017,129083
11.25830,125265
11.26642,120901
11.27455,115644
11.28267,109729
11.29078,105402
11.29892,100705
11.30703,101734
11.31515,128950
11.32328,225772
11.33140,547024
11.33953,1419441
11.34765,3183178
11.35577,6126268
11.36390,9573436
11.37202,1.259873E+07
11.38015,1.387869E+07
11.38827,1.298378E+07
11.39638,1.05662E+07
11.40452,7900564
11.41263,5826811
11.42077,4394767
11.42888,3367008
11.43700,2639545
11.44513,2039272
11.45325,1567492
11.46137,1278258
11.46950,1047952
11.47762,873728
11.48575,752735
11.49387,686457
11.50198,619330
11.51012,622013
11.51823,664062
11.52637,764818
11.53448,861220
11.54260,899761
11.55073,912473
11.55885,865505
11.56697,778745
11.57510,726227
11.58322,682940
11.59135,658789
11.59947,647309
11.60758,643142
11.61572,708045
11.62383,801049
11.63197,947435
11.64008,1038704
11.64820,955409
11.65633,803847
11.66445,625315
11.67258,473570
11.68070,380079
11.68882,311797
11.69695,275796
11.70507,276688
11.71318,279239
11.72132,281996
11.72943,278903
11.73757,276660
11.74568,263169
11.75380,246114
11.76193,224795
11.77005,208947
11.77818,190171
11.78630,175940
11.79442,171519
11.80255,160358
11.81067,153923
11.81880,143700
11.82692,141155
11.83503,134804
11.84317,134453
11.85128,127087
11.85940,132608
11.86753,133598
11.87565,123011
11.88378,125632
11.89190,119478
11.90002,117885
11.90815,112684
11.91627,107837
11.92440,113256
11.93252,114657
11.94063,121365
11.94877,126222
11.95688,127257
11.96500,121151
11.97313,116220
11.98125,111623
11.98938,101504
11.99750,95297
12.00562,96181
12.01375,91912
12.02187,94552
12.03000,91972
12.03812,88869
12.04623,92821
12.05437,90807
12.06248,93288
12.07062,95673
12.07873,106744
12.08685,107269
12.09498,121015
12.10310,157808
12.11122,209369
12.11935,326132
12.12747,595622
12.13560,1199784
12.14372,2364721
12.15183,3981303
12.15997,5687162
12.16808,6674171
12.17622,6596338
12.18433,5425988
12.19245,4078572
12.20058,2881118
12.20870,2160892
12.21683,1742353
12.22495,1493718
12.23307,1256416
12.24120,1071076
12.24932,947709
12.25743,844019
12.26557,775855
12.27368,716157
12.28182,704339
12.28993,656656
12.29805,647183
12.30618,610027
12.31430,556009
12.32243,514731
12.33055,479464
12.33867,446832
12.34680,421676
12.35492,403607
12.36303,392253
12.37117,380277
12.37928,360939
12.38742,363642
12.39553,357690
12.40365,354191
12.41178,355401
12.41990,395500
12.42803,503057
12.43615,615923
12.44427,734153
12.45240,771585
12.46052,686932
12.46865,566830
12.47677,487300
12.48488,411610
12.49302,390445
12.50113,365573
12.50925,350609
12.51738,334697
12.52550,313646
12.53363,312082
12.54175,324979
12.54987,364947
12.55800,451288
12.56612,569743
12.57425,709936
12.58237,789645
12.59048,736585
12.59862,653765
12.60673,515511
12.61485,442719
12.62298,374524
12.63110,351951
12.63923,318967
12.64735,295470
12.65547,276468
12.66360,255854
12.67172,239637
12.67985,232381
12.68797,226368
12.69608,219373
12.70422,212587
12.71233,207724
12.72047,201624
12.72858,195553
12.73670,206218
12.74483,201547
12.75295,204568
12.76107,203925
12.76920,199967
12.77732,201799
12.78545,188426
12.79357,181290
12.80168,178218
12.80982,171215
12.81793,152355
12.82607,148887
12.83418,136865
12.84230,119089
12.85043,105588
12.85855,96708
12.86668,86677
12.87480,88193
12.88292,86428
12.89105,85454
12.89917,84071
12.90728,90475
12.91542,84808
12.92353,87396
12.93167,89418
12.93978,89810
12.94790,85868
12.95603,81660
12.96415,79347
12.97228,90305
12.98040,94267
12.98852,102863
12.99665,114526
13.00477,118867
13.01288,112951
13.02102,101533
13.02913,95339
13.03727,89307
13.04538,84566
13.05350,84565
13.06163,75998
13.06975,78933
13.07788,81298
13.08600,85414
13.09412,87225
13.10225,94661
13.11037,104332
13.11850,93878
13.12662,93176
13.13473,84744
13.14287,84811
13.15098,82632
13.15910,80102
13.16723,74765
13.17535,83028
13.18348,88609
13.19160,93353
13.19972,95845
13.20785,95444
13.21597,97970
13.22410,100118
13.23222,112013
13.24033,117100
13.24847,132058
13.25658,136513
13.26472,140860
13.27283,132983
13.28095,133088
13.28908,125579
13.29720,119882
13.30532,121465
13.31345,98110
13.32157,90459
13.32970,83604
13.33782,78048
13.34593,80770
13.35407,77080
13.36218,76135
13.37032,78678
13.37843,74140
13.38655,73028
13.39468,78793
13.40280,71102
13.41092,79150
13.41905,75982
13.42717,77817
13.43530,72156
13.44342,75697
13.45153,75898
13.45967,73896
13.46778,80342
13.47592,84247
13.48403,99891
13.49215,108044
13.50028,118208
13.50840,119342
13.51653,110122
13.52465,112158
13.53277,106835
13.54090,108033
13.54902,110633
13.55713,108189
13.56527,94512
13.57338,85030
13.58152,85252
13.58963,91305
13.59775,96539
13.60588,129928
13.61400,159261
13.62213,192764
13.63025,222445
13.63837,239967
13.64650,238180
13.65462,213841
13.66273,187782
13.67087,150382
13.67898,119401
13.68712,100859
13.69523,90586
13.70335,77651
13.71148,72893
13.71960,69891
13.72773,71252
13.73585,59756
13.74397,62717
13.75210,66280
13.76022,66745
13.76835,85473
13.77647,115332
13.78458,161780
13.79272,242884
13.80083,375800
13.80895,550663
13.81708,746953
13.82520,933421
13.83333,1156088
13.84145,1477722
13.84957,1905077
13.85770,2417014
13.86582,2764494
13.87395,2769238
13.88207,2414296
13.89018,1930923
13.89832,1366349
13.90643,937833
13.91457,635728
13.92268,456851
13.93080,331989
13.93893,256952
13.94705,214617
13.95517,187071
13.96330,172384
13.97142,147710
13.97955,137793
13.98767,132805
13.99578,116148
14.00392,108772
14.01203,116645
14.02017,112614
14.02828,121912
14.03640,119572
14.04453,114566
14.05265,110830
14.06078,97711
14.06890,99322
14.07702,102759
14.08515,95988
14.09327,100216
14.10138,103651
14.10952,99612
14.11763,100075
14.12577,87246
14.13388,88997
14.14200,81432
14.15013,88468
14.15825,96941
14.16638,117424
14.17450,152812
14.18262,196381
14.19075,226722
14.19887,250037
14.20698,247657
14.21512,246662
14.22323,248713
14.23137,262571
14.23948,297288
14.24760,316147
14.25573,344832
14.26385,390906
14.27198,469795
14.28010,511514
14.28822,494336
14.29635,458907
14.30447,375380
14.31260,299941
14.32072,233758
14.32883,192873
14.33697,177149
14.34508,163499
14.35320,162172
14.36133,151696
14.36945,149148
14.37758,146037
14.38570,132088
14.39382,125738
14.40195,123202
14.41007,121566
14.41820,140762
14.42632,175407
14.43443,233450
14.44257,279623
14.45068,305427
14.45880,284290
14.46693,255610
14.47505,212533
14.48318,182201
14.49130,182553
14.49942,199930
14.50755,214891
14.51567,228626
14.52380,230381
14.53192,205762
14.54003,194054
14.54817,169477
14.55628,155818
14.56442,139838
14.57253,140444
14.58065,124772
14.58878,116648
14.59690,116988
14.60502,101058
14.61315,89173
14.62127,85928
14.62940,84106
14.63752,80473
14.64563,77337
14.65377,73505
14.66188,70733
14.67002,70432
14.67813,70523
14.68625,69633
14.69438,66352
14.70250,77015
14.71063,67890
14.71875,65596
14.72687,68667
14.73500,68852
14.74312,73035
14.75123,81075
14.75937,94836
14.76748,98785
14.77562,101288
14.78373,100525
14.79185,115965
14.79998,142435
14.80810,240103
14.81623,598171
14.82435,1633684
14.83247,3963105
14.84060,7992626
14.84872,1.392431E+07
14.85683,2.027471E+07
14.86497,2.508132E+07
14.87308,2.639375E+07
14.88122,2.309825E+07
14.88933,1.605968E+07
14.89745,9291514
14.90558,4924403
14.91370,3005353
14.92183,2171886
14.92995,1844804
14.93807,1594520
14.94620,1399425
14.95432,1309759
14.96245,1208968
14.97057,1087559
14.97868,1006752
14.98682,919907
14.99493,852449
15.00305,788142
15.01118,721043
15.01930,686996
15.02743,668103
15.03555,643856
15.04367,621477
15.05180,605527
15.05992,588611
15.06805,574900
15.07617,531099
15.08428,504893
15.09242,488582
15.10053,457938
15.10867,427917
15.11678,406555
15.12490,376846
15.13303,363874
15.14115,382410
15.14927,417410
15.15740,473069
15.16552,526616
15.17365,524114
15.18177,475425
15.18988,395960
15.19802,299344
15.20613,235543
15.21427,180489
15.22238,157833
15.23050,152036
15.23863,145127
15.24675,144042
15.25487,143152
15.26300,145432
15.27112,132944
15.27925,130044
15.28737,119594
15.29548,129200
15.30362,121269
15.31173,114580
15.31987,112670
15.32798,108597
15.33610,99170
15.34423,97736
15.35235,89509
15.36048,97465
15.36860,90562
15.37672,95376
15.38485,93971
15.39297,112478
15.40108,111858
15.40922,114911
15.41733,113439
15.42547,109383
15.43358,105839
15.44170,106814
15.44983,104802
15.45795,100350
15.46608,101262
15.47420,114942
15.48232,156711
15.49045,269243
15.49857,502593
15.50668,924937
15.51482,1476107
15.52293,1998213
15.53107,2467002
15.53918,2605051
15.54730,2386514
15.55543,1983165
15.56355,1537745
15.57168,1068145
15.57980,759915
15.58792,543944
15.59605,401051
15.60417,321427
15.61230,282580
15.62042,242006
15.62853,220938
15.63667,200505
15.64478,192742
15.65290,171475
15.66103,153905
15.66915,154712
15.67728,151280
15.68540,137836
15.69352,127582
15.70165,118248
15.70977,114348
15.71790,111541
15.72602,100426
15.73413,97985
15.74227,98896
15.75038,103989
15.75852,101540
15.76663,130143
15.77475,205000
15.78288,396291
15.79100,776828
15.79912,1297537
15.80725,1852674
15.81537,2178861
15.82350,2056776
15.83162,1612817
15.83973,1071489
15.84787,704665
15.85598,469961
15.86412,351907
15.87223,290366
15.88035,259148
15.88848,232051
15.89660,233801
15.90472,216967
15.91285,206169
15.92097,193928
15.92910,192850
15.93722,178218
15.94533,173890
15.95347,170542
15.96158,164954
15.96972,162644
15.97783,163487
15.98595,148767
15.99408,141876
16.00220,138789
16.01033,139448
16.01845,135217
16.02657,143935
16.03470,156149
16.04282,166671
16.05093,188057
16.05907,188089
16.06718,178149
16.07532,162187
16.08343,141222
16.09155,127275
16.09968,116005
16.10780,104732
16.11593,100981
16.12405,106084
16.13217,112446
16.14030,131515
16.14842,163471
16.15655,195860
16.16467,231120
16.17278,262531
16.18092,280519
16.18903,265812
16.19715,231197
16.20528,203830
16.21340,167637
16.22153,155580
16.22965,142858
16.23777,138111
16.24590,137210
16.25402,134306
16.26215,120488
16.27027,110476
16.27838,105322
16.28652,107530
16.29463,111014
16.30275,133293
16.31088,169297
16.31900,212553
16.32713,235257
16.33525,245891
16.34337,234582
16.35150,215886
16.35962,191536
16.36775,161792
16.37587,143852
16.38398,136695
16.39212,127804
16.40023,128617
16.40837,116208
16.41648,115095
16.42460,110343
16.43273,108939
16.44085,107890
16.44897,114197
16.45710,138181
16.46522,248504
16.47335,603622
16.48147,1406744
16.48958,2823534
16.49772,4559608
16.50583,6099736
16.51397,6496427
16.52208,5626243
16.53020,4090950
16.53833,2501656
16.54645,1460369
16.55458,922827
16.56270,661148
16.57082,523557
16.57895,445984
16.58707,389536
16.59518,356407
16.60332,347044
16.61143,321732
16.61957,315434
16.62768,301626
16.63580,283687
16.64393,259403
16.65205,247648
16.66018,243601
16.66830,211984
16.67642,200427
16.68455,193846
16.69267,189600
16.70078,181798
16.70892,175288
16.71703,159587
16.72517,149829
16.73328,144374
16.74140,132408
16.74953,121260
16.75765,125416
16.76578,132004
16.77390,150046
16.78202,190478
16.79015,210393
16.79827,203465
16.80640,188527
16.81452,150141
16.82263,125826
16.83077,101974
16.83888,95065
16.84700,91108
16.85513,87653
16.86325,84821
16.87138,85618
16.87950,78237
16.88762,77682
16.89575,73445
16.90387,74165
16.91200,72308
16.92012,74624
16.92823,76429
16.93637,75631
16.94448,77115
16.95260,81456
16.96073,82262
16.96885,84394
16.97698,78927
16.98510,79600
16.99322,72350
17.00135,85583
17.00947,85349
17.01760,86229
17.02572,84783
17.03383,89610
17.04197,101029
17.05008,110096
17.05822,127537
17.06633,158973
17.07445,186569
17.08258,198830
17.09070,195963
17.09882,181388
17.10695,144518
17.11507,126908
17.12320,109500
17.13132,106039
17.13943,118519
17.14757,128174
17.15568,133462
17.16382,142648
17.17193,145349
17.18005,139210
17.18818,134649
17.19630,124871
17.20443,120321
17.21255,112972
17.22067,98192
17.22880,98390
17.23692,80546
17.24503,85796
17.25317,82288
17.26128,81372
17.26942,94478
17.27753,107337
17.28565,97672
17.29378,95117
17.30190,91256
17.31003,84132
17.31815,84380
17.32627,89235
17.33440,104128
17.34252,142174
17.35063,202202
17.35877,274467
17.36688,329040
17.37502,347956
17.38313,355672
17.39125,323263
17.39938,296747
17.40750,270521
17.41563,265548
17.42375,270824
17.43187,257518
17.44000,268269
17.44812,267773
17.45625,269466
17.46437,263701
17.47248,245719
17.48062,206663
17.48873,192945
17.49685,168521
17.50498,151172
17.51310,141587
17.52123,134825
17.52935,129078
17.53747,125969
17.54560,126806
17.55372,124084
17.56185,125467
17.56997,135448
17.57808,180660
17.58622,348459
17.59433,737408
17.60247,1598233
17.61058,2871716
17.61870,4442835
17.62683,5625637
17.63495,6192773
17.64307,5696634
17.65120,4495532
17.65932,3017450
17.66745,1883055
17.67557,1128352
17.68368,665067
17.69182,452187
17.69993,330129
17.70807,285814
17.71618,265548
17.72430,252409
17.73243,258720
17.74055,260427
17.74867,271575
17.75680,277192
17.76492,267167
17.77305,252640
17.78117,250876
17.78928,226810
17.79742,198807
17.80553,174684
17.81367,155190
17.82178,138982
17.82990,127208
17.83803,131838
17.84615,143640
17.85428,174911
17.86240,214203
17.87052,303885
17.87865,393008
17.88677,495199
17.89488,511015
17.90302,476526
17.91113,389732
17.91927,283717
17.92738,200448
17.93550,150832
17.94363,123257
17.95175,113581
17.95988,116504
17.96800,112120
17.97612,108236
17.98425,96628
17.99237,92899
18.00048,87456
18.00862,93399
18.01673,95726
18.02487,115129
18.03298,160992
18.04110,250922
18.04923,379391
18.05735,536662
18.06548,681978
18.07360,815394
18.08172,1186088
18.08985,2107143
18.09797,3795208
18.10610,6203610
18.11422,8424344
18.12233,9662311
18.13047,9363393
18.13858,7706049
18.14670,5813186
18.15483,4240441
18.16295,3289841
18.17108,2691691
18.17920,2213250
18.18732,1888919
18.19545,1675196
18.20357,1505399
18.21170,1335103
18.21982,1180638
18.22793,1060445
18.23607,948004
18.24418,883747
18.25232,807572
18.26043,768605
18.26855,722095
18.27668,667565
18.28480,609600
18.29292,532413
18.30105,446469
18.30917,360479
18.31730,262369
18.32542,207209
18.33353,182063
18.34167,163489
18.34978,147880
18.35792,137224
18.36603,135834
18.37415,131095
18.38228,123629
18.39040,125173
18.39853,127366
18.40665,119715
18.41477,129912
18.42290,146856
18.43102,195124
18.43913,272849
18.44727,402764
18.45538,564454
18.46352,760282
18.47163,949986
18.47975,1256153
18.48788,1605383
18.49600,2032850
18.50413,2308817
18.51225,2330893
18.52037,2078377
18.52850,1569427
18.53662,1094193
18.54473,695177
18.55287,436501
18.56098,306291
18.56912,233410
18.57723,194955
18.58535,171211
18.59348,155192
18.60160,140909
18.60973,149016
18.61785,176060
18.62597,195472
18.63410,231854
18.64222,270587
18.65035,302407
18.65847,305780
18.66658,287642
18.67472,247937
18.68283,210807
18.69095,172486
18.69908,141063
18.70720,130257
18.71533,128622
18.72345,130372
18.73157,139045
18.73970,135436
18.74782,133894
18.75595,137192
18.76407,128712
18.77218,115122
18.78032,110238
18.78843,110655
18.79655,103450
18.80468,97744
18.81280,99647
18.82093,105037
18.82905,107245
18.83717,109701
18.84530,106937
18.85342,110905
18.86155,108814
18.86967,121353
18.87778,134916
18.88592,154914
18.89403,194451
18.90217,227418
18.91028,248917
18.91840,241609
18.92653,226519
18.93465,206582
18.94277,193208
18.95090,193595
18.95902,193853
18.96715,205529
18.97527,217587
18.98338,217385
18.99152,212902
18.99963,204735
19.00777,184916
19.01588,152632
19.02400,138571
19.03213,131193
19.04025,124015
19.04838,117778
19.05650,115851
19.06462,116512
19.07275,103773
19.08087,105202
19.08898,104160
19.09712,121102
19.10523,161243
19.11337,221109
19.12148,279933
19.12960,333047
19.13773,338929
19.14585,309002
19.15398,248235
19.16210,186354
19.17022,143685
19.17835,118888
19.18647,100735
19.19458,89839
19.20272,90174
19.21083,87623
19.21897,84243
19.22708,73158
19.23520,83326
19.24333,84017
19.25145,83531
19.25958,84569
19.26770,84424
19.27582,86382
19.28395,84317
19.29207,95018
19.30020,116749
19.30832,141498
19.31643,175499
19.32457,194830
19.33268,201845
19.34080,191962
19.34893,155799
19.35705,144812
19.36518,143813
19.37330,173890
19.38142,242418
19.38955,338614
19.39767,420772
19.40580,465763
19.41392,433593
19.42203,357530
19.43017,272028
19.43828,228637
19.44642,187897
19.45453,174193
19.46265,152689
19.47078,144837
19.47890,137123
19.48702,134258
19.49515,134481
19.50327,140604
19.51140,158172
19.51952,179388
19.52763,215664
19.53577,256230
19.54388,299290
19.55202,341576
19.56013,368664
19.56825,364704
19.57638,335355
19.58450,291788
19.59262,247698
19.60075,202606
19.60887,166385
19.61700,152983
19.62512,167655
19.63323,178813
19.64137,179742
19.64948,184997
19.65762,218100
19.66573,261345
19.67385,359058
19.68198,489668
19.69010,645851
19.69823,776505
19.70635,846573
19.71447,862818
19.72260,825916
19.73072,785582
19.73883,694922
19.74697,600298
19.75508,523755
19.76322,470654
19.77133,406595
19.77945,384177
19.78758,375897
19.79570,450817
19.80383,578820
19.81195,748939
19.82007,959589
19.82820,1107000
19.83632,1096317
19.84443,1011428
19.85257,817181
19.86068,628745
19.86882,479849
19.87693,393052
19.88505,363414
19.89318,376567
19.90130,457187
19.90943,584782
19.91755,715425
19.92567,783370
19.93380,778996
19.94192,706867
19.95005,606155
19.95817,505862
19.96628,441971
19.97442,384943
19.98253,351847
19.99065,314322
19.99878,312974
20.00690,294322
20.01503,289105
20.02315,304769
20.03127,313113
20.03940,330484
20.04752,333284
20.05565,337614
20.06377,354068
20.07188,425362
20.08002,542659
20.08813,756899
20.09627,1058380
20.10438,1342739
20.11250,1477752
20.12063,1483504
20.12875,1325514
20.13687,1134131
20.14500,878829
20.15312,725905
20.16125,720705
20.16937,994701
20.17748,1780501
20.18562,3070204
20.19373,5080190
20.20187,7434855
20.20998,9564756
20.21810,1.090162E+07
20.22623,1.087866E+07
20.23435,9498021
20.24247,7727367
20.25060,5916990
20.25872,4707809
20.26685,4180714
20.27497,4607392
20.28308,5697038
20.29122,6873073
20.29933,7664539
20.30747,7765314
20.31558,7043930
20.32370,5669722
20.33183,4163860
20.33995,2870598
20.34808,1901761
20.35620,1265863
20.36432,894119
20.37245,674695
20.38057,542431
20.38868,441387
20.39682,401464
20.40493,337021
20.41307,305521
20.42118,284401
20.42930,266014
20.43743,253167
20.44555,245644
20.45368,260327
20.46180,264490
20.46992,290250
20.47805,312347
20.48617,308579
20.49430,297878
20.50242,284125
20.51053,256201
20.51867,228874
20.52678,220592
20.53490,203036
20.54303,190348
20.55115,200924
20.55928,207490
20.56740,203178
20.57552,219102
20.58365,215122
20.59177,206895
20.59990,197625
20.60802,183508
20.61613,180363
20.62427,179364
20.63238,176717
20.64050,188026
20.64863,194003
20.65675,219390
20.66488,251261
20.67300,278269
20.68112,284314
20.68925,279360
20.69737,257491
20.70550,231742
20.71362,210939
20.72173,185921
20.72987,168812
20.73798,165050
20.74612,165188
20.75423,165990
20.76235,177036
20.77048,208738
20.77860,238974
20.78672,286396
20.79485,350970
20.80297,527061
20.81110,915975
20.81922,1717116
20.82733,2735892
20.83547,3844408
20.84358,4515927
20.85172,4470271
20.85983,3718597
20.86795,2566036
20.87608,1533888
20.88420,881259
20.89232,539499
20.90045,385674
20.90857,313037
20.91670,294931
20.92482,314058
20.93293,359432
20.94107,411868
20.94918,480524
20.95732,534528
20.96543,547351
20.97355,522611
20.98168,458032
20.98980,393709
20.99793,312587
21.00605,260888
21.01417,227213
21.02230,211111
21.03042,198614
21.03853,204552
21.04667,211681
21.05478,226576
21.06292,220785
21.07103,223924
21.07915,208517
21.08728,194178
21.09540,184858
21.10353,171275
21.11165,162583
21.11977,156033
21.12790,160816
21.13602,156514
21.14415,192103
21.15227,277161
21.16038,456981
21.16852,753210
21.17663,1100074
21.18475,1374164
21.19288,1430809
21.20100,1302585
21.20913,1039195
21.21725,731111
21.22537,525719
21.23350,394895
21.24162,331710
21.24975,288574
21.25787,242007
21.26598,218143
21.27412,195134
21.28223,180122
21.29035,171458
21.29848,157106
21.30660,153735
21.31473,152006
21.32285,141406
21.33097,148074
21.33910,141216
21.34722,146566
21.35535,146526
21.36347,143658
21.37158,142587
21.37972,148073
21.38783,155649
21.39597,170666
21.40408,192321
21.41220,233700
21.42033,291891
21.42845,357817
21.43657,393966
21.44470,414720
21.45282,399358
21.46095,347559
21.46907,304270
21.47718,284429
21.48532,249385
21.49343,223217
21.50157,208672
21.50968,191849
21.51780,177625
21.52593,159853
21.53405,148542
21.54218,142567
21.55030,138924
21.55842,140036
21.56655,139825
21.57467,141266
21.58278,137201
21.59092,153956
21.59903,168090
21.60717,202470
21.61528,230898
21.62340,240999
21.63153,238302
21.63965,222092
21.64778,226834
21.65590,245014
21.66402,263059
21.67215,316022
21.68027,382392
21.68838,416953
21.69652,470983
21.70463,476336
21.71277,473081
21.72088,411539
21.72900,350765
21.73713,277179
21.74525,216742
21.75338,185505
21.76150,169013
21.76962,152821
21.77775,138312
21.78587,135890
21.79400,145650
21.80212,150123
21.81023,156641
21.81837,172158
21.82648,175067
21.83460,186214
21.84273,189358
21.85085,192925
21.85898,211795
21.86710,232529
21.87522,249754
21.88335,245047
21.89147,231257
21.89960,226184
21.90772,212149
21.91583,196902
21.92397,190127
21.93208,170448
21.94022,171248
21.94833,163698
21.95645,148527
21.96458,134121
21.97270,125327
21.98082,112693
21.98895,111451
21.99707,104517
22.00520,104937
22.01332,103539
22.02143,104883
22.02957,115501
22.03768,127916
22.04582,143136
22.05393,156727
22.06205,168468
22.07018,166597
22.07830,166853
22.08642,169441
22.09455,154547
22.10267,141602
22.11080,142861
22.11892,142362
22.12703,122282
22.13517,115696
22.14328,111374
22.15142,104716
22.15953,102522
22.16765,99213
22.17578,97836
22.18390,98076
22.19203,94190
22.20015,101395
22.20827,94493
22.21640,102016
22.22452,95937
22.23263,104651
22.24077,102799
22.24888,110076
22.25702,123537
22.26513,126544
22.27325,136692
22.28138,138958
22.28950,158419
22.29763,181655
22.30575,205848
22.31387,234511
22.32200,248602
22.33012,249050
22.33823,223814
22.34637,202213
22.35448,172227
22.36262,150572
22.37073,140303
22.37885,128006
22.38698,129758
22.39510,139681
22.40323,181403
22.41135,277288
22.41947,441862
22.42760,670931
22.43572,930061
22.44385,1093863
22.45197,1124673
22.46008,1000533
22.46822,791735
22.47633,544004
22.48445,400227
22.49258,307653
22.50070,266211
22.50883,300785
22.51695,388885
22.52507,473117
22.53320,568363
22.54132,636653
22.54945,651375
22.55757,624802
22.56568,513981
22.57382,426548
22.58193,344982
22.59007,279047
22.59818,230860
22.60630,205861
22.61443,179024
22.62255,174861
22.63067,149936
22.63880,133464
22.64692,128147
22.65505,137666
22.66317,134065
22.67128,156276
22.67942,157004
22.68753,165041
22.69567,171946
22.70378,203646
22.71190,245184
22.72003,332871
22.72815,428741
22.73627,532031
22.74440,575070
22.75252,557309
22.76065,484149
22.76877,392748
22.77688,323601
22.78502,279698
22.79313,266733
22.80127,289661
22.80938,364641
22.81750,464782
22.82563,574959
22.83375,661195
22.84188,680516
22.85000,617496
22.85812,522595
22.86625,438902
22.87437,384127
22.88248,393977
22.89062,460022
22.89873,569512
22.90687,710022
22.91498,797708
22.92310,856329
22.93123,827130
22.93935,757462
22.94748,708022
22.95560,647629
22.96372,562728
22.97185,483529
22.97997,377994
22.98810,285412
22.99622,217122
23.00433,172924
23.01247,153544
23.02058,135201
23.02870,126754
23.03683,117149
23.04495,108641
23.05308,116579
23.06120,115808
23.06932,124557
23.07745,143129
23.08557,165275
23.09370,181803
23.10182,189918
23.10993,198121
23.11807,187156
23.12618,168227
23.13430,150285
23.14243,134603
23.15055,126648
23.15868,118849
23.16680,111030
23.17492,116283
23.18305,107928
23.19117,102277
23.19930,104231
23.20742,94871
23.21553,102844
23.22367,90654
23.23178,90663
23.23992,86842
23.24803,90161
23.25615,106999
23.26428,133011
23.27240,173794
23.28052,220745
23.28865,252863
23.29677,268100
23.30490,247091
23.31302,210788
23.32113,180775
23.32927,146265
23.33738,141745
23.34552,156865
23.35363,210627
23.36175,295186
23.36988,423771
23.37800,556841
23.38612,685692
23.39425,734039
23.40237,691547
23.41050,598309
23.41862,443102
23.42673,343819
23.43487,235574
23.44298,173910
23.45112,141702
23.45923,119631
23.46735,110418
23.47548,97230
23.48360,92827
23.49173,89459
23.49985,93049
23.50797,88925
23.51610,88495
23.52422,85240
23.53233,91525
23.54047,94415
23.54858,100989
23.55672,115900
23.56483,141449
23.57295,167664
23.58108,231133
23.58920,336998
23.59733,519947
23.60545,782286
23.61357,1110955
23.62170,1316741
23.62982,1374289
23.63795,1264908
23.64607,1009824
23.65418,733304
23.66232,481913
23.67043,330700
23.67855,241330
23.68668,192948
23.69480,168377
23.70293,158279
23.71105,143624
23.71917,133781
23.72730,125092
23.73542,119013
23.74355,118405
23.75167,118897
23.75978,116289
23.76792,106917
23.77603,139854
23.78417,227855
23.79228,437870
23.80040,737168
23.80853,1096115
23.81665,1357730
23.82477,1520757
23.83290,1396802
23.84102,1168959
23.84915,895535
23.85727,682657
23.86538,516438
23.87352,431913
23.88163,352294
23.88977,316994
23.89788,292891
23.90600,292811
23.91413,342476
23.92225,420678
23.93037,548860
23.93850,671882
23.94662,705436
23.95475,625979
23.96287,530131
23.97098,399123
23.97912,295454
23.98723,239522
23.99537,205486
24.00348,183934
24.01160,176471
24.01973,176658
24.02785,172271
24.03598,183101
24.04410,185953
24.05222,196366
24.06035,196975
24.06847,179887
24.07658,169778
24.08472,147389
24.09283,138056
24.10097,132638
24.10908,118786
24.11720,116801
24.12533,128910
24.13345,130448
24.14158,147067
24.14970,193802
24.15782,263140
24.16595,351353
24.17407,455476
24.18218,499615
24.19032,517817
24.19843,485528
24.20657,474155
24.21468,463516
24.22280,446353
24.23093,412325
24.23905,358081
24.24718,301665
24.25530,259708
24.26342,216764
24.27155,189873
24.27967,173911
24.28780,158625
24.29592,141634
24.30403,139069
24.31217,143575
24.32028,142371
24.32840,151483
24.33653,171596
24.34465,182198
24.35278,178432
24.36090,175887
24.36902,159676
24.37715,143576
24.38527,130568
24.39340,127385
24.40152,116646
24.40963,115147
24.41777,131809
24.42588,142673
24.43402,163709
24.44213,169661
24.45025,160339
24.45838,150313
24.46650,137281
24.47462,132253
24.48275,129738
24.49087,133822
24.49900,146053
24.50712,143195
24.51523,146086
24.52337,158928
24.53148,169715
24.53962,186733
24.54773,206430
24.55585,275584
24.56398,359490
24.57210,442040
24.58022,510575
24.58835,561568
24.59647,542957
24.60460,475741
24.61272,398553
24.62083,320272
24.62897,274053
24.63708,220757
24.64522,184912
24.65333,167951
24.66145,159505
24.66958,144396
24.67770,152775
24.68583,148623
24.69395,147893
24.70207,138774
24.71020,142988
24.71832,133034
24.72643,137549
24.73457,132381
24.74268,130318
24.75082,140902
24.75893,144088
24.76705,136932
24.77518,139103
24.78330,148250
24.79143,169029
24.79955,189413
24.80767,209902
24.81580,223054
24.82392,220622
24.83205,223913
24.84017,250974
24.84828,292198
24.85642,394061
24.86453,542550
24.87265,783444
24.88078,1118221
24.88890,1570736
24.89703,2188693
24.90515,2907426
24.91327,3517438
24.92140,3589838
24.92952,3218185
24.93765,2523485
24.94577,1751205
24.95388,1074565
24.96202,644312
24.97013,368226
24.97825,262626
24.98638,199127
24.99450,170234
25.00263,157505
25.01075,148478
25.01887,136963
25.02700,131720
25.03512,132731
25.04325,134398
25.05137,133094
25.05948,128480
25.06762,131044
25.07573,130665
25.08387,133468
25.09198,138727
25.10010,149352
25.10823,182375
25.11635,319628
25.12447,746937
25.13260,1913166
25.14072,4183040
25.14885,8128097
25.15697,1.297248E+07
25.16508,1.757873E+07
25.17322,2.017193E+07
25.18133,1.995012E+07
25.18947,1.645423E+07
25.19758,1.165505E+07
25.20570,6983361
25.21383,3780280
25.22195,1961566
25.23007,1037546
25.23820,611032
25.24632,424810
25.25445,398259
25.26257,460210
25.27068,645998
25.27882,883780
25.28693,1066141
25.29507,1207876
25.30318,1164138
25.31130,1013376
25.31943,787309
25.32755,569663
25.33568,381107
25.34380,272285
25.35192,214802
25.36005,179928
25.36817,157198
25.37628,150842
25.38442,139337
25.39253,130076
25.40067,127192
25.40878,121189
25.41690,109042
25.42503,108324
25.43315,106589
25.44128,106945
25.44940,104907
25.45752,106138
25.46565,112241
25.47377,112302
25.48190,114141
25.49002,118725
25.49813,121852
25.50627,121353
25.51438,123570
25.52250,127089
25.53063,119731
25.53875,122067
25.54688,115051
25.55500,101965
25.56312,96303
25.57125,102309
25.57937,103889
25.58750,103766
25.59562,110866
25.60373,111510
25.61187,116887
25.61998,111014
25.62810,113007
25.63623,104160
25.64435,98316
25.65248,91640
25.66060,95071
25.66872,98390
25.67685,100423
25.68497,112738
25.69310,137679
25.70122,166433
25.70933,190619
25.71747,208648
25.72558,216353
25.73372,212347
25.74183,200411
25.74995,169971
25.75808,147793
25.76620,133297
25.77432,108441
25.78245,106637
25.79057,98180
25.79870,96862
25.80682,93842
25.81493,88236
25.82307,90175
25.83118,92662
25.83932,95546
25.84743,100960
25.85555,96518
25.86368,106016
25.87180,109867
25.87993,110268
25.88805,106893
25.89617,116535
25.90430,114361
25.91242,113809
25.92053,115391
25.92867,116024
25.93678,112358
25.94492,113793
25.95303,106063
25.96115,112658
25.96928,129858
25.97740,128726
25.98553,126169
25.99365,127878
26.00177,122931
26.00990,113956
26.01802,102868
26.02613,95574
26.03427,94805
26.04238,94956
26.05052,111174
26.05863,121814
26.06675,119012
26.07488,125417
26.08300,124364
26.09113,131842
26.09925,143975
26.10737,160676
26.11550,174977
26.12362,171102
26.13175,163884
26.13987,153518
26.14798,144477
26.15612,136428
26.16423,143460
26.17235,150488
26.18048,172859
26.18860,177671
26.19673,185495
26.20485,182605
26.21297,177721
26.22110,163226
26.22922,149702
26.23735,137136
26.24547,125643
26.25358,122447
26.26172,117625
26.26983,107544
26.27797,108164
26.28608,101405
26.29420,95185
26.30233,91393
26.31045,92928
26.31857,87275
26.32670,89865
26.33482,84853
26.34295,88035
26.35107,102402
26.35918,134197
26.36732,231288
26.37543,433153
26.38357,914034
26.39168,1668153
26.39980,2757499
26.40793,3944147
26.41605,4911332
26.42417,5203406
26.43230,4929082
26.44042,4051223
26.44855,3017131
26.45667,2098206
26.46478,1413115
26.47292,947089
26.48103,687837
26.48917,532744
26.49728,469266
26.50540,426556
26.51353,397469
26.52165,369932
26.52978,348850
26.53790,335418
26.54602,322374
26.55415,314848
26.56227,300445
26.57038,303047
26.57852,307700
26.58663,302114
26.59477,298597
26.60288,298827
26.61100,301098
26.61913,289661
26.62725,311888
26.63538,306737
26.64350,298142
26.65162,303220
26.65975,302575
26.66787,303154
26.67598,295335
26.68412,289671
26.69223,293565
26.70037,296454
26.70848,294826
26.71660,277412
26.72473,290089
26.73285,283797
26.74098,284438
26.74910,287810
26.75722,289227
26.76535,287214
26.77347,295458
26.78160,290589
26.78972,307013
26.79783,306443
26.80597,293103
26.81408,306134
26.82220,303705
26.83033,311087
26.83845,306189
26.84658,297739
26.85470,290099
26.86282,278719
26.87095,272057
26.87907,271758
26.88720,262280
26.89532,262438
26.90343,265184
26.91157,270854
26.91968,270626
26.92782,270528
26.93593,258293
26.94405,250712
26.95218,252588
26.96030,241287
26.96842,246135
26.97655,261208
26.98467,272301
26.99280,296638
27.00092,328583
27.00903,390093
27.01717,487100
27.02528,628247
27.03342,761400
27.04153,880260
27.04965,913481
27.05778,873704
27.06590,758749
27.07402,631861
27.08215,538499
27.09027,475462
27.09840,423689
27.10652,388290
27.11463,366608
27.12277,351163
27.13088,352043
27.13902,346604
27.14713,328443
27.15525,323911
27.16338,318885
27.17150,326619
27.17963,366552
27.18775,418454
27.19587,552223
27.20400,655009
27.21212,747013
27.22023,777623
27.22837,736242
27.23648,647472
27.24462,545554
27.25273,452751
27.26085,384780
27.26898,329100
27.27710,299524
27.28523,272698
27.29335,253303
27.30147,231150
27.30960,241836
27.31772,234745
27.32585,237062
27.33397,251685
27.34208,261624
27.35022,284958
27.35833,270365
27.36645,285433
27.37458,274773
27.38270,274908
27.39083,274996
27.39895,273532
27.40707,261363
27.41520,249226
27.42332,236028
27.43145,246650
27.43957,234071
27.44768,248025
27.45582,242590
27.46393,234413
27.47205,226942
27.48018,219976
27.48830,217593
27.49643,194601
27.50455,190644
27.51267,184137
27.52080,183384
27.52892,182308
27.53705,187230
27.54517,191731
27.55328,183453
27.56142,190893
27.56953,187724
27.57767,186241
27.58578,210000
27.59390,239735
27.60203,304467
27.61015,360719
27.61827,401332
27.62640,415324
27.63452,411863
27.64265,376083
27.65077,323784
27.65888,292306
27.66702,273010
27.67513,251637
27.68327,246207
27.69138,253403
27.69950,267869
27.70763,297791
27.71575,307929
27.72387,298724
27.73200,283599
27.74012,246005
27.74825,212191
27.75637,193678
27.76448,173625
27.77262,159261
27.78073,168358
27.78887,180929
27.79698,193525
27.80510,207713
27.81323,221298
27.82135,217050
27.82948,205197
27.83760,188072
27.84572,171249
27.85385,157670
27.86197,156058
27.87008,154469
27.87822,144819
27.88633,143909
27.89447,140065
27.90258,139213
27.91070,142506
27.91883,142384
27.92695,145884
27.93508,148392
27.94320,146653
27.95132,149642
27.95945,141348
27.96757,148605
27.97570,140922
27.98382,135268
27.99193,142383
28.00007,141050
28.00818,146857
28.01630,165335
28.02443,188010
28.03255,208298
28.04068,281220
28.04880,372548
28.05692,493675
28.06505,614469
28.07317,705537
28.08130,692317
28.08942,598248
28.09753,485381
28.10567,356887
28.11378,249072
28.12190,191740
28.13003,163113
28.13815,150584
28.14628,142043
28.15440,137899
28.16252,129849
28.17065,133020
28.17877,132590
28.18690,135548
28.19502,144862
28.20313,153607
28.21127,190657
28.21938,228066
28.22752,284360
28.23563,347279
28.24375,375725
28.25188,393382
28.26000,365806
28.26812,319282
28.27625,257018
28.28437,205460
28.29250,168576
28.30062,151540
28.30873,157424
28.31687,178922
28.32498,226077
28.33312,280439
28.34123,329058
28.34935,358575
28.35748,356224
28.36560,324751
28.37373,275702
28.38185,258979
28.38997,227069
28.39810,236980
28.40622,232234
28.41433,252825
28.42247,244601
28.43058,243431
28.43872,241000
28.44683,215742
28.45495,196100
28.46308,183571
28.47120,185058
28.47933,172551
28.48745,176138
28.49557,202610
28.50370,237876
28.51182,289743
28.51993,331385
28.52807,377972
28.53618,381698
28.54432,362499
28.55243,311926
28.56055,248013
28.56868,197047
28.57680,156119
28.58493,131703
28.59305,123856
28.60117,119141
28.60930,119118
28.61742,119093
28.62555,126265
28.63367,155401
28.64178,174459
28.64992,206451
28.65803,218005
28.66615,219877
28.67428,222507
28.68240,181663
28.69053,172427
28.69865,146887
28.70677,134727
28.71490,117184
28.72302,114712
28.73115,115047
28.73927,106144
28.74738,110284
28.75552,101999
28.76363,108664
28.77175,105486
28.77988,107669
28.78800,120635
28.79613,130739
28.80425,148630
28.81237,159575
28.82050,180499
28.82862,185724
28.83675,192064
28.84487,194946
28.85298,175534
28.86112,164933
28.86923,148192
28.87737,145750
28.88548,144117
28.89360,166413
28.90173,197117
28.90985,247034
28.91797,272749
28.92610,294957
28.93422,271077
28.94235,253893
28.95047,228838
28.95858,191035
28.96672,168757
28.97483,163273
28.98297,144020
28.99108,136374
28.99920,122514
29.00733,113866
29.01545,113359
29.02358,106364
29.03170,101083
29.03982,103783
29.04795,109774
29.05607,105784
29.06418,105200
29.07232,108194
29.08043,113552
29.08857,108636
29.09668,118265
29.10480,125278
29.11293,134867
29.12105,130584
29.12918,125376
29.13730,121687
29.14542,106750
29.15355,102617
29.16167,89663
29.16980,92380
29.17792,96026
29.18603,101079
29.19417,109283
29.20228,134879
29.21040,184402
29.21853,252872
29.22665,333802
29.23478,410474
29.24290,447817
29.25102,454256
29.25915,417270
29.26727,383455
29.27540,363589
29.28352,349657
29.29163,302484
29.29977,262390
29.30788,216856
29.31600,169983
29.32413,147730
29.33225,125098
29.34038,103162
29.34850,97367
29.35662,90147
29.36475,88882
29.37287,94010
29.38100,94509
29.38912,91350
29.39723,93606
29.40537,106345
29.41348,105295
29.42162,112411
29.42973,120502
29.43785,117224
29.44598,128027
29.45410,122915
29.46222,116655
29.47035,107697
29.47847,102659
29.48660,98594
29.49472,97255
29.50283,100854
29.51097,96422
29.51908,100281
29.52722,109729
29.53533,108292
29.54345,105512
29.55158,105227
29.55970,99845
29.56782,100123
29.57595,99577
29.58407,97222
29.59220,90005
29.60032,87325
29.60843,87174
29.61657,92209
29.62468,89109
29.63282,88313
29.64093,87962
29.64905,91508
29.65718,89993
29.66530,87458
29.67343,90260
29.68155,93780
29.68967,96620
29.69780,118840
29.70592,133963
29.71403,147563
29.72217,165590
29.73028,162879
29.73842,149140
29.74653,135478
29.75465,119713
29.76278,105268
29.77090,107313
29.77903,94795
29.78715,88649
29.79527,87524
29.80340,81706
29.81152,82744
29.81965,84805
29.82777,90305
29.83588,82466
29.84402,82089
29.85213,79455
29.86025,83263
29.86838,86356
29.87650,93684
29.88463,98274
29.89275,112800
29.90087,161105
29.90900,200359
29.91712,257134
29.92525,282989
29.93337,278529
29.94148,235257
29.94962,188654
29.95773,154844
29.96585,114579
29.97398,100181
29.98210,99089
29.99023,92345
29.99835,101438
30.00647,106550
30.01460,121528
30.02272,116954
30.03085,128700
30.03897,136816
30.04708,133555
30.05522,134635
30.06333,137171
30.07147,137659
30.07958,127360
30.08770,131630
30.09583,134459
30.10395,131971
30.11207,141009
30.12020,132674
30.12832,125043
30.13645,122729
30.14457,116398
30.15268,120284
30.16082,116033
30.16893,114468
30.17707,125039
30.18518,123796
30.19330,132425
30.20143,144222
30.20955,176030
30.21768,189659
30.22580,204180
30.23392,200838
30.24205,188416
30.25017,167654
30.25828,151102
30.26642,121228
30.27453,107290
30.28267,101314
30.29078,94225
30.29890,94739
30.30703,92405
30.31515,86230
30.32328,86700
30.33140,89286
30.33952,85803
30.34765,93713
30.35577,92416
30.36388,91961
30.37202,98676
30.38013,96429
30.38827,97436
30.39638,93016
30.40450,85540
30.41263,84708
30.42075,85272
30.42888,82911
30.43700,85233
30.44512,85829
30.45325,84063
30.46137,84476
30.46950,83892
30.47762,88765
30.48573,89733
30.49387,91307
30.50198,95636
30.51010,112136
30.51823,108986
30.52635,113736
30.53448,111653
30.54260,106288
30.55072,100602
30.55885,104081
30.56697,101340
30.57510,103672
30.58322,102416
30.59133,109574
30.59947,111267
30.60758,108594
30.61570,113206
30.62383,114814
30.63195,113420
30.64008,113887
30.64820,103535
30.65632,103840
30.66445,107911
30.67257,98975
30.68070,92833
30.68882,84323
30.69693,87590
30.70507,92728
30.71318,82962
30.72132,87210
30.72943,88157
30.73755,87375
30.74568,87671
30.75380,90614
30.76192,94838
30.77005,88678
30.77817,95664
30.78630,100200
30.79442,114140
30.80253,144361
30.81067,205772
30.81878,295663
30.82692,383630
30.83503,433655
30.84315,429830
30.85128,367272
30.85940,281187
30.86753,216579
30.87565,187429
30.88377,157616
30.89190,161840
30.90002,166230
30.90813,163487
30.91627,165632
30.92438,162229
30.93252,138700
30.94063,121110
30.94875,115741
30.95688,97476
30.96500,112995
30.97313,115514
30.98125,118320
30.98937,123471
30.99750,121791
31.00562,113025
31.01373,112570
31.02187,104512
31.02998,91763
31.03812,104004
31.04623,96157
31.05435,94491
31.06248,94485
31.07060,103001
31.07873,101053
31.08685,100680
31.09497,101928
31.10310,110845
31.11122,128610
31.11935,152872
31.12747,169195
31.13558,177928
31.14372,169213
31.15183,164687
31.15995,150960
31.16808,140495
31.17620,137150
31.18433,146843
31.19245,149556
31.20057,155770
31.20870,159310
31.21682,182705
31.22495,208452
31.23307,226949
31.24118,256471
31.24932,247949
31.25743,234207
31.26557,203806
31.27368,163223
31.28180,149598
31.28993,109436
31.29805,99546
31.30617,97175
31.31430,101354
31.32242,97110
31.33055,117089
31.33867,121062
31.34678,137513
31.35492,140171
31.36303,148322
31.37117,145461
31.37928,145849
31.38740,130417
31.39553,107133
31.40365,107701
31.41177,96489
31.41990,94416
31.42802,90160
31.43615,93393
31.44427,92090
31.45238,91143
31.46052,90044
31.46863,107778
31.47677,100679
31.48488,97343
31.49300,103121
31.50113,113645
31.50925,128681
31.51738,136180
31.52550,166993
31.53362,178152
31.54175,210588
31.54987,222641
31.55798,232429
31.56612,224529
31.57423,199285
31.58237,173150
31.59048,154945
31.59860,140323
31.60673,131649
31.61485,117024
31.62298,111276
31.63110,107134
31.63922,101793
31.64735,100016
31.65547,107019
31.66360,110560
31.67172,124265
31.67983,144254
31.68797,161131
31.69608,164826
31.70420,176630
31.71233,166321
31.72045,147209
31.72858,129656
31.73670,123518
31.74482,105744
31.75295,101398
31.76107,95362
31.76920,94185
31.77732,89081
31.78543,95461
31.79357,91961
31.80168,93606
31.80980,94526
31.81793,91375
31.82605,96662
31.83418,92134
31.84230,89257
31.85042,93409
31.85855,96264
31.86667,91253
31.87480,100257
31.88292,101425
31.89103,100531
31.89917,104302
31.90728,101165
31.91542,98612
31.92353,96557
31.93165,98889
31.93978,91526
31.94790,102727
31.95602,105143
31.96415,106219
31.97227,110954
31.98040,114828
31.98852,128438
31.99663,133679
32.00477,153578
32.01288,185538
32.02102,206189
32.02913,236887
32.03725,245820
32.04538,246767
32.05350,212291
32.06162,193560
32.06975,167887
32.07787,146171
32.08600,132188
32.09412,115877
32.10223,121173
32.11037,121887
32.11848,113619
32.12662,120605
32.13473,108081
32.14285,106736
32.15098,97586
32.15910,96971
32.16723,95380
32.17535,92376
32.18347,93110
32.19160,104621
32.19972,102577
32.20783,94375
32.21597,97251
32.22408,100277
32.23222,104989
32.24033,98516
32.24845,96927
32.25658,94453
32.26470,94552
32.27283,89040
32.28095,100764
32.28907,98337
32.29720,103006
32.30532,98287
32.31345,110010
32.32157,102651
32.32968,99060
32.33782,95630
32.34593,100019
32.35405,107658
32.36218,100300
32.37030,104983
32.37843,110497
32.38655,107267
32.39467,112181
32.40280,102898
32.41092,99941
32.41905,93713
32.42717,92522
32.43528,96415
32.44342,96901
32.45153,91857
32.45965,90467
32.46778,88429
32.47590,93735
32.48403,90200
32.49215,86064
32.50027,85998
32.50840,86351
32.51652,93363
32.52465,94031
32.53277,95871
32.54088,91656
32.54902,97593
32.55713,97044
32.56527,99014
32.57338,99850
32.58150,105503
32.58963,100632
32.59775,109781
32.60587,101777
32.61400,106761
32.62212,104369
32.63025,108039
32.63837,108139
32.64648,110099
32.65462,101628
32.66273,109262
32.67087,105464
32.67898,106549
32.68710,116023
32.69523,120124
32.70335,122393
32.71148,124848
32.71960,123331
32.72772,116968
32.73585,114809
32.74397,108654
32.75208,109202
32.76022,104040
32.76833,104115
32.77647,99773
32.78458,96588
32.79270,97415
32.80083,95695
32.80895,98088
32.81708,95930
32.82520,99653
32.83332,99238
32.84145,106377
32.84957,112832
32.85768,112019
32.86582,105808
32.87393,106654
32.88207,109225
32.89018,111485
32.89830,123206
32.90643,124288
32.91455,124341
32.92268,134808
32.93080,139505
32.93892,133431
32.94705,127551
32.95517,122361
32.96330,108117
32.97142,106494
32.97953,115467
32.98767,127683
32.99578,163510
33.00390,231647
33.01203,306468
33.02015,393103
33.02828,439826
33.03640,422885
33.04452,354821
33.05265,275175
33.06077,224103
33.06890,196571
33.07702,203158
33.08513,230967
33.09327,287216
33.10138,348511
33.10950,438753
33.11763,519528
33.12575,574738
33.13388,579395
33.14200,525761
33.15012,434759
33.15825,334402
33.16637,276914
33.17450,237679
33.18262,211996
33.19073,193927
33.19887,166759
33.20698,137695
33.21512,129176
33.22323,117300
33.23135,129764
33.23948,124201
33.24760,132722
33.25572,132906
33.26385,143352
33.27197,129076
33.28010,125903
33.28822,119533
33.29633,120497
33.30447,117090
33.31258,118292
33.32072,122510
33.32883,124077
33.33695,125954
33.34508,128179
33.35320,126100
33.36133,150119
33.36945,163167
33.37757,182692
33.38570,186829
33.39382,196482
33.40193,166282
33.41007,148788
33.41818,132849
33.42632,111365
33.43443,102985
33.44255,99914
33.45068,101179
33.45880,96514
33.46693,96147
33.47505,92656
33.48317,99577
33.49130,89227
33.49942,93399
33.50753,103431
33.51567,112853
33.52378,120968
33.53192,118339
33.54003,136638
33.54815,139756
33.55628,142994
33.56440,161075
33.57253,164581
33.58065,195201
33.58877,178869
33.59690,168669
33.60502,147456
33.61315,128535
33.62127,108394
33.62938,99039
33.63752,111188
33.64563,107548
33.65375,119156
33.66188,139584
33.67000,140930
33.67813,140292
33.68625,136671
33.69437,139975
33.70250,136885
33.71062,117546
33.71875,108573
33.72687,100320
33.73498,99174
33.74312,93078
33.75123,90695
33.75937,90215
33.76748,92372
33.77560,94330
33.78373,89640
33.79185,93805
33.79997,93180
33.80810,93294
33.81622,89628
33.82435,89588
33.83247,83904
33.84058,89816
33.84872,98123
33.85683,91812
33.86497,96886
33.87308,96607
33.88120,104260
33.88933,102750
33.89745,103732
33.90557,112670
33.91370,110510
33.92182,112505
33.92995,112820
33.93807,105745
33.94618,103905
33.95432,98935
33.96243,91127
33.97057,94502
33.97868,97557
33.98680,101553
33.99493,97513
34.00305,93793
34.01118,91387
34.01930,90467
34.02742,88802
34.03555,91241
34.04367,89007
34.05178,96823
34.05992,96193
34.06803,98381
34.07617,92861
34.08428,103093
34.09240,93299
34.10053,99938
34.10865,97944
34.11678,97499
34.12490,98166
34.13302,96989
34.14115,98673
34.14927,102813
34.15738,98747
34.16552,99670
34.17363,96146
34.18177,98596
34.18988,96411
34.19800,91952
34.20613,102496
34.21425,95052
34.22238,100453
34.23050,100040
34.23862,96357
34.24675,95990
34.25487,96522
34.26300,102534
34.27112,95676
34.27923,89999
34.28737,92174
34.29548,89510
34.30360,91078
34.31173,87164
34.31985,91451
34.32798,92440
34.33610,91164
34.34422,100389
34.35235,103995
34.36047,96922
34.36860,99168
34.37672,105272
34.38483,95443
34.39297,96557
34.40108,93681
34.40922,96497
34.41733,87439
34.42545,92711
34.43358,93823
34.44170,96586
34.44982,94789
34.45795,97127
34.46607,94247
34.47420,95033
34.48232,95886
34.49043,99906
34.49857,90868
34.50668,94368
34.51482,92811
34.52293,91984
34.53105,99297
34.53918,99481
34.54730,109810
34.55543,121213
34.56355,136865
34.57167,149876
34.57980,160025
34.58792,164170
34.59603,167473
34.60417,169720
34.61228,154295
34.62042,141095
34.62853,133010
34.63665,120618
34.64478,114401
34.65290,113359
34.66103,111847
34.66915,102643
34.67727,106518
34.68540,115546
34.69352,105429
34.70163,109232
34.70977,99253
34.71788,101792
34.72602,98220
34.73413,98504
34.74225,97085
34.75038,103682
34.75850,106107
34.76663,103788
34.77475,115154
34.78287,127301
34.79100,128668
34.79912,131386
34.80725,136838
34.81537,136284
34.82348,132247
34.83162,120010
34.83973,110166
34.84785,110932
34.85598,109225
34.86410,113078
34.87223,111798
34.88035,103364
34.88847,104482
34.89660,106803
34.90472,98759
34.91285,97630
34.92097,101352
34.92908,100025
34.93722,101952
34.94533,105740
34.95345,108297
34.96158,115919
34.96970,115291
34.97783,126187
34.98595,123632
34.99407,136016
35.00220,143182
35.01032,137346
35.01845,126139
35.02657,125828
35.03468,112965
35.04282,117694
35.05093,113458
35.05907,112688
35.06718,106266
35.07530,102151
35.08343,99540
35.09155,105725
35.09967,110384
35.10780,99579
35.11592,107887
35.12405,101183
35.13217,101082
35.14028,101424
35.14842,102765
35.15653,112300
35.16467,113158
35.17278,110088
35.18090,120502
35.18903,113768
35.19715,111275
35.20528,112265
35.21340,108428
35.22152,108362
35.22965,106371
35.23777,102923
35.24588,102269
35.25402,102091
35.26213,106514
35.27027,102674
35.27838,112982
35.28650,102012
35.29463,109392
35.30275,105750
35.31088,100691
35.31900,108107
35.32712,108360
35.33525,102733
35.34337,108918
35.35148,104330
35.35962,101927
35.36773,104222
35.37587,106219
35.38398,107523
35.39210,106493
35.40023,108180
35.40835,116323
35.41648,134893
35.42460,154378
35.43272,175839
35.44085,199119
35.44897,217846
35.45710,213308
35.46522,204824
35.47333,188358
35.48147,170770
35.48958,149288
35.49770,137943
35.50583,133372
35.51395,131911
35.52208,130384
35.53020,131275
35.53832,123097
35.54645,120083
35.55457,122352
35.56270,118211
35.57082,116484
35.57893,112478
35.58707,115988
35.59518,114914
35.60332,111542
35.61143,111797
35.61955,103964
35.62768,111169
35.63580,105532
35.64392,111141
35.65205,103565
35.66017,113077
35.66830,108059
35.67642,108654
35.68453,106166
35.69267,112154
35.70078,109057
35.70892,113025
35.71703,116885
35.72515,119249
35.73328,121034
35.74140,127509
35.74952,132840
35.75765,148580
35.76577,178308
35.77390,204555
35.78202,240828
35.79013,260866
35.79827,272678
35.80638,255796
35.81452,225487
35.82263,192641
35.83075,153007
35.83888,139594
35.84700,124736
35.85513,117053
35.86325,116562
35.87137,115028
35.87950,117296
35.88762,111939
35.89573,117340
35.90387,119969
35.91198,118362
35.92012,117497
35.92823,116580
35.93635,114735
35.94448,112966
35.95260,116898
35.96073,117819
35.96885,115760
35.97697,121038
35.98510,118333
35.99322,114452
36.00133,120206
36.00947,122537
36.01758,119636
36.02572,125734
36.03383,136538
36.04195,132294
36.05008,132270
36.05820,129261
36.06633,135894
36.07445,129183
36.08257,133540
36.09070,133976
36.09882,131392
36.10695,136768
36.11507,136379
36.12318,133634
36.13132,144673
36.13943,150536
36.14755,163819
36.15568,182682
36.16380,185824
36.17193,194961
36.18005,196061
36.18817,192065
36.19630,172008
36.20442,157676
36.21255,147830
36.22067,135883
36.22878,134483
36.23692,129083
36.24503,137014
36.25317,130278
36.26128,135022
36.26940,129970
36.27753,132371
36.28565,135563
36.29377,129508
36.30190,124211
36.31002,124655
36.31815,124161
36.32627,128089
36.33438,142397
36.34252,140407
36.35063,139529
36.35877,146886
36.36688,151412
36.37500,143175
36.38313,133298
36.39125,135480
36.39937,135370
36.40750,133457
36.41562,142942
36.42375,138463
36.43187,139743
36.43998,146135
36.44812,147610
36.45623,134918
36.46437,136267
36.47248,131412
36.48060,127693
36.48873,119286
36.49685,119835
36.50498,124028
36.51310,115528
36.52122,116121
36.52935,118172
36.53747,118720
36.54558,119537
36.55372,121658
36.56183,122577
36.56997,128100
36.57808,121095
36.58620,118545
36.59433,121420
36.60245,120765
36.61058,118630
36.61870,121810
36.62682,121146
36.63495,131727
36.64307,123967
36.65120,127994
36.65932,128390
36.66743,130583
36.67557,126717
36.68368,120672
36.69180,128289
36.69993,125601
36.70805,121877
36.71618,126470
36.72430,127159
36.73242,123913
36.74055,132329
36.74867,136710
36.75680,143634
36.76492,135873
36.77303,133199
36.78117,133032
36.78928,132329
36.79740,133644
36.80553,132846
36.81365,134998
36.82178,128918
36.82990,131550
36.83802,132298
36.84615,127618
36.85427,124421
36.86240,122161
36.87052,122091
36.87863,115824
36.88677,129658
36.89488,124445
36.90302,123054
36.91113,120072
36.91925,119607
36.92738,119542
36.93550,121432
36.94362,127871
36.95175,143287
36.95987,169026
36.96800,220032
36.97612,279529
36.98423,370007
36.99237,405404
37.00048,412749
37.00862,359157
37.01673,296349
37.02485,227481
37.03298,178536
37.04110,160934
37.04922,141201
37.05735,143176
37.06547,137894
37.07360,143138
37.08172,153682
37.08983,154499
37.09797,160804
37.10608,166509
37.11422,167603
37.12233,177017
37.13045,170328
37.13858,156228
37.14670,158654
37.15483,142608
37.16295,136399
37.17107,133410
37.17920,131291
37.18732,135180
37.19543,131422
37.20357,128885
37.21168,131577
37.21982,138205
37.22793,138065
37.23605,138804
37.24418,141524
37.25230,137432
37.26043,142488
37.26855,142200
37.27667,133848
37.28480,132414
37.29292,131840
37.30105,133622
37.30917,131304
37.31728,138726
37.32542,128400
37.33353,138629
37.34165,141164
37.34978,141660
37.35790,143918
37.36603,139178
37.37415,138995
37.38227,140924
37.39040,149205
37.39852,151206
37.40665,147195
37.41477,155145
37.42288,154577
37.43102,166355
37.43913,162302
37.44725,167525
37.45538,166889
37.46350,178144
37.47163,169159
37.47975,170668
37.48787,164746
