Z:\data\JTB-E02\BACandBLUE\JTB-E02-199-17.D Wed Feb 27 18:00:09 2019
Start of data points
2.09537	70849
2.10350	76024
2.11162	80365
2.11975	77488
2.12787	71592
2.13598	75870
2.14412	76508
2.15223	72843
2.16035	75694
2.16848	75135
2.17660	70018
2.18473	68929
2.19285	63751
2.20097	63467
2.20910	62197
2.21722	65949
2.22535	64544
2.23347	60074
2.24158	63820
2.24972	60144
2.25783	63964
2.26595	198580
2.27408	1037394
2.28220	1699297
2.29033	1096961
2.29845	584333
2.30657	434551
2.31470	364526
2.32282	320426
2.33095	285085
2.33907	270308
2.34718	237969
2.35532	214174
2.36343	203614
2.37157	184537
2.37968	188691
2.38780	186598
2.39593	184539
2.40405	262516
2.41217	268562
2.42030	552288
2.42842	589558
2.43655	279339
2.44467	204735
2.45278	188533
2.46092	173739
2.46903	163405
2.47717	151866
2.48528	149839
2.49340	154226
2.50153	147389
2.50965	134476
2.51778	143291
2.52590	137770
2.53402	138837
2.54215	136907
2.55027	185325
2.55838	417344
2.56652	589389
2.57463	408377
2.58277	277245
2.59088	239351
2.59900	226310
2.60713	306358
2.61525	460223
2.62338	413390
2.63150	310740
2.63962	255942
2.64775	218589
2.65587	197584
2.66398	180073
2.67212	175952
2.68023	171518
2.68837	159051
2.69648	155323
2.70460	152394
2.71273	147159
2.72085	152595
2.72898	140302
2.73710	145663
2.74522	142430
2.75335	143073
2.76147	132760
2.76960	160784
2.77772	733283
2.78583	2787986
2.79397	3763083
2.80208	2350872
2.81020	1388359
2.81833	1069017
2.82645	899090
2.83458	788098
2.84270	684886
2.85082	547583
2.85895	472045
2.86707	432135
2.87520	389436
2.88332	348125
2.89143	319287
2.89957	297675
2.90768	271818
2.91580	255022
2.92393	244772
2.93205	230040
2.94018	215010
2.94830	202957
2.95642	202848
2.96455	189122
2.97267	186266
2.98080	174763
2.98892	183345
2.99703	195799
3.00517	255488
3.01328	320903
3.02142	270306
3.02953	213797
3.03765	197170
3.04578	174627
3.05390	175218
3.06202	197091
3.07015	210538
3.07827	245196
3.08640	621265
3.09452	1584839
3.10263	2991398
3.11077	5024936
3.11888	5315066
3.12702	3587605
3.13513	2381515
3.14325	1831698
3.15138	1478692
3.15950	1232787
3.16763	1095461
3.17575	1015046
3.18387	1131419
3.19200	1762249
3.20012	2400629
3.20823	2023108
3.21637	1459763
3.22448	1163273
3.23262	993653
3.24073	862697
3.24885	756866
3.25698	678853
3.26510	615704
3.27323	566144
3.28135	540754
3.28947	676262
3.29760	1558735
3.30572	4024392
3.31383	6737285
3.32197	7320779
3.33008	5886242
3.33822	4325045
3.34633	3288290
3.35445	2613204
3.36258	2201856
3.37070	1920221
3.37883	1673607
3.38695	1516781
3.39507	1401468
3.40320	1298501
3.41132	1214504
3.41945	1147572
3.42757	1063979
3.43568	1003398
3.44382	943150
3.45193	883311
3.46005	814820
3.46818	796848
3.47630	795554
3.48443	774719
3.49255	735526
3.50067	723094
3.50880	685746
3.51692	642993
3.52505	631687
3.53317	613734
3.54128	612064
3.54942	588197
3.55753	566193
3.56567	512506
3.57378	484963
3.58190	493135
3.59003	472639
3.59815	443962
3.60627	427366
3.61440	431520
3.62252	459491
3.63065	536807
3.63877	638886
3.64688	681952
3.65502	629817
3.66313	1403265
3.67127	6457903
3.67938	1.704993E+07
3.68750	2.267089E+07
3.69563	1.845935E+07
3.70375	1.137966E+07
3.71187	7571105
3.72000	5941750
3.72812	4916215
3.73625	4178612
3.74437	3685234
3.75248	3299116
3.76062	2991947
3.76873	2699337
3.77687	2466796
3.78498	2316106
3.79310	2240588
3.80123	2348734
3.80935	3157435
3.81748	4834718
3.82560	5481333
3.83372	4441608
3.84185	3237124
3.84997	2632015
3.85808	2301240
3.86622	2062996
3.87433	1904868
3.88247	1764019
3.89058	1645347
3.89870	1554425
3.90683	1477261
3.91495	1452274
3.92308	1531047
3.93120	1695166
3.93932	1718377
3.94745	1639690
3.95557	1989429
3.96368	3106622
3.97182	4073319
3.97993	3797477
3.98807	2714108
3.99618	2220470
4.00430	3283153
4.01243	6211035
4.02055	8636000
4.02868	7694745
4.03680	5021553
4.04492	3093400
4.05305	2212066
4.06117	1761400
4.06930	1510034
4.07742	1346614
4.08553	1215411
4.09367	1128358
4.10178	1045081
4.10990	996162
4.11803	939129
4.12615	889317
4.13428	878004
4.14240	882980
4.15052	987205
4.15865	1053215
4.16677	992377
4.17490	928029
4.18302	913028
4.19113	842130
4.19927	766661
4.20738	816930
4.21552	1638647
4.22363	4964582
4.23175	1.106648E+07
4.23988	1.624999E+07
4.24800	1.680881E+07
4.25612	1.288471E+07
4.26425	8474820
4.27237	5953107
4.28050	4476821
4.28862	3558755
4.29673	2872287
4.30487	2372374
4.31298	2010778
4.32112	1747275
4.32923	1538684
4.33735	1423351
4.34548	1305076
4.35360	1206077
4.36172	1280180
4.36985	1376933
4.37797	1357263
4.38610	1191276
4.39422	1018463
4.40233	908256
4.41047	833467
4.41858	792819
4.42672	749160
4.43483	701510
4.44295	662720
4.45108	648576
4.45920	628087
4.46733	623249
4.47545	588082
4.48357	580195
4.49170	571508
4.49982	541521
4.50793	550291
4.51607	550205
4.52418	541619
4.53232	528778
4.54043	518424
4.54855	543435
4.55668	544985
4.56480	521045
4.57293	493599
4.58105	487345
4.58917	451645
4.59730	443402
4.60542	439643
4.61355	439823
4.62167	471824
4.62978	608433
4.63792	923266
4.64603	1239655
4.65415	1297691
4.66228	1073147
4.67040	833080
4.67853	705028
4.68665	667429
4.69477	610618
4.70290	549920
4.71102	471228
4.71915	439601
4.72727	422796
4.73538	409894
4.74352	397950
4.75163	387492
4.75975	365933
4.76788	368669
4.77600	354357
4.78413	362845
4.79225	386314
4.80037	474795
4.80850	596739
4.81662	645473
4.82475	607949
4.83287	514521
4.84098	520572
4.84912	541451
4.85723	545830
4.86537	504115
4.87348	458226
4.88160	412610
4.88973	383865
4.89785	363375
4.90597	349356
4.91410	353470
4.92222	344503
4.93035	332139
4.93847	370430
4.94658	548311
4.95472	988273
4.96283	1752191
4.97097	2519417
4.97908	2771448
4.98720	2483253
4.99533	2064493
5.00345	1645506
5.01158	1342029
5.01970	1159108
5.02782	1076217
5.03595	1060007
5.04407	1120348
5.05218	1136025
5.06032	1013406
5.06843	905236
5.07657	817363
5.08468	755814
5.09280	714329
5.10093	676480
5.10905	634432
5.11718	612960
5.12530	615860
5.13342	583543
5.14155	555081
5.14967	564443
5.15778	623903
5.16592	746234
5.17403	830697
5.18217	838124
5.19028	753907
5.19840	716791
5.20653	765583
5.21465	818538
5.22278	817951
5.23090	742787
5.23902	662359
5.24715	604938
5.25527	545564
5.26340	494361
5.27152	455461
5.27963	435508
5.28777	412201
5.29588	391074
5.30400	382160
5.31213	375848
5.32025	385318
5.32838	404346
5.33650	433312
5.34462	483762
5.35275	500193
5.36087	476478
5.36900	432159
5.37712	407630
5.38523	425456
5.39337	478377
5.40148	524097
5.40962	559307
5.41773	509616
5.42585	458491
5.43398	419667
5.44210	382058
5.45022	399126
5.45835	450423
5.46647	486520
5.47460	465450
5.48272	411636
5.49083	375888
5.49897	344746
5.50708	333278
5.51522	330878
5.52333	345229
5.53145	343531
5.53958	333742
5.54770	343413
5.55582	397163
5.56395	593414
5.57207	935168
5.58020	1230635
5.58832	1315241
5.59643	1074747
5.60457	792104
5.61268	584093
5.62082	466245
5.62893	418145
5.63705	403199
5.64518	386944
5.65330	357594
5.66143	342011
5.66955	342896
5.67767	335751
5.68580	364282
5.69392	414236
5.70203	455085
5.71017	462332
5.71828	446467
5.72642	403840
5.73453	349419
5.74265	325224
5.75078	311221
5.75890	288010
5.76703	287410
5.77515	282369
5.78327	269402
5.79140	282834
5.79952	262755
5.80763	252863
5.81577	254046
5.82388	261841
5.83202	265585
5.84013	265840
5.84825	273213
5.85638	281606
5.86450	270183
5.87263	260222
5.88075	256369
5.88887	249282
5.89700	241150
5.90512	251798
5.91325	253261
5.92137	271929
5.92948	275313
5.93762	268640
5.94573	253353
5.95385	246516
5.96198	296993
5.97010	437286
5.97823	739646
5.98635	1098692
5.99447	1327935
6.00260	1226254
6.01072	943599
6.01885	662328
6.02697	516547
6.03508	419182
6.04322	363262
6.05133	335527
6.05947	310154
6.06758	287940
6.07570	281421
6.08383	268014
6.09195	252556
6.10007	257322
6.10820	251651
6.11632	241097
6.12445	264870
6.13257	323312
6.14068	471505
6.14882	672134
6.15693	765194
6.16507	701615
6.17318	546931
6.18130	418827
6.18943	373047
6.19755	322493
6.20567	302047
6.21380	292640
6.22192	282195
6.23005	263184
6.23817	269971
6.24628	279316
6.25442	318970
6.26253	348652
6.27067	393207
6.27878	374657
6.28690	334975
6.29503	300635
6.30315	265965
6.31128	272415
6.31940	272406
6.32752	273773
6.33565	294569
6.34377	291390
6.35188	302978
6.36002	297059
6.36813	263118
6.37627	261611
6.38438	263754
6.39250	263578
6.40063	253877
6.40875	250192
6.41688	238541
6.42500	245862
6.43312	235462
6.44125	246839
6.44937	251965
6.45750	258475
6.46562	259429
6.47373	273948
6.48187	260496
6.48998	251665
6.49810	253245
6.50623	249388
6.51435	252839
6.52248	258201
6.53060	261994
6.53872	259893
6.54685	264966
6.55497	268959
6.56310	312523
6.57122	457203
6.57933	732538
6.58747	1058760
6.59558	1146891
6.60370	958830
6.61183	676969
6.61995	484223
6.62808	385912
6.63620	345177
6.64432	407221
6.65245	823309
6.66057	2348862
6.66870	5448291
6.67682	8570693
6.68493	9276659
6.69307	7287321
6.70118	4597409
6.70932	2796440
6.71743	1927491
6.72555	1464387
6.73368	1220073
6.74180	1071270
6.74992	949583
6.75805	850524
6.76617	771026
6.77430	711840
6.78242	719153
6.79053	666171
6.79867	610086
6.80678	572471
6.81492	531342
6.82303	501067
6.83115	478938
6.83928	454401
6.84740	453391
6.85553	447213
6.86365	424326
6.87177	405645
6.87990	371579
6.88802	340513
6.89613	314232
6.90427	292963
6.91238	289131
6.92052	275062
6.92863	252505
6.93675	252332
6.94488	250526
6.95300	238210
6.96113	252157
6.96925	263137
6.97737	303660
6.98550	341316
6.99362	348047
7.00173	315155
7.00987	257927
7.01798	218354
7.02612	193342
7.03423	194732
7.04235	249818
7.05048	347139
7.05860	442398
7.06673	509387
7.07485	489284
7.08297	440919
7.09110	393136
7.09922	334093
7.10735	301659
7.11547	284038
7.12358	276321
7.13172	254511
7.13983	246006
7.14795	253608
7.15608	297863
7.16420	363124
7.17233	397455
7.18045	395748
7.18857	344939
7.19670	298524
7.20482	259899
7.21295	235943
7.22107	270219
7.22918	455229
7.23732	959909
7.24543	1910741
7.25355	2723820
7.26168	2777462
7.26980	2156132
7.27793	1353679
7.28605	827072
7.29417	560849
7.30230	447032
7.31042	342137
7.31855	288903
7.32667	258310
7.33478	229776
7.34292	217983
7.35103	205514
7.35917	187667
7.36728	182611
7.37540	183168
7.38353	185254
7.39165	177553
7.39977	187840
7.40790	179586
7.41602	172389
7.42415	168670
7.43227	172536
7.44038	165550
7.44852	167176
7.45663	171256
7.46477	165285
7.47288	171206
7.48100	164733
7.48913	160140
7.49725	155741
7.50538	184446
7.51350	314308
7.52162	648285
7.52975	1374987
7.53787	2568293
7.54598	4071300
7.55412	5421625
7.56223	5903190
7.57037	5480922
7.57848	4368570
7.58660	3015010
7.59473	1918813
7.60285	1216520
7.61098	778515
7.61910	558116
7.62722	439084
7.63535	368809
7.64347	316575
7.65158	265596
7.65972	249205
7.66783	212744
7.67597	201957
7.68408	192337
7.69220	187395
7.70033	186272
7.70845	185436
7.71658	186037
7.72470	182197
7.73282	165383
7.74095	146940
7.74907	138608
7.75720	146747
7.76532	137982
7.77343	150377
7.78157	167147
7.78968	192852
7.79780	225957
7.80593	246491
7.81405	261009
7.82218	256277
7.83030	242022
7.83842	229064
7.84655	208053
7.85467	209771
7.86280	221056
7.87092	244421
7.87903	294195
7.88717	332193
7.89528	345927
7.90342	321754
7.91153	263470
7.91965	222504
7.92778	226450
7.93590	300331
7.94402	417307
7.95215	526030
7.96027	579603
7.96840	507056
7.97652	389337
7.98463	280975
7.99277	211595
8.00088	174330
8.00902	154336
8.01713	137471
8.02525	134896
8.03338	128729
8.04150	132432
8.04962	125053
8.05775	126373
8.06587	128393
8.07400	121701
8.08212	120606
8.09023	118051
8.09837	118573
8.10648	109793
8.11462	113496
8.12273	118485
8.13085	125939
8.13898	143858
8.14710	168639
8.15523	190511
8.16335	197069
8.17147	180671
8.17960	157786
8.18772	144150
8.19583	129894
8.20397	114471
8.21208	118369
8.22022	115551
8.22833	121142
8.23645	115353
8.24458	111282
8.25270	118574
8.26083	99443
8.26895	104031
8.27707	103051
8.28520	99491
8.29332	102687
8.30143	111370
8.30957	133122
8.31768	146968
8.32582	154274
8.33393	146380
8.34205	136740
8.35018	117050
8.35830	109540
8.36643	108391
8.37455	103350
8.38267	110619
8.39080	108873
8.39892	103684
8.40705	105638
8.41517	90299
8.42328	87221
8.43142	88671
8.43953	84260
8.44765	87422
8.45578	86112
8.46390	91018
8.47203	95300
8.48015	98071
8.48827	89256
8.49640	85981
8.50452	83513
8.51265	84132
8.52077	89588
8.52888	91306
8.53702	139301
8.54513	229454
8.55327	398986
8.56138	574134
8.56950	688440
8.57763	606816
8.58575	442853
8.59387	294071
8.60200	213705
8.61012	165424
8.61825	149092
8.62637	134045
8.63448	127293
8.64262	115320
8.65073	109763
8.65887	101797
8.66698	100221
8.67510	100961
8.68323	98556
8.69135	99600
8.69947	99048
8.70760	109151
8.71572	96702
8.72385	101299
8.73197	95581
8.74008	93954
8.74822	90971
8.75633	95320
8.76447	119607
8.77258	193120
8.78070	330746
8.78883	530624
8.79695	698199
8.80508	780218
8.81320	731738
8.82132	568614
8.82945	413886
8.83757	319049
8.84568	270527
8.85382	259436
8.86193	250829
8.87007	265477
8.87818	261962
8.88630	244095
8.89443	236618
8.90255	219827
8.91068	207895
8.91880	199980
8.92692	200308
8.93505	195314
8.94317	212564
8.95130	231025
8.95942	235626
8.96753	248780
8.97567	247680
8.98378	244823
8.99190	252546
9.00003	248365
9.00815	230796
9.01628	215355
9.02440	188507
9.03252	176797
9.04065	165067
9.04877	141773
9.05690	141323
9.06502	151218
9.07313	138022
9.08127	145236
9.08938	160484
9.09750	183422
9.10563	217525
9.11375	263621
9.12188	311204
9.13000	334942
9.13812	297400
9.14625	247997
9.15437	208272
9.16250	173589
9.17062	162337
9.17873	151903
9.18687	146129
9.19498	128358
9.20312	131638
9.21123	128679
9.21935	132634
9.22748	138899
9.23560	145681
9.24372	145373
9.25185	151480
9.25997	148432
9.26810	153885
9.27622	139906
9.28433	143594
9.29247	136595
9.30058	126570
9.30872	125536
9.31683	122664
9.32495	114671
9.33308	117605
9.34120	121551
9.34932	122844
9.35745	122476
9.36557	124936
9.37370	145396
9.38182	171173
9.38993	200090
9.39807	231702
9.40618	247774
9.41432	251522
9.42243	291799
9.43055	351200
9.43868	396718
9.44680	406881
9.45493	382717
9.46305	313477
9.47117	240562
9.47930	186545
9.48742	153124
9.49553	137827
9.50367	134568
9.51178	149804
9.51992	188957
9.52803	226508
9.53615	240587
9.54428	231986
9.55240	204280
9.56053	174490
9.56865	146647
9.57677	127627
9.58490	114487
9.59302	112255
9.60115	101540
9.60927	98328
9.61738	91488
9.62552	87197
9.63363	85401
9.64175	84181
9.64988	82059
9.65800	92652
9.66613	90257
9.67425	84923
9.68237	85959
9.69050	84691
9.69862	82067
9.70675	69218
9.71487	75804
9.72298	69566
9.73112	73087
9.73923	69651
9.74737	72411
9.75548	71413
9.76360	70934
9.77173	69255
9.77985	64985
9.78797	71178
9.79610	65412
9.80422	68636
9.81235	74039
9.82047	71340
9.82858	69338
9.83672	69155
9.84483	63071
9.85297	65828
9.86108	76389
9.86920	81838
9.87733	77214
9.88545	81234
9.89357	83720
9.90170	78818
9.90982	80336
9.91795	99473
9.92607	143196
9.93418	225617
9.94232	331059
9.95043	428649
9.95857	487670
9.96668	456781
9.97480	387251
9.98293	279481
9.99105	200176
9.99918	156637
10.00730	126676
10.01542	111614
10.02355	106562
10.03167	100557
10.03978	95231
10.04792	86501
10.05603	87943
10.06417	89512
10.07228	95100
10.08040	100935
10.08853	109814
10.09665	114830
10.10478	119405
10.11290	117381
10.12102	116081
10.12915	109113
10.13727	102246
10.14538	91822
10.15352	89923
10.16163	89255
10.16977	82132
10.17788	81343
10.18600	83388
10.19413	81219
10.20225	87389
10.21038	84190
10.21850	81544
10.22662	81322
10.23475	88959
10.24287	93622
10.25100	95501
10.25912	122919
10.26723	149012
10.27537	260340
10.28348	564011
10.29160	1252801
10.29973	2322929
10.30785	3662011
10.31598	5061244
10.32410	7022368
10.33222	1.004444E+07
10.34035	1.44965E+07
10.34847	1.843331E+07
10.35660	2.021211E+07
10.36472	1.76948E+07
10.37283	1.313257E+07
10.38097	8737539
10.38908	5729652
10.39722	3620521
10.40533	2274677
10.41345	1389632
10.42158	919992
10.42970	679031
10.43782	596025
10.44595	558690
10.45407	582471
10.46220	625521
10.47032	652408
10.47843	607881
10.48657	560532
10.49468	513030
10.50282	471141
10.51093	403121
10.51905	387016
10.52718	358520
10.53530	354427
10.54342	317608
10.55155	303037
10.55967	287822
10.56780	284797
10.57592	268359
10.58403	257394
10.59217	255480
10.60028	247117
10.60842	224897
10.61653	218651
10.62465	216079
10.63278	205533
10.64090	192279
10.64903	188290
10.65715	182849
10.66527	177472
10.67340	183808
10.68152	184777
10.68963	195243
10.69777	188311
10.70588	200160
10.71402	198633
10.72213	195248
10.73025	188143
10.73838	172507
10.74650	169004
10.75463	159678
10.76275	151535
10.77087	145068
10.77900	145618
10.78712	144683
10.79525	142589
10.80337	153803
10.81148	160412
10.81962	168951
10.82773	176279
10.83585	171704
10.84398	153381
10.85210	145537
10.86023	126590
10.86835	115016
10.87647	106002
10.88460	122008
10.89272	110176
10.90085	110854
10.90897	107650
10.91708	113275
10.92522	109603
10.93333	105577
10.94145	102725
10.94958	112506
10.95770	101639
10.96583	104158
10.97395	101403
10.98207	109598
10.99020	125189
10.99832	125767
11.00645	142439
11.01457	145046
11.02268	145739
11.03082	130845
11.03893	120278
11.04707	110975
11.05518	109199
11.06330	104352
11.07143	123813
11.07955	138457
11.08767	150453
11.09580	160129
11.10392	159068
11.11205	155742
11.12017	141048
11.12828	131528
11.13642	105632
11.14453	97051
11.15267	94174
11.16078	88924
11.16890	97018
11.17703	98728
11.18515	99925
11.19327	110139
11.20140	106445
11.20952	107091
11.21765	102641
11.22577	90134
11.23388	83858
11.24202	81498
11.25013	76848
11.25827	76754
11.26638	73807
11.27450	74502
11.28263	70806
11.29075	81489
11.29888	122322
11.30700	242656
11.31512	562869
11.32325	1194894
11.33137	2211640
11.33948	3401325
11.34762	4234777
11.35573	4266532
11.36387	3634164
11.37198	2646716
11.38010	1721132
11.38823	1078556
11.39635	719934
11.40448	567628
11.41260	527780
11.42072	523921
11.42885	504365
11.43697	477129
11.44510	429196
11.45322	374834
11.46133	338404
11.46947	302132
11.47758	295563
11.48570	300592
11.49383	298685
11.50195	319989
11.51008	352559
11.51820	339114
11.52632	307034
11.53445	270666
11.54257	245323
11.55070	219629
11.55882	209187
11.56693	222553
11.57507	211351
11.58318	190985
11.59130	187166
11.59943	180600
11.60755	176298
11.61568	208004
11.62380	233827
11.63192	265444
11.64005	259702
11.64817	234678
11.65630	207839
11.66442	177059
11.67253	160676
11.68067	142745
11.68878	145672
11.69692	148718
11.70503	156405
11.71315	154724
11.72128	142125
11.72940	132700
11.73752	125836
11.74565	116221
11.75377	112462
11.76190	106616
11.77002	108923
11.77813	103058
11.78627	99397
11.79438	97142
11.80252	99738
11.81063	90553
11.81875	89863
11.82688	87538
11.83500	92592
11.84313	92002
11.85125	89562
11.85937	88430
11.86750	87516
11.87562	83144
11.88373	76676
11.89187	82403
11.89998	76380
11.90812	76035
11.91623	82918
11.92435	83191
11.93248	84173
11.94060	87601
11.94873	82167
11.95685	84735
11.96497	71732
11.97310	78578
11.98122	73196
11.98933	76329
11.99747	75560
12.00558	87368
12.01372	103469
12.02183	106555
12.02995	117214
12.03808	107667
12.04620	101855
12.05433	87986
12.06245	92626
12.07057	83566
12.07870	91041
12.08682	112029
12.09495	161130
12.10307	285126
12.11118	552114
12.11932	984746
12.12743	1567493
12.13555	2062069
12.14368	2252298
12.15180	2018803
12.15993	1521462
12.16805	966142
12.17617	561101
12.18430	337147
12.19242	265300
12.20055	270249
12.20867	284300
12.21678	308042
12.22492	300350
12.23303	275949
12.24117	263085
12.24928	245710
12.25740	225967
12.26553	219353
12.27365	210698
12.28177	199629
12.28990	187365
12.29802	176269
12.30615	162529
12.31427	143828
12.32238	153538
12.33052	144257
12.33863	135208
12.34677	139541
12.35488	134486
12.36300	139746
12.37113	137982
12.37925	138439
12.38737	128454
12.39550	130759
12.40362	129014
12.41175	130923
12.41987	156344
12.42798	191783
12.43612	216743
12.44423	240870
12.45237	236136
12.46048	211788
12.46860	185766
12.47673	152903
12.48485	147267
12.49298	143330
12.50110	136995
12.50922	130020
12.51735	128265
12.52547	125812
12.53358	140278
12.54172	152362
12.54983	159851
12.55797	155297
12.56608	160135
12.57420	169320
12.58233	165448
12.59045	165367
12.59858	142152
12.60670	130729
12.61482	123587
12.62295	122875
12.63107	108590
12.63918	108997
12.64732	97010
12.65543	100762
12.66357	101016
12.67168	99428
12.67980	97093
12.68793	89777
12.69605	96113
12.70418	91765
12.71230	95310
12.72042	93674
12.72855	93509
12.73667	92799
12.74480	97916
12.75292	99325
12.76103	92133
12.76917	85991
12.77728	81395
12.78540	79444
12.79353	82848
12.80165	84509
12.80978	78749
12.81790	78036
12.82602	72100
12.83415	68342
12.84227	70466
12.85040	59362
12.85852	61302
12.86663	58566
12.87477	56814
12.88288	58007
12.89102	65595
12.89913	60490
12.90725	57609
12.91538	59767
12.92350	58559
12.93162	61815
12.93975	57180
12.94787	58435
12.95600	58570
12.96412	54848
12.97223	63165
12.98037	58286
12.98848	66023
12.99662	65388
13.00473	69757
13.01285	69713
13.02098	59569
13.02910	60209
13.03722	58745
13.04535	58239
13.05347	56210
13.06160	58213
13.06972	62495
13.07783	61839
13.08597	56477
13.09408	61024
13.10222	59927
13.11033	58408
13.11845	59439
13.12658	62612
13.13470	57386
13.14283	61833
13.15095	65037
13.15907	56421
13.16720	69115
13.17532	63594
13.18343	65207
13.19157	66968
13.19968	67027
13.20782	69337
13.21593	71785
13.22405	75298
13.23218	74060
13.24030	74959
13.24843	73711
13.25655	69040
13.26467	62279
13.27280	62154
13.28092	63129
13.28905	63263
13.29717	61491
13.30528	62199
13.31342	57860
13.32153	54833
13.32965	52663
13.33778	56467
13.34590	57805
13.35403	54967
13.36215	57750
13.37027	64427
13.37840	53048
13.38652	55486
13.39465	59493
13.40277	52001
13.41088	51043
13.41902	57739
13.42713	54778
13.43525	55027
13.44338	54851
13.45150	55590
13.45963	57355
13.46775	70321
13.47587	64851
13.48400	68145
13.49212	63512
13.50025	57046
13.50837	55014
13.51648	54448
13.52462	52016
13.53273	55362
13.54087	59616
13.54898	59607
13.55710	60942
13.56523	63327
13.57335	72575
13.58147	75636
13.58960	84373
13.59772	82769
13.60585	79773
13.61397	84581
13.62208	81818
13.63022	87144
13.63833	75672
13.64647	79567
13.65458	76637
13.66270	65763
13.67083	63244
13.67895	55838
13.68707	54277
13.69520	53442
13.70332	53702
13.71145	52587
13.71957	55273
13.72768	59011
13.73582	63012
13.74393	63685
13.75207	58934
13.76018	73412
13.76830	98341
13.77643	135479
13.78455	192618
13.79268	244851
13.80080	306661
13.80892	356921
13.81705	404850
13.82517	473322
13.83328	563916
13.84142	621908
13.84953	648510
13.85767	605227
13.86578	492877
13.87390	383928
13.88203	295010
13.89015	226987
13.89828	198980
13.90640	163823
13.91452	139731
13.92265	124067
13.93077	120701
13.93890	107053
13.94702	101062
13.95513	104924
13.96327	100728
13.97138	112730
13.97950	136776
13.98763	168356
13.99575	198797
14.00388	202949
14.01200	200217
14.02012	152370
14.02825	135455
14.03637	117179
14.04450	103052
14.05262	103043
14.06073	100113
14.06887	94805
14.07698	87652
14.08510	89882
14.09323	84638
14.10135	84296
14.10948	80673
14.11760	78224
14.12572	77595
14.13385	77813
14.14197	81903
14.15010	105628
14.15822	104853
14.16633	116271
14.17447	114892
14.18258	116261
14.19072	125587
14.19883	136876
14.20695	176025
14.21508	230509
14.22320	299153
14.23132	335308
14.23945	334138
14.24757	308977
14.25570	285519
14.26382	253286
14.27193	232338
14.28007	200122
14.28818	185666
14.29632	163477
14.30443	151145
14.31255	136787
14.32068	131265
14.32880	124164
14.33693	124867
14.34505	124176
14.35317	116938
14.36130	104809
14.36942	98970
14.37753	94622
14.38567	87016
14.39378	80647
14.40192	80032
14.41003	85530
14.41815	88092
14.42628	89166
14.43440	95651
14.44253	92715
14.45065	94734
14.45877	85086
14.46690	81624
14.47502	71373
14.48313	72916
14.49127	77896
14.49938	72340
14.50752	70352
14.51563	70470
14.52375	71002
14.53188	73663
14.54000	70257
14.54813	74177
14.55625	72786
14.56437	70144
14.57250	64334
14.58062	63875
14.58875	62068
14.59687	60059
14.60498	59541
14.61312	53517
14.62123	56865
14.62935	54035
14.63748	59827
14.64560	52964
14.65373	56853
14.66185	55056
14.66997	55628
14.67810	56974
14.68622	56882
14.69435	52907
14.70247	49412
14.71058	51420
14.71872	58614
14.72683	54839
14.73495	53633
14.74308	62196
14.75120	63294
14.75933	61481
14.76745	65282
14.77557	66327
14.78370	69865
14.79182	79836
14.79995	117852
14.80807	265244
14.81618	693876
14.82432	1664450
14.83243	3170222
14.84057	4888773
14.84868	5819656
14.85680	5487668
14.86493	4301174
14.87305	2942819
14.88117	1695400
14.88930	1056179
14.89742	706632
14.90555	526583
14.91367	436594
14.92178	389309
14.92992	359262
14.93803	332145
14.94617	313856
14.95428	284902
14.96240	265847
14.97053	248416
14.97865	240283
14.98678	219522
14.99490	211556
15.00302	192633
15.01115	188142
15.01927	179445
15.02738	181181
15.03552	184757
15.04363	170158
15.05177	166398
15.05988	155338
15.06800	154069
15.07613	142935
15.08425	148069
15.09238	136585
15.10050	128104
15.10862	121824
15.11675	121631
15.12487	119000
15.13300	117289
15.14112	127752
15.14923	139857
15.15737	141173
15.16548	142958
15.17360	130827
15.18173	112573
15.18985	104614
15.19798	88301
15.20610	83203
15.21422	77880
15.22235	84604
15.23047	73416
15.23860	71452
15.24672	74168
15.25483	75233
15.26297	70498
15.27108	69424
15.27920	66201
15.28733	61541
15.29545	63474
15.30358	64381
15.31170	61466
15.31982	70444
15.32795	58916
15.33607	57515
15.34420	61200
15.35232	56871
15.36043	56580
15.36857	58530
15.37668	58944
15.38482	59842
15.39293	57609
15.40105	57482
15.40918	66219
15.41730	61537
15.42542	64278
15.43355	58472
15.44167	59259
15.44980	61213
15.45792	67215
15.46603	77410
15.47417	115241
15.48228	181247
15.49042	291649
15.49853	423739
15.50665	540807
15.51478	596696
15.52290	602998
15.53102	560830
15.53915	547650
15.54727	537737
15.55540	543462
15.56352	524293
15.57163	437143
15.57977	345843
15.58788	249621
15.59602	190083
15.60413	148217
15.61225	133164
15.62038	125240
15.62850	117373
15.63663	101644
15.64475	101667
15.65287	102278
15.66100	96914
15.66912	84760
15.67723	88163
15.68537	86162
15.69348	79957
15.70162	79631
15.70973	71297
15.71785	71736
15.72598	77563
15.73410	74569
15.74223	73423
15.75035	71740
15.75847	80217
15.76660	97367
15.77472	142933
15.78285	219055
15.79097	319404
15.79908	413616
15.80722	437286
15.81533	418988
15.82345	324620
15.83158	250354
15.83970	180101
15.84783	131233
15.85595	112802
15.86407	100964
15.87220	104593
15.88032	102406
15.88845	110203
15.89657	105955
15.90468	106158
15.91282	105682
15.92093	102607
15.92905	91337
15.93718	88966
15.94530	82838
15.95343	84914
15.96155	81483
15.96967	88015
15.97780	92869
15.98592	101719
15.99405	105507
16.00217	116169
16.01028	112267
16.01842	110424
16.02653	108125
16.03467	116233
16.04278	103132
16.05090	98137
16.05903	91129
16.06715	85650
16.07527	82618
16.08340	74334
16.09152	74180
16.09965	75318
16.10777	75759
16.11588	72888
16.12402	74402
16.13213	79314
16.14027	86331
16.14838	83626
16.15650	91709
16.16463	94974
16.17275	84480
16.18088	88118
16.18900	80845
16.19712	77001
16.20525	76545
16.21337	73898
16.22148	76690
16.22962	73624
16.23773	68655
16.24587	71682
16.25398	70014
16.26210	66613
16.27023	68007
16.27835	70485
16.28648	72395
16.29460	78744
16.30272	88888
16.31085	96378
16.31897	92950
16.32708	89681
16.33522	86126
16.34333	87053
16.35147	78587
16.35958	81907
16.36770	83002
16.37583	103317
16.38395	110849
16.39208	123365
16.40020	135384
16.40832	117277
16.41645	98494
16.42457	89175
16.43270	81047
16.44082	74127
16.44893	75712
16.45707	108396
16.46518	177061
16.47330	344122
16.48143	636623
16.48955	949418
16.49768	1135341
16.50580	1110816
16.51392	880761
16.52205	606935
16.53017	383179
16.53830	248360
16.54642	185861
16.55453	144637
16.56267	129624
16.57078	114488
16.57890	110263
16.58703	111707
16.59515	108740
16.60328	114260
16.61140	118235
16.61952	119938
16.62765	120748
16.63577	120341
16.64390	108918
16.65202	103989
16.66013	96254
16.66827	89868
16.67638	82658
16.68452	83012
16.69263	79495
16.70075	73804
16.70888	75542
16.71700	69234
16.72512	66021
16.73325	69305
16.74137	64761
16.74950	63429
16.75762	66254
16.76573	73846
16.77387	71963
16.78198	79617
16.79012	79069
16.79823	71095
16.80635	72628
16.81448	69410
16.82260	63825
16.83073	58056
16.83885	57080
16.84697	60515
16.85510	55945
16.86322	55957
16.87133	50112
16.87947	53409
16.88758	52116
16.89572	52835
16.90383	55142
16.91195	53997
16.92008	58548
16.92820	58450
16.93633	54957
16.94445	54936
16.95257	51523
16.96070	58434
16.96882	52830
16.97693	54937
16.98507	55966
16.99318	51201
17.00132	57485
17.00943	56627
17.01755	61596
17.02568	60072
17.03380	58591
17.04193	60449
17.05005	59330
17.05817	64442
17.06630	69300
17.07442	81023
17.08255	89858
17.09067	115574
17.09878	146667
17.10692	185045
17.11503	225734
17.12315	256660
17.13128	258191
17.13940	248193
17.14753	225471
17.15565	198690
17.16377	172454
17.17190	158949
17.18002	132171
17.18815	120552
17.19627	103172
17.20438	91865
17.21252	81861
17.22063	75099
17.22877	77470
17.23688	72664
17.24500	68824
17.25313	68204
17.26125	72300
17.26937	73222
17.27750	71071
17.28562	65977
17.29375	66301
17.30187	63530
17.30998	65185
17.31812	64982
17.32623	68935
17.33437	76153
17.34248	85441
17.35060	93818
17.35873	101245
17.36685	99964
17.37497	96788
17.38310	101497
17.39122	94699
17.39935	89940
17.40747	90210
17.41558	91338
17.42372	88766
17.43183	91232
17.43997	98630
17.44808	94559
17.45620	87121
17.46433	83160
17.47245	78226
17.48058	69684
17.48870	72287
17.49682	65235
17.50495	67654
17.51307	63652
17.52118	62421
17.52932	59933
17.53743	64290
17.54557	61569
17.55368	67486
17.56180	73039
17.56993	81856
17.57805	112709
17.58618	170886
17.59430	260678
17.60242	413826
17.61055	601316
17.61867	714963
17.62680	747703
17.63492	675113
17.64303	536466
17.65117	422174
17.65928	358545
17.66740	345867
17.67553	357497
17.68365	363806
17.69178	344993
17.69990	298771
17.70802	246108
17.71615	193745
17.72427	167683
17.73240	147555
17.74052	136657
17.74863	133238
17.75677	128309
17.76488	119346
17.77300	116270
17.78113	106117
17.78925	100907
17.79738	99789
17.80550	89594
17.81362	96160
17.82175	91495
17.82987	95683
17.83800	102384
17.84612	107857
17.85423	115299
17.86237	127546
17.87048	132040
17.87862	142358
17.88673	138012
17.89485	127585
17.90298	111135
17.91110	90498
17.91922	87575
17.92735	74597
17.93547	72240
17.94360	72417
17.95172	70888
17.95983	66631
17.96797	70691
17.97608	65482
17.98422	65899
17.99233	66225
18.00045	64231
18.00858	66023
18.01670	70022
18.02482	75255
18.03295	93060
18.04107	117976
18.04920	133460
18.05732	159554
18.06543	183798
18.07357	262208
18.08168	443466
18.08982	770819
18.09793	1155358
18.10605	1455968
18.11418	1507340
18.12230	1326571
18.13043	1064830
18.13855	803083
18.14667	579400
18.15480	457963
18.16292	396873
18.17103	336683
18.17917	309309
18.18728	287128
18.19542	261945
18.20353	250304
18.21165	224604
18.21978	210408
18.22790	195510
18.23603	177989
18.24415	171562
18.25227	168325
18.26040	152211
18.26852	153292
18.27665	140733
18.28477	140527
18.29288	127988
18.30102	115881
18.30913	97463
18.31725	82290
18.32538	75435
18.33350	72083
18.34163	66419
18.34975	72504
18.35787	68745
18.36600	65245
18.37412	65908
18.38225	67300
18.39037	67617
18.39848	67041
18.40662	67319
18.41473	78899
18.42285	88945
18.43098	105011
18.43910	128303
18.44723	148704
18.45535	169741
18.46347	190629
18.47160	218284
18.47972	258196
18.48785	290305
18.49597	315107
18.50408	296678
18.51222	270055
18.52033	211748
18.52847	168483
18.53658	141983
18.54470	118240
18.55283	102444
18.56095	87123
18.56907	79237
18.57720	81359
18.58532	80693
18.59345	84270
18.60157	86182
18.60968	88140
18.61782	96949
18.62593	109446
18.63407	113934
18.64218	115735
18.65030	114062
18.65843	111462
18.66655	103176
18.67468	91235
18.68280	86740
18.69092	75746
18.69905	71041
18.70717	76156
18.71528	75424
18.72342	70957
18.73153	69689
18.73967	70393
18.74778	68615
18.75590	70136
18.76403	68240
18.77215	65330
18.78028	62429
18.78840	59298
18.79652	62324
18.80465	63144
18.81277	55568
18.82088	59327
18.82902	58093
18.83713	56683
18.84527	61570
18.85338	62768
18.86150	65219
18.86963	73256
18.87775	78959
18.88588	86157
18.89400	93335
18.90212	86128
18.91025	88318
18.91837	82539
18.92650	78302
18.93462	74737
18.94273	70055
18.95087	71669
18.95898	80350
18.96710	74489
18.97523	78202
18.98335	76642
18.99148	77321
18.99960	74266
19.00772	73023
19.01585	66986
19.02397	66578
19.03210	66724
19.04022	64321
19.04833	61217
19.05647	60168
19.06458	57898
19.07270	64429
19.08083	64963
19.08895	71714
19.09708	86786
19.10520	109690
19.11332	128849
19.12145	142693
19.12957	149724
19.13770	131578
19.14582	120211
19.15393	103219
19.16207	93405
19.17018	91200
19.17832	89143
19.18643	91972
19.19455	98733
19.20268	98869
19.21080	93339
19.21892	82375
19.22705	85556
19.23517	79631
19.24330	71082
19.25142	71352
19.25953	65199
19.26767	70065
19.27578	69894
19.28392	82288
19.29203	112789
19.30015	135521
19.30828	147024
19.31640	164223
19.32453	167308
19.33265	166400
19.34077	164754
19.34890	164843
19.35702	171347
19.36513	181978
19.37327	188956
19.38138	211272
19.38952	221311
19.39763	227674
19.40575	215883
19.41388	208630
19.42200	191618
19.43013	179544
19.43825	166845
19.44637	166198
19.45450	163335
19.46262	165181
19.47073	164828
19.47887	150068
19.48698	165952
19.49512	172738
19.50323	191344
19.51135	229261
19.51948	284610
19.52760	332227
19.53573	369343
19.54385	374166
19.55197	340179
19.56010	290302
19.56822	240916
19.57635	203002
19.58447	190244
19.59258	180179
19.60072	167357
19.60883	166454
19.61695	154856
19.62508	151811
19.63320	156486
19.64133	175546
19.64945	212588
19.65757	286857
19.66570	437370
19.67382	589616
19.68195	749300
19.69007	846242
19.69818	825521
19.70632	739544
19.71443	627582
19.72257	505904
19.73068	406737
19.73880	346548
19.74693	302583
19.75505	269622
19.76317	252843
19.77130	231060
19.77942	236128
19.78755	238477
19.79567	262377
19.80378	273188
19.81192	305929
19.82003	298800
19.82817	288138
19.83628	264438
19.84440	243322
19.85253	274712
19.86065	466249
19.86877	1160467
19.87690	2986294
19.88502	6819636
19.89315	1.303213E+07
19.90127	2.002448E+07
19.90938	2.687348E+07
19.91752	3.044042E+07
19.92563	2.941818E+07
19.93377	2.464624E+07
19.94188	1.83198E+07
19.95000	1.238713E+07
19.95813	8819996
19.96625	6432153
19.97438	5304939
19.98250	4517911
19.99062	4013280
19.99875	3630859
20.00687	3411375
20.01498	3102139
20.02312	2936744
20.03123	2692132
20.03937	2450634
20.04748	2255616
20.05560	1952163
20.06373	1693522
20.07185	1363768
20.07998	1118717
20.08810	943563
20.09622	843761
20.10435	761016
20.11247	710401
20.12058	672929
20.12872	586860
20.13683	525739
20.14497	521715
20.15308	560974
20.16120	704808
20.16933	964350
20.17745	1365624
20.18558	1876408
20.19370	2350402
20.20182	2696692
20.20995	2761751
20.21807	2579856
20.22620	2226830
20.23432	1863694
20.24243	1584964
20.25057	1487200
20.25868	1515886
20.26680	1664287
20.27493	1904878
20.28305	2082545
20.29118	2178615
20.29930	2087666
20.30742	1860835
20.31555	1567409
20.32367	1257768
20.33180	997607
20.33992	756992
20.34803	601147
20.35617	481632
20.36428	399303
20.37242	320722
20.38053	283873
20.38865	245403
20.39678	219354
20.40490	203276
20.41302	197839
20.42115	181489
20.42927	188375
20.43740	199736
20.44552	206501
20.45363	227048
20.46177	236070
20.46988	242586
20.47802	236172
20.48613	222902
20.49425	199801
20.50238	184321
20.51050	165560
20.51863	149454
20.52675	146629
20.53487	134639
20.54300	133832
20.55112	122922
20.55923	130008
20.56737	126572
20.57548	126288
20.58362	128669
20.59173	121704
20.59985	120045
20.60798	119237
20.61610	115891
20.62423	115289
20.63235	114017
20.64047	114148
20.64860	125114
20.65672	124907
20.66483	123129
20.67297	120703
20.68108	122671
20.68922	116298
20.69733	105133
20.70545	113140
20.71358	107078
20.72170	102032
20.72983	99106
20.73795	104404
20.74607	111416
20.75420	102344
20.76232	105715
20.77045	107777
20.77857	114593
20.78668	125427
20.79482	152981
20.80293	210415
20.81105	314752
20.81918	448153
20.82730	577734
20.83543	658172
20.84355	598462
20.85167	496403
20.85980	359759
20.86792	245389
20.87605	182872
20.88417	148272
20.89228	139449
20.90042	134945
20.90853	135462
20.91665	145314
20.92478	157165
20.93290	171362
20.94103	182059
20.94915	189012
20.95727	184493
20.96540	177394
20.97352	162745
20.98165	144119
20.98977	135335
20.99788	121477
21.00602	115586
21.01413	108168
21.02227	103845
21.03038	105577
21.03850	102026
21.04663	108779
21.05475	111839
21.06287	109840
21.07100	103123
21.07912	100126
21.08725	100979
21.09537	93056
21.10348	90995
21.11162	90940
21.11973	93053
21.12787	94309
21.13598	103770
21.14410	128406
21.15223	167088
21.16035	222512
21.16848	283814
21.17660	324075
21.18472	331545
21.19285	288539
21.20097	237242
21.20908	196630
21.21722	156996
21.22533	133751
21.23347	114542
21.24158	108452
21.24970	100106
21.25783	109805
21.26595	102115
21.27408	98170
21.28220	96158
21.29032	94501
21.29845	96459
21.30657	91285
21.31468	95011
21.32282	91140
21.33093	86647
21.33907	87514
21.34718	86586
21.35530	87291
21.36343	92768
21.37155	85319
21.37968	94519
21.38780	96333
21.39592	97043
21.40405	106832
21.41217	119095
21.42030	138447
21.42842	154335
21.43653	170904
21.44467	163309
21.45278	159464
21.46090	140547
21.46903	127686
21.47715	116126
21.48528	100327
21.49340	101120
21.50152	91142
21.50965	92254
21.51777	89198
21.52590	92275
21.53402	82563
21.54213	87160
21.55027	90765
21.55838	89265
21.56652	85409
21.57463	88382
21.58275	89605
21.59088	93994
21.59900	103042
21.60712	100047
21.61525	106404
21.62337	108539
21.63150	111234
21.63962	126937
21.64773	140632
21.65587	166042
21.66398	183421
21.67212	185019
21.68023	183753
21.68835	177456
21.69648	164284
21.70460	150090
21.71272	134140
21.72085	111124
21.72897	108421
21.73710	96914
21.74522	95613
21.75333	90986
21.76147	91378
21.76958	89591
21.77772	87232
21.78583	92389
21.79395	87847
21.80208	84474
21.81020	80940
21.81833	93578
21.82645	87213
21.83457	100752
21.84270	125879
21.85082	141732
21.85893	154349
21.86707	157434
21.87518	157093
21.88332	138336
21.89143	129469
21.89955	112598
21.90768	102361
21.91580	95936
21.92393	89135
21.93205	84763
21.94017	81114
21.94830	77465
21.95642	77677
21.96453	76781
21.97267	69686
21.98078	65288
21.98892	70887
21.99703	69015
22.00515	69172
22.01328	65273
22.02140	71333
22.02953	66268
22.03765	71271
22.04577	75760
22.05390	67620
22.06202	71950
22.07015	73284
22.07827	70913
22.08638	70439
22.09452	69243
22.10263	62812
22.11075	69666
22.11888	65716
22.12700	64162
22.13513	65067
22.14325	63832
22.15137	64705
22.15950	64843
22.16762	61541
22.17575	68866
22.18387	63573
22.19198	59680
22.20012	61710
22.20823	58896
22.21637	63139
22.22448	67336
22.23260	66147
22.24073	74550
22.24885	77309
22.25697	76650
22.26510	82122
22.27322	77610
22.28135	81222
22.28947	82961
22.29758	90997
22.30572	89578
22.31383	108524
22.32197	125126
22.33008	150080
22.33820	178171
22.34633	209837
22.35445	219560
22.36257	200671
22.37070	160127
22.37882	139295
22.38695	121324
22.39507	115703
22.40318	123926
22.41132	138855
22.41943	166116
22.42757	196621
22.43568	200208
22.44380	196470
22.45193	176896
22.46005	155043
22.46818	123816
22.47630	107998
22.48442	99446
22.49255	99791
22.50067	101593
22.50878	121240
22.51692	133637
22.52503	142852
22.53317	142221
22.54128	140230
22.54940	134950
22.55753	114020
22.56565	106005
22.57378	103023
22.58190	92710
22.59002	79749
22.59815	76607
22.60627	71825
22.61440	69171
22.62252	67842
22.63063	61831
22.63877	58999
22.64688	59943
22.65500	66630
22.66313	74013
22.67125	75879
22.67938	82408
22.68750	97008
22.69562	117246
22.70375	149568
22.71187	173770
22.72000	222705
22.72812	246745
22.73623	254613
22.74437	243395
22.75248	203757
22.76060	176144
22.76873	156013
22.77685	142158
22.78498	146865
22.79310	145499
22.80122	181644
22.80935	205635
22.81747	227403
22.82560	240079
22.83372	231943
22.84183	216890
22.84997	194964
22.85808	164223
22.86622	155871
22.87433	165807
22.88245	177918
22.89058	197405
22.89870	221372
22.90682	238286
22.91495	241280
22.92307	242186
22.93120	226034
22.93932	229432
22.94743	222519
22.95557	209254
22.96368	188470
22.97182	175571
22.97993	168719
22.98805	144421
22.99618	132095
23.00430	120288
23.01243	120878
23.02055	117272
23.02867	102036
23.03680	101738
23.04492	101946
23.05303	102596
23.06117	103877
23.06928	102895
23.07742	105667
23.08553	107850
23.09365	101079
23.10178	104969
23.10990	105140
23.11803	104846
23.12615	89693
23.13427	90930
23.14240	89217
23.15052	88194
23.15863	86545
23.16677	85256
23.17488	80224
23.18302	75467
23.19113	78177
23.19925	70562
23.20738	70976
23.21550	67823
23.22363	71068
23.23175	71612
23.23987	74249
23.24800	82796
23.25612	89007
23.26425	102748
23.27237	119674
23.28048	116013
23.28862	113840
23.29673	111404
23.30485	92278
23.31298	78931
23.32110	85238
23.32923	85061
23.33735	81226
23.34547	93635
23.35360	110785
23.36172	137924
23.36985	164153
23.37797	167367
23.38608	169723
23.39422	169627
23.40233	151376
23.41045	130725
23.41858	112467
23.42670	101584
23.43483	94069
23.44295	96463
23.45107	106518
23.45920	104500
23.46732	106839
23.47545	112363
23.48357	109595
23.49168	116162
23.49982	115270
23.50793	119304
23.51607	122889
23.52418	125766
23.53230	126704
23.54043	129676
23.54855	126144
23.55667	142723
23.56480	133856
23.57292	149119
23.58105	174115
23.58917	206638
23.59728	253528
23.60542	322622
23.61353	345740
23.62167	358514
23.62978	345818
23.63790	323248
23.64603	338022
23.65415	397475
23.66228	533250
23.67040	703555
23.67852	793021
23.68665	823729
23.69477	728591
23.70288	587021
23.71102	455858
23.71913	337626
23.72727	259239
23.73538	221428
23.74350	185992
23.75163	188603
23.75975	238103
23.76788	438348
23.77600	962569
23.78412	1969105
23.79225	3336956
23.80037	4805707
23.80848	5651819
23.81662	5430822
23.82473	4557785
23.83287	3498927
23.84098	2509036
23.84910	1776965
23.85723	1265186
23.86535	1004436
23.87348	818155
23.88160	710026
23.88972	608966
23.89785	539961
23.90597	470897
23.91410	468322
23.92222	438252
23.93033	411165
23.93847	392118
23.94658	366137
23.95470	343104
23.96283	325617
23.97095	308524
23.97908	298647
23.98720	277048
23.99532	267282
24.00345	252780
24.01157	243712
24.01970	247403
24.02782	251262
24.03593	260326
24.04407	273644
24.05218	285723
24.06032	298896
24.06843	278150
24.07655	265132
24.08468	233352
24.09280	226776
24.10092	219855
24.10905	196705
24.11717	193013
24.12530	181011
24.13342	192299
24.14153	213167
24.14967	227748
24.15778	260277
24.16592	290450
24.17403	288197
24.18215	275565
24.19028	255923
24.19840	248712
24.20652	241986
24.21465	229575
24.22277	227690
24.23090	204078
24.23902	208104
24.24713	194123
24.25527	183368
24.26338	174938
24.27152	151666
24.27963	155130
24.28775	147281
24.29588	140607
24.30400	146616
24.31213	153320
24.32025	140914
24.32837	145342
24.33650	147477
24.34462	149547
24.35273	140628
24.36087	139414
24.36898	125784
24.37712	130065
24.38523	130851
24.39335	140814
24.40148	157273
24.40960	184984
24.41773	216897
24.42585	231618
24.43397	218805
24.44210	198532
24.45022	165963
24.45833	138159
24.46647	132564
24.47458	127539
24.48272	129935
24.49083	142875
24.49895	144851
24.50708	146372
24.51520	159549
24.52333	170913
24.53145	195675
24.53957	223498
24.54770	275882
24.55582	316412
24.56395	353812
24.57207	356145
24.58018	342871
24.58832	312944
24.59643	269302
24.60455	239872
24.61268	215291
24.62080	188728
24.62893	172882
24.63705	158055
24.64517	145956
24.65330	143085
24.66142	133187
24.66955	141278
24.67767	128492
24.68578	128562
24.69392	121298
24.70203	114053
24.71017	116274
24.71828	109870
24.72640	102318
24.73453	107695
24.74265	97632
24.75077	100206
24.75890	100549
24.76702	94087
24.77515	93923
24.78327	100888
24.79138	103660
24.79952	106159
24.80763	108564
24.81577	112130
24.82388	107206
24.83200	113871
24.84013	112517
24.84825	134816
24.85638	161111
24.86450	179332
24.87262	249879
24.88075	313667
24.88887	413692
24.89698	533793
24.90512	579758
24.91323	597474
24.92137	533548
24.92948	414399
24.93760	291051
24.94573	220085
24.95385	169865
24.96198	132398
24.97010	111311
24.97822	98396
24.98635	90853
24.99447	89717
25.00258	87109
25.01072	90700
25.01883	89927
25.02697	83755
25.03508	82221
25.04320	86025
25.05133	77132
25.05945	81222
25.06758	82230
25.07570	85366
25.08382	83909
25.09195	88177
25.10007	97145
25.10820	121917
25.11632	208029
25.12443	413655
25.13257	826002
25.14068	1581021
25.14880	2409236
25.15693	3162580
25.16505	3366795
25.17318	3148695
25.18130	2520874
25.18942	1749857
25.19755	1148259
25.20567	726953
25.21380	490987
25.22192	356150
25.23003	293292
25.23817	265670
25.24628	284126
25.25440	312413
25.26253	398169
25.27065	512358
25.27878	640808
25.28690	709944
25.29502	727330
25.30315	669589
25.31127	559662
25.31940	413886
25.32752	339167
25.33563	272555
25.34377	240832
25.35188	223867
25.36002	224125
25.36813	202388
25.37625	205948
25.38438	198578
25.39250	190600
25.40062	187245
25.40875	183938
25.41687	186167
25.42500	183233
25.43312	174362
25.44123	173072
25.44937	174193
25.45748	168222
25.46562	171921
25.47373	173003
25.48185	186718
25.48998	183321
25.49810	185749
25.50623	184112
25.51435	177336
25.52247	179852
25.53060	169259
25.53872	161863
25.54683	156944
25.55497	154795
25.56308	159322
25.57122	150527
25.57933	157220
25.58745	148231
25.59558	150112
25.60370	150433
25.61183	146997
25.61995	138607
25.62807	148100
25.63620	142035
25.64432	149950
25.65243	154456
25.66057	153678
25.66868	162286
25.67682	161689
25.68493	168648
25.69305	157806
25.70118	165132
25.70930	153152
25.71743	160765
25.72555	145851
25.73367	138905
25.74180	140356
25.74992	138262
25.75805	139544
25.76617	119987
25.77428	115011
25.78242	105788
25.79053	96964
25.79865	100851
25.80678	90236
25.81490	91220
25.82303	92862
25.83115	99748
25.83927	107391
25.84740	106506
25.85552	108722
25.86365	101413
25.87177	99787
25.87988	94895
25.88802	88850
25.89613	92902
25.90427	84375
25.91238	90791
25.92050	84002
25.92863	78772
25.93675	84048
25.94487	82404
25.95300	84704
25.96112	80450
25.96925	77081
25.97737	78926
25.98548	80050
25.99362	86061
26.00173	73882
26.00987	71184
26.01798	72154
26.02610	70449
26.03423	64362
26.04235	67959
26.05047	69516
26.05860	72090
26.06672	73019
26.07485	76075
26.08297	76802
26.09108	76881
26.09922	79946
26.10733	78049
26.11547	77782
26.12358	82153
26.13170	87624
26.13983	103503
26.14795	137688
26.15608	170196
26.16420	188689
26.17232	208489
26.18045	215144
26.18857	225890
26.19668	225201
26.20482	220790
26.21293	216006
26.22107	211767
26.22918	210890
26.23730	207642
26.24543	203663
26.25355	208930
26.26168	203282
26.26980	205796
26.27792	200109
26.28605	196676
26.29417	196096
26.30228	209703
26.31042	202216
26.31853	198594
26.32667	199649
26.33478	200348
26.34290	210664
26.35103	212952
26.35915	245297
26.36728	293417
26.37540	410651
26.38352	578774
26.39165	769846
26.39977	1017478
26.40790	1170413
26.41602	1172488
26.42413	1068601
26.43227	889547
26.44038	691497
26.44850	515069
26.45663	386677
26.46475	304533
26.47288	255267
26.48100	232279
26.48912	219927
26.49725	210903
26.50537	205498
26.51350	202878
26.52162	194694
26.52973	194365
26.53787	188553
26.54598	176096
26.55412	182585
26.56223	177951
26.57035	174747
26.57848	173509
26.58660	169648
26.59472	166864
26.60285	166019
26.61097	176425
26.61910	160006
26.62722	164741
26.63533	160651
26.64347	169222
26.65158	160352
26.65972	160854
26.66783	168661
26.67595	165909
26.68408	166872
26.69220	163574
26.70032	161421
26.70845	151885
26.71657	150212
26.72470	147907
26.73282	153220
26.74093	150469
26.74907	155059
26.75718	151202
26.76532	157763
26.77343	145806
26.78155	141874
26.78968	147137
26.79780	154784
26.80593	146922
26.81405	149009
26.82217	150051
26.83030	148161
26.83842	153570
26.84653	145427
26.85467	154288
26.86278	141983
26.87092	138937
26.87903	136439
26.88715	135858
26.89528	134190
26.90340	138107
26.91153	132814
26.91965	125739
26.92777	125163
26.93590	120903
26.94402	123289
26.95215	116359
26.96027	125033
26.96838	137129
26.97652	163864
26.98463	219909
26.99275	366930
27.00088	643947
27.00900	1117476
27.01713	1871405
27.02525	2668256
27.03337	3264257
27.04150	3361403
27.04962	2916021
27.05775	2312758
27.06587	1732437
27.07398	1295950
27.08212	1002369
27.09023	793035
27.09835	634685
27.10648	515478
27.11460	445181
27.12273	402999
27.13085	375066
27.13897	345295
27.14710	323653
27.15522	301806
27.16335	283564
27.17147	292104
27.17958	294855
27.18772	321290
27.19583	341542
27.20397	330519
27.21208	317854
27.22020	287149
27.22833	265008
27.23645	228449
27.24457	218653
27.25270	206396
27.26082	198861
27.26895	186588
27.27707	170379
27.28518	159354
27.29332	151881
27.30143	157226
27.30957	156696
27.31768	153080
27.32580	145933
27.33393	149922
27.34205	149085
27.35018	152270
27.35830	145577
27.36642	148497
27.37455	141389
27.38267	150094
27.39078	151675
27.39892	143714
27.40703	134022
27.41517	132042
27.42328	128364
27.43140	130299
27.43953	126678
27.44765	125625
27.45578	123163
27.46390	119530
27.47202	121452
27.48015	114622
27.48827	113680
27.49638	117176
27.50452	113921
27.51263	111227
27.52077	110759
27.52888	116750
27.53700	111307
27.54513	115217
27.55325	113868
27.56138	108210
27.56950	112798
27.57762	110833
27.58575	113321
27.59387	130837
27.60200	133611
27.61012	133492
27.61823	141703
27.62637	142595
27.63448	137836
27.64260	127414
27.65073	125124
27.65885	114027
27.66698	107828
27.67510	108628
27.68322	109080
27.69135	112532
27.69947	113909
27.70760	120657
27.71572	106853
27.72383	98402
27.73197	97170
27.74008	99545
27.74820	88846
27.75633	94808
27.76445	95964
27.77258	94711
27.78070	100011
27.78882	111281
27.79695	120119
27.80507	129086
27.81320	122703
27.82132	122202
27.82943	107787
27.83757	112859
27.84568	104695
27.85382	97485
27.86193	94751
27.87005	92688
27.87818	88100
27.88630	89465
27.89442	86194
27.90255	83890
27.91067	78531
27.91880	87591
27.92692	84303
27.93503	79220
27.94317	81256
27.95128	79080
27.95942	79455
27.96753	81445
27.97565	80139
27.98378	82453
27.99190	82203
28.00003	81195
28.00815	86184
28.01627	87401
28.02440	97166
28.03252	99620
28.04063	118037
28.04877	124811
28.05688	142745
28.06502	144379
28.07313	143300
28.08125	132490
28.08938	117727
28.09750	102126
28.10563	94612
28.11375	87801
28.12187	87913
28.13000	81315
28.13812	85455
28.14623	80329
28.15437	82741
28.16248	78163
28.17062	74463
28.17873	85088
28.18685	81982
28.19498	78104
28.20310	88742
28.21123	99849
28.21935	107289
28.22747	123230
28.23560	134494
28.24372	126090
28.25185	120193
28.25997	109025
28.26808	101934
28.27622	85180
28.28433	89747
28.29245	83883
28.30058	86001
28.30870	87318
28.31683	109619
28.32495	130466
28.33307	161602
28.34120	201149
28.34932	254463
28.35745	311210
28.36557	372258
28.37368	428637
28.38182	454803
28.38993	487594
28.39807	466897
28.40618	441530
28.41430	425419
28.42243	370637
28.43055	339880
28.43867	298829
28.44680	274695
28.45492	240953
28.46305	210550
28.47117	201056
28.47928	183400
28.48742	182503
28.49553	170249
28.50367	175059
28.51178	165701
28.51990	165054
28.52803	158200
28.53615	151988
28.54427	139334
28.55240	130534
28.56052	120239
28.56865	111919
28.57677	115752
28.58488	110616
28.59302	115513
28.60113	104985
28.60927	99749
28.61738	105160
28.62550	107417
28.63363	100300
28.64175	99124
28.64988	114268
28.65800	117077
28.66612	115791
28.67425	112312
28.68237	109364
28.69048	101188
28.69862	101422
28.70673	96656
28.71487	94796
28.72298	90830
28.73110	97208
28.73923	85840
28.74735	85352
28.75548	93003
28.76360	89506
28.77172	94347
28.77985	111354
28.78797	119788
28.79608	131802
28.80422	133351
28.81233	130519
28.82047	120156
28.82858	110815
28.83670	97398
28.84483	89262
28.85295	96382
28.86108	87870
28.86920	87862
28.87732	86747
28.88545	85103
28.89357	90882
28.90170	96822
28.90982	100257
28.91793	94999
28.92607	100103
28.93418	95756
28.94230	90370
28.95043	94421
28.95855	96691
28.96668	98559
28.97480	96704
28.98292	96560
28.99105	89561
28.99917	84457
29.00730	86299
29.01542	79088
29.02353	76254
29.03167	77946
29.03978	77955
29.04792	70829
29.05603	79770
29.06415	78747
29.07228	79042
29.08040	79426
29.08852	87095
29.09665	87906
29.10477	85498
29.11290	89270
29.12102	76935
29.12913	82439
29.13727	74117
29.14538	69386
29.15352	74500
29.16163	74442
29.16975	72316
29.17788	75076
29.18600	75597
29.19413	85982
29.20225	90817
29.21037	101886
29.21850	108845
29.22662	116869
29.23473	127705
29.24287	117115
29.25098	116842
29.25912	118033
29.26723	112959
29.27535	112667
29.28348	106452
29.29160	103995
29.29973	98704
29.30785	89155
29.31597	79792
29.32410	78010
29.33222	74666
29.34033	74899
29.34847	73420
29.35658	70436
29.36472	72750
29.37283	70540
29.38095	70813
29.38908	76187
29.39720	75885
29.40533	75491
29.41345	72196
29.42157	74236
29.42970	71371
29.43782	70453
29.44595	75727
29.45407	70369
29.46218	74164
29.47032	72236
29.47843	73214
29.48655	71226
29.49468	79335
29.50280	75455
29.51093	78784
29.51905	77027
29.52717	82247
29.53530	77211
29.54342	72048
29.55155	72843
29.55967	66540
29.56778	68117
29.57592	63013
29.58403	67329
29.59215	59613
29.60028	65533
29.60840	66522
29.61653	65818
29.62465	72441
29.63277	69121
29.64090	64637
29.64902	69058
29.65715	66920
29.66527	65662
29.67338	64743
29.68152	66794
29.68963	66434
29.69777	69473
29.70588	70103
29.71400	71761
29.72213	70731
29.73025	68914
29.73837	67302
29.74650	66568
29.75462	71022
29.76275	71510
29.77087	69135
29.77898	66218
29.78712	62315
29.79523	69570
29.80337	66585
29.81148	57838
29.81960	60365
29.82773	59171
29.83585	60650
29.84398	61543
29.85210	60178
29.86022	64738
29.86835	69088
29.87647	86138
29.88458	129659
29.89272	195285
29.90083	297810
29.90897	373940
29.91708	434191
29.92520	401456
29.93333	337969
29.94145	237200
29.94958	168107
29.95770	131079
29.96582	112290
29.97395	105970
29.98207	109325
29.99018	127832
29.99832	148077
30.00643	160312
30.01457	176838
30.02268	201619
30.03080	212197
30.03893	209936
30.04705	220849
30.05518	214836
30.06330	209847
30.07142	207155
30.07955	208975
30.08767	182596
30.09580	177204
30.10392	168884
30.11203	160890
30.12017	151633
30.12828	136444
30.13640	134215
30.14453	123503
30.15265	118973
30.16078	111566
30.16890	113876
30.17702	112722
30.18515	109773
30.19327	103467
30.20140	110215
30.20952	105620
30.21763	107929
30.22577	108937
30.23388	101252
30.24202	95666
30.25013	97156
30.25825	90903
30.26638	84545
30.27450	80747
30.28262	76814
30.29075	82545
30.29887	76060
30.30700	74979
30.31512	76869
30.32323	78722
30.33137	72949
30.33948	76506
30.34762	72744
30.35573	76255
30.36385	77863
30.37198	79001
30.38010	75456
30.38822	70311
30.39635	75570
30.40447	68765
30.41260	68722
30.42072	63646
30.42883	69408
30.43697	69580
30.44508	65748
30.45322	68944
30.46133	67681
30.46945	64632
30.47758	69130
30.48570	69264
30.49383	69403
30.50195	68119
30.51007	70366
30.51820	74356
30.52632	74181
30.53443	70894
30.54257	65274
30.55068	67630
30.55882	67818
30.56693	65338
30.57505	69670
30.58318	66415
30.59130	67430
30.59943	67284
30.60755	69695
30.61567	65502
30.62380	70313
30.63192	60779
30.64003	66322
30.64817	65947
30.65628	60657
30.66442	61923
30.67253	66165
30.68065	65077
30.68878	59806
30.69690	61228
30.70503	57089
30.71315	63013
30.72127	60202
30.72940	63226
30.73752	61505
30.74565	60400
30.75377	62546
30.76188	67265
30.77002	60287
30.77813	63214
30.78625	69232
30.79438	79031
30.80250	90106
30.81063	109274
30.81875	117912
30.82687	129545
30.83500	119966
30.84312	108737
30.85125	95744
30.85937	88604
30.86748	76700
30.87562	76228
30.88373	80701
30.89187	73977
30.89998	75442
30.90810	76730
30.91623	71357
30.92435	72018
30.93247	64773
30.94060	66968
30.94872	73682
30.95685	74027
30.96497	74409
30.97308	70176
30.98122	71481
30.98933	65662
30.99747	71897
31.00558	70152
31.01370	76331
31.02183	78708
31.02995	87360
31.03807	95513
31.04620	95655
31.05432	104561
31.06245	99560
31.07057	93302
31.07868	85576
31.08682	96988
31.09493	110073
31.10307	148599
31.11118	191217
31.11930	226840
31.12743	235692
31.13555	212729
31.14368	187055
31.15180	136856
31.15992	115780
31.16805	91694
31.17617	82628
31.18428	82831
31.19242	88139
31.20053	92364
31.20867	108102
31.21678	128735
31.22490	144901
31.23303	160732
31.24115	159047
31.24928	144133
31.25740	137703
31.26552	113129
31.27365	98711
31.28177	76752
31.28990	75562
31.29802	67959
31.30613	67273
31.31427	65077
31.32238	65476
31.33050	71064
31.33863	62606
31.34675	66655
31.35488	67285
31.36300	65466
31.37112	69368
31.37925	70736
31.38737	78291
31.39550	78954
31.40362	82823
31.41173	80722
31.41987	73546
31.42798	72258
31.43610	73623
31.44423	68235
31.45235	69885
31.46048	68631
31.46860	65897
31.47672	72032
31.48485	71045
31.49297	76497
31.50110	76038
31.50922	79619
31.51733	78884
31.52547	75032
31.53358	72515
31.54172	77738
31.54983	77893
31.55795	77037
31.56608	74885
31.57420	79757
31.58232	70418
31.59045	72695
31.59857	69924
31.60670	65566
31.61482	58878
31.62293	60205
31.63107	59471
31.63918	63328
31.64732	61259
31.65543	63436
31.66355	66615
31.67168	72722
31.67980	74008
31.68792	74459
31.69605	84084
31.70417	78309
31.71230	77746
31.72042	71754
31.72853	73686
31.73667	78179
31.74478	72802
31.75292	73406
31.76103	69396
31.76915	74069
31.77728	72052
31.78540	71905
31.79353	75485
31.80165	75173
31.80977	81435
31.81790	81610
31.82602	82302
31.83413	81219
31.84227	77280
31.85038	82828
31.85852	77546
31.86663	89166
31.87475	83803
31.88288	82917
31.89100	84699
31.89913	91690
31.90725	89183
31.91537	92804
31.92350	104732
31.93162	108369
31.93975	117665
31.94787	126534
31.95598	140543
31.96412	145658
31.97223	149322
31.98035	152040
31.98848	158527
31.99660	152314
32.00473	167691
32.01285	164553
32.02097	155710
32.02910	147603
32.03722	138606
32.04535	131063
32.05347	127791
32.06158	115773
32.06972	118481
32.07783	113094
32.08595	108281
32.09408	110050
32.10220	108702
32.11033	104655
32.11845	105465
32.12657	93042
32.13470	93942
32.14282	82254
32.15095	81220
32.15907	79852
32.16718	80540
32.17532	77395
32.18343	79004
32.19157	75262
32.19968	77767
32.20780	82608
32.21593	74894
32.22405	78997
32.23217	81004
32.24030	77642
32.24842	72968
32.25655	75960
32.26467	75556
32.27278	75238
32.28092	79213
32.28903	87270
32.29717	82626
32.30528	81139
32.31340	76017
32.32153	73560
32.32965	70201
32.33778	79276
32.34590	67547
32.35402	72981
32.36215	72453
32.37027	75070
32.37838	76593
32.38652	73786
32.39463	73704
32.40277	68179
32.41088	70044
32.41900	64244
32.42713	68723
32.43525	62864
32.44338	64171
32.45150	57928
32.45962	65103
32.46775	62193
32.47587	60784
32.48398	58430
32.49212	66493
32.50023	60174
32.50837	60226
32.51648	62799
32.52460	62564
32.53273	65261
32.54085	59534
32.54898	64165
32.55710	63935
32.56522	60375
32.57335	62578
32.58147	59399
32.58960	64891
32.59772	63125
32.60583	61045
32.61397	61472
32.62208	55752
32.63020	58321
32.63833	60397
32.64645	59370
32.65458	62542
32.66270	62915
32.67082	68795
32.67895	77596
32.68707	92043
32.69520	95026
32.70332	93201
32.71143	84970
32.71957	77553
32.72768	70196
32.73582	61656
32.74393	65620
32.75205	63719
32.76018	63823
32.76830	61454
32.77642	62291
32.78455	62727
32.79267	57593
32.80080	56512
32.80892	56854
32.81703	58793
32.82517	55614
32.83328	53317
32.84142	54068
32.84953	61940
32.85765	56753
32.86578	64969
32.87390	59506
32.88202	57645
32.89015	62523
32.89827	62337
32.90640	71153
32.91452	68084
32.92263	67184
32.93077	61416
32.93888	61653
32.94702	66820
32.95513	61037
32.96325	58661
32.97138	60872
32.97950	64316
32.98763	70699
32.99575	85900
33.00387	102673
33.01200	116474
33.02012	126144
33.02823	132564
33.03637	112365
33.04448	92215
33.05262	81236
33.06073	71619
33.06885	73936
33.07698	73768
33.08510	71876
33.09323	86170
33.10135	96105
33.10947	93245
33.11760	113269
33.12572	116806
33.13383	119051
33.14197	117831
33.15008	108433
33.15822	99396
33.16633	83587
33.17445	76673
33.18258	72137
33.19070	70102
33.19883	70589
33.20695	59895
33.21507	58886
33.22320	64465
33.23132	65032
33.23945	65542
33.24757	66885
33.25568	68726
33.26382	66931
33.27193	61758
33.28005	65876
33.28818	58510
33.29630	67332
33.30443	63262
33.31255	65003
33.32067	59328
33.32880	66745
33.33692	67448
33.34505	59886
33.35317	67800
33.36128	65208
33.36942	68723
33.37753	63427
33.38567	63717
33.39378	68450
33.40190	59681
33.41003	56842
33.41815	59761
33.42627	60390
33.43440	56565
33.44252	58700
33.45065	57548
33.45877	56049
33.46688	53414
33.47502	55854
33.48313	56969
33.49127	58848
33.49938	57530
33.50750	56594
33.51563	57748
33.52375	61704
33.53187	64445
33.54000	58239
33.54812	64652
33.55625	62893
33.56437	64213
33.57248	70586
33.58062	64348
33.58873	60731
33.59687	61957
33.60498	58226
33.61310	59027
33.62123	58463
33.62935	58396
33.63748	61210
33.64560	67731
33.65372	59500
33.66185	62425
33.66997	71613
33.67808	68190
33.68622	63665
33.69433	67646
33.70247	56799
33.71058	59743
33.71870	53253
33.72683	53772
33.73495	52900
33.74308	54320
33.75120	55684
33.75932	54480
33.76745	55450
33.77557	56633
33.78370	55726
33.79182	52588
33.79993	54968
33.80807	56034
33.81618	57305
33.82430	55281
33.83243	60795
33.84055	63000
33.84868	56115
33.85680	60870
33.86492	61261
33.87305	60510
33.88117	63348
33.88930	59550
33.89742	60711
33.90553	63218
33.91367	61980
33.92178	61883
33.92990	56924
33.93803	55729
33.94615	58570
33.95428	53076
33.96240	59051
33.97052	55811
33.97865	51593
33.98677	55711
33.99490	52545
34.00302	54015
34.01113	59080
34.01927	54138
34.02738	58601
34.03552	54425
34.04363	51799
34.05175	49779
34.05988	55123
34.06800	56792
34.07612	57344
34.08425	58689
34.09237	55318
34.10050	52804
34.10862	56535
34.11673	56980
34.12487	57892
34.13298	55552
34.14112	51613
34.14923	58130
34.15735	53896
34.16548	54770
34.17360	56759
34.18172	53989
34.18985	53204
34.19797	52103
34.20610	55616
34.21422	53879
34.22233	53844
34.23047	54554
34.23858	59008
34.24672	52491
34.25483	55744
34.26295	54667
34.27108	52971
34.27920	54623
34.28733	54074
34.29545	56232
34.30357	58059
34.31170	55906
34.31982	56335
34.32793	54247
34.33607	53909
34.34418	59158
34.35232	64462
34.36043	59585
34.36855	56419
34.37668	64787
34.38480	54283
34.39293	55928
34.40105	59377
34.40917	54797
34.41730	53029
34.42542	59106
34.43355	58008
34.44167	54578
34.44978	53787
34.45792	56298
34.46603	58061
34.47415	57487
34.48228	58269
34.49040	59008
34.49853	54901
34.50665	54724
34.51477	57489
34.52290	56121
34.53102	67832
34.53915	74502
34.54727	85956
34.55538	96857
34.56352	111070
34.57163	111678
34.57975	118056
34.58788	112107
34.59600	114371
34.60413	104081
34.61225	95380
34.62037	89023
34.62850	84681
34.63662	80379
34.64475	76276
34.65287	74347
34.66098	73987
34.66912	72261
34.67723	69804
34.68537	77420
34.69348	67053
34.70160	65220
34.70973	68970
34.71785	65906
34.72597	64648
34.73410	68058
34.74222	64177
34.75035	69899
34.75847	70536
34.76658	60823
34.77472	67680
34.78283	70314
34.79097	68501
34.79908	67727
34.80720	68052
34.81533	64018
34.82345	66560
34.83158	69457
34.83970	67635
34.84782	65929
34.85595	72292
34.86407	62363
34.87218	64534
34.88032	66271
34.88843	60826
34.89657	62000
34.90468	64587
34.91280	60696
34.92093	63415
34.92905	64908
34.93718	64637
34.94530	76508
34.95342	80837
34.96155	108149
34.96967	156913
34.97778	210208
34.98592	283081
34.99403	328108
35.00217	314933
35.01028	254307
35.01840	187772
35.02653	136185
35.03465	97810
35.04278	85083
35.05090	74294
35.05902	71569
35.06715	69845
35.07527	67959
35.08340	68951
35.09152	71517
35.09963	67891
35.10777	71533
35.11588	68453
35.12400	69182
35.13213	67261
35.14025	63597
35.14838	66065
35.15650	68116
35.16462	72084
35.17275	70434
35.18087	66245
35.18900	71313
35.19712	69430
35.20523	68970
35.21337	60056
35.22148	65205
35.22960	59494
35.23773	65879
35.24585	66893
35.25398	60460
35.26210	61432
35.27022	65034
35.27835	65984
35.28647	65717
35.29460	68451
35.30272	68938
35.31083	67756
35.31897	66776
35.32708	64504
35.33522	64492
35.34333	59519
35.35145	60820
35.35958	58610
35.36770	61554
35.37582	62741
35.38395	64733
35.39207	60042
35.40020	61288
35.40832	66710
35.41643	68276
35.42457	70629
35.43268	79375
35.44082	82006
35.44893	81000
35.45705	77379
35.46518	77866
35.47330	77739
35.48143	73051
35.48955	68674
35.49767	71957
35.50580	69717
35.51392	72617
35.52203	74894
35.53017	67923
35.53828	68048
35.54642	65151
35.55453	69894
35.56265	62281
35.57078	66868
35.57890	66925
35.58703	66849
35.59515	60118
35.60327	61883
35.61140	66768
35.61952	66559
35.62765	66685
35.63577	66737
35.64388	62183
35.65202	65922
35.66013	62620
35.66825	58768
35.67638	64271
35.68450	63056
35.69263	67264
35.70075	68002
35.70887	73154
35.71700	75465
35.72512	70710
35.73325	69065
35.74137	71711
35.74948	69412
35.75762	67307
35.76573	77223
35.77385	79091
35.78198	78108
35.79010	81283
35.79823	77335
35.80635	73969
35.81447	73241
35.82260	67728
35.83072	64467
35.83885	70626
35.84697	62494
35.85508	66755
35.86322	65617
35.87133	67421
35.87947	64021
35.88758	71746
35.89570	65603
35.90383	59459
35.91195	59792
35.92007	68043
35.92820	67680
35.93632	68250
35.94445	64378
35.95257	65804
35.96068	61980
35.96882	62366
35.97693	60009
35.98507	61501
35.99318	67447
36.00130	65204
36.00943	70051
36.01755	64589
36.02567	67003
36.03380	68562
36.04192	72019
36.05005	76206
36.05817	70661
36.06628	70697
36.07442	66550
36.08253	71034
36.09067	70977
36.09878	65318
36.10690	68454
36.11503	74808
36.12315	64128
36.13128	69221
36.13940	67168
36.14752	71691
36.15565	73987
36.16377	77312
36.17188	72195
36.18002	75608
36.18813	74523
36.19627	73142
36.20438	65056
36.21250	66833
36.22063	65071
36.22875	64130
36.23688	63432
36.24500	58613
36.25312	61264
36.26125	62770
36.26937	64660
36.27750	66806
36.28562	63298
36.29373	64456
36.30187	66948
36.30998	70748
36.31810	74426
36.32623	83282
36.33435	91604
36.34248	99567
36.35060	89329
36.35872	84719
36.36685	79271
36.37497	76580
36.38310	69174
36.39122	71337
36.39933	71177
36.40747	73291
36.41558	68738
36.42370	73182
36.43183	70589
36.43995	69730
36.44808	65380
36.45620	66916
36.46432	65336
36.47245	66223
36.48057	65751
36.48870	61438
36.49682	66936
36.50493	61527
36.51307	62008
36.52118	63528
36.52932	68893
36.53743	67356
36.54555	68390
36.55368	63092
36.56180	67421
36.56992	62460
36.57805	64606
36.58617	64509
36.59430	61273
36.60242	63676
36.61053	64363
36.61867	66007
36.62678	68804
36.63492	65065
36.64303	67807
36.65115	69978
36.65928	63822
36.66740	69621
36.67553	64607
36.68365	65611
36.69177	72047
36.69990	71539
36.70802	72427
36.71613	73756
36.72427	70872
36.73238	68821
36.74052	67816
36.74863	70069
36.75675	68042
36.76488	66174
36.77300	65449
36.78113	68807
36.78925	66923
36.79737	65687
36.80550	64113
36.81362	66315
36.82173	65222
36.82987	61605
36.83798	68541
36.84612	65004
36.85423	68113
36.86235	66123
36.87048	70075
36.87860	67230
36.88673	67012
36.89485	65604
36.90297	67703
36.91110	67144
36.91922	70933
36.92735	69538
36.93547	72419
36.94358	69001
36.95172	81557
36.95983	83561
36.96795	91255
36.97608	95650
36.98420	103889
36.99233	106220
37.00045	96913
37.00857	90514
37.01670	81232
37.02482	70768
37.03295	68970
37.04107	73606
37.04918	72484
37.05732	69485
37.06543	74504
37.07355	72877
37.08168	80529
37.08980	74394
37.09793	85121
37.10605	87958
37.11417	87666
37.12230	89335
37.13042	85575
37.13855	87003
37.14667	78715
37.15478	83952
37.16292	85069
37.17103	82143
37.17917	82877
37.18728	79486
37.19540	84632
37.20353	82353
37.21165	83908
37.21977	88638
37.22790	88546
37.23602	93175
37.24415	89372
37.25227	88059
37.26038	83377
37.26852	86872
37.27663	84553
37.28477	82644
37.29288	83917
37.30100	78042
37.30913	80485
37.31725	87654
37.32538	79538
37.33350	79333
37.34162	86439
37.34975	90798
37.35787	95183
37.36598	103551
37.37412	109157
37.38223	112592
37.39037	112462
37.39848	107045
37.40660	105092
37.41473	100228
37.42285	105068
37.43098	105256
37.43910	98116
37.44722	96404
37.45535	103093
37.46347	98203
37.47158	89734
37.47972	90434
37.48783	89324
