Z:\data\JTB-E02\BACandBLUE\JTB-E02-191-14.D Wed Dec 12 17:19:59 2018
Start of data points
2.09518	68123
2.10330	65719
2.11142	69267
2.11955	64050
2.12767	69404
2.13580	71034
2.14392	65861
2.15203	70963
2.16017	68395
2.16828	69518
2.17640	71991
2.18453	65941
2.19265	66359
2.20078	63930
2.20890	64778
2.21702	61043
2.22515	61696
2.23327	53488
2.24140	56514
2.24952	58932
2.25763	61867
2.26577	233403
2.27388	730092
2.28202	1235742
2.29013	1137109
2.29825	608119
2.30638	394566
2.31450	308362
2.32262	263737
2.33075	227671
2.33887	208156
2.34700	186814
2.35512	176454
2.36323	169668
2.37137	167885
2.37948	160543
2.38762	160965
2.39573	154391
2.40385	157063
2.41198	164137
2.42010	160309
2.42823	166440
2.43635	156294
2.44447	149324
2.45260	145931
2.46072	149284
2.46883	142592
2.47697	138727
2.48508	138831
2.49322	138388
2.50133	145581
2.50945	135889
2.51758	136770
2.52570	128564
2.53383	129094
2.54195	131503
2.55007	136364
2.55820	145628
2.56632	140253
2.57443	131327
2.58257	123255
2.59068	117137
2.59882	141916
2.60693	290098
2.61505	496830
2.62318	502852
2.63130	334550
2.63943	233404
2.64755	191258
2.65567	169794
2.66380	147769
2.67192	141756
2.68005	129316
2.68817	126036
2.69628	122461
2.70442	122670
2.71253	113580
2.72065	110943
2.72878	116737
2.73690	107766
2.74503	109130
2.75315	104311
2.76127	107559
2.76940	148780
2.77752	475720
2.78565	1105391
2.79377	1443914
2.80188	1022274
2.81002	614120
2.81813	474094
2.82627	422852
2.83438	353001
2.84250	274052
2.85063	244810
2.85875	212607
2.86687	187167
2.87500	173812
2.88312	160602
2.89125	156607
2.89937	140836
2.90748	134807
2.91562	133026
2.92373	126888
2.93187	124174
2.93998	124841
2.94810	120143
2.95623	124122
2.96435	134110
2.97247	134157
2.98060	125610
2.98872	123773
2.99685	122414
3.00497	119727
3.01308	117581
3.02122	118792
3.02933	112294
3.03747	109714
3.04558	104528
3.05370	101852
3.06183	111870
3.06995	107450
3.07808	166195
3.08620	473346
3.09432	1244858
3.10245	2933103
3.11057	5217179
3.11868	6175671
3.12682	4620139
3.13493	2869895
3.14307	1946961
3.15118	1460519
3.15930	1158060
3.16743	993978
3.17555	1017417
3.18368	1653096
3.19180	3428523
3.19992	5221254
3.20805	4819039
3.21617	3373001
3.22428	2351774
3.23242	1805804
3.24053	1469003
3.24867	1204021
3.25678	1047068
3.26490	873457
3.27303	779315
3.28115	702745
3.28928	743468
3.29740	1209052
3.30552	2308572
3.31365	3422941
3.32177	3525636
3.32990	2823337
3.33802	2016993
3.34613	1508250
3.35427	1217826
3.36238	1023349
3.37050	894874
3.37863	806936
3.38675	751566
3.39488	672950
3.40300	620225
3.41112	574975
3.41925	556180
3.42737	534188
3.43550	539514
3.44362	512451
3.45173	519475
3.45987	534654
3.46798	674707
3.47612	853501
3.48423	848770
3.49235	671163
3.50048	520823
3.50860	451897
3.51672	392279
3.52485	377904
3.53297	405087
3.54110	438467
3.54922	455515
3.55733	407956
3.56547	363246
3.57358	331937
3.58172	318642
3.58983	312809
3.59795	292297
3.60608	279230
3.61420	278194
3.62232	285001
3.63045	286806
3.63857	301311
3.64670	294961
3.65482	562853
3.66293	3313895
3.67107	1.40099E+07
3.67918	2.967213E+07
3.68732	3.81551E+07
3.69543	3.502707E+07
3.70355	2.460605E+07
3.71168	1.682502E+07
3.71980	1.27652E+07
3.72793	1.022463E+07
3.73605	8592818
3.74417	7358070
3.75230	6325674
3.76042	5504226
3.76853	4881111
3.77667	4313179
3.78478	3892364
3.79292	3617779
3.80103	3417368
3.80915	3451748
3.81728	3744084
3.82540	3837611
3.83353	3500246
3.84165	2965875
3.84977	2647358
3.85790	2370179
3.86602	2223507
3.87415	2047021
3.88227	1924979
3.89038	1818410
3.89852	1724706
3.90663	1657670
3.91475	1701699
3.92288	1969879
3.93100	2329147
3.93913	2448460
3.94725	2189559
3.95537	1928619
3.96350	1967774
3.97162	2064426
3.97975	1922021
3.98787	1621953
3.99598	1465683
4.00412	1637423
4.01223	2158073
4.02035	2594552
4.02848	2403747
4.03660	1911370
4.04473	1421096
4.05285	1160621
4.06097	1050188
4.06910	969245
4.07722	910032
4.08535	880844
4.09347	828705
4.10158	815652
4.10972	787970
4.11783	760661
4.12597	732727
4.13408	718002
4.14220	706456
4.15033	719340
4.15845	719566
4.16657	722880
4.17470	714112
4.18282	699249
4.19095	691362
4.19907	712076
4.20718	1253387
4.21532	4041723
4.22343	1.083648E+07
4.23157	1.993054E+07
4.23968	2.681301E+07
4.24780	3.162523E+07
4.25593	3.48969E+07
4.26405	3.471546E+07
4.27218	2.637413E+07
4.28030	1.439435E+07
4.28842	9084441
4.29655	7012588
4.30467	5536330
4.31278	4635401
4.32092	3893651
4.32903	3379579
4.33717	2953322
4.34528	2626954
4.35340	2373624
4.36153	2210701
4.36965	2185572
4.37778	2077149
4.38590	1924371
4.39402	1669233
4.40215	1501858
4.41027	1337079
4.41838	1260185
4.42652	1174736
4.43463	1105836
4.44277	1032275
4.45088	999909
4.45900	941837
4.46713	889183
4.47525	841299
4.48338	824574
4.49150	799668
4.49962	773246
4.50775	737538
4.51587	728218
4.52400	708604
4.53212	683100
4.54023	667410
4.54837	683210
4.55648	666260
4.56460	655881
4.57273	619074
4.58085	586114
4.58898	570768
4.59710	561056
4.60522	548430
4.61335	540859
4.62147	597940
4.62960	797722
4.63772	1238309
4.64583	1674787
4.65397	1771015
4.66208	1484271
4.67020	1125295
4.67833	871945
4.68645	782272
4.69458	696594
4.70270	613963
4.71082	562005
4.71895	524614
4.72707	496913
4.73520	479441
4.74332	478424
4.75143	463130
4.75957	442631
4.76768	432681
4.77582	422036
4.78393	410517
4.79205	444072
4.80018	563895
4.80830	700349
4.81642	758756
4.82455	679077
4.83267	611102
4.84080	597892
4.84892	655040
4.85703	702408
4.86517	678585
4.87328	600103
4.88142	516951
4.88953	470816
4.89765	440281
4.90578	410983
4.91390	408380
4.92203	402301
4.93015	392194
4.93827	436073
4.94640	610700
4.95452	1003558
4.96263	1595843
4.97077	2028417
4.97888	2055193
4.98702	1706114
4.99513	1302265
5.00325	1047270
5.01138	878239
5.01950	811283
5.02763	914124
5.03575	1277321
5.04387	1714108
5.05200	1860787
5.06012	1685962
5.06823	1367529
5.07637	1120410
5.08448	978968
5.09262	865128
5.10073	801805
5.10885	734948
5.11698	690813
5.12510	658894
5.13323	616969
5.14135	599667
5.14947	609170
5.15760	725032
5.16572	899462
5.17385	1045859
5.18197	1013136
5.19008	896448
5.19822	815426
5.20633	819189
5.21445	877183
5.22258	881406
5.23070	791543
5.23883	716488
5.24695	663886
5.25507	670181
5.26320	541580
5.27132	495298
5.27945	425736
5.28757	434237
5.29568	394494
5.30382	383347
5.31193	367955
5.32007	367298
5.32818	376849
5.33630	382043
5.34443	393780
5.35255	389924
5.36067	384664
5.36880	355904
5.37692	342038
5.38505	341222
5.39317	350928
5.40128	371077
5.40942	386710
5.41753	374112
5.42567	356173
5.43378	332954
5.44190	329665
5.45003	348386
5.45815	379140
5.46627	393056
5.47440	388568
5.48252	338665
5.49065	318624
5.49877	305721
5.50688	291680
5.51502	293121
5.52313	302142
5.53127	302449
5.53938	297444
5.54750	306425
5.55563	335198
5.56375	466000
5.57188	649592
5.58000	784185
5.58812	755521
5.59625	634003
5.60437	486028
5.61248	392579
5.62062	341100
5.62873	317984
5.63687	301929
5.64498	292821
5.65310	294636
5.66123	278587
5.66935	279076
5.67748	284002
5.68560	337788
5.69372	394321
5.70185	442923
5.70997	460124
5.71808	408235
5.72622	353458
5.73433	313678
5.74247	285800
5.75058	274268
5.75870	257788
5.76683	248603
5.77495	251490
5.78308	246984
5.79120	241037
5.79932	242470
5.80745	237978
5.81557	237545
5.82370	232474
5.83182	234746
5.83993	238024
5.84807	230008
5.85618	238546
5.86430	232311
5.87243	227992
5.88055	227351
5.88868	221729
5.89680	215656
5.90492	219829
5.91305	219955
5.92117	225259
5.92930	223396
5.93742	232809
5.94553	247500
5.95367	293434
5.96178	376232
5.96992	483212
5.97803	632477
5.98615	827449
5.99428	1037803
6.00240	1091280
6.01052	996256
6.01865	835121
6.02677	629570
6.03490	478742
6.04302	366595
6.05113	310995
6.05927	285052
6.06738	252579
6.07552	237673
6.08363	226689
6.09175	226480
6.09988	210529
6.10800	206957
6.11612	212577
6.12425	288037
6.13237	510480
6.14050	958951
6.14862	1441378
6.15673	1623893
6.16487	1370974
6.17298	963920
6.18112	698171
6.18923	536539
6.19735	463565
6.20548	408614
6.21360	366381
6.22173	335505
6.22985	311750
6.23797	315098
6.24610	306609
6.25422	310994
6.26233	331740
6.27047	333418
6.27858	326727
6.28672	307500
6.29483	279639
6.30295	271698
6.31108	267573
6.31920	262855
6.32733	273655
6.33545	275468
6.34357	299950
6.35170	313321
6.35982	296752
6.36795	271027
6.37607	255704
6.38418	257135
6.39232	261407
6.40043	259380
6.40855	250455
6.41668	248158
6.42480	240067
6.43293	250273
6.44105	237639
6.44917	248632
6.45730	247315
6.46542	259906
6.47355	259516
6.48167	260418
6.48978	257291
6.49792	260788
6.50603	258642
6.51415	265256
6.52228	261221
6.53040	262215
6.53853	266275
6.54665	259363
6.55477	257151
6.56290	282522
6.57102	364144
6.57915	488601
6.58727	611325
6.59538	613485
6.60352	514621
6.61163	411247
6.61977	350285
6.62788	305813
6.63600	290040
6.64413	252192
6.65225	224131
6.66037	200629
6.66850	208808
6.67662	200781
6.68475	199546
6.69287	173124
6.70098	170808
6.70912	170026
6.71723	167544
6.72537	163567
6.73348	164421
6.74160	161030
6.74973	157529
6.75785	155945
6.76598	153476
6.77410	148421
6.78222	158603
6.79035	149233
6.79847	147629
6.80658	140167
6.81472	138731
6.82283	142085
6.83097	140971
6.83908	134728
6.84720	143435
6.85533	148797
6.86345	168913
6.87158	196689
6.87970	211309
6.88782	211128
6.89595	181753
6.90407	170353
6.91218	150674
6.92032	123724
6.92843	117999
6.93657	113862
6.94468	117909
6.95280	114334
6.96093	114804
6.96905	126568
6.97718	141267
6.98530	162067
6.99342	158225
7.00155	143096
7.00967	146111
7.01780	136451
7.02592	137014
7.03403	141024
7.04217	134379
7.05028	122564
7.05840	125940
7.06653	127607
7.07465	150637
7.08278	182028
7.09090	198803
7.09902	190273
7.10715	171780
7.11527	147926
7.12340	131307
7.13152	121659
7.13963	127519
7.14777	142417
7.15588	165851
7.16402	212565
7.17213	279422
7.18025	479777
7.18838	1200948
7.19650	3050546
7.20462	6249482
7.21275	9485350
7.22087	1.052356E+07
7.22900	8788089
7.23712	5363012
7.24523	2566146
7.25337	997312
7.26148	427789
7.26962	229237
7.27773	188399
7.28585	170895
7.29398	160109
7.30210	163124
7.31022	158884
7.31835	164127
7.32647	181944
7.33460	218633
7.34272	249519
7.35083	303989
7.35897	329160
7.36708	296782
7.37522	266821
7.38333	208995
7.39145	174992
7.39958	158141
7.40770	140953
7.41583	136512
7.42395	127265
7.43207	125395
7.44020	125640
7.44832	125077
7.45643	121414
7.46457	124737
7.47268	131220
7.48082	132080
7.48893	122977
7.49705	118194
7.50518	114114
7.51330	112166
7.52143	118999
7.52955	133074
7.53767	192491
7.54580	345141
7.55392	681889
7.56203	1258170
7.57017	1982046
7.57828	2659040
7.58642	3007319
7.59453	2816468
7.60265	2228301
7.61078	1600388
7.61890	1037302
7.62703	660794
7.63515	442422
7.64327	330419
7.65140	255349
7.65952	212644
7.66765	185839
7.67577	162187
7.68388	140442
7.69202	132273
7.70013	111389
7.70825	117710
7.71638	119740
7.72450	145516
7.73263	165882
7.74075	195055
7.74887	207339
7.75700	199945
7.76512	197553
7.77325	188280
7.78137	174285
7.78948	167206
7.79762	168452
7.80573	180483
7.81387	205413
7.82198	231103
7.83010	226090
7.83823	203500
7.84635	168236
7.85447	147589
7.86260	140268
7.87072	145434
7.87885	151129
7.88697	164079
7.89508	201064
7.90322	231607
7.91133	248633
7.91947	219510
7.92758	196586
7.93570	192827
7.94383	200897
7.95195	226133
7.96007	235642
7.96820	252687
7.97632	229369
7.98445	202668
7.99257	173662
8.00068	140164
8.00882	116468
8.01693	108342
8.02507	110833
8.03318	98617
8.04130	102126
8.04943	104453
8.05755	100362
8.06568	92657
8.07380	95942
8.08192	101260
8.09005	101779
8.09817	92010
8.10628	88780
8.11442	82630
8.12253	90551
8.13067	101442
8.13878	144301
8.14690	217899
8.15503	288740
8.16315	339700
8.17128	327088
8.17940	262474
8.18752	194699
8.19565	150872
8.20377	123598
8.21190	116146
8.22002	98314
8.22813	92342
8.23627	91791
8.24438	88605
8.25250	84831
8.26063	82683
8.26875	86341
8.27688	79401
8.28500	83627
8.29312	84166
8.30125	77967
8.30937	79250
8.31750	82371
8.32562	84856
8.33373	86117
8.34187	92009
8.34998	90891
8.35810	89331
8.36623	81408
8.37435	79606
8.38248	76907
8.39060	75652
8.39872	75914
8.40685	71531
8.41497	69227
8.42310	70096
8.43122	65098
8.43933	73802
8.44747	75787
8.45558	73289
8.46372	65222
8.47183	67804
8.47995	69507
8.48808	60037
8.49620	63664
8.50432	66983
8.51245	81589
8.52057	109926
8.52870	175795
8.53682	262775
8.54493	297992
8.55307	277287
8.56118	199000
8.56932	131339
8.57743	94489
8.58555	80852
8.59368	80232
8.60180	86332
8.60992	95058
8.61805	127098
8.62617	155045
8.63430	174805
8.64242	178616
8.65053	154147
8.65867	127749
8.66678	111594
8.67492	90174
8.68303	88448
8.69115	75060
8.69928	71919
8.70740	67411
8.71553	70802
8.72365	65043
8.73177	65895
8.73990	63171
8.74802	69364
8.75613	68421
8.76427	77903
8.77238	99698
8.78052	167693
8.78863	298885
8.79675	456936
8.80488	597739
8.81300	610511
8.82113	531918
8.82925	412092
8.83737	313680
8.84550	257858
8.85362	235118
8.86175	215943
8.86987	203569
8.87798	199033
8.88612	174737
8.89423	176227
8.90235	163299
8.91048	159511
8.91860	190704
8.92673	249519
8.93485	338812
8.94297	413565
8.95110	440908
8.95922	372439
8.96735	274848
8.97547	215168
8.98358	208847
8.99172	229238
8.99983	227120
9.00795	215983
9.01608	194227
9.02420	172165
9.03233	150136
9.04045	132897
9.04857	119995
9.05670	122878
9.06482	117388
9.07295	112152
9.08107	110615
9.08918	116791
9.09732	130540
9.10543	147826
9.11357	204687
9.12168	239445
9.12980	265645
9.13793	261092
9.14605	231312
9.15417	191660
9.16230	160128
9.17042	134340
9.17855	132430
9.18667	128551
9.19478	124833
9.20292	122324
9.21103	120371
9.21917	110618
9.22728	112849
9.23540	120815
9.24353	127234
9.25165	127452
9.25978	115142
9.26790	112797
9.27602	105197
9.28415	103644
9.29227	99916
9.30038	95855
9.30852	98936
9.31663	98591
9.32477	92259
9.33288	95195
9.34100	94802
9.34913	94451
9.35725	94071
9.36538	91441
9.37350	89324
9.38162	92555
9.38975	96439
9.39787	102381
9.40598	115896
9.41412	139257
9.42223	162188
9.43037	208940
9.43848	250511
9.44660	284476
9.45473	318668
9.46285	307915
9.47098	275742
9.47910	219857
9.48722	166691
9.49535	134826
9.50347	122911
9.51160	124277
9.51972	131380
9.52783	148991
9.53597	148561
9.54408	161903
9.55220	146510
9.56033	138111
9.56845	121862
9.57658	99749
9.58470	90879
9.59282	91570
9.60095	87063
9.60907	79330
9.61720	81659
9.62532	78315
9.63343	71060
9.64157	71103
9.64968	66796
9.65782	71193
9.66593	67637
9.67405	66603
9.68218	67553
9.69030	68179
9.69842	67956
9.70655	67584
9.71467	69626
9.72280	76529
9.73092	80618
9.73903	80631
9.74717	74550
9.75528	66320
9.76342	65386
9.77153	62961
9.77965	64979
9.78778	57201
9.79590	66809
9.80402	64631
9.81215	58833
9.82027	63214
9.82840	58827
9.83652	62071
9.84463	62735
9.85277	61277
9.86088	65741
9.86902	61568
9.87713	65324
9.88525	65328
9.89338	59482
9.90150	57049
9.90963	58506
9.91775	60207
9.92587	63984
9.93400	71298
9.94212	95965
9.95023	124120
9.95837	182853
9.96648	247628
9.97462	293522
9.98273	299137
9.99085	257095
9.99898	198267
10.00710	143325
10.01523	110777
10.02335	103036
10.03147	93558
10.03960	92534
10.04772	92816
10.05583	96715
10.06397	105809
10.07208	102812
10.08022	103373
10.08833	97153
10.09645	94500
10.10458	91617
10.11270	94304
10.12083	88741
10.12895	84764
10.13707	88425
10.14520	78350
10.15332	86895
10.16145	75932
10.16957	84603
10.17768	81388
10.18582	79081
10.19393	71306
10.20205	71676
10.21018	74592
10.21830	75966
10.22643	73424
10.23455	74983
10.24267	81739
10.25080	103411
10.25892	186488
10.26705	463631
10.27517	1234562
10.28328	2865069
10.29142	5260623
10.29953	8183211
10.30767	1.14072E+07
10.31578	1.507645E+07
10.32390	1.961794E+07
10.33203	2.572467E+07
10.34015	3.321277E+07
10.34827	4.207002E+07
10.35640	4.74275E+07
10.36452	4.68094E+07
10.37265	3.452486E+07
10.38077	1.779482E+07
10.38888	7604833
10.39702	3927859
10.40513	2667545
10.41327	1910843
10.42138	1432496
10.42950	1162896
10.43763	1002437
10.44575	935433
10.45387	910185
10.46200	852875
10.47012	802963
10.47825	736290
10.48637	659553
10.49448	605167
10.50262	538293
10.51073	480318
10.51887	452062
10.52698	428358
10.53510	419231
10.54323	401266
10.55135	400441
10.55948	382589
10.56760	380937
10.57572	379128
10.58385	359897
10.59197	358002
10.60008	329610
10.60822	324512
10.61633	299912
10.62447	290188
10.63258	269348
10.64070	269546
10.64883	255310
10.65695	249386
10.66508	225302
10.67320	230348
10.68132	225955
10.68945	224253
10.69757	219050
10.70570	232346
10.71382	229499
10.72193	236753
10.73007	232320
10.73818	219174
10.74630	211717
10.75443	209632
10.76255	212614
10.77068	197605
10.77880	195995
10.78692	189611
10.79505	184705
10.80317	180635
10.81130	184835
10.81942	181475
10.82753	189794
10.83567	191993
10.84378	177293
10.85190	163617
10.86003	160971
10.86815	150804
10.87628	147760
10.88440	145360
10.89252	139255
10.90065	135898
10.90877	137328
10.91690	149021
10.92502	138361
10.93313	136042
10.94127	137248
10.94938	141105
10.95752	124882
10.96563	133476
10.97375	122378
10.98188	136715
10.99000	131076
10.99812	129535
11.00625	135290
11.01437	134120
11.02250	138350
11.03062	131285
11.03873	130409
11.04687	139747
11.05498	129338
11.06312	130466
11.07123	135210
11.07935	136988
11.08748	142872
11.09560	152405
11.10372	146496
11.11185	150682
11.11997	138921
11.12810	123697
11.13622	116852
11.14433	100874
11.15247	99957
11.16058	95058
11.16872	92689
11.17683	97985
11.18495	90071
11.19308	89347
11.20120	89572
11.20933	86958
11.21745	85308
11.22557	77974
11.23370	78935
11.24182	79021
11.24993	69451
11.25807	65369
11.26618	72877
11.27432	67318
11.28243	69236
11.29055	66470
11.29868	71136
11.30680	90806
11.31493	150621
11.32305	304001
11.33117	605771
11.33930	1076394
11.34742	1600005
11.35555	1912496
11.36367	1937213
11.37178	1701022
11.37992	1313627
11.38803	953636
11.39615	716314
11.40428	562455
11.41240	476084
11.42053	407930
11.42865	322556
11.43677	301190
11.44490	245012
11.45302	223374
11.46115	199678
11.46927	170012
11.47738	168972
11.48552	186985
11.49363	224920
11.50177	286842
11.50988	357735
11.51800	427983
11.52613	434345
11.53425	428843
11.54237	384243
11.55050	345308
11.55862	293152
11.56675	268842
11.57487	238999
11.58298	232696
11.59112	239850
11.59923	289653
11.60737	421287
11.61548	598978
11.62360	755136
11.63173	788170
11.63985	658685
11.64797	515406
11.65610	367267
11.66422	249983
11.67235	192019
11.68047	150689
11.68858	136043
11.69672	131785
11.70483	132587
11.71297	128305
11.72108	135918
11.72920	134178
11.73733	126820
11.74545	122212
11.75358	116419
11.76170	105667
11.76982	98109
11.77795	90241
11.78607	89117
11.79418	88260
11.80232	88054
11.81043	83373
11.81857	75812
11.82668	78032
11.83480	85882
11.84293	81099
11.85105	74418
11.85918	73780
11.86730	72206
11.87542	74843
11.88355	65641
11.89167	73332
11.89978	76209
11.90792	67929
11.91603	71919
11.92417	79485
11.93228	88201
11.94040	91844
11.94853	84289
11.95665	83619
11.96478	78413
11.97290	70185
11.98102	68465
11.98915	62045
11.99727	62791
12.00540	63762
12.01352	66843
12.02163	60764
12.02977	59155
12.03788	61428
12.04600	55026
12.05413	60767
12.06225	62413
12.07038	68707
12.07850	76246
12.08662	72380
12.09475	78700
12.10287	82017
12.11100	102573
12.11912	132002
12.12723	198407
12.13537	282928
12.14348	361704
12.15162	402209
12.15973	388805
12.16785	307184
12.17598	247065
12.18410	175784
12.19222	153860
12.20035	141662
12.20847	142004
12.21660	126113
12.22472	119977
12.23283	112569
12.24097	113466
12.24908	107786
12.25722	106270
12.26533	109960
12.27345	105516
12.28158	106147
12.28970	96334
12.29782	99922
12.30595	93653
12.31407	88219
12.32220	84134
12.33032	82798
12.33843	82239
12.34657	84553
12.35468	82830
12.36282	82713
12.37093	81878
12.37905	86224
12.38718	84386
12.39530	90233
12.40343	112963
12.41155	159040
12.41967	245027
12.42780	312883
12.43592	363032
12.44403	338989
12.45217	288754
12.46028	232057
12.46842	175660
12.47653	150064
12.48465	116035
12.49278	104566
12.50090	108739
12.50903	95276
12.51715	95458
12.52527	99518
12.53340	107925
12.54152	146634
12.54965	193128
12.55777	252619
12.56588	305202
12.57402	321222
12.58213	285480
12.59025	231629
12.59838	176660
12.60650	143963
12.61463	118840
12.62275	113020
12.63087	102520
12.63900	93513
12.64712	88106
12.65525	86431
12.66337	88561
12.67148	89310
12.67962	90651
12.68773	85483
12.69585	88194
12.70398	79179
12.71210	78768
12.72023	78582
12.72835	80076
12.73647	86953
12.74460	88260
12.75272	88443
12.76085	95426
12.76897	84203
12.77708	75538
12.78522	72890
12.79333	76945
12.80147	68419
12.80958	68435
12.81770	66416
12.82583	67044
12.83395	64531
12.84207	57971
12.85020	60168
12.85832	55917
12.86645	54985
12.87457	54392
12.88268	51978
12.89082	55877
12.89893	52963
12.90707	51465
12.91518	54996
12.92330	48954
12.93143	51734
12.93955	53063
12.94767	51362
12.95580	52014
12.96392	60929
12.97205	66305
12.98017	72572
12.98828	78455
12.99642	81144
13.00453	74955
13.01267	67722
13.02078	60608
13.02890	59359
13.03703	52454
13.04515	56882
13.05328	55457
13.06140	54094
13.06952	54221
13.07765	58471
13.08577	64242
13.09388	67001
13.10202	66293
13.11013	70472
13.11827	63136
13.12638	57596
13.13450	56215
13.14263	55855
13.15075	57553
13.15888	55997
13.16700	54518
13.17512	61424
13.18325	64848
13.19137	63445
13.19950	65096
13.20762	65968
13.21573	60602
13.22387	68221
13.23198	69282
13.24010	72207
13.24823	75465
13.25635	81641
13.26448	75062
13.27260	82099
13.28072	80868
13.28885	71961
13.29697	69770
13.30510	58886
13.31322	54286
13.32133	52137
13.32947	49677
13.33758	57307
13.34570	55141
13.35383	52642
13.36195	50983
13.37008	49450
13.37820	52515
13.38632	48349
13.39445	50521
13.40257	50065
13.41070	49592
13.41882	50970
13.42693	51084
13.43507	49316
13.44318	44907
13.45132	51766
13.45943	50812
13.46755	53244
13.47568	51527
13.48380	55256
13.49192	54826
13.50005	56113
13.50817	55222
13.51630	60753
13.52442	69404
13.53253	73104
13.54067	81692
13.54878	77668
13.55692	64574
13.56503	63362
13.57315	52505
13.58128	59124
13.58940	63362
13.59753	71008
13.60565	90230
13.61377	116325
13.62190	134146
13.63002	142851
13.63813	139386
13.64627	122984
13.65438	104022
13.66252	82522
13.67063	70789
13.67875	57597
13.68688	52064
13.69500	50999
13.70313	47717
13.71125	50531
13.71937	48060
13.72750	49539
13.73562	47797
13.74373	51734
13.75187	62623
13.75998	84254
13.76812	122854
13.77623	168662
13.78435	258409
13.79248	347670
13.80060	450410
13.80873	560562
13.81685	642050
13.82497	683309
13.83310	769200
13.84122	877549
13.84935	954320
13.85747	934840
13.86558	845741
13.87372	661761
13.88183	501792
13.88995	376033
13.89808	272196
13.90620	197943
13.91433	161537
13.92245	133839
13.93057	121098
13.93870	108816
13.94682	101018
13.95495	88010
13.96307	88298
13.97118	83601
13.97932	79757
13.98743	72406
13.99555	79211
14.00368	82977
14.01180	87523
14.01993	92899
14.02805	84627
14.03617	80889
14.04430	73133
14.05242	72211
14.06055	65037
14.06867	63212
14.07678	61440
14.08492	60869
14.09303	58073
14.10117	58614
14.10928	58688
14.11740	55694
14.12553	57979
14.13365	61489
14.14177	61240
14.14990	62945
14.15802	59993
14.16615	67890
14.17427	76086
14.18238	68060
14.19052	79503
14.19863	84703
14.20677	97876
14.21488	118222
14.22300	152706
14.23113	182976
14.23925	203240
14.24738	211184
14.25550	220947
14.26362	235724
14.27175	231475
14.27987	216363
14.28798	192133
14.29612	164136
14.30423	136462
14.31237	127539
14.32048	112314
14.32860	114446
14.33673	108166
14.34485	98901
14.35298	104228
14.36110	103072
14.36922	100969
14.37735	88084
14.38547	87985
14.39358	78935
14.40172	92139
14.40983	127744
14.41797	166801
14.42608	230257
14.43420	273057
14.44233	273544
14.45045	253044
14.45858	195934
14.46670	159602
14.47482	125887
14.48295	115211
14.49107	111480
14.49920	108884
14.50732	113591
14.51543	99538
14.52357	94387
14.53168	87250
14.53980	75182
14.54793	75965
14.55605	71726
14.56418	69040
14.57230	69101
14.58042	70718
14.58855	60162
14.59667	63307
14.60480	61958
14.61292	54586
14.62103	53927
14.62917	52553
14.63728	56768
14.64542	52730
14.65353	57327
14.66165	48066
14.66978	52966
14.67790	54238
14.68602	49532
14.69415	49395
14.70227	50392
14.71040	50961
14.71852	50852
14.72663	52129
14.73477	50359
14.74288	56628
14.75102	57527
14.75913	58187
14.76725	56274
14.77538	58617
14.78350	68972
14.79162	119675
14.79975	287128
14.80787	876626
14.81600	2402775
14.82412	5521886
14.83223	9937949
14.84037	1.546906E+07
14.84848	2.01346E+07
14.85662	2.257637E+07
14.86473	2.026244E+07
14.87285	1.475084E+07
14.88098	8848873
14.88910	4649745
14.89723	2660730
14.90535	1902952
14.91347	1510013
14.92160	1289215
14.92972	1139706
14.93783	1006093
14.94597	896428
14.95408	813768
14.96222	757835
14.97033	690784
14.97845	687985
14.98658	619970
14.99470	605880
15.00283	554314
15.01095	544042
15.01907	497872
15.02720	490681
15.03532	448715
15.04345	430306
15.05157	419090
15.05968	396820
15.06782	364697
15.07593	348490
15.08405	340460
15.09218	325854
15.10030	308708
15.10843	298544
15.11655	298641
15.12467	303585
15.13280	311570
15.14092	368827
15.14905	429437
15.15717	484885
15.16528	465197
15.17342	390258
15.18153	312197
15.18965	223275
15.19778	171607
15.20590	144923
15.21403	124370
15.22215	119573
15.23027	112922
15.23840	102359
15.24652	99718
15.25465	100118
15.26277	97038
15.27088	95996
15.27902	88561
15.28713	83980
15.29527	82804
15.30338	80610
15.31150	84367
15.31963	78058
15.32775	85962
15.33587	71800
15.34400	74634
15.35212	71372
15.36025	70480
15.36837	73620
15.37648	78858
15.38462	87967
15.39273	96768
15.40087	89874
15.40898	88587
15.41710	84762
15.42523	79460
15.43335	73317
15.44147	68946
15.44960	69979
15.45772	69866
15.46585	73379
15.47397	87083
15.48208	114962
15.49022	162469
15.49833	219808
15.50647	294662
15.51458	352918
15.52270	373014
15.53083	359745
15.53895	308524
15.54708	256724
15.55520	203831
15.56332	156771
15.57145	128172
15.57957	109135
15.58768	95674
15.59582	88894
15.60393	76209
15.61207	74320
15.62018	79522
15.62830	76859
15.63643	80051
15.64455	81754
15.65268	78833
15.66080	74585
15.66892	76803
15.67705	69277
15.68517	67915
15.69330	65684
15.70142	60039
15.70953	61771
15.71767	58516
15.72578	59417
15.73390	53829
15.74203	60696
15.75015	70244
15.75828	108018
15.76640	214292
15.77452	465213
15.78265	920937
15.79077	1478442
15.79890	1969061
15.80702	2086983
15.81513	1779948
15.82327	1303195
15.83138	842434
15.83950	505143
15.84763	347223
15.85575	262564
15.86388	219513
15.87200	193260
15.88012	173763
15.88825	167383
15.89637	152936
15.90450	151207
15.91262	138185
15.92073	124430
15.92887	125613
15.93698	121705
15.94512	114782
15.95323	107493
15.96135	111211
15.96948	107500
15.97760	98577
15.98572	95811
15.99385	96981
16.00197	92354
16.01010	102278
16.01822	113444
16.02633	115960
16.03447	122741
16.04258	129983
16.05072	130188
16.05883	116908
16.06695	113522
16.07508	93773
16.08320	84345
16.09133	76618
16.09945	73943
16.10757	75928
16.11570	71416
16.12382	76729
16.13193	82038
16.14007	95762
16.14818	109010
16.15632	118792
16.16443	128711
16.17255	124725
16.18068	117991
16.18880	101538
16.19693	92629
16.20505	86471
16.21317	79030
16.22130	91719
16.22942	101209
16.23753	96842
16.24567	91897
16.25378	79080
16.26192	71832
16.27003	71171
16.27815	68003
16.28628	74309
16.29440	76199
16.30253	86711
16.31065	105941
16.31877	107423
16.32690	102847
16.33502	101220
16.34315	89430
16.35127	86603
16.35938	80908
16.36752	81027
16.37563	78151
16.38375	75119
16.39188	71876
16.40000	73762
16.40813	75179
16.41625	71168
16.42437	71322
16.43250	70433
16.44062	88631
16.44875	128833
16.45687	290179
16.46498	767721
16.47312	1774603
16.48123	3307953
16.48935	4980073
16.49748	5985776
16.50560	5795356
16.51373	4618776
16.52185	3121008
16.52997	1843410
16.53810	1074763
16.54622	649392
16.55435	474580
16.56247	396067
16.57058	351299
16.57872	306063
16.58683	299801
16.59497	275208
16.60308	255728
16.61120	240527
16.61933	226338
16.62745	206630
16.63557	192036
16.64370	179215
16.65182	173041
16.65995	159808
16.66807	149883
16.67618	147620
16.68432	151687
16.69243	141352
16.70057	142049
16.70868	125763
16.71680	116258
16.72493	114743
16.73305	95372
16.74118	96669
16.74930	100070
16.75742	115034
16.76555	140672
16.77367	173017
16.78178	192756
16.78992	188977
16.79803	151405
16.80617	126177
16.81428	102632
16.82240	83448
16.83053	78061
16.83865	73985
16.84678	72525
16.85490	65450
16.86302	60126
16.87115	60386
16.87927	65493
16.88738	61494
16.89552	56320
16.90363	60910
16.91177	58501
16.91988	56747
16.92800	59829
16.93613	61094
16.94425	67998
16.95238	65808
16.96050	58032
16.96862	64639
16.97675	57433
16.98487	61398
16.99300	58620
17.00112	68477
17.00923	64678
17.01737	66392
17.02548	65366
17.03360	68174
17.04173	79042
17.04985	108167
17.05798	132611
17.06610	162080
17.07422	160692
17.08235	164315
17.09047	140549
17.09860	120133
17.10672	91525
17.11483	82601
17.12297	75407
17.13108	78843
17.13922	84708
17.14733	88552
17.15545	79904
17.16358	82103
17.17170	83446
17.17982	75531
17.18795	78082
17.19607	73825
17.20420	62865
17.21232	67937
17.22043	56018
17.22857	59096
17.23668	56795
17.24482	57284
17.25293	63389
17.26105	59048
17.26918	64300
17.27730	65062
17.28542	68480
17.29355	62224
17.30167	57042
17.30980	60429
17.31792	75438
17.32603	90188
17.33417	120852
17.34228	164924
17.35042	207775
17.35853	250530
17.36665	244548
17.37478	228897
17.38290	203472
17.39103	172364
17.39915	155665
17.40727	147336
17.41540	138452
17.42352	136370
17.43163	139156
17.43977	133052
17.44788	129427
17.45602	124959
17.46413	121773
17.47225	114631
17.48038	104902
17.48850	99970
17.49663	96647
17.50475	90671
17.51287	90186
17.52100	87390
17.52912	86337
17.53723	86129
17.54537	85469
17.55348	91973
17.56162	109235
17.56973	170501
17.57785	358839
17.58598	837320
17.59410	1743345
17.60223	3148615
17.61035	4577805
17.61847	5526596
17.62660	5605120
17.63472	4846199
17.64285	3650724
17.65097	2429865
17.65908	1473811
17.66722	923485
17.67533	586891
17.68345	404918
17.69158	325996
17.69970	263468
17.70783	238398
17.71595	222247
17.72407	204366
17.73220	181896
17.74032	171660
17.74845	159582
17.75657	139605
17.76468	124531
17.77282	118767
17.78093	112090
17.78907	103291
17.79718	92111
17.80530	96706
17.81343	89682
17.82155	92528
17.82967	94259
17.83780	96033
17.84592	106056
17.85405	125860
17.86217	154188
17.87028	190457
17.87842	218778
17.88653	228711
17.89467	201416
17.90278	168176
17.91090	130711
17.91903	102449
17.92715	84081
17.93528	80510
17.94340	73182
17.95152	72769
17.95965	69595
17.96777	67072
17.97588	62862
17.98402	62949
17.99213	63106
18.00027	60452
18.00838	65674
18.01650	85132
18.02463	110884
18.03275	167708
18.04088	238067
18.04900	341717
18.05712	445064
18.06525	705778
18.07337	1378742
18.08148	2881387
18.08962	5400279
18.09773	8171816
18.10587	1.049285E+07
18.11398	1.111015E+07
18.12210	1.020723E+07
18.13023	8058919
18.13835	5635140
18.14648	3997984
18.15460	2994919
18.16272	2375218
18.17085	2025575
18.17897	1778191
18.18710	1572585
18.19522	1401110
18.20333	1208792
18.21147	1087784
18.21958	1003895
18.22770	932361
18.23583	851519
18.24395	782036
18.25208	745335
18.26020	691624
18.26832	630729
18.27645	570089
18.28457	510854
18.29270	420661
18.30082	329649
18.30893	261599
18.31707	194045
18.32518	162163
18.33330	142796
18.34143	133080
18.34955	133543
18.35768	125874
18.36580	118325
18.37392	119971
18.38205	120749
18.39017	108867
18.39830	116036
18.40642	107698
18.41453	110259
18.42267	114568
18.43078	129901
18.43892	164426
18.44703	179272
18.45515	272139
18.46328	424749
18.47140	718616
18.47952	1226119
18.48765	1695429
18.49577	2018980
18.50390	2034531
18.51202	1760361
18.52013	1326783
18.52827	865009
18.53638	551176
18.54452	347658
18.55263	236502
18.56075	182223
18.56888	148923
18.57700	136986
18.58513	123583
18.59325	108239
18.60137	106929
18.60950	105593
18.61762	103215
18.62573	113619
18.63387	112470
18.64198	117539
18.65012	112990
18.65823	105457
18.66635	98408
18.67448	90424
18.68260	79931
18.69073	72566
18.69885	68930
18.70697	66684
18.71510	67076
18.72322	62022
18.73133	62789
18.73947	62030
18.74758	66429
18.75572	67514
18.76383	61551
18.77195	60314
18.78008	58999
18.78820	59323
18.79633	60499
18.80445	62357
18.81257	67804
18.82070	68501
18.82882	65434
18.83695	65023
18.84507	63599
18.85318	73296
18.86132	63600
18.86943	70242
18.87755	71944
18.88568	69431
18.89380	70282
18.90193	71009
18.91005	66683
18.91817	72444
18.92630	75945
18.93442	89727
18.94255	96309
18.95067	107837
18.95878	124114
18.96692	125651
18.97503	136709
18.98317	128928
18.99128	112142
18.99940	106863
19.00753	93582
19.01565	93317
19.02377	76614
19.03190	67008
19.04002	65069
19.04815	63481
19.05627	60768
19.06438	61339
19.07252	63859
19.08063	66059
19.08877	84879
19.09688	113853
19.10500	155059
19.11313	200209
19.12125	236772
19.12937	231905
19.13750	211861
19.14562	167310
19.15375	124269
19.16187	112802
19.16998	129757
19.17812	157435
19.18623	187299
19.19437	198525
19.20248	203504
19.21060	217346
19.21873	212805
19.22685	216309
19.23498	219922
19.24310	216485
19.25122	221024
19.25935	219856
19.26747	232996
19.27558	229296
19.28372	232508
19.29183	222447
19.29997	249693
19.30808	243692
19.31620	244102
19.32433	244283
19.33245	237485
19.34058	237966
19.34870	245772
19.35682	279564
19.36495	316943
19.37307	410839
19.38118	511796
19.38932	598426
19.39743	611738
19.40557	557515
19.41368	481284
19.42180	386242
19.42993	335208
19.43805	289579
19.44618	268733
19.45430	267790
19.46242	251730
19.47055	265615
19.47867	259207
19.48680	255265
19.49492	253572
19.50303	265704
19.51117	281153
19.51928	294603
19.52740	315875
19.53553	336331
19.54365	352788
19.55178	336895
19.55990	327010
19.56802	304264
19.57615	277777
19.58427	242754
19.59240	238195
19.60052	219973
19.60863	214725
19.61677	199925
19.62488	196944
19.63302	201999
19.64113	197482
19.64925	212790
19.65738	235195
19.66550	293505
19.67362	369206
19.68175	449260
19.68987	516747
19.69800	575062
19.70612	609267
19.71423	561432
19.72237	540870
19.73048	491846
19.73862	451663
19.74673	384772
19.75485	338170
19.76298	308839
19.77110	278169
19.77922	268175
19.78735	275662
19.79547	304961
19.80360	329367
19.81172	345354
19.81983	371973
19.82797	365773
19.83608	329525
19.84422	300614
19.85233	269246
19.86045	241474
19.86858	245468
19.87670	305528
19.88483	416768
19.89295	625869
19.90107	907434
19.90920	1166038
19.91732	1320979
19.92543	1222377
19.93357	1023829
19.94168	792466
19.94982	619782
19.95793	500555
19.96605	425894
19.97418	382852
19.98230	344867
19.99043	328765
19.99855	318438
20.00667	300071
20.01480	294076
20.02292	293771
20.03105	284642
20.03917	284917
20.04728	274512
20.05542	266074
20.06353	246967
20.07165	252119
20.07978	260707
20.08790	284050
20.09603	300199
20.10415	310727
20.11227	316372
20.12040	290631
20.12852	259967
20.13665	245652
20.14477	223342
20.15288	221241
20.16102	248134
20.16913	313021
20.17725	417045
20.18538	575446
20.19350	710685
20.20163	829055
20.20975	920775
20.21787	887651
20.22600	781593
20.23412	661226
20.24225	548587
20.25037	492276
20.25848	498144
20.26662	569158
20.27473	680395
20.28287	799551
20.29098	949557
20.29910	986399
20.30723	933702
20.31535	843041
20.32347	683916
20.33160	539525
20.33972	419507
20.34785	348231
20.35597	282127
20.36408	240070
20.37222	215671
20.38033	206378
20.38847	190577
20.39658	183988
20.40470	179884
20.41283	173054
20.42095	166810
20.42908	177520
20.43720	178631
20.44532	176725
20.45345	188649
20.46157	202012
20.46968	207152
20.47782	212438
20.48593	202953
20.49407	192686
20.50218	178056
20.51030	168766
20.51843	166141
20.52655	158765
20.53468	163327
20.54280	167487
20.55092	167657
20.55905	174810
20.56717	184754
20.57528	166856
20.58342	178186
20.59153	159106
20.59967	153480
20.60778	151786
20.61590	147540
20.62403	145610
20.63215	143320
20.64028	142039
20.64840	146315
20.65652	154515
20.66465	158065
20.67277	163426
20.68090	162682
20.68902	160641
20.69713	149483
20.70527	143621
20.71338	139081
20.72150	134612
20.72963	140626
20.73775	132212
20.74588	125728
20.75400	136752
20.76212	151140
20.77025	165897
20.77837	181540
20.78650	208427
20.79462	270168
20.80273	400716
20.81087	636787
20.81898	1019554
20.82710	1407234
20.83523	1597881
20.84335	1541460
20.85148	1268683
20.85960	875635
20.86772	573936
20.87585	377823
20.88397	264955
20.89210	218861
20.90022	190656
20.90833	183843
20.91647	173574
20.92458	176937
20.93272	183080
20.94083	190678
20.94895	179780
20.95708	188236
20.96520	190276
20.97332	185806
20.98145	164988
20.98957	158040
20.99770	154416
21.00582	138965
21.01393	134824
21.02207	132358
21.03018	132118
21.03832	137521
21.04643	140292
21.05455	139715
21.06268	131879
21.07080	138141
21.07893	132330
21.08705	130965
21.09517	139060
21.10330	133337
21.11142	126316
21.11953	119954
21.12767	129012
21.13578	133876
21.14392	155170
21.15203	211500
21.16015	286923
21.16828	370374
21.17640	440459
21.18453	457716
21.19265	420621
21.20077	346518
21.20890	296234
21.21702	240507
21.22513	213526
21.23327	194493
21.24138	173168
21.24952	157701
21.25763	145536
21.26575	129955
21.27388	126487
21.28200	129321
21.29013	122873
21.29825	123604
21.30637	108973
21.31450	112339
21.32262	111467
21.33075	107276
21.33887	109888
21.34698	106118
21.35512	108157
21.36323	112061
21.37135	114336
21.37948	121304
21.38760	136509
21.39573	157873
21.40385	197551
21.41197	276896
21.42010	329640
21.42822	374834
21.43635	395166
21.44447	340167
21.45258	290510
21.46072	240199
21.46883	204398
21.47697	177265
21.48508	168178
21.49320	152636
21.50133	147025
21.50945	135133
21.51757	123731
21.52570	121534
21.53382	118641
21.54195	110976
21.55007	109057
21.55818	105494
21.56632	102374
21.57443	109529
21.58257	125592
21.59068	149476
21.59880	182506
21.60693	211224
21.61505	214008
21.62317	206207
21.63130	183709
21.63942	167876
21.64755	164753
21.65567	185565
21.66378	197254
21.67192	228468
21.68003	262288
21.68817	272735
21.69628	283977
21.70440	288672
21.71253	261579
21.72065	222981
21.72878	180045
21.73690	148657
21.74502	137905
21.75315	127175
21.76127	121968
21.76938	122779
21.77752	117692
21.78563	112600
21.79377	103623
21.80188	109123
21.81000	109813
21.81813	105896
21.82625	104461
21.83438	109061
21.84250	122020
21.85062	133421
21.85875	148610
21.86687	155917
21.87498	160278
21.88312	163639
21.89123	148052
21.89937	145836
21.90748	140059
21.91560	132404
21.92373	137216
21.93185	127194
21.93998	124348
21.94810	116649
21.95622	106129
21.96435	96662
21.97247	91195
21.98060	83848
21.98872	84480
21.99683	86901
22.00497	86750
22.01308	91022
22.02120	79683
22.02933	93501
22.03745	99215
22.04558	109920
22.05370	116319
22.06182	114416
22.06995	120676
22.07807	113749
22.08620	108308
22.09432	101087
22.10243	96074
22.11057	96233
22.11868	93768
22.12682	89217
22.13493	86578
22.14305	81149
22.15118	80542
22.15930	78617
22.16742	78529
22.17555	85352
22.18367	80698
22.19180	78868
22.19992	78909
22.20803	79176
22.21617	78949
22.22428	80007
22.23242	86882
22.24053	92271
22.24865	95303
22.25678	93837
22.26490	92988
22.27303	98544
22.28115	104210
22.28927	110120
22.29740	116284
22.30552	116511
22.31363	116444
22.32177	122165
22.32988	118074
22.33802	118567
22.34613	112221
22.35425	105785
22.36238	98628
22.37050	98303
22.37863	94885
22.38675	99926
22.39487	123429
22.40300	161912
22.41112	234851
22.41923	321561
22.42737	422963
22.43548	510673
22.44362	522509
22.45173	464389
22.45985	378594
22.46798	290450
22.47610	220024
22.48423	180142
22.49235	183727
22.50047	198300
22.50860	216466
22.51672	247568
22.52485	255885
22.53297	238524
22.54108	228705
22.54922	205642
22.55733	176411
22.56545	152606
22.57358	140437
22.58170	129788
22.58983	125174
22.59795	110638
22.60607	98318
22.61420	92317
22.62232	88024
22.63045	85029
22.63857	85839
22.64668	87222
22.65482	97689
22.66293	101925
22.67105	103390
22.67918	110641
22.68730	118006
22.69543	142254
22.70355	171325
22.71167	232245
22.71980	305795
22.72792	372512
22.73605	402864
22.74417	397598
22.75228	345805
22.76042	283630
22.76853	233436
22.77667	214402
22.78478	226604
22.79290	279612
22.80103	380054
22.80915	523709
22.81727	673936
22.82540	786639
22.83352	808470
22.84165	697197
22.84977	586917
22.85788	453071
22.86602	350842
22.87413	292379
22.88227	272984
22.89038	255426
22.89850	260256
22.90663	268824
22.91475	288937
22.92288	318596
22.93100	369516
22.93912	441300
22.94725	476384
22.95537	462503
22.96348	390875
22.97162	307298
22.97973	237410
22.98787	188196
22.99598	148468
23.00410	118824
23.01223	104516
23.02035	107400
23.02848	96275
23.03660	98452
23.04472	93846
23.05285	87948
23.06097	96258
23.06908	85690
23.07722	94087
23.08533	99737
23.09347	99577
23.10158	96110
23.10970	98038
23.11783	99390
23.12595	89065
23.13408	80887
23.14220	85256
23.15032	78385
23.15845	75326
23.16657	79389
23.17470	80357
23.18282	82068
23.19093	76824
23.19907	72549
23.20718	72520
23.21530	70105
23.22343	67004
23.23155	70252
23.23968	72518
23.24780	76707
23.25592	92798
23.26405	110810
23.27217	143420
23.28030	170637
23.28842	177703
23.29653	166896
23.30467	152457
23.31278	123309
23.32092	110155
23.32903	101495
23.33715	107506
23.34528	117408
23.35340	156719
23.36152	200367
23.36965	254610
23.37777	307219
23.38590	326260
23.39402	313312
23.40213	292116
23.41027	251362
23.41838	221312
23.42652	186862
23.43463	175826
23.44275	168479
23.45088	160163
23.45900	146062
23.46712	139876
23.47525	136927
23.48337	131531
23.49150	115246
23.49962	119707
23.50773	115804
23.51587	105024
23.52398	104688
23.53212	104015
23.54023	96406
23.54835	100179
23.55648	104625
23.56460	113205
23.57273	120275
23.58085	140257
23.58897	164333
23.59710	196216
23.60522	241937
23.61333	272743
23.62147	289283
23.62958	267433
23.63772	226722
23.64583	182321
23.65395	152631
23.66208	130519
23.67020	126512
23.67833	125143
23.68645	122990
23.69457	116613
23.70270	112938
23.71082	103487
23.71893	93069
23.72707	84538
23.73518	86622
23.74332	77740
23.75143	76972
23.75955	81326
23.76768	98584
23.77580	155442
23.78393	275138
23.79205	491234
23.80017	772173
23.80830	1057429
23.81642	1219944
23.82455	1189139
23.83267	1020457
23.84078	815038
23.84892	620650
23.85703	486039
23.86515	385967
23.87328	316160
23.88140	281272
23.88953	257873
23.89765	237639
23.90577	249047
23.91390	285000
23.92202	326965
23.93015	371047
23.93827	395145
23.94638	386645
23.95452	325932
23.96263	264596
23.97077	215060
23.97888	175244
23.98700	158077
23.99513	133232
24.00325	133410
24.01137	131014
24.01950	126748
24.02762	125540
24.03575	134207
24.04387	145144
24.05198	158567
24.06012	150389
24.06823	137656
24.07637	123600
24.08448	111815
24.09260	106602
24.10073	99241
24.10885	94242
24.11697	91495
24.12510	98641
24.13322	100242
24.14135	100105
24.14947	108606
24.15758	128273
24.16572	136510
24.17383	153926
24.18197	157701
24.19008	165253
24.19820	165792
24.20633	166692
24.21445	163817
24.22258	151034
24.23070	147084
24.23882	130588
24.24695	124011
24.25507	121849
24.26318	115919
24.27132	106925
24.27943	101755
24.28757	94026
24.29568	100041
24.30380	99550
24.31193	102186
24.32005	112049
24.32818	109036
24.33630	115007
24.34442	112036
24.35255	110271
24.36067	104417
24.36880	103215
24.37692	95618
24.38503	92783
24.39317	91816
24.40128	95335
24.40940	102663
24.41753	108037
24.42565	126791
24.43378	125821
24.44190	128761
24.45002	119718
24.45815	112603
24.46627	94798
24.47440	95786
24.48252	98786
24.49063	97799
24.49877	92388
24.50688	91602
24.51500	89007
24.52313	97086
24.53125	106596
24.53938	119602
24.54750	135438
24.55562	158802
24.56375	174853
24.57187	194948
24.58000	199295
24.58812	205471
24.59623	181787
24.60437	171581
24.61248	156797
24.62062	142622
24.62873	134028
24.63685	117113
24.64498	109334
24.65310	97221
24.66122	95759
24.66935	93702
24.67747	90527
24.68560	87969
24.69372	88752
24.70183	87245
24.70997	83985
24.71808	80561
24.72622	87749
24.73433	83882
24.74245	91926
24.75058	93483
24.75870	91884
24.76682	95969
24.77495	108340
24.78307	120206
24.79120	144425
24.79932	155660
24.80743	158345
24.81557	165356
24.82368	153702
24.83182	160955
24.83993	181959
24.84805	238929
24.85618	338153
24.86430	503321
24.87243	730425
24.88055	1121718
24.88867	1635497
24.89680	2279275
24.90492	2803709
24.91303	2991184
24.92117	2782808
24.92928	2202808
24.93742	1555670
24.94553	952301
24.95365	592957
24.96178	362559
24.96990	248620
24.97803	185542
24.98615	152512
24.99427	123749
25.00240	124110
25.01052	116534
25.01865	118553
25.02677	117073
25.03488	108329
25.04302	106314
25.05113	105503
25.05925	105157
25.06738	100347
25.07550	104466
25.08363	111810
25.09175	121204
25.09987	140298
25.10800	218844
25.11612	465275
25.12425	1137018
25.13237	2611634
25.14048	4949430
25.14862	8343391
25.15673	1.16592E+07
25.16485	1.353005E+07
25.17298	1.310175E+07
25.18110	1.105577E+07
25.18923	8016547
25.19735	4912991
25.20547	2639055
25.21360	1436330
25.22172	775899
25.22985	451682
25.23797	311519
25.24608	272333
25.25422	302981
25.26233	396421
25.27047	531871
25.27858	675822
25.28670	787048
25.29483	775354
25.30295	708047
25.31107	560408
25.31920	394661
25.32732	280248
25.33545	208075
25.34357	155159
25.35168	126798
25.35982	113476
25.36793	101256
25.37607	102066
25.38418	88962
25.39230	88480
25.40043	82416
25.40855	80637
25.41668	78208
25.42480	79655
25.43292	80832
25.44105	75995
25.44917	74995
25.45728	77504
25.46542	78760
25.47353	76289
25.48167	78143
25.48978	75951
25.49790	81673
25.50603	78627
25.51415	78634
25.52228	78281
25.53040	76313
25.53852	71853
25.54665	72290
25.55477	69980
25.56288	74508
25.57102	67515
25.57913	72160
25.58727	75833
25.59538	77863
25.60350	78076
25.61163	88090
25.61975	99093
25.62788	106665
25.63600	99049
25.64412	80581
25.65225	78209
25.66037	67977
25.66850	69514
25.67662	72212
25.68473	71718
25.69287	71392
25.70098	80790
25.70910	77327
25.71723	83869
25.72535	81921
25.73348	82990
25.74160	81208
25.74972	84372
25.75785	78676
25.76597	73567
25.77410	68777
25.78222	65555
25.79033	67651
25.79847	66593
25.80658	65041
25.81472	62861
25.82283	63100
25.83095	66985
25.83908	66692
25.84720	70068
25.85532	69190
25.86345	68661
25.87157	65220
25.87970	68362
25.88782	67303
25.89593	69936
25.90407	70612
25.91218	66480
25.92032	68511
25.92843	70156
25.93655	71055
25.94468	68159
25.95280	67158
25.96092	71930
25.96905	73638
25.97717	78590
25.98530	77227
25.99342	73756
26.00153	82649
26.00967	93874
26.01778	128199
26.02592	207027
26.03403	275561
26.04215	323587
26.05028	364827
26.05840	383283
26.06653	387650
26.07465	383586
26.08277	403683
26.09090	407200
26.09902	408205
26.10713	406897
26.11527	403403
26.12338	400594
26.13152	409972
26.13963	417265
26.14775	409463
26.15588	411021
26.16400	416939
26.17213	419201
26.18025	422625
26.18837	415846
26.19650	416306
26.20462	411082
26.21273	402773
26.22087	398725
26.22898	391472
26.23712	400925
26.24523	400631
26.25335	394577
26.26148	385886
26.26960	373609
26.27773	376481
26.28585	375335
26.29397	368627
26.30210	372544
26.31022	376864
26.31835	358369
26.32647	380133
26.33458	352928
26.34272	361795
26.35083	361682
26.35895	363810
26.36708	388367
26.37520	421426
26.38333	481297
26.39145	601177
26.39957	704436
26.40770	813123
26.41582	837881
26.42395	821711
26.43207	751116
26.44018	653366
26.44832	561080
26.45643	479337
26.46457	430801
26.47268	395356
26.48080	380569
26.48893	366797
26.49705	358295
26.50517	361036
26.51330	358349
26.52142	354659
26.52955	324904
26.53767	317191
26.54578	302548
26.55392	306851
26.56203	297305
26.57017	283719
26.57828	284474
26.58640	299198
26.59453	286473
26.60265	287536
26.61077	288677
26.61890	288551
26.62702	278353
26.63515	274446
26.64327	275916
26.65138	292236
26.65952	269347
26.66763	272881
26.67577	271887
26.68388	276967
26.69200	270182
26.70013	267107
26.70825	261140
26.71638	261988
26.72450	258993
26.73262	249173
26.74075	260619
26.74887	252838
26.75698	256661
26.76512	256583
26.77323	257071
26.78137	259859
26.78948	247157
26.79760	249716
26.80573	250439
26.81385	253969
26.82198	258927
26.83010	258592
26.83822	252679
26.84635	249263
26.85447	242731
26.86260	249740
26.87072	236584
26.87883	244418
26.88697	229869
26.89508	238766
26.90320	230068
26.91133	227730
26.91945	215768
26.92758	224028
26.93570	225125
26.94382	218326
26.95195	221819
26.96007	220622
26.96820	232052
26.97632	231069
26.98443	242486
26.99257	265411
27.00068	309145
27.00880	355327
27.01693	450391
27.02505	546257
27.03318	656722
27.04130	697636
27.04942	692389
27.05755	624776
27.06567	549397
27.07380	462669
27.08192	407971
27.09003	372372
27.09817	336116
27.10628	301081
27.11442	301340
27.12253	291761
27.13065	300461
27.13878	307541
27.14690	294127
27.15502	290646
27.16315	282303
27.17127	278145
27.17940	302641
27.18752	319322
27.19563	350060
27.20377	358351
27.21188	370721
27.22002	351440
27.22813	330195
27.23625	298953
27.24438	275833
27.25250	259229
27.26062	235424
27.26875	226815
27.27687	210125
27.28500	200978
27.29312	196127
27.30123	186326
27.30937	185206
27.31748	188603
27.32562	191970
27.33373	183919
27.34185	181711
27.34998	195262
27.35810	195360
27.36623	201932
27.37435	192335
27.38247	203142
27.39060	204057
27.39872	197885
27.40683	184824
27.41497	187009
27.42308	173493
27.43122	168018
27.43933	163110
27.44745	167120
27.45558	163973
27.46370	172001
27.47183	152969
27.47995	157521
27.48807	163276
27.49620	154191
27.50432	149173
27.51245	154299
27.52057	156029
27.52868	153726
27.53682	149449
27.54493	150151
27.55305	149707
27.56118	153073
27.56930	152044
27.57743	163516
27.58555	185432
27.59367	204574
27.60180	250054
27.60992	281094
27.61805	304571
27.62617	282008
27.63428	266440
27.64242	230742
27.65053	202395
27.65865	169394
27.66678	156642
27.67490	151515
27.68303	144202
27.69115	149290
27.69927	148977
27.70740	154758
27.71552	149321
27.72365	142896
27.73177	137528
27.73988	132019
27.74802	129069
27.75613	125372
27.76427	121130
27.77238	128324
27.78050	138097
27.78863	145291
27.79675	160130
27.80487	166172
27.81300	169448
27.82112	157505
27.82925	153040
27.83737	136811
27.84548	133101
27.85362	124601
27.86173	117229
27.86987	119745
27.87798	123783
27.88610	112560
27.89423	111047
27.90235	115224
27.91048	115464
27.91860	115453
27.92672	111843
27.93485	111328
27.94297	110878
27.95108	109421
27.95922	104682
27.96733	103895
27.97547	108999
27.98358	108470
27.99170	102654
27.99983	98026
28.00795	109099
28.01608	110658
28.02420	113820
28.03232	124618
28.04045	132678
28.04857	151856
28.05668	163325
28.06482	166811
28.07293	176688
28.08107	159346
28.08918	153723
28.09730	138058
28.10543	123483
28.11355	113548
28.12168	106728
28.12980	103629
28.13792	95094
28.14605	95972
28.15417	97016
28.16230	92744
28.17042	87695
28.17853	96894
28.18667	97806
28.19478	105502
28.20290	128463
28.21103	155984
28.21915	199117
28.22728	249975
28.23540	286474
28.24352	297861
28.25165	286390
28.25977	259304
28.26790	205543
28.27602	164287
28.28413	130129
28.29227	111938
28.30038	110689
28.30850	113303
28.31663	125865
28.32475	142698
28.33288	168567
28.34100	179580
28.34912	180763
28.35725	186438
28.36537	169074
28.37350	161098
28.38162	159725
28.38973	169485
28.39787	177975
28.40598	180571
28.41412	174039
28.42223	189737
28.43035	187469
28.43848	173069
28.44660	168749
28.45472	152573
28.46285	143154
28.47097	138438
28.47910	121600
28.48722	117568
28.49533	120380
28.50347	124440
28.51158	133395
28.51972	131172
28.52783	135823
28.53595	129090
28.54408	125608
28.55220	117648
28.56033	110416
28.56845	101549
28.57657	97933
28.58470	95358
28.59282	95634
28.60093	91662
28.60907	92287
28.61718	97691
28.62532	98852
28.63343	99223
28.64155	102631
28.64968	109156
28.65780	114954
28.66593	112753
28.67405	111640
28.68217	102906
28.69030	110952
28.69842	101301
28.70655	98070
28.71467	92692
28.72278	93869
28.73092	91001
28.73903	85202
28.74715	92652
28.75528	86602
28.76340	85766
28.77153	92694
28.77965	88622
28.78777	100845
28.79590	103974
28.80402	120142
28.81215	137485
28.82027	145843
28.82838	151818
28.83652	147322
28.84463	139839
28.85275	127292
28.86088	118205
28.86900	113968
28.87713	117319
28.88525	129325
28.89337	145177
28.90150	175543
28.90962	204711
28.91775	228144
28.92587	227664
28.93398	198673
28.94212	162784
28.95023	128798
28.95837	111472
28.96648	103196
28.97460	103698
28.98273	92043
28.99085	87402
28.99897	89803
29.00710	85002
29.01522	88474
29.02335	85495
29.03147	83636
29.03958	79679
29.04772	89912
29.05583	83682
29.06397	86376
29.07208	89685
29.08020	85794
29.08833	96590
29.09645	112032
29.10457	105242
29.11270	102471
29.12082	106297
29.12895	107552
29.13707	95414
29.14518	93869
29.15332	81803
29.16143	82242
29.16957	79877
29.17768	86429
29.18580	87251
29.19393	106783
29.20205	134713
29.21018	206686
29.21830	280731
29.22642	350100
29.23455	398422
29.24267	394370
29.25078	347078
29.25892	279296
29.26703	233039
29.27517	187510
29.28328	154234
29.29140	140762
29.29953	116248
29.30765	100550
29.31578	90405
29.32390	85464
29.33202	82945
29.34015	76191
29.34827	81054
29.35640	75171
29.36452	74597
29.37263	74613
29.38077	73577
29.38888	77593
29.39700	70746
29.40513	72391
29.41325	76125
29.42138	77246
29.42950	90029
29.43762	83289
29.44575	86261
29.45387	82782
29.46200	86169
29.47012	79734
29.47823	74031
29.48637	78751
29.49448	78175
29.50260	71712
29.51073	83634
29.51885	86253
29.52698	85084
29.53510	84235
29.54322	81888
29.55135	81666
29.55947	81707
29.56760	86854
29.57572	79413
29.58383	77598
29.59197	82182
29.60008	74231
29.60822	76088
29.61633	73594
29.62445	70706
29.63258	75335
29.64070	74325
29.64882	74329
29.65695	73938
29.66507	69878
29.67320	77525
29.68132	79533
29.68943	87622
29.69757	100336
29.70568	111989
29.71382	121173
29.72193	124995
29.73005	115106
29.73818	101422
29.74630	91203
29.75443	80501
29.76255	70914
29.77067	71505
29.77880	73598
29.78692	69458
29.79503	69076
29.80317	64831
29.81128	66672
29.81942	64697
29.82753	67915
29.83565	70046
29.84378	68369
29.85190	73557
29.86003	69154
29.86815	72279
29.87627	85919
29.88440	97237
29.89252	129232
29.90063	179236
29.90877	221717
29.91688	265014
29.92502	263463
29.93313	242303
29.94125	185840
29.94938	146438
29.95750	109372
29.96563	94799
29.97375	80934
29.98187	82258
29.99000	84157
29.99812	84256
30.00625	92081
30.01437	96350
30.02248	107815
30.03062	109156
30.03873	110113
30.04685	112275
30.05498	115435
30.06310	115946
30.07123	118131
30.07935	113705
30.08747	115095
30.09560	112929
30.10372	109046
30.11185	110545
30.11997	109773
30.12808	103729
30.13622	100205
30.14433	106265
30.15245	100819
30.16058	93292
30.16870	91533
30.17683	91834
30.18495	93937
30.19307	86829
30.20120	92419
30.20932	99010
30.21745	93827
30.22557	87340
30.23368	89219
30.24182	87383
30.24993	80937
30.25807	84178
30.26618	76368
30.27430	82343
30.28243	76145
30.29055	74625
30.29867	75341
30.30680	71143
30.31492	74578
30.32305	72001
30.33117	71797
30.33928	70349
30.34742	78314
30.35553	76270
30.36367	74848
30.37178	75426
30.37990	72309
30.38803	76870
30.39615	74258
30.40428	75763
30.41240	73291
30.42052	70809
30.42865	65693
30.43677	72062
30.44488	67983
30.45302	73281
30.46113	76858
30.46927	73586
30.47738	69485
30.48550	71015
30.49363	67932
30.50175	71189
30.50988	75186
30.51800	75614
30.52612	74685
30.53425	76588
30.54237	74885
30.55048	75548
30.55862	68821
30.56673	75636
30.57487	80562
30.58298	73900
30.59110	72905
30.59923	73123
30.60735	76368
30.61548	78667
30.62360	82689
30.63172	74656
30.63985	73282
30.64797	71178
30.65610	75702
30.66422	70187
30.67233	66239
30.68047	70121
30.68858	69275
30.69670	66079
30.70483	66145
30.71295	65252
30.72108	70837
30.72920	65866
30.73732	64412
30.74545	74082
30.75357	69027
30.76170	68737
30.76982	64995
30.77793	74250
30.78607	87476
30.79418	114972
30.80232	173168
30.81043	251216
30.81855	342484
30.82668	409900
30.83480	407780
30.84292	376887
30.85105	291220
30.85917	214102
30.86730	157686
30.87542	123528
30.88353	101344
30.89167	90349
30.89978	93280
30.90792	85980
30.91603	80681
30.92415	75467
30.93228	77644
30.94040	70416
30.94852	69840
30.95665	74631
30.96477	74940
30.97290	78905
30.98102	84445
30.98913	79161
30.99727	82682
31.00538	79080
31.01352	77199
31.02163	78468
31.02975	75992
31.03788	71932
31.04600	77813
31.05413	77271
31.06225	74737
31.07037	75801
31.07850	72369
31.08662	78218
31.09473	85025
31.10287	95597
31.11098	107777
31.11912	116474
31.12723	127199
31.13535	132367
31.14348	124020
31.15160	117085
31.15973	120811
31.16785	115612
31.17597	121806
31.18410	125893
31.19222	120623
31.20035	134692
31.20847	146580
31.21658	176312
31.22472	217841
31.23283	245854
31.24095	268977
31.24908	277291
31.25720	241975
31.26533	196863
31.27345	151230
31.28157	123788
31.28970	102047
31.29782	89889
31.30595	86111
31.31407	83151
31.32218	90697
31.33032	97673
31.33843	106954
31.34655	121047
31.35468	127259
31.36280	121471
31.37093	121369
31.37905	105794
31.38717	99145
31.39530	87400
31.40342	80573
31.41155	76706
31.41967	73356
31.42778	72064
31.43592	75371
31.44403	78255
31.45217	77930
31.46028	71049
31.46840	73449
31.47653	74585
31.48465	76007
31.49277	84727
31.50090	82809
31.50902	84080
31.51715	88133
31.52527	90292
31.53338	90970
31.54152	86296
31.54963	87462
31.55777	91890
31.56588	92183
31.57400	89623
31.58213	92068
31.59025	93553
31.59837	84177
31.60650	83269
31.61462	77051
31.62275	74548
31.63087	71959
31.63898	74589
31.64712	76077
31.65523	81428
31.66337	84850
31.67148	96082
31.67960	125039
31.68773	134950
31.69585	139691
31.70398	129063
31.71210	126741
31.72022	111081
31.72835	101551
31.73647	89272
31.74458	84499
31.75272	77943
31.76083	80121
31.76897	79824
31.77708	68932
31.78520	70547
31.79333	74738
31.80145	72993
31.80958	70994
31.81770	75569
31.82582	67669
31.83395	78380
31.84207	77833
31.85020	73808
31.85832	80598
31.86643	74262
31.87457	78670
31.88268	78104
31.89080	80772
31.89893	81767
31.90705	78109
31.91518	74257
31.92330	74310
31.93142	71998
31.93955	74609
31.94767	75633
31.95580	82799
31.96392	85707
31.97203	95828
31.98017	97547
31.98828	101782
31.99640	104547
32.00453	105334
32.01265	108772
32.02078	123268
32.02890	116445
32.03702	113817
32.04515	118214
32.05327	110932
32.06140	103338
32.06952	98778
32.07763	97563
32.08577	86060
32.09388	91111
32.10202	87000
32.11013	82434
32.11825	87250
32.12638	87140
32.13450	86161
32.14262	80753
32.15075	77567
32.15887	75805
32.16700	75781
32.17512	71929
32.18323	76809
32.19137	74666
32.19948	69800
32.20762	73658
32.21573	71094
32.22385	70492
32.23198	75355
32.24010	71553
32.24823	69306
32.25635	74729
32.26447	75359
32.27260	72247
32.28072	74519
32.28883	76281
32.29697	82839
32.30508	77290
32.31322	74806
32.32133	71447
32.32945	71584
32.33758	71499
32.34570	68288
32.35383	65329
32.36195	71233
32.37007	80956
32.37820	74574
32.38632	73456
32.39443	74742
32.40257	68982
32.41068	73273
32.41882	69010
32.42693	70125
32.43505	66088
32.44318	66221
32.45130	70319
32.45943	70352
32.46755	65204
32.47567	65790
32.48380	70282
32.49192	67914
32.50005	67605
32.50817	70667
32.51628	72471
32.52442	67917
32.53253	70232
32.54065	70224
32.54878	77041
32.55690	69849
32.56503	74042
32.57315	67277
32.58127	72852
32.58940	65868
32.59752	66229
32.60565	66509
32.61377	65870
32.62188	64515
32.63002	66915
32.63813	60415
32.64625	68541
32.65438	63669
32.66250	67576
32.67063	67791
32.67875	71419
32.68687	68523
32.69500	78436
32.70312	75191
32.71125	79538
32.71937	84091
32.72748	80640
32.73562	79207
32.74373	77594
32.75187	79554
32.75998	71807
32.76810	68253
32.77623	70527
32.78435	63582
32.79247	71071
32.80060	68565
32.80872	70075
32.81685	68078
32.82497	67499
32.83308	66134
32.84122	65661
32.84933	70762
32.85747	67344
32.86558	71690
32.87370	76414
32.88183	76340
32.88995	73872
32.89808	82078
32.90620	94651
32.91432	100566
32.92245	111732
32.93057	110858
32.93868	106159
32.94682	95059
32.95493	96318
32.96307	85692
32.97118	82300
32.97930	87560
32.98743	107048
32.99555	135256
33.00368	176479
33.01180	245348
33.01992	291377
33.02805	309087
33.03617	275081
33.04430	237101
33.05242	193730
33.06053	161150
33.06867	144115
33.07678	151519
33.08490	173085
33.09303	174278
33.10115	171840
33.10928	177729
33.11740	192288
33.12552	181927
33.13365	174643
33.14177	165994
33.14990	154002
33.15802	148135
33.16613	137650
33.17427	129470
33.18238	120189
33.19050	109395
33.19863	99252
33.20675	95202
33.21488	87784
33.22300	89992
33.23112	88557
33.23925	89491
33.24737	88928
33.25550	86214
33.26362	85986
33.27173	81839
33.27987	83710
33.28798	74051
33.29612	80846
33.30423	78785
33.31235	78462
33.32048	77513
33.32860	75250
33.33672	76268
33.34485	76384
33.35297	85048
33.36110	89972
33.36922	101784
33.37733	99952
33.38547	109152
33.39358	108419
33.40172	103606
33.40983	95177
33.41795	82579
33.42608	77982
33.43420	73770
33.44232	77725
33.45045	77214
33.45857	72320
33.46670	69869
33.47482	71324
33.48293	72041
33.49107	74790
33.49918	74024
33.50732	78889
33.51543	76501
33.52355	85316
33.53168	99775
33.53980	96414
33.54793	104260
33.55605	116489
33.56417	133542
33.57230	146423
33.58042	154407
33.58853	144591
33.59667	129855
33.60478	109853
33.61292	93736
33.62103	79592
33.62915	74396
33.63728	77371
33.64540	82279
33.65353	81208
33.66165	83834
33.66977	85407
33.67790	90292
33.68602	90948
33.69413	89176
33.70227	85486
33.71038	82322
33.71852	76295
33.72663	74743
33.73475	80030
33.74288	70889
33.75100	75840
33.75913	76109
33.76725	76023
33.77537	71813
33.78350	66854
33.79162	71028
33.79975	72554
33.80787	67020
33.81598	73231
33.82412	69854
33.83223	70398
33.84035	68349
33.84848	68007
33.85660	70345
33.86473	72622
33.87285	71185
33.88097	73687
33.88910	76810
33.89722	77378
33.90535	79578
33.91347	80145
33.92158	77954
33.92972	75458
33.93783	77562
33.94597	72241
33.95408	70175
33.96220	67724
33.97033	71819
33.97845	70346
33.98657	67539
33.99470	71054
34.00282	70779
34.01095	69914
34.01907	71925
34.02718	72812
34.03532	67003
34.04343	70014
34.05157	72913
34.05968	71426
34.06780	65008
34.07593	69934
34.08405	69883
34.09218	73491
34.10030	74189
34.10842	71222
34.11655	66390
34.12467	71615
34.13278	69382
34.14092	69196
34.14903	65604
34.15717	69505
34.16528	69718
34.17340	74397
34.18153	75963
34.18965	74391
34.19778	73453
34.20590	68476
34.21402	71242
34.22215	72553
34.23027	69989
34.23838	71355
34.24652	67210
34.25463	69863
34.26277	65656
34.27088	65794
34.27900	66366
34.28713	66090
34.29525	64455
34.30338	69040
34.31150	71057
34.31962	70992
34.32775	66883
34.33587	71502
34.34400	69257
34.35212	68944
34.36023	66516
34.36837	68127
34.37648	68054
34.38460	67103
34.39273	66440
34.40085	72091
34.40898	66217
34.41710	70695
34.42522	65775
34.43335	63984
34.44147	67386
34.44960	69370
34.45772	71094
34.46583	71636
34.47397	69045
34.48208	63840
34.49020	69138
34.49833	67043
34.50645	69816
34.51458	66910
34.52270	66785
34.53082	72949
34.53895	69267
34.54707	77906
34.55520	80179
34.56332	94211
34.57143	96842
34.57957	100878
34.58768	105807
34.59582	109544
34.60393	106393
34.61205	98209
34.62018	93454
34.62830	87835
34.63642	82796
34.64455	82377
34.65267	83431
34.66080	79209
34.66892	79364
34.67703	76863
34.68517	77981
34.69328	74636
34.70142	77840
34.70953	75385
34.71765	76281
34.72578	75621
34.73390	77781
34.74203	73822
34.75015	75907
34.75827	76100
34.76640	74076
34.77452	75445
34.78263	78325
34.79077	79590
34.79888	79949
34.80702	82478
34.81513	77668
34.82325	80013
34.83138	77400
34.83950	78814
34.84763	74952
34.85575	78180
34.86387	74712
34.87200	72303
34.88012	76088
34.88823	72344
34.89637	69865
34.90448	73641
34.91262	77020
34.92073	67736
34.92885	75608
34.93698	69884
34.94510	76298
34.95323	74304
34.96135	79814
34.96947	87135
34.97760	93503
34.98572	95750
34.99385	102815
35.00197	102064
35.01008	97740
35.01822	90915
35.02633	81401
35.03445	80654
35.04258	72849
35.05070	78142
35.05883	77284
35.06695	80161
35.07507	73328
35.08320	77763
35.09132	74477
35.09945	70907
35.10757	72945
35.11568	71090
35.12382	75816
35.13193	71442
35.14007	83225
35.14818	79434
35.15630	78013
35.16443	77573
35.17255	79254
35.18067	80098
35.18880	80742
35.19692	82455
35.20505	83277
35.21317	73774
35.22128	77749
35.22942	78678
35.23753	76057
35.24567	74605
35.25378	79741
35.26190	77560
35.27003	75640
35.27815	79030
35.28627	77958
35.29440	74448
35.30252	80791
35.31065	77175
35.31877	73112
35.32688	77663
35.33502	76660
35.34313	74188
35.35127	75485
35.35938	73331
35.36750	73138
35.37563	75542
35.38375	71537
35.39188	71700
35.40000	72279
35.40812	77485
35.41625	77871
35.42437	79782
35.43248	81961
35.44062	83726
35.44873	84921
35.45687	86738
35.46498	85001
35.47310	85478
35.48123	85437
35.48935	90404
35.49748	84506
35.50560	90345
35.51372	85283
35.52185	84375
35.52997	81465
35.53810	82391
35.54622	78475
35.55433	81921
35.56247	76480
35.57058	74595
35.57870	72410
35.58683	76495
35.59495	75207
35.60308	76237
35.61120	76268
35.61932	77078
35.62745	73309
35.63557	77114
35.64370	73561
35.65182	73964
35.65993	73842
35.66807	73088
35.67618	78973
35.68430	72832
35.69243	76622
35.70055	84961
35.70868	83531
35.71680	81583
35.72492	77284
35.73305	82189
35.74117	82059
35.74930	91521
35.75742	96317
35.76553	103040
35.77367	125953
35.78178	129985
35.78992	143355
35.79803	147518
35.80615	134229
35.81428	120158
35.82240	98276
35.83052	90786
35.83865	88827
35.84677	81915
35.85490	79207
35.86302	80549
35.87113	75462
35.87927	84353
35.88738	80265
35.89552	79128
35.90363	80902
35.91175	79259
35.91988	84944
35.92800	87353
35.93612	80833
35.94425	80678
35.95237	86480
35.96050	75489
35.96862	77684
35.97673	76304
35.98487	80319
35.99298	76831
36.00112	76516
36.00923	77654
36.01735	76882
36.02548	82699
36.03360	83224
36.04173	79727
36.04985	90619
36.05797	82914
36.06610	85477
36.07422	81172
36.08233	79829
36.09047	79761
36.09858	81516
36.10672	77067
36.11483	77732
36.12295	79463
36.13108	83624
36.13920	90253
36.14733	84191
36.15545	96207
36.16357	100497
36.17170	103205
36.17982	100992
36.18795	100580
36.19607	92267
36.20418	88650
36.21232	83016
36.22043	84961
36.22855	78533
36.23668	75249
36.24480	78615
36.25293	82188
36.26105	84184
36.26917	78470
36.27730	75848
36.28542	80533
36.29355	81578
36.30167	80352
36.30978	77024
36.31792	83415
36.32603	86610
36.33415	85969
36.34228	91009
36.35040	95106
36.35853	95966
36.36665	97031
36.37477	94722
36.38290	90955
36.39102	85935
36.39915	89477
36.40727	89195
36.41538	91814
36.42352	99547
36.43163	101944
36.43977	103203
36.44788	94855
36.45600	94604
36.46413	100726
36.47225	92136
36.48037	89559
36.48850	80722
36.49662	81533
36.50475	81940
36.51287	80299
36.52098	75526
36.52912	82786
36.53723	81022
36.54537	84913
36.55348	80864
36.56160	83069
36.56973	85548
36.57785	78325
36.58598	79529
36.59410	79215
36.60222	80446
36.61035	73216
36.61847	80603
36.62658	77346
36.63472	84031
36.64283	81820
36.65097	81501
36.65908	80187
36.66720	82933
36.67533	83759
36.68345	84021
36.69158	81248
36.69970	81334
36.70782	83879
36.71595	83696
36.72407	81638
36.73218	87840
36.74032	86573
36.74843	94016
36.75657	88294
36.76468	93429
36.77280	87973
36.78093	82804
36.78905	88398
36.79718	81771
36.80530	86549
36.81342	87219
36.82155	85029
36.82967	84868
36.83780	81178
36.84592	84943
36.85403	86993
36.86217	79902
36.87028	85399
36.87840	82585
36.88653	82481
36.89465	79711
36.90278	78387
36.91090	81189
36.91902	79806
36.92715	81495
36.93527	77435
36.94340	85727
36.95152	104595
36.95963	126634
36.96777	171678
36.97588	226586
36.98400	271668
36.99213	290513
37.00025	280349
37.00838	244567
37.01650	194601
37.02462	146765
37.03275	120819
37.04087	104054
37.04900	102067
37.05712	94169
37.06523	91653
37.07337	101596
37.08148	96205
37.08962	97235
37.09773	98910
37.10585	103940
37.11398	107945
37.12210	101086
37.13022	108581
37.13835	102287
37.14647	99418
37.15460	99027
37.16272	96021
37.17083	84322
37.17897	93449
37.18708	93653
37.19522	90255
37.20333	84557
37.21145	86483
37.21958	87386
37.22770	87641
37.23583	96991
37.24395	90101
37.25207	90459
37.26020	89575
37.26832	91130
37.27643	91724
37.28457	89383
37.29268	89497
37.30082	86466
37.30893	93987
37.31705	92407
37.32518	84456
37.33330	92791
37.34143	86165
37.34955	98307
37.35767	91628
37.36580	99554
37.37392	95374
37.38203	90280
37.39017	102903
37.39828	98030
37.40642	97809
37.41453	95532
37.42265	99789
37.43078	103633
37.43890	102921
37.44703	111704
37.45515	110996
37.46327	108247
37.47140	106186
37.47952	103772
37.48765	100287
