Z:\data\JTB-E02\BACandBLUE\JTB-E02-203-13.D Fri Mar 08 14:01:57 2019
Start of data points
2.09522	73407
2.10333	70342
2.11145	72833
2.11958	73135
2.12770	73008
2.13583	70431
2.14395	72144
2.15207	69289
2.16020	67316
2.16832	69855
2.17643	69977
2.18457	63170
2.19268	60078
2.20082	60448
2.20893	63261
2.21705	58944
2.22518	60807
2.23330	71220
2.24143	58133
2.24955	60848
2.25767	69135
2.26580	292408
2.27392	1090335
2.28205	1498769
2.29017	921392
2.29828	525479
2.30642	394435
2.31453	339363
2.32265	291677
2.33078	261274
2.33890	247893
2.34703	222633
2.35515	206373
2.36327	188379
2.37140	173294
2.37952	172831
2.38765	171239
2.39577	159240
2.40388	163560
2.41202	153399
2.42013	158749
2.42825	157949
2.43638	145872
2.44450	144670
2.45263	135895
2.46075	129302
2.46887	127739
2.47700	130928
2.48512	132238
2.49325	142057
2.50137	139055
2.50948	128027
2.51762	128806
2.52573	128175
2.53387	121512
2.54198	129886
2.55010	154618
2.55823	382373
2.56635	661236
2.57447	547380
2.58260	408500
2.59072	336473
2.59885	365915
2.60697	671094
2.61508	1074301
2.62322	937317
2.63133	630261
2.63947	430007
2.64758	337755
2.65570	289500
2.66383	253282
2.67195	229444
2.68008	212001
2.68820	198101
2.69632	186001
2.70445	183513
2.71257	175838
2.72068	168183
2.72882	160965
2.73693	155029
2.74507	152306
2.75318	160031
2.76130	150416
2.76943	241175
2.77755	1042395
2.78568	2745657
2.79380	3075655
2.80192	1905315
2.81005	1205068
2.81817	964570
2.82630	860728
2.83442	817719
2.84253	695470
2.85067	548339
2.85878	453930
2.86690	402574
2.87503	348360
2.88315	316215
2.89128	294309
2.89940	277474
2.90752	258030
2.91565	233439
2.92377	223535
2.93190	210968
2.94002	213084
2.94813	196141
2.95627	198604
2.96438	213627
2.97250	214240
2.98063	201947
2.98875	200574
2.99688	202267
3.00500	208459
3.01312	197020
3.02125	183610
3.02937	177809
3.03750	161508
3.04562	157549
3.05373	175609
3.06187	209854
3.06998	216444
3.07812	379980
3.08623	1260804
3.09435	2753605
3.10248	4226120
3.11060	5389506
3.11872	4826611
3.12685	3211164
3.13497	2227281
3.14310	1690109
3.15122	1378011
3.15933	1125814
3.16747	978759
3.17558	953406
3.18372	1168972
3.19183	1895074
3.19995	2223589
3.20808	1769891
3.21620	1276894
3.22432	1045426
3.23245	869089
3.24057	753229
3.24870	667875
3.25682	589652
3.26493	542021
3.27307	491094
3.28118	509671
3.28932	908580
3.29743	2532230
3.30555	5637186
3.31368	7674083
3.32180	6975600
3.32993	4873609
3.33805	3218063
3.34617	2332738
3.35430	1827864
3.36242	1498772
3.37053	1272260
3.37867	1101059
3.38678	980447
3.39492	867437
3.40303	791500
3.41115	728404
3.41928	672866
3.42740	635420
3.43553	624169
3.44365	601777
3.45177	546493
3.45990	521105
3.46802	538519
3.47615	536677
3.48427	517336
3.49238	482012
3.50052	473287
3.50863	429264
3.51675	401722
3.52488	405646
3.53300	416156
3.54113	408785
3.54925	405111
3.55737	381267
3.56550	435910
3.57362	609057
3.58175	698293
3.58987	590546
3.59798	485757
3.60612	418586
3.61423	400807
3.62235	413409
3.63048	490622
3.63860	561422
3.64673	556240
3.65485	626937
3.66297	2258397
3.67110	9116122
3.67922	1.89417E+07
3.68735	2.13575E+07
3.69547	1.555368E+07
3.70358	9289715
3.71172	6483762
3.71983	5106239
3.72797	4280953
3.73608	3699868
3.74420	3227917
3.75233	2836158
3.76045	2559392
3.76857	2332251
3.77670	2144701
3.78482	1970798
3.79295	1887302
3.80107	2086774
3.80918	3073126
3.81732	4372326
3.82543	4418199
3.83357	3417362
3.84168	2542972
3.84980	2089471
3.85793	1867962
3.86605	1682982
3.87418	1534934
3.88230	1415160
3.89042	1334991
3.89855	1256358
3.90667	1186666
3.91478	1186067
3.92292	1314093
3.93103	1414222
3.93917	1438622
3.94728	1622056
3.95540	2823850
3.96353	5038345
3.97165	6179602
3.97978	5114473
3.98790	3572080
3.99602	4189505
4.00415	9751219
4.01227	1.945665E+07
4.02038	2.423701E+07
4.02852	1.95425E+07
4.03663	1.134911E+07
4.04477	6467351
4.05288	4282430
4.06100	3195245
4.06913	2577993
4.07725	2105344
4.08538	1857652
4.09350	1601441
4.10162	1425255
4.10975	1304117
4.11787	1181590
4.12600	1097955
4.13412	999014
4.14223	971020
4.15037	947620
4.15848	904179
4.16660	893228
4.17473	880619
4.18285	856357
4.19098	802507
4.19910	768910
4.20722	988594
4.21535	2393178
4.22347	6472168
4.23160	1.230519E+07
4.23972	1.605284E+07
4.24783	1.503399E+07
4.25597	1.08172E+07
4.26408	6918640
4.27220	4736537
4.28033	3569595
4.28845	2766587
4.29658	2225297
4.30470	1852537
4.31282	1543770
4.32095	1370331
4.32907	1212051
4.33720	1109462
4.34532	1012504
4.35343	1020991
4.36157	1080938
4.36968	1159229
4.37782	1094107
4.38593	949486
4.39405	794525
4.40218	704518
4.41030	654648
4.41842	628216
4.42655	591648
4.43467	573227
4.44280	550410
4.45092	526794
4.45903	497490
4.46717	486975
4.47528	474738
4.48342	465483
4.49153	449646
4.49965	436865
4.50778	435939
4.51590	433734
4.52403	425558
4.53215	432805
4.54027	418821
4.54840	438246
4.55652	442744
4.56463	420309
4.57277	396890
4.58088	369500
4.58902	365135
4.59713	361400
4.60525	346347
4.61338	360203
4.62150	415205
4.62963	613831
4.63775	938897
4.64587	1164102
4.65400	1096361
4.66212	840435
4.67023	654710
4.67837	589874
4.68648	548721
4.69462	487481
4.70273	429238
4.71085	390485
4.71898	369776
4.72710	348538
4.73523	331679
4.74335	325074
4.75147	314779
4.75960	310456
4.76772	309033
4.77585	296551
4.78397	310445
4.79208	338014
4.80022	442772
4.80833	531540
4.81645	528346
4.82458	457949
4.83270	426135
4.84083	438236
4.84895	465514
4.85707	461013
4.86520	426985
4.87332	389460
4.88145	355707
4.88957	318720
4.89768	298310
4.90582	300315
4.91393	281556
4.92207	277579
4.93018	280767
4.93830	327510
4.94643	508194
4.95455	912600
4.96267	1449638
4.97080	1825015
4.97892	1814334
4.98705	1505948
4.99517	1195581
5.00328	956284
5.01142	816838
5.01953	718614
5.02767	717121
5.03578	803801
5.04390	868069
5.05203	851210
5.06015	753862
5.06827	652367
5.07640	577158
5.08452	548683
5.09265	512011
5.10077	486183
5.10888	460727
5.11702	442095
5.12513	436952
5.13327	406805
5.14138	412681
5.14950	429962
5.15763	520402
5.16575	641510
5.17388	686933
5.18200	661804
5.19012	585435
5.19825	581236
5.20637	622132
5.21448	687573
5.22262	654602
5.23073	581052
5.23887	515006
5.24698	466466
5.25510	430408
5.26323	381342
5.27135	336770
5.27948	311452
5.28760	316876
5.29572	288265
5.30385	287291
5.31197	268044
5.32010	291723
5.32822	309557
5.33633	368358
5.34447	407666
5.35258	401541
5.36070	361202
5.36883	318689
5.37695	321701
5.38508	351081
5.39320	407232
5.40132	449361
5.40945	440090
5.41757	400145
5.42570	347738
5.43382	316173
5.44193	312621
5.45007	334515
5.45818	380894
5.46630	404669
5.47443	366911
5.48255	305629
5.49068	280006
5.49880	256305
5.50692	247665
5.51505	251487
5.52317	261153
5.53130	270484
5.53942	252768
5.54753	272064
5.55567	383125
5.56378	630161
5.57192	956371
5.58003	1226909
5.58815	1231877
5.59628	1024724
5.60440	774628
5.61252	545857
5.62065	416766
5.62877	342039
5.63690	312877
5.64502	291313
5.65313	268143
5.66127	260190
5.66938	249138
5.67752	267518
5.68563	287034
5.69375	333223
5.70188	366352
5.71000	362991
5.71812	335472
5.72625	296844
5.73437	259824
5.74250	251291
5.75062	228343
5.75873	229557
5.76687	226889
5.77498	208956
5.78312	208465
5.79123	203019
5.79935	199899
5.80748	200830
5.81560	194584
5.82373	200144
5.83185	204531
5.83997	214085
5.84810	229492
5.85622	213338
5.86433	216724
5.87247	197589
5.88058	204665
5.88872	193269
5.89683	196254
5.90495	200678
5.91308	211816
5.92120	224938
5.92933	238152
5.93745	210062
5.94557	198789
5.95370	211124
5.96182	252225
5.96995	396562
5.97807	623043
5.98618	841274
5.99432	918262
6.00243	810558
6.01055	595875
6.01868	433790
6.02680	353393
6.03493	303976
6.04305	272843
6.05117	240562
6.05930	225803
6.06742	211966
6.07555	204740
6.08367	191271
6.09178	191770
6.09992	181138
6.10803	185358
6.11615	184536
6.12428	215659
6.13240	324594
6.14053	515361
6.14865	688824
6.15677	727591
6.16490	581182
6.17302	437244
6.18115	337937
6.18927	285744
6.19738	264874
6.20552	245863
6.21363	241523
6.22177	230248
6.22988	226510
6.23800	225877
6.24613	237760
6.25425	271299
6.26237	331001
6.27050	343424
6.27862	319379
6.28675	274594
6.29487	251317
6.30298	235139
6.31112	235410
6.31923	234437
6.32737	230787
6.33548	227582
6.34360	232243
6.35173	231487
6.35985	213109
6.36798	223083
6.37610	212900
6.38422	219446
6.39235	222372
6.40047	223931
6.40858	210785
6.41672	208775
6.42483	207259
6.43297	213500
6.44108	212175
6.44920	226593
6.45733	221896
6.46545	229881
6.47358	224402
6.48170	216812
6.48982	233530
6.49795	207145
6.50607	221793
6.51418	221239
6.52232	225163
6.53043	229051
6.53857	234878
6.54668	234059
6.55480	261163
6.56293	325268
6.57105	530123
6.57918	830255
6.58730	1087371
6.59542	1054986
6.60355	790640
6.61167	545674
6.61980	398284
6.62792	334067
6.63603	337215
6.64417	541685
6.65228	1497139
6.66040	4310213
6.66853	8426890
6.67665	1.103982E+07
6.68478	1.032725E+07
6.69290	6986459
6.70102	3985198
6.70915	2330656
6.71727	1826170
6.72540	1414063
6.73352	1137680
6.74163	999876
6.74977	883111
6.75788	776950
6.76600	692515
6.77413	626023
6.78225	579399
6.79038	512759
6.79850	490576
6.80662	455649
6.81475	414047
6.82287	391732
6.83100	372818
6.83912	373741
6.84723	363107
6.85537	381513
6.86348	411013
6.87162	414764
6.87973	387995
6.88785	337502
6.89598	279838
6.90410	249050
6.91222	233812
6.92035	221743
6.92847	205353
6.93660	198540
6.94472	182978
6.95283	180872
6.96097	179412
6.96908	195606
6.97722	236585
6.98533	268199
6.99345	275595
7.00158	280677
7.00970	260813
7.01783	251525
7.02595	244891
7.03407	242574
7.04220	250744
7.05032	282033
7.05843	336247
7.06657	382600
7.07468	431698
7.08282	416919
7.09093	378299
7.09905	321046
7.10718	271630
7.11530	240778
7.12343	214089
7.13155	215842
7.13967	215280
7.14780	234411
7.15592	278768
7.16405	337741
7.17217	375064
7.18028	334997
7.18842	278676
7.19653	254208
7.20465	317056
7.21278	643835
7.22090	1304812
7.22903	2069530
7.23715	2455700
7.24527	2119487
7.25340	1389265
7.26152	849539
7.26965	537437
7.27777	346239
7.28588	241938
7.29402	184627
7.30213	167870
7.31025	159061
7.31838	170467
7.32650	177612
7.33463	195664
7.34275	190992
7.35087	189545
7.35900	176557
7.36712	166059
7.37525	155058
7.38337	144700
7.39148	143651
7.39962	138559
7.40773	135500
7.41587	135572
7.42398	127049
7.43210	124534
7.44023	129341
7.44835	131221
7.45647	134745
7.46460	138525
7.47272	132584
7.48085	130641
7.48897	120824
7.49708	122857
7.50522	131396
7.51333	152212
7.52147	253013
7.52958	555193
7.53770	1187103
7.54583	2264382
7.55395	3769951
7.56207	5073059
7.57020	5700544
7.57832	5434240
7.58645	4275917
7.59457	2936617
7.60268	1858338
7.61082	1147445
7.61893	750395
7.62707	515929
7.63518	391867
7.64330	327093
7.65143	268374
7.65955	238133
7.66768	196740
7.67580	178242
7.68392	163484
7.69205	150894
7.70017	142901
7.70828	142716
7.71642	147453
7.72453	147951
7.73267	142821
7.74078	145253
7.74890	149293
7.75703	166553
7.76515	185373
7.77328	201663
7.78140	205841
7.78952	209108
7.79765	213647
7.80577	225899
7.81390	238595
7.82202	227558
7.83013	209283
7.83827	190837
7.84638	178576
7.85450	167018
7.86263	176962
7.87075	207073
7.87888	236612
7.88700	282183
7.89512	318972
7.90325	304316
7.91137	253511
7.91950	220263
7.92762	243192
7.93573	318016
7.94387	439345
7.95198	537614
7.96010	526087
7.96823	425017
7.97635	327098
7.98448	212280
7.99260	169368
8.00072	143957
8.00885	124431
8.01697	116000
8.02510	111803
8.03322	107111
8.04133	107141
8.04947	105612
8.05758	116877
8.06572	111384
8.07383	103186
8.08195	99258
8.09008	104836
8.09820	92904
8.10632	90673
8.11445	91788
8.12257	93205
8.13070	99739
8.13882	119548
8.14693	136041
8.15507	157729
8.16318	158608
8.17132	156917
8.17943	137843
8.18755	118551
8.19568	106689
8.20380	92914
8.21193	93162
8.22005	86209
8.22817	92120
8.23630	88334
8.24442	87394
8.25253	84937
8.26067	87049
8.26878	76246
8.27692	81074
8.28503	75079
8.29315	76310
8.30128	80743
8.30940	94730
8.31753	106259
8.32565	109126
8.33377	126297
8.34190	112827
8.35002	100859
8.35813	96156
8.36627	90277
8.37438	90096
8.38252	89924
8.39063	98008
8.39875	92513
8.40688	85982
8.41500	86841
8.42313	78470
8.43125	72714
8.43937	68677
8.44750	70801
8.45562	76916
8.46375	84092
8.47187	85748
8.47998	91783
8.48812	90076
8.49623	81810
8.50435	81757
8.51248	77011
8.52060	91726
8.52873	147155
8.53685	246695
8.54497	389680
8.55310	475222
8.56122	445086
8.56935	343368
8.57747	235068
8.58558	162371
8.59372	135317
8.60183	123818
8.60995	123689
8.61808	127466
8.62620	122179
8.63433	109789
8.64245	100905
8.65057	91052
8.65870	87068
8.66682	85776
8.67495	90669
8.68307	78904
8.69118	81686
8.69932	87689
8.70743	89840
8.71557	85541
8.72368	81777
8.73180	85600
8.73993	79013
8.74805	73830
8.75617	81958
8.76430	90859
8.77242	129093
8.78055	207940
8.78867	314419
8.79678	417871
8.80492	472720
8.81303	413639
8.82117	326550
8.82928	255746
8.83740	209091
8.84553	188432
8.85365	171072
8.86178	180372
8.86990	178077
8.87802	168415
8.88615	163850
8.89427	154251
8.90238	147238
8.91052	142691
8.91863	136916
8.92677	142834
8.93488	153205
8.94300	169055
8.95113	184169
8.95925	186444
8.96738	176870
8.97550	179663
8.98362	182813
8.99175	193612
8.99987	198726
9.00798	183686
9.01612	162954
9.02423	141374
9.03237	127166
9.04048	120164
9.04860	115211
9.05673	108069
9.06485	105578
9.07298	105601
9.08110	113318
9.08922	127285
9.09735	136171
9.10547	174559
9.11360	233660
9.12172	283892
9.12983	276887
9.13797	255186
9.14608	205316
9.15420	164934
9.16233	132996
9.17045	124619
9.17858	118368
9.18670	106596
9.19482	100693
9.20295	102387
9.21107	102931
9.21920	106002
9.22732	112681
9.23543	107607
9.24357	116313
9.25168	120014
9.25982	117610
9.26793	118841
9.27605	114708
9.28418	112812
9.29230	110008
9.30042	103728
9.30855	97745
9.31667	90435
9.32480	96427
9.33292	93249
9.34103	96100
9.34917	100181
9.35728	97354
9.36542	102167
9.37353	107891
9.38165	111524
9.38978	130796
9.39790	157595
9.40602	180187
9.41415	214540
9.42227	246497
9.43040	313815
9.43852	357744
9.44663	384022
9.45477	379861
9.46288	319418
9.47102	258005
9.47913	186404
9.48725	147118
9.49538	120733
9.50350	112097
9.51163	128584
9.51975	161052
9.52787	191794
9.53600	211331
9.54412	200529
9.55223	178273
9.56037	155654
9.56848	138287
9.57662	116912
9.58473	121605
9.59285	122755
9.60098	123620
9.60910	112363
9.61723	103744
9.62535	90242
9.63347	81439
9.64160	80417
9.64972	75856
9.65783	72982
9.66597	80653
9.67408	76303
9.68222	80267
9.69033	72786
9.69845	70839
9.70658	71412
9.71470	66432
9.72283	62646
9.73095	62644
9.73907	62246
9.74720	61838
9.75532	62323
9.76345	59433
9.77157	60103
9.77968	59642
9.78782	62873
9.79593	59422
9.80405	59653
9.81218	58564
9.82030	58310
9.82843	65564
9.83655	59327
9.84467	61214
9.85280	64890
9.86092	64645
9.86905	65764
9.87717	67958
9.88528	61784
9.89342	62391
9.90153	55309
9.90967	59002
9.91778	61080
9.92590	75047
9.93403	112643
9.94215	184984
9.95027	260957
9.95840	354118
9.96652	388504
9.97465	364882
9.98277	296047
9.99088	218746
9.99902	144643
10.00713	112671
10.01527	96820
10.02338	90917
10.03150	82957
10.03963	85983
10.04775	83050
10.05587	80059
10.06400	81500
10.07212	86656
10.08025	89104
10.08837	91175
10.09648	95387
10.10462	94952
10.11273	97090
10.12087	94616
10.12898	88624
10.13710	75826
10.14523	79254
10.15335	71379
10.16148	67573
10.16960	69590
10.17772	63988
10.18585	67197
10.19397	63878
10.20208	61957
10.21022	67719
10.21833	69199
10.22647	62938
10.23458	72429
10.24270	79259
10.25083	88663
10.25895	103471
10.26708	195228
10.27520	411494
10.28332	936859
10.29145	1823941
10.29957	2961052
10.30770	4123586
10.31582	5761592
10.32393	8085928
10.33207	1.110312E+07
10.34018	1.327189E+07
10.34830	1.348736E+07
10.35643	1.138031E+07
10.36455	8803467
10.37268	7061959
10.38080	5950351
10.38892	4816907
10.39705	3531850
10.40517	2300307
10.41330	1402575
10.42142	861663
10.42953	644663
10.43767	575601
10.44578	581509
10.45390	595983
10.46203	591339
10.47015	561284
10.47828	502335
10.48640	451503
10.49452	396873
10.50265	349717
10.51077	324379
10.51890	298916
10.52702	283439
10.53513	253870
10.54327	240637
10.55138	242681
10.55952	225453
10.56763	224949
10.57575	221531
10.58388	209658
10.59200	194059
10.60012	187012
10.60825	179042
10.61637	175773
10.62450	169305
10.63262	164425
10.64073	162587
10.64887	145777
10.65698	141399
10.66512	148393
10.67323	142352
10.68135	143516
10.68948	144910
10.69760	157485
10.70573	164436
10.71385	164046
10.72197	163444
10.73010	153839
10.73822	142015
10.74633	125132
10.75447	127889
10.76258	118314
10.77072	121817
10.77883	114649
10.78695	117539
10.79508	128365
10.80320	135900
10.81133	152476
10.81945	154984
10.82757	156387
10.83570	149363
10.84382	126989
10.85193	116189
10.86007	102886
10.86818	95591
10.87632	87212
10.88443	94027
10.89255	87286
10.90068	89310
10.90880	92120
10.91693	86395
10.92505	86277
10.93317	80647
10.94130	75894
10.94942	82939
10.95755	84428
10.96567	82533
10.97378	84934
10.98192	97683
10.99003	101306
10.99815	106643
11.00628	121482
11.01440	128558
11.02253	128092
11.03065	125055
11.03877	110521
11.04690	101000
11.05502	93514
11.06315	93036
11.07127	95571
11.07938	106814
11.08752	131091
11.09563	142052
11.10375	146462
11.11188	141448
11.12000	132666
11.12813	112573
11.13625	103516
11.14437	94215
11.15250	91250
11.16062	82458
11.16875	82119
11.17687	88979
11.18498	83941
11.19312	81599
11.20123	80158
11.20937	81224
11.21748	81809
11.22560	69744
11.23373	71576
11.24185	69793
11.24997	64407
11.25810	62653
11.26622	60126
11.27435	60167
11.28247	57683
11.29058	67996
11.29872	101263
11.30683	197174
11.31497	465883
11.32308	1022166
11.33120	2021475
11.33933	3198545
11.34745	4102102
11.35558	4296277
11.36370	3794262
11.37182	2820929
11.37995	1854928
11.38807	1212793
11.39618	848373
11.40432	683595
11.41243	617579
11.42057	535524
11.42868	490065
11.43680	433947
11.44493	371942
11.45305	327642
11.46118	297586
11.46930	267104
11.47742	249158
11.48555	262212
11.49367	296251
11.50178	317615
11.50992	335265
11.51803	331318
11.52617	296044
11.53428	255195
11.54240	232877
11.55053	207345
11.55865	187686
11.56678	186932
11.57490	188619
11.58302	182967
11.59115	176694
11.59927	173599
11.60740	189705
11.61552	212825
11.62363	229832
11.63177	235931
11.63988	216563
11.64800	187580
11.65613	154860
11.66425	138294
11.67238	126451
11.68050	121020
11.68862	125179
11.69675	139684
11.70487	142886
11.71300	145713
11.72112	143456
11.72923	136444
11.73737	118654
11.74548	103117
11.75362	91436
11.76173	91741
11.76985	95356
11.77798	86729
11.78610	85897
11.79422	87612
11.80235	78487
11.81047	78437
11.81860	75973
11.82672	77743
11.83483	82370
11.84297	86714
11.85108	91255
11.85922	100888
11.86733	103984
11.87545	104241
11.88358	88396
11.89170	84554
11.89982	82365
11.90795	76967
11.91607	72657
11.92420	73514
11.93232	77908
11.94043	72859
11.94857	74378
11.95668	66913
11.96482	64980
11.97293	63858
11.98105	68641
11.98918	67707
11.99730	75260
12.00543	91335
12.01355	101964
12.02167	106231
12.02980	100061
12.03792	90753
12.04603	85203
12.05417	73896
12.06228	70234
12.07042	78029
12.07853	82909
12.08665	102408
12.09478	129349
12.10290	205415
12.11103	376207
12.11915	707275
12.12727	1148865
12.13540	1630338
12.14352	1922071
12.15163	1849068
12.15977	1480064
12.16788	989129
12.17602	609999
12.18413	385260
12.19225	282546
12.20038	277281
12.20850	274654
12.21663	256652
12.22475	236948
12.23287	208830
12.24100	192238
12.24912	183328
12.25725	167718
12.26537	167917
12.27348	157562
12.28162	152160
12.28973	148212
12.29785	132068
12.30598	127248
12.31410	116442
12.32223	110129
12.33035	107814
12.33847	102326
12.34660	99841
12.35472	103689
12.36285	107049
12.37097	109886
12.37908	105081
12.38722	106212
12.39533	101981
12.40347	103272
12.41158	119960
12.41970	136311
12.42783	156998
12.43595	167380
12.44407	171335
12.45220	149946
12.46032	139761
12.46845	121112
12.47657	123972
12.48468	111367
12.49282	110640
12.50093	106554
12.50907	103025
12.51718	96789
12.52530	98515
12.53343	103922
12.54155	116166
12.54968	127986
12.55780	130659
12.56592	134890
12.57405	146622
12.58217	131102
12.59028	121894
12.59842	108848
12.60653	103721
12.61467	100945
12.62278	93662
12.63090	94873
12.63903	90127
12.64715	90822
12.65528	85078
12.66340	85779
12.67152	78133
12.67965	72734
12.68777	75480
12.69588	70434
12.70402	74009
12.71213	77229
12.72027	80073
12.72838	77463
12.73650	86810
12.74463	83719
12.75275	88387
12.76088	86447
12.76900	81172
12.77712	75068
12.78525	68243
12.79337	67958
12.80150	68585
12.80962	58844
12.81773	60860
12.82587	59519
12.83398	53994
12.84210	53940
12.85023	47361
12.85835	47710
12.86648	56672
12.87460	47063
12.88272	52224
12.89085	51210
12.89897	52369
12.90710	55107
12.91522	51036
12.92333	54720
12.93147	48978
12.93958	47000
12.94770	51081
12.95583	48026
12.96395	51330
12.97208	52695
12.98020	54915
12.98832	64717
12.99645	57930
13.00457	55073
13.01270	55928
13.02082	54267
13.02893	52707
13.03707	59342
13.04518	56057
13.05332	53396
13.06143	54944
13.06955	57422
13.07768	51313
13.08580	51400
13.09392	50547
13.10205	51902
13.11017	48498
13.11830	50272
13.12642	47695
13.13453	44634
13.14267	47407
13.15078	43929
13.15892	48042
13.16703	49751
13.17515	49471
13.18328	52898
13.19140	49682
13.19953	56000
13.20765	57571
13.21577	60844
13.22390	61021
13.23202	61352
13.24013	58482
13.24827	62039
13.25638	62560
13.26452	56214
13.27263	55493
13.28075	52943
13.28888	49492
13.29700	44910
13.30513	47949
13.31325	48586
13.32137	48801
13.32950	51440
13.33762	47518
13.34573	47762
13.35387	49160
13.36198	46984
13.37012	46586
13.37823	45005
13.38635	45376
13.39448	43130
13.40260	46038
13.41073	46501
13.41885	46706
13.42697	46027
13.43510	46392
13.44322	44453
13.45135	49459
13.45947	51800
13.46758	57428
13.47572	55102
13.48383	57721
13.49195	61082
13.50008	52316
13.50820	45762
13.51633	52724
13.52445	51213
13.53257	56301
13.54070	49033
13.54882	52731
13.55695	54194
13.56507	61017
13.57318	64824
13.58132	67845
13.58943	71103
13.59757	70821
13.60568	76041
13.61380	71956
13.62193	78914
13.63005	75877
13.63817	77196
13.64630	65693
13.65442	66555
13.66255	53180
13.67067	46461
13.67878	46386
13.68692	48754
13.69503	42927
13.70317	44016
13.71128	48121
13.71940	46902
13.72753	49491
13.73565	52809
13.74377	57534
13.75190	67489
13.76002	82609
13.76815	114758
13.77627	151237
13.78438	192427
13.79252	237764
13.80063	256339
13.80877	287322
13.81688	348327
13.82500	410147
13.83313	509398
13.84125	598857
13.84938	609186
13.85750	547128
13.86562	458728
13.87375	345607
13.88187	264904
13.88998	205646
13.89812	166126
13.90623	132031
13.91437	120905
13.92248	95875
13.93060	90175
13.93873	82523
13.94685	80390
13.95498	94198
13.96310	94890
13.97122	122802
13.97935	146376
13.98747	177143
13.99558	203460
14.00372	184239
14.01183	156941
14.01997	135255
14.02808	105638
14.03620	89787
14.04433	83987
14.05245	86614
14.06058	84096
14.06870	83264
14.07682	76591
14.08495	75592
14.09307	70369
14.10120	68584
14.10932	67357
14.11743	65982
14.12557	62476
14.13368	66073
14.14180	68663
14.14993	81635
14.15805	90971
14.16618	100398
14.17430	107397
14.18242	101601
14.19055	103557
14.19867	107855
14.20680	127329
14.21492	150267
14.22303	178882
14.23117	189749
14.23928	198228
14.24742	205412
14.25553	202499
14.26365	205035
14.27178	201049
14.27990	166787
14.28802	153205
14.29615	131288
14.30427	108960
14.31240	105847
14.32052	92123
14.32863	93961
14.33677	94626
14.34488	89288
14.35302	81053
14.36113	81556
14.36925	79502
14.37738	72311
14.38550	71796
14.39362	67845
14.40175	72739
14.40987	83222
14.41800	81862
14.42612	89747
14.43423	91116
14.44237	80958
14.45048	79317
14.45862	79798
14.46673	76743
14.47485	79515
14.48298	85666
14.49110	87587
14.49923	84332
14.50735	81271
14.51547	78980
14.52360	73551
14.53172	77000
14.53983	69492
14.54797	71577
14.55608	69290
14.56422	62136
14.57233	56619
14.58045	55166
14.58858	54139
14.59670	53281
14.60483	51862
14.61295	49002
14.62107	49582
14.62920	45027
14.63732	44763
14.64545	47426
14.65357	45200
14.66168	46996
14.66982	45154
14.67793	44578
14.68605	42182
14.69418	46340
14.70230	49788
14.71043	44470
14.71855	45256
14.72667	45631
14.73480	47174
14.74292	50454
14.75105	51808
14.75917	55017
14.76728	57516
14.77542	59005
14.78353	63601
14.79165	86161
14.79978	167864
14.80790	411506
14.81603	1048073
14.82415	2318514
14.83227	3954216
14.84040	5219488
14.84852	5515225
14.85665	4675536
14.86477	3332406
14.87288	1973013
14.88102	1165516
14.88913	743932
14.89727	518753
14.90538	417603
14.91350	364167
14.92163	320968
14.92975	290634
14.93787	274086
14.94600	260879
14.95412	246467
14.96225	232988
14.97037	219173
14.97848	203688
14.98662	182192
14.99473	182164
15.00287	162031
15.01098	162406
15.01910	155851
15.02723	152802
15.03535	152157
15.04347	146739
15.05160	137768
15.05972	132989
15.06785	125152
15.07597	124478
15.08408	120085
15.09222	114709
15.10033	99159
15.10847	97603
15.11658	95687
15.12470	104673
15.13283	105733
15.14095	109337
15.14908	123589
15.15720	118400
15.16532	111139
15.17345	101917
15.18157	89836
15.18968	84235
15.19782	69906
15.20593	65505
15.21407	68964
15.22218	60651
15.23030	64759
15.23843	60356
15.24655	62869
15.25468	62083
15.26280	66757
15.27092	60815
15.27905	59334
15.28717	56809
15.29530	61154
15.30342	53112
15.31153	52284
15.31967	52993
15.32778	54263
15.33590	46803
15.34403	46193
15.35215	50066
15.36028	49319
15.36840	46942
15.37652	49114
15.38465	57886
15.39277	49201
15.40090	50339
15.40902	53289
15.41713	56808
15.42527	50228
15.43338	50448
15.44150	50472
15.44963	48507
15.45775	60617
15.46588	78123
15.47400	110643
15.48212	177684
15.49025	295981
15.49837	431032
15.50650	550269
15.51462	622656
15.52273	618647
15.53087	570099
15.53898	521170
15.54712	493327
15.55523	459261
15.56335	402454
15.57148	328148
15.57960	261149
15.58772	199254
15.59585	142452
15.60397	113789
15.61210	103354
15.62022	91401
15.62833	84098
15.63647	83410
15.64458	84614
15.65272	78653
15.66083	75302
15.66895	69969
15.67708	66376
15.68520	62934
15.69333	69506
15.70145	63133
15.70957	58655
15.71770	63451
15.72582	59421
15.73393	58915
15.74207	62429
15.75018	61515
15.75832	75799
15.76643	97576
15.77455	141380
15.78268	225313
15.79080	309677
15.79893	359770
15.80705	359662
15.81517	313060
15.82330	233875
15.83142	178656
15.83953	127527
15.84767	105167
15.85578	91468
15.86392	83412
15.87203	83150
15.88015	78113
15.88828	86794
15.89640	81314
15.90453	85321
15.91265	82046
15.92077	78989
15.92890	81709
15.93702	73647
15.94515	70252
15.95327	69161
15.96138	75305
15.96952	76742
15.97763	88839
15.98575	94327
15.99388	98166
16.00200	96592
16.01013	102925
16.01825	108534
16.02637	110247
16.03450	112193
16.04262	105856
16.05075	104831
16.05887	95186
16.06698	84038
16.07512	77842
16.08323	71249
16.09137	69763
16.09948	60248
16.10760	61449
16.11573	63263
16.12385	63741
16.13197	71683
16.14010	71542
16.14822	78613
16.15635	81418
16.16447	81468
16.17258	88864
16.18072	74826
16.18883	69697
16.19697	63839
16.20508	64839
16.21320	64389
16.22133	58621
16.22945	63409
16.23757	63942
16.24570	59225
16.25382	55663
16.26195	53349
16.27007	64098
16.27818	60290
16.28632	60944
16.29443	71310
16.30257	83061
16.31068	85569
16.31880	86327
16.32693	82306
16.33505	75423
16.34318	72060
16.35130	72401
16.35942	77305
16.36755	93397
16.37567	104565
16.38378	109489
16.39192	119858
16.40003	109049
16.40817	101343
16.41628	86668
16.42440	73150
16.43253	69692
16.44065	73681
16.44878	79372
16.45690	120465
16.46502	238991
16.47315	447437
16.48127	731188
16.48938	989148
16.49752	1096906
16.50563	979816
16.51377	713644
16.52188	453519
16.53000	275793
16.53813	192010
16.54625	146302
16.55438	127459
16.56250	111227
16.57062	102167
16.57875	103476
16.58687	95883
16.59500	96815
16.60312	100754
16.61123	100633
16.61937	114977
16.62748	113524
16.63560	109636
16.64373	102913
16.65185	89511
16.65998	78618
16.66810	77220
16.67622	73748
16.68435	72703
16.69247	67476
16.70060	69648
16.70872	68342
16.71683	58864
16.72497	62389
16.73308	64653
16.74122	60697
16.74933	60161
16.75745	60071
16.76558	61976
16.77370	65830
16.78182	71584
16.78995	66421
16.79807	62543
16.80620	61492
16.81432	51709
16.82243	53714
16.83057	53113
16.83868	49113
16.84682	53241
16.85493	49634
16.86305	45249
16.87118	44466
16.87930	50946
16.88742	45164
16.89555	43670
16.90367	47360
16.91180	45515
16.91992	44733
16.92803	47160
16.93617	46867
16.94428	43949
16.95242	51538
16.96053	44645
16.96865	46881
16.97678	45953
16.98490	45597
16.99303	45639
17.00115	48278
17.00927	50762
17.01740	53221
17.02552	52301
17.03363	46657
17.04177	51080
17.04988	60749
17.05802	50993
17.06613	61985
17.07425	65250
17.08238	63698
17.09050	58379
17.09863	56764
17.10675	58847
17.11487	58767
17.12300	65726
17.13112	66011
17.13925	62066
17.14737	63331
17.15548	64939
17.16362	60210
17.17173	58032
17.17985	59194
17.18798	56023
17.19610	59469
17.20423	55989
17.21235	54691
17.22047	49073
17.22860	49227
17.23672	48717
17.24485	47054
17.25297	49618
17.26108	52080
17.26922	50773
17.27733	53322
17.28545	48151
17.29358	45116
17.30170	47258
17.30983	48642
17.31795	53886
17.32607	57014
17.33420	65698
17.34232	74578
17.35045	77665
17.35857	81186
17.36668	79710
17.37482	80441
17.38293	87201
17.39107	80433
17.39918	75588
17.40730	78610
17.41543	81051
17.42355	87434
17.43167	83450
17.43980	86805
17.44792	83502
17.45605	79383
17.46417	80952
17.47228	68598
17.48042	68681
17.48853	65512
17.49667	63807
17.50478	55309
17.51290	52158
17.52103	57418
17.52915	55923
17.53727	54526
17.54540	54538
17.55352	57058
17.56165	62632
17.56977	79907
17.57788	113047
17.58602	173651
17.59413	286722
17.60227	410377
17.61038	535183
17.61850	618308
17.62663	593184
17.63475	491482
17.64288	402682
17.65100	316258
17.65912	295757
17.66725	320621
17.67537	341168
17.68348	351203
17.69162	312173
17.69973	255380
17.70787	203263
17.71598	167151
17.72410	141633
17.73223	134343
17.74035	133130
17.74848	122722
17.75660	113851
17.76472	105044
17.77285	103907
17.78097	95184
17.78910	86387
17.79722	86658
17.80533	83803
17.81347	88329
17.82158	95535
17.82970	101382
17.83783	104008
17.84595	117273
17.85408	129652
17.86220	130729
17.87032	136873
17.87845	132431
17.88657	130896
17.89470	112403
17.90282	95929
17.91093	80594
17.91907	75787
17.92718	66701
17.93532	73000
17.94343	65642
17.95155	62508
17.95968	63562
17.96780	68241
17.97592	61567
17.98405	65151
17.99217	60316
18.00030	61025
18.00842	60275
18.01653	64269
18.02467	77411
18.03278	93580
18.04092	110946
18.04903	127340
18.05715	143696
18.06528	209188
18.07340	353641
18.08152	671505
18.08965	1104394
18.09777	1600030
18.10590	1863631
18.11402	1780312
18.12213	1470913
18.13027	1088295
18.13838	775125
18.14652	579291
18.15463	467180
18.16275	392051
18.17088	338582
18.17900	298072
18.18713	272523
18.19525	240626
18.20337	226634
18.21150	201094
18.21962	186778
18.22773	172088
18.23587	161689
18.24398	149072
18.25212	141236
18.26023	136381
18.26835	129539
18.27648	118603
18.28460	112713
18.29273	94446
18.30085	86011
18.30897	72518
18.31710	69367
18.32522	63816
18.33333	58595
18.34147	58637
18.34958	59292
18.35772	59631
18.36583	55678
18.37395	59509
18.38208	55319
18.39020	57379
18.39833	57110
18.40645	56492
18.41457	63982
18.42270	81115
18.43082	100627
18.43895	124786
18.44707	150097
18.45518	171375
18.46332	199153
18.47143	216402
18.47955	241631
18.48768	254631
18.49580	259921
18.50393	230130
18.51205	186172
18.52017	157452
18.52830	124721
18.53642	105698
18.54455	82563
18.55267	80700
18.56078	75203
18.56892	72340
18.57703	72291
18.58515	69769
18.59328	69176
18.60140	74956
18.60953	76013
18.61765	90329
18.62577	100594
18.63390	104895
18.64202	105471
18.65015	103527
18.65827	98299
18.66638	82092
18.67452	77870
18.68263	70884
18.69077	69830
18.69888	60926
18.70700	63436
18.71513	67037
18.72325	65610
18.73137	62048
18.73950	58941
18.74762	59599
18.75575	61617
18.76387	53167
18.77198	51894
18.78012	51339
18.78823	54193
18.79637	55288
18.80448	51287
18.81260	50850
18.82073	52920
18.82885	52550
18.83698	48415
18.84510	52022
18.85322	55393
18.86135	58890
18.86947	69970
18.87758	77107
18.88572	85227
18.89383	87209
18.90197	84577
18.91008	81442
18.91820	74686
18.92633	74111
18.93445	67272
18.94258	64879
18.95070	63839
18.95882	67060
18.96695	68827
18.97507	67871
18.98320	68979
18.99132	62653
18.99943	58253
19.00757	58303
19.01568	53932
19.02380	57588
19.03193	56164
19.04005	56239
19.04818	51590
19.05630	55071
19.06442	46679
19.07255	50966
19.08067	54641
19.08880	63232
19.09692	75403
19.10503	93909
19.11317	107257
19.12128	116661
19.12940	115074
19.13753	104584
19.14565	91831
19.15378	85470
19.16190	86241
19.17002	83645
19.17815	85833
19.18627	85925
19.19440	92082
19.20252	91854
19.21063	83315
19.21877	81846
19.22688	72797
19.23502	68903
19.24313	64995
19.25125	54446
19.25938	57479
19.26750	62036
19.27562	59263
19.28375	63819
19.29187	71803
19.30000	77120
19.30812	85024
19.31623	92660
19.32437	103558
19.33248	113257
19.34062	126041
19.34873	138733
19.35685	142467
19.36498	151787
19.37310	169731
19.38122	196369
19.38935	211429
19.39747	195957
19.40560	187854
19.41372	169023
19.42183	158208
19.42997	151569
19.43808	151776
19.44622	137317
19.45433	139610
19.46245	143347
19.47058	142035
19.47870	135260
19.48683	134935
19.49495	144323
19.50307	158428
19.51120	181822
19.51932	209633
19.52743	235953
19.53557	257658
19.54368	250643
19.55182	242827
19.55993	208611
19.56805	190300
19.57618	172493
19.58430	158113
19.59243	141666
19.60055	137567
19.60867	134888
19.61680	131101
19.62492	132675
19.63305	144301
19.64117	150860
19.64928	190843
19.65742	266612
19.66553	360137
19.67365	490675
19.68178	582651
19.68990	617298
19.69803	571423
19.70615	513876
19.71427	431292
19.72240	360284
19.73052	309904
19.73865	264809
19.74677	240552
19.75488	217128
19.76302	205436
19.77113	183759
19.77925	204557
19.78738	203511
19.79550	240776
19.80363	253402
19.81175	269156
19.81987	269606
19.82800	254810
19.83612	241480
19.84425	229748
19.85237	327011
19.86048	728141
19.86862	2023665
19.87673	5281634
19.88487	1.144521E+07
19.89298	1.98672E+07
19.90110	2.921285E+07
19.90923	3.633242E+07
19.91735	3.871587E+07
19.92547	3.568934E+07
19.93360	2.935819E+07
19.94172	2.129368E+07
19.94985	1.426787E+07
19.95797	9452309
19.96608	7045433
19.97422	5635851
19.98233	4868829
19.99047	4305472
19.99858	3910560
20.00670	3582480
20.01483	3307048
20.02295	3101304
20.03108	2851420
20.03920	2626539
20.04732	2339995
20.05545	1962121
20.06357	1602194
20.07168	1316122
20.07982	1097577
20.08793	938641
20.09607	853746
20.10418	793271
20.11230	720952
20.12043	651336
20.12855	585257
20.13668	538342
20.14480	541496
20.15292	614473
20.16105	782389
20.16917	1101619
20.17728	1581704
20.18542	2225183
20.19353	2778235
20.20167	3196479
20.20978	3225180
20.21790	2979816
20.22603	2609772
20.23415	2065307
20.24228	1717088
20.25040	1568110
20.25852	1618424
20.26665	1840996
20.27477	2117193
20.28290	2329766
20.29102	2363794
20.29913	2187846
20.30727	1889368
20.31538	1515243
20.32350	1147014
20.33163	883206
20.33975	673342
20.34788	535921
20.35600	449935
20.36412	381545
20.37225	326345
20.38037	291745
20.38850	250124
20.39662	218301
20.40473	199415
20.41287	179546
20.42098	165358
20.42910	168104
20.43723	164436
20.44535	182158
20.45348	183987
20.46160	202820
20.46972	207481
20.47785	201049
20.48597	172173
20.49410	164315
20.50222	156845
20.51033	137128
20.51847	129964
20.52658	125368
20.53472	127998
20.54283	118129
20.55095	116088
20.55908	116794
20.56720	114021
20.57532	115987
20.58345	110055
20.59157	110913
20.59970	113679
20.60782	105332
20.61593	103203
20.62407	105853
20.63218	102334
20.64032	108397
20.64843	115532
20.65655	120189
20.66468	119173
20.67280	116105
20.68093	116446
20.68905	106577
20.69717	100973
20.70530	96644
20.71342	94885
20.72153	94045
20.72967	93367
20.73778	91164
20.74592	92409
20.75403	97040
20.76215	100902
20.77028	101709
20.77840	112200
20.78653	122467
20.79465	163542
20.80277	233118
20.81090	357205
20.81902	480680
20.82713	595675
20.83527	625661
20.84338	560826
20.85152	426610
20.85963	298545
20.86775	214168
20.87588	160548
20.88400	134113
20.89213	123776
20.90025	123153
20.90837	127017
20.91650	142521
20.92462	166258
20.93275	177196
20.94087	201228
20.94898	194784
20.95712	188610
20.96523	172695
20.97335	162201
20.98148	134659
20.98960	121789
20.99773	113962
21.00585	107523
21.01397	113477
21.02210	100118
21.03022	101510
21.03835	101849
21.04647	106772
21.05458	107548
21.06272	99917
21.07083	99641
21.07897	91596
21.08708	92960
21.09520	86239
21.10333	88898
21.11145	82349
21.11957	80020
21.12770	86304
21.13582	95119
21.14395	121984
21.15207	154262
21.16018	198801
21.16832	225736
21.17643	252979
21.18457	237809
21.19268	213404
21.20080	176942
21.20893	136644
21.21705	127458
21.22517	100041
21.23330	101088
21.24142	98229
21.24955	95734
21.25767	92134
21.26578	87057
21.27392	87342
21.28203	86408
21.29017	82491
21.29828	80311
21.30640	87709
21.31453	78841
21.32265	77513
21.33078	79363
21.33890	79077
21.34702	86505
21.35515	79394
21.36327	81605
21.37138	80052
21.37952	81137
21.38763	87697
21.39577	89033
21.40388	108934
21.41200	127708
21.42013	148021
21.42825	160944
21.43638	164548
21.44450	160135
21.45262	139344
21.46075	125727
21.46887	109496
21.47700	98780
21.48512	94831
21.49323	84151
21.50137	84178
21.50948	80400
21.51760	77255
21.52573	75739
21.53385	77344
21.54198	82696
21.55010	75768
21.55822	77629
21.56635	80972
21.57447	82761
21.58260	83801
21.59072	85048
21.59883	93063
21.60697	94744
21.61508	89156
21.62320	91328
21.63133	91753
21.63945	105664
21.64758	112783
21.65570	121695
21.66382	131792
21.67195	133756
21.68007	131624
21.68820	131871
21.69632	127446
21.70443	118670
21.71257	102221
21.72068	92381
21.72882	82689
21.73693	83350
21.74505	75007
21.75318	76254
21.76130	74376
21.76942	74932
21.77755	78944
21.78567	75916
21.79380	70568
21.80192	75578
21.81003	79817
21.81817	81027
21.82628	84422
21.83442	88742
21.84253	91101
21.85065	113627
21.85878	129668
21.86690	126540
21.87502	113669
21.88315	106321
21.89127	104225
21.89940	100354
21.90752	85361
21.91563	84668
21.92377	78229
21.93188	80244
21.94002	72496
21.94813	72011
21.95625	70053
21.96438	62754
21.97250	64776
21.98063	61806
21.98875	64327
21.99687	54164
22.00500	59538
22.01312	55603
22.02123	60409
22.02937	61427
22.03748	57063
22.04562	63021
22.05373	66396
22.06185	65545
22.06998	69345
22.07810	65115
22.08623	61814
22.09435	68294
22.10247	62457
22.11060	57070
22.11872	57330
22.12685	55917
22.13497	54849
22.14308	52639
22.15122	52391
22.15933	55898
22.16745	54671
22.17558	52213
22.18370	56287
22.19183	56001
22.19995	59671
22.20807	55250
22.21620	57125
22.22432	54648
22.23245	57739
22.24057	61900
22.24868	63596
22.25682	59958
22.26493	62545
22.27305	70832
22.28118	69201
22.28930	71174
22.29743	79497
22.30555	86716
22.31367	96158
22.32180	123758
22.32992	157007
22.33805	182423
22.34617	195387
22.35428	202961
22.36242	178998
22.37053	149232
22.37867	123421
22.38678	115784
22.39490	104429
22.40303	119269
22.41115	140772
22.41927	160520
22.42740	179082
22.43552	192256
22.44365	185611
22.45177	157098
22.45988	133156
22.46802	117212
22.47613	93236
22.48427	89012
22.49238	90283
22.50050	97760
22.50863	112473
22.51675	122516
22.52488	141953
22.53300	130345
22.54112	130028
22.54925	120961
22.55737	110064
22.56548	96802
22.57362	83788
22.58173	81450
22.58987	75483
22.59798	72833
22.60610	66115
22.61423	65428
22.62235	58685
22.63048	58677
22.63860	53136
22.64672	55907
22.65485	62019
22.66297	64595
22.67108	77381
22.67922	87553
22.68733	98670
22.69547	109185
22.70358	119642
22.71170	127842
22.71983	140241
22.72795	137370
22.73608	135059
22.74420	125976
22.75232	114294
22.76045	102713
22.76857	104107
22.77670	100796
22.78482	105768
22.79293	106141
22.80107	117075
22.80918	134367
22.81730	135872
22.82543	148852
22.83355	139288
22.84168	128955
22.84980	123287
22.85792	117374
22.86605	118291
22.87417	142918
22.88230	164912
22.89042	190328
22.89853	214555
22.90667	229656
22.91478	239637
22.92290	228387
22.93103	228596
22.93915	215582
22.94728	198163
22.95540	190544
22.96352	171813
22.97165	158010
22.97977	138439
22.98790	127390
22.99602	116075
23.00413	107344
23.01227	103662
23.02038	97996
23.02852	100344
23.03663	95668
23.04475	90945
23.05288	92881
23.06100	91801
23.06912	93057
23.07725	95758
23.08537	98689
23.09350	101713
23.10162	90849
23.10973	88540
23.11787	83704
23.12598	77649
23.13412	68886
23.14223	65953
23.15035	66850
23.15848	64311
23.16660	61684
23.17473	63740
23.18285	62420
23.19097	60620
23.19910	65200
23.20722	59224
23.21533	62035
23.22347	56485
23.23158	63198
23.23972	65650
23.24783	74603
23.25595	83850
23.26408	96094
23.27220	113767
23.28033	104194
23.28845	98266
23.29657	88514
23.30470	83249
23.31282	73688
23.32095	67510
23.32907	72707
23.33718	73233
23.34532	79817
23.35343	106357
23.36155	137269
23.36968	163478
23.37780	184752
23.38593	201559
23.39405	207560
23.40217	205307
23.41030	204850
23.41842	191287
23.42655	195250
23.43467	187624
23.44278	177036
23.45092	172610
23.45903	167785
23.46715	164426
23.47528	163785
23.48340	160826
23.49153	150712
23.49965	156584
23.50777	149347
23.51590	145828
23.52402	143611
23.53215	138494
23.54027	140157
23.54838	142572
23.55652	158247
23.56463	165951
23.57277	185015
23.58088	206846
23.58900	249052
23.59713	298801
23.60525	348592
23.61337	371906
23.62150	372410
23.62962	353095
23.63775	341133
23.64587	364572
23.65398	476274
23.66212	615954
23.67023	778634
23.67837	856913
23.68648	841403
23.69460	736741
23.70273	565789
23.71085	421263
23.71897	315914
23.72710	244428
23.73522	215375
23.74335	180718
23.75147	181950
23.75958	240554
23.76772	424125
23.77583	855529
23.78397	1658277
23.79208	2648876
23.80020	3542837
23.80833	3834112
23.81645	3541306
23.82458	2898877
23.83270	2202315
23.84082	1649000
23.84895	1227075
23.85707	903174
23.86518	720435
23.87332	603294
23.88143	515366
23.88957	457612
23.89768	416158
23.90580	377737
23.91393	368195
23.92205	346031
23.93018	331328
23.93830	313060
23.94642	302054
23.95455	271786
23.96267	250028
23.97080	237347
23.97892	226339
23.98703	221348
23.99517	206636
24.00328	204152
24.01140	200066
24.01953	195886
24.02765	205084
24.03578	211420
24.04390	214277
24.05202	231859
24.06015	224456
24.06827	229559
24.07640	218234
24.08452	204464
24.09263	177939
24.10077	164681
24.10888	162682
24.11700	155130
24.12513	161947
24.13325	152673
24.14138	164638
24.14950	171921
24.15762	187967
24.16575	195968
24.17387	192030
24.18200	185626
24.19012	188741
24.19823	193613
24.20637	195264
24.21448	185302
24.22262	174261
24.23073	169818
24.23885	163637
24.24698	155540
24.25510	142369
24.26322	135547
24.27135	129611
24.27947	118392
24.28760	114369
24.29572	116369
24.30383	115197
24.31197	124864
24.32008	128063
24.32822	114827
24.33633	122699
24.34445	116178
24.35258	112948
24.36070	110735
24.36883	109208
24.37695	105183
24.38507	105668
24.39320	109532
24.40132	122481
24.40943	141309
24.41757	146798
24.42568	153534
24.43382	146434
24.44193	133190
24.45005	118689
24.45818	115104
24.46630	116080
24.47443	112478
24.48255	117866
24.49067	132829
24.49880	138656
24.50692	135908
24.51503	141952
24.52317	161615
24.53128	187062
24.53942	230764
24.54753	277796
24.55565	327465
24.56378	335436
24.57190	332757
24.58003	309100
24.58815	276712
24.59627	228758
24.60440	193593
24.61252	159669
24.62065	148301
24.62877	134623
24.63688	121796
24.64502	118787
24.65313	113767
24.66125	113083
24.66938	107993
24.67750	107288
24.68563	99078
24.69375	101442
24.70187	98953
24.71000	90480
24.71812	93536
24.72625	88925
24.73437	83461
24.74248	87169
24.75062	89584
24.75873	80446
24.76685	83561
24.77498	83041
24.78310	84102
24.79123	87648
24.79935	91333
24.80747	85671
24.81560	84549
24.82372	86272
24.83185	91130
24.83997	106966
24.84808	121892
24.85622	139890
24.86433	180094
24.87247	232765
24.88058	301280
24.88870	403961
24.89683	496667
24.90495	536456
24.91307	502659
24.92120	435395
24.92932	340139
24.93745	236038
24.94557	166916
24.95368	131899
24.96182	106119
24.96993	95097
24.97807	86168
24.98618	81115
24.99430	79936
25.00243	73462
25.01055	77900
25.01868	74491
25.02680	74733
25.03492	77656
25.04305	77982
25.05117	72849
25.05928	75785
25.06742	73779
25.07553	71999
25.08367	72004
25.09178	77537
25.09990	94358
25.10803	145530
25.11615	278890
25.12428	538093
25.13240	1074589
25.14052	1804789
25.14865	2620953
25.15677	3193310
25.16488	3263018
25.17302	2743396
25.18113	2012947
25.18927	1312526
25.19738	843074
25.20550	547936
25.21363	378449
25.22175	291789
25.22988	245209
25.23800	243297
25.24612	231543
25.25425	243667
25.26237	274122
25.27050	310924
25.27862	321144
25.28673	320394
25.29487	313008
25.30298	282190
25.31110	243220
25.31923	243113
25.32735	209638
25.33548	200875
25.34360	199857
25.35172	191563
25.35985	177041
25.36797	182880
25.37610	171958
25.38422	173229
25.39233	164480
25.40047	173392
25.40858	163584
25.41672	160432
25.42483	158677
25.43295	160330
25.44108	166385
25.44920	158285
25.45732	160371
25.46545	156909
25.47357	161976
25.48170	165437
25.48982	168279
25.49793	163821
25.50607	160259
25.51418	164396
25.52232	158853
25.53043	152415
25.53855	144062
25.54668	141124
25.55480	145172
25.56292	140423
25.57105	136254
25.57917	141513
25.58730	139299
25.59542	141180
25.60353	141795
25.61167	127288
25.61978	132485
25.62792	137181
25.63603	135197
25.64415	133325
25.65228	142599
25.66040	145714
25.66853	148506
25.67665	146948
25.68477	141548
25.69290	143541
25.70102	139484
25.70913	124167
25.71727	121435
25.72538	98693
25.73352	98294
25.74163	95806
25.74975	92473
25.75788	94892
25.76600	89155
25.77413	89909
25.78225	83407
25.79037	82356
25.79850	80239
25.80662	75404
25.81475	77426
25.82287	79687
25.83098	81539
25.83912	80891
25.84723	86895
25.85535	93860
25.86348	83993
25.87160	87615
25.87973	84187
25.88785	76859
25.89597	76840
25.90410	78060
25.91222	75320
25.92035	74765
25.92847	75573
25.93658	71164
25.94472	72813
25.95283	71825
25.96095	78238
25.96908	74687
25.97720	67583
25.98533	70630
25.99345	65737
26.00157	63848
26.00970	57983
26.01782	62065
26.02595	61402
26.03407	59933
26.04218	54413
26.05032	56985
26.05843	62816
26.06657	71456
26.07468	73851
26.08280	92205
26.09093	115050
26.09905	152481
26.10717	167433
26.11530	189936
26.12342	180583
26.13155	203069
26.13967	202635
26.14778	204964
26.15592	219391
26.16403	222151
26.17217	218560
26.18028	219849
26.18840	221930
26.19653	214191
26.20465	208889
26.21277	209607
26.22090	194135
26.22902	203149
26.23715	199588
26.24527	192676
26.25338	185654
26.26152	192973
26.26963	198777
26.27777	189783
26.28588	184698
26.29400	187766
26.30213	186863
26.31025	182856
26.31838	193930
26.32650	178622
26.33462	182047
26.34275	188412
26.35087	210469
26.35898	236195
26.36712	333504
26.37523	465952
26.38337	706612
26.39148	991975
26.39960	1297150
26.40773	1485210
26.41585	1448883
26.42398	1263248
26.43210	992770
26.44022	750001
26.44835	534576
26.45647	375998
26.46460	289758
26.47272	232153
26.48083	208419
26.48897	193023
26.49708	188006
26.50520	186780
26.51333	178981
26.52145	171580
26.52958	165403
26.53770	156122
26.54582	161729
26.55395	151916
26.56207	149054
26.57020	147146
26.57832	147628
26.58643	144640
26.59457	143289
26.60268	155511
26.61080	141597
26.61893	143380
26.62705	142392
26.63518	139164
26.64330	135030
26.65142	138895
26.65955	141332
26.66767	142871
26.67580	140627
26.68392	145335
26.69203	144105
26.70017	137452
26.70828	137627
26.71642	140224
26.72453	125242
26.73265	126617
26.74078	127179
26.74890	129476
26.75702	131359
26.76515	128341
26.77327	125664
26.78140	129648
26.78952	122722
26.79763	119330
26.80577	128042
26.81388	124197
26.82202	127476
26.83013	130803
26.83825	125534
26.84638	121682
26.85450	119705
26.86263	113004
26.87075	108947
26.87887	114853
26.88700	109966
26.89512	106703
26.90323	103513
26.91137	99678
26.91948	105502
26.92762	109840
26.93573	103881
26.94385	99028
26.95198	101373
26.96010	101995
26.96823	111218
26.97635	127470
26.98447	158731
26.99260	242395
27.00072	374111
27.00883	604219
27.01697	919188
27.02508	1252642
27.03322	1489274
27.04133	1452771
27.04945	1346139
27.05758	1131547
27.06570	893932
27.07383	672120
27.08195	531830
27.09007	432836
27.09820	357029
27.10632	317836
27.11445	281024
27.12257	254086
27.13068	244461
27.13882	222295
27.14693	210339
27.15505	199619
27.16318	205662
27.17130	209694
27.17943	219620
27.18755	236572
27.19567	238519
27.20380	237152
27.21192	225641
27.22005	200864
27.22817	184215
27.23628	159576
27.24442	156546
27.25253	155432
27.26065	139298
27.26878	134201
27.27690	129651
27.28503	133498
27.29315	125806
27.30127	122353
27.30940	120052
27.31752	114377
27.32565	120488
27.33377	115996
27.34188	115923
27.35002	124338
27.35813	120953
27.36627	120677
27.37438	109148
27.38250	109575
27.39063	111775
27.39875	111555
27.40687	108135
27.41500	103996
27.42312	105832
27.43125	105924
27.43937	103597
27.44748	104877
27.45562	98773
27.46373	97776
27.47187	91550
27.47998	87565
27.48810	93355
27.49623	93159
27.50435	92212
27.51248	93004
27.52060	91024
27.52872	84636
27.53685	93848
27.54497	91202
27.55308	85888
27.56122	86312
27.56933	83592
27.57747	89730
27.58558	102612
27.59370	104661
27.60183	109380
27.60995	120043
27.61808	123017
27.62620	126127
27.63432	110061
27.64245	103048
27.65057	97441
27.65868	97561
27.66682	89814
27.67493	86730
27.68307	91736
27.69118	88830
27.69930	99624
27.70743	85653
27.71555	86652
27.72368	86959
27.73180	78475
27.73992	81067
27.74805	79187
27.75617	81520
27.76430	70643
27.77242	77114
27.78053	73833
27.78867	72843
27.79678	72715
27.80490	74681
27.81303	73426
27.82115	76266
27.82928	78160
27.83740	81609
27.84552	81898
27.85365	76202
27.86177	74678
27.86990	72990
27.87802	71454
27.88613	65930
27.89427	68784
27.90238	63681
27.91052	66777
27.91863	68782
27.92675	75345
27.93488	65158
27.94300	68923
27.95112	63895
27.95925	71684
27.96737	68373
27.97550	71041
27.98362	68175
27.99173	65114
27.99987	67377
28.00798	69034
28.01612	71825
28.02423	81037
28.03235	92936
28.04048	99622
28.04860	116890
28.05672	128317
28.06485	127164
28.07297	120500
28.08110	117318
28.08922	106128
28.09733	98924
28.10547	90561
28.11358	90848
28.12172	82692
28.12983	79512
28.13795	76628
28.14608	72966
28.15420	76069
28.16233	69539
28.17045	64845
28.17857	71485
28.18670	67876
28.19482	70932
28.20293	78866
28.21107	84755
28.21918	102849
28.22732	99039
28.23543	106233
28.24355	96909
28.25168	96656
28.25980	87760
28.26793	76344
28.27605	71482
28.28417	69108
28.29230	69991
28.30042	69726
28.30853	74896
28.31667	84931
28.32478	109754
28.33292	116103
28.34103	136125
28.34915	149824
28.35728	171767
28.36540	198908
28.37353	212907
28.38165	223388
28.38977	220022
28.39790	237733
28.40602	231316
28.41415	216352
28.42227	200374
28.43038	191699
28.43852	176394
28.44663	156593
28.45475	145007
28.46288	137840
28.47100	130528
28.47913	118214
28.48725	124612
28.49537	124653
28.50350	123448
28.51162	120618
28.51975	115391
28.52787	119696
28.53598	112027
28.54412	101970
28.55223	95734
28.56037	92140
28.56848	86134
28.57660	86772
28.58473	80553
28.59285	82741
28.60097	79630
28.60910	82585
28.61722	80959
28.62535	78988
28.63347	87739
28.64158	84520
28.64972	93368
28.65783	93076
28.66597	96891
28.67408	92878
28.68220	88795
28.69033	88545
28.69845	80018
28.70658	80329
28.71470	76987
28.72282	81773
28.73095	70569
28.73907	71944
28.74718	73171
28.75532	71559
28.76343	75742
28.77157	74983
28.77968	78372
28.78780	89290
28.79593	89145
28.80405	87026
28.81218	88913
28.82030	83993
28.82842	79395
28.83655	81687
28.84467	72078
28.85278	72904
28.86092	70360
28.86903	66871
28.87717	78482
28.88528	70948
28.89340	80646
28.90153	84491
28.90965	79459
28.91778	85578
28.92590	84025
28.93402	77230
28.94215	79003
28.95027	86219
28.95840	86849
28.96652	89101
28.97463	85309
28.98277	85136
28.99088	89716
28.99900	76171
29.00713	65091
29.01525	64987
29.02338	67528
29.03150	63287
29.03962	66570
29.04775	69593
29.05587	68943
29.06400	64025
29.07212	72093
29.08023	67022
29.08837	74392
29.09648	68316
29.10460	69899
29.11273	66643
29.12085	67228
29.12898	62830
29.13710	66791
29.14522	66212
29.15335	70875
29.16147	61727
29.16960	62434
29.17772	68077
29.18583	67631
29.19397	76253
29.20208	79744
29.21022	91682
29.21833	104084
29.22645	108066
29.23458	112303
29.24270	115383
29.25082	103319
29.25895	103423
29.26707	103981
29.27520	101598
29.28332	99937
29.29143	90085
29.29957	83304
29.30768	75593
29.31582	70662
29.32393	60981
29.33205	64556
29.34018	64423
29.34830	61102
29.35643	59697
29.36455	63325
29.37267	59125
29.38080	55646
29.38892	59780
29.39703	65227
29.40517	59169
29.41328	62089
29.42142	63730
29.42953	71306
29.43765	62565
29.44578	63241
29.45390	60313
29.46203	57920
29.47015	60346
29.47827	59201
29.48640	64107
29.49452	65542
29.50263	67113
29.51077	64937
29.51888	74153
29.52702	65131
29.53513	76560
29.54325	63012
29.55138	62197
29.55950	58515
29.56763	61004
29.57575	54884
29.58387	55570
29.59200	53513
29.60012	51539
29.60825	53294
29.61637	52632
29.62448	55514
29.63262	54359
29.64073	58030
29.64885	54854
29.65698	53441
29.66510	58430
29.67323	55750
29.68135	60786
29.68947	58306
29.69760	60449
29.70572	64166
29.71385	61524
29.72197	63221
29.73008	64770
29.73822	59628
29.74633	60028
29.75447	59772
29.76258	52083
29.77070	57055
29.77883	54501
29.78695	54182
29.79507	51234
29.80320	54955
29.81132	48453
29.81945	52332
29.82757	57543
29.83568	50569
29.84382	50238
29.85193	54189
29.86007	53081
29.86818	53400
29.87630	65906
29.88443	81038
29.89255	100040
29.90067	139852
29.90880	168284
29.91692	168756
29.92505	158336
29.93317	136900
29.94128	110447
29.94942	91924
29.95753	75449
29.96567	83708
29.97378	82593
29.98190	85888
29.99003	89004
29.99815	103608
30.00628	114039
30.01440	123678
30.02252	129551
30.03065	134299
30.03877	133583
30.04688	135213
30.05502	124676
30.06313	123459
30.07127	122139
30.07938	120027
30.08750	110421
30.09563	108801
30.10375	101161
30.11188	106390
30.12000	101677
30.12812	98173
30.13625	89934
30.14437	89539
30.15248	82914
30.16062	83838
30.16873	80850
30.17687	80736
30.18498	84461
30.19310	83960
30.20123	89122
30.20935	97159
30.21748	94927
30.22560	87181
30.23372	81252
30.24185	81748
30.24997	75091
30.25810	74528
30.26622	63068
30.27433	62921
30.28247	63179
30.29058	61928
30.29870	60634
30.30683	66482
30.31495	59844
30.32308	64158
30.33120	56735
30.33932	63800
30.34745	65681
30.35557	65122
30.36370	61032
30.37182	57965
30.37993	58853
30.38807	60954
30.39618	62245
30.40432	61488
30.41243	53440
30.42055	55321
30.42868	57549
30.43680	59087
30.44492	54541
30.45305	52586
30.46117	58562
30.46930	59135
30.47742	57257
30.48553	57070
30.49367	54606
30.50178	52216
30.50992	59839
30.51803	56639
30.52615	56607
30.53428	57461
30.54240	56362
30.55052	57714
30.55865	52904
30.56677	55899
30.57490	55135
30.58302	61288
30.59113	55632
30.59927	60997
30.60738	60410
30.61552	59571
30.62363	53097
30.63175	60344
30.63988	59119
30.64800	59068
30.65613	54951
30.66425	58332
30.67237	51117
30.68050	55323
30.68862	50808
30.69673	48468
30.70487	51912
30.71298	52177
30.72112	58684
30.72923	54557
30.73735	60164
30.74548	60501
30.75360	61318
30.76173	57057
30.76985	59724
30.77797	60800
30.78610	62362
30.79422	69412
30.80235	80661
30.81047	97625
30.81858	108900
30.82672	119858
30.83483	108965
30.84295	91319
30.85108	87076
30.85920	79408
30.86733	75421
30.87545	69092
30.88357	75726
30.89170	77934
30.89982	76831
30.90795	70431
30.91607	72009
30.92418	74147
30.93232	61789
30.94043	66882
30.94855	65009
30.95668	68297
30.96480	70159
30.97293	69609
30.98105	64417
30.98917	62867
30.99730	63595
31.00542	67170
31.01355	67271
31.02167	70539
31.02978	77301
31.03792	84237
31.04603	90662
31.05417	89863
31.06228	93624
31.07040	84950
31.07853	85260
31.08665	98021
31.09477	128320
31.10290	172995
31.11102	215487
31.11915	259664
31.12727	250300
31.13538	220778
31.14352	173333
31.15163	133963
31.15977	97100
31.16788	83532
31.17600	78203
31.18413	76482
31.19225	80645
31.20038	94411
31.20850	115594
31.21662	142386
31.22475	154704
31.23287	174605
31.24098	169717
31.24912	154452
31.25723	130698
31.26537	108029
31.27348	88485
31.28160	75788
31.28973	71160
31.29785	59069
31.30598	59345
31.31410	57946
31.32222	58745
31.33035	59277
31.33847	59470
31.34658	62997
31.35472	56185
31.36283	62774
31.37097	62512
31.37908	62693
31.38720	71973
31.39533	75101
31.40345	71476
31.41158	70423
31.41970	75072
31.42782	65385
31.43595	58269
31.44407	58341
31.45220	59503
31.46032	55832
31.46843	59265
31.47657	56866
31.48468	58999
31.49280	56113
31.50093	66256
31.50905	58218
31.51718	61707
31.52530	70443
31.53342	69117
31.54155	64064
31.54967	68450
31.55780	67181
31.56592	63583
31.57403	63624
31.58217	60272
31.59028	63912
31.59840	61855
31.60653	60486
31.61465	59193
31.62278	65706
31.63090	67059
31.63902	65864
31.64715	72768
31.65527	68796
31.66340	76213
31.67152	76435
31.67963	76842
31.68777	77083
31.69588	74691
31.70402	76000
31.71213	77620
31.72025	74082
31.72838	72123
31.73650	73465
31.74462	67449
31.75275	69763
31.76087	68305
31.76900	66554
31.77712	72425
31.78523	71574
31.79337	71790
31.80148	72174
31.80962	74973
31.81773	76835
31.82585	79633
31.83398	72558
31.84210	79759
31.85023	78973
31.85835	79348
31.86647	77498
31.87460	82748
31.88272	84211
31.89083	81267
31.89897	85865
31.90708	86422
31.91522	87177
31.92333	94715
31.93145	97689
31.93958	94175
31.94770	101241
31.95583	98236
31.96395	102497
31.97207	111264
31.98020	116816
31.98832	114750
31.99643	120164
32.00457	112839
32.01268	118702
32.02082	111349
32.02893	113363
32.03705	108544
32.04518	101339
32.05330	94786
32.06143	83597
32.06955	82936
32.07767	83345
32.08580	83729
32.09392	83938
32.10205	84563
32.11017	84922
32.11828	75029
32.12642	75309
32.13453	75593
32.14265	71570
32.15078	70300
32.15890	71206
32.16703	65690
32.17515	68342
32.18327	68372
32.19140	67213
32.19952	68994
32.20765	69673
32.21577	65854
32.22388	62475
32.23202	64940
32.24013	65488
32.24827	67821
32.25638	72175
32.26450	64621
32.27263	65309
32.28075	72926
32.28887	73360
32.29700	71324
32.30512	66453
32.31325	62444
32.32137	62833
32.32948	68291
32.33762	67245
32.34573	72511
32.35387	70888
32.36198	68320
32.37010	69768
32.37823	69394
32.38635	65167
32.39447	65220
32.40260	63660
32.41072	59434
32.41885	55752
32.42697	59231
32.43508	57448
32.44322	57430
32.45133	58995
32.45947	58096
32.46758	58227
32.47570	60044
32.48383	57927
32.49195	59744
32.50008	52945
32.50820	56147
32.51632	56646
32.52445	60178
32.53257	57882
32.54068	56116
32.54882	59413
32.55693	65046
32.56507	58773
32.57318	53430
32.58130	56741
32.58943	52213
32.59755	57877
32.60568	55989
32.61380	53902
32.62192	54427
32.63005	55477
32.63817	51168
32.64628	55105
32.65442	53399
32.66253	56214
32.67067	63127
32.67878	68829
32.68690	73576
32.69503	73359
32.70315	70330
32.71128	65406
32.71940	65128
32.72752	60544
32.73565	61676
32.74377	53706
32.75190	58253
32.76002	60103
32.76813	52758
32.77627	58203
32.78438	56209
32.79250	55029
32.80063	53048
32.80875	52391
32.81688	51949
32.82500	53836
32.83312	56383
32.84125	60163
32.84937	56619
32.85750	56834
32.86562	55517
32.87373	53028
32.88187	51971
32.88998	59019
32.89812	60916
32.90623	64963
32.91435	67248
32.92248	64843
32.93060	69226
32.93872	62437
32.94685	62357
32.95497	56987
32.96310	55368
32.97122	57166
32.97933	57950
32.98747	65146
32.99558	70463
33.00372	75844
33.01183	81408
33.01995	77896
33.02808	77986
33.03620	76615
33.04432	69779
33.05245	70682
33.06057	66466
33.06870	70173
33.07682	70595
33.08493	82507
33.09307	90555
33.10118	100071
33.10932	117898
33.11743	120110
33.12555	127160
33.13368	126649
33.14180	123426
33.14993	100886
33.15805	89907
33.16617	82340
33.17430	79581
33.18242	66066
33.19053	58753
33.19867	60643
33.20678	63970
33.21492	66368
33.22303	63614
33.23115	64115
33.23928	66895
33.24740	66041
33.25553	67014
33.26365	59611
33.27177	61500
33.27990	62819
33.28802	61680
33.29615	57277
33.30427	59509
33.31238	62909
33.32052	57790
33.32863	62634
33.33675	59366
33.34488	62439
33.35300	60156
33.36113	67054
33.36925	65197
33.37737	64569
33.38550	63450
33.39362	59633
33.40175	57010
33.40987	54857
33.41798	53267
33.42612	52766
33.43423	53537
33.44235	55675
33.45048	52178
33.45860	50710
33.46673	51281
33.47485	51309
33.48297	53708
33.49110	50922
33.49922	53237
33.50735	60660
33.51547	52812
33.52358	53918
33.53172	55345
33.53983	57440
33.54797	60764
33.55608	66020
33.56420	61724
33.57233	66132
33.58045	63122
33.58857	63332
33.59670	60995
33.60482	61302
33.61295	62437
33.62107	52845
33.62918	58566
33.63732	56726
33.64543	62811
33.65357	65424
33.66168	60517
33.66980	64981
33.67793	65074
33.68605	65348
33.69417	57434
33.70230	57120
33.71042	55108
33.71855	58823
33.72667	57149
33.73478	58333
33.74292	55385
33.75103	57150
33.75917	56951
33.76728	57549
33.77540	54019
33.78353	52910
33.79165	51335
33.79978	47553
33.80790	49372
33.81602	53244
33.82415	50407
33.83227	57128
33.84038	59273
33.84852	56174
33.85663	60663
33.86477	55539
33.87288	56022
33.88100	58385
33.88913	63020
33.89725	55451
33.90538	56987
33.91350	58485
33.92162	55630
33.92975	56508
33.93787	57054
33.94600	61003
33.95412	57592
33.96223	53581
33.97037	53945
33.97848	55636
33.98660	51863
33.99473	55243
34.00285	51595
34.01098	49750
34.01910	52487
34.02722	52421
34.03535	54487
34.04347	56714
34.05160	48343
34.05972	55342
34.06783	56263
34.07597	55609
34.08408	52307
34.09222	55578
34.10033	57659
34.10845	54888
34.11658	54440
34.12470	59063
34.13282	54632
34.14095	53855
34.14907	55008
34.15720	55992
34.16532	55897
34.17343	47660
34.18157	52320
34.18968	52349
34.19782	50379
34.20593	49347
34.21405	54758
34.22218	49435
34.23030	52924
34.23842	56823
34.24655	54270
34.25467	55139
34.26280	50233
34.27092	54254
34.27903	54759
34.28717	57122
34.29528	49843
34.30342	52015
34.31153	55043
34.31965	56683
34.32778	54767
34.33590	50776
34.34403	50134
34.35215	51418
34.36027	51502
34.36840	52538
34.37652	52576
34.38463	53098
34.39277	54134
34.40088	54512
34.40902	54212
34.41713	50164
34.42525	53674
34.43338	62659
34.44150	50424
34.44963	51731
34.45775	49121
34.46587	55520
34.47400	52296
34.48212	49069
34.49023	52355
34.49837	49604
34.50648	51923
34.51462	57629
34.52273	56444
34.53085	61438
34.53898	66577
34.54710	82241
34.55523	84236
34.56335	89996
34.57147	96911
34.57960	102183
34.58772	94703
34.59585	94455
34.60397	87641
34.61208	77105
34.62022	75655
34.62833	72660
34.63645	67718
34.64458	64831
34.65270	61823
34.66083	59338
34.66895	60843
34.67707	60229
34.68520	62942
34.69332	61183
34.70145	58857
34.70957	57983
34.71768	57748
34.72582	60532
34.73393	60165
34.74207	59726
34.75018	56132
34.75830	58310
34.76643	64023
34.77455	59540
34.78267	59095
34.79080	59950
34.79892	56802
34.80705	60260
34.81517	59149
34.82328	61697
34.83142	59890
34.83953	63105
34.84767	58334
34.85578	59475
34.86390	65734
34.87203	62030
34.88015	62512
34.88827	55950
34.89640	61326
34.90452	54478
34.91265	61040
34.92077	61671
34.92888	57110
34.93702	59156
34.94513	73419
34.95327	94124
34.96138	129578
34.96950	207243
34.97763	292086
34.98575	350913
34.99388	397541
35.00200	352070
35.01012	285619
35.01825	180503
35.02637	126376
35.03448	98251
35.04262	77266
35.05073	71747
35.05887	69346
35.06698	66670
35.07510	70764
35.08323	67471
35.09135	66582
35.09948	64826
35.10760	62509
35.11572	61987
35.12385	61804
35.13197	62220
35.14010	62273
35.14822	58385
35.15633	60196
35.16447	63612
35.17258	61782
35.18070	63781
35.18883	57692
35.19695	61236
35.20508	64751
35.21320	62347
35.22132	59493
35.22945	59064
35.23757	59450
35.24570	56329
35.25382	55458
35.26193	61923
35.27007	64665
35.27818	62674
35.28630	62838
35.29443	59591
35.30255	63425
35.31068	61311
35.31880	60081
35.32692	58622
35.33505	54720
35.34317	56455
35.35130	56278
35.35942	50964
35.36753	59473
35.37567	58351
35.38378	57263
35.39192	55927
35.40003	66796
35.40815	65376
35.41628	72630
35.42440	75005
35.43252	77177
35.44065	81113
35.44877	79217
35.45690	80464
35.46502	71512
35.47313	73536
35.48127	70090
35.48938	63621
35.49752	65776
35.50563	59316
35.51375	67274
35.52188	68185
35.53000	68387
35.53812	65549
35.54625	58317
35.55437	59802
35.56250	57301
35.57062	59334
35.57873	57781
35.58687	55289
35.59498	55791
35.60312	57177
35.61123	58315
35.61935	55129
35.62748	55844
35.63560	65938
35.64373	60567
35.65185	56328
35.65997	58172
35.66810	61174
35.67622	59368
35.68433	54832
35.69247	57157
35.70058	61345
35.70872	60910
35.71683	60026
35.72495	62771
35.73308	63917
35.74120	63084
35.74933	64493
35.75745	66965
35.76557	69348
35.77370	74092
35.78182	74056
35.78995	71696
35.79807	72388
35.80618	64225
35.81432	64283
35.82243	65210
35.83055	63953
35.83868	62170
35.84680	60486
35.85493	61345
35.86305	58521
35.87117	58114
35.87930	59203
35.88742	59531
35.89555	59180
35.90367	68047
35.91178	59371
35.91992	62113
35.92803	62645
35.93615	59629
35.94428	59613
35.95240	60835
35.96053	61882
35.96865	54599
35.97677	57581
35.98490	60545
35.99302	55533
36.00115	61264
36.00927	61464
36.01738	63601
36.02552	60692
36.03363	65535
36.04177	65119
36.04988	67110
36.05800	61980
36.06613	66436
36.07425	62171
36.08237	69202
36.09050	69761
36.09862	63090
36.10675	58798
36.11487	62174
36.12298	59259
36.13112	62031
36.13923	67122
36.14737	68987
36.15548	73983
36.16360	72746
36.17173	66874
36.17985	68874
36.18798	68318
36.19610	71495
36.20422	63296
36.21235	60745
36.22047	54868
36.22858	59633
36.23672	59185
36.24483	57019
36.25297	64699
36.26108	56688
36.26920	60478
36.27733	60313
36.28545	57914
36.29358	57862
36.30170	62954
36.30982	62511
36.31795	65292
36.32607	66592
36.33418	78152
36.34232	67074
36.35043	65809
36.35857	65655
36.36668	64069
36.37480	63091
36.38293	62000
36.39105	59088
36.39918	61065
36.40730	60004
36.41542	63092
36.42355	61394
36.43167	64681
36.43980	61276
36.44792	60894
36.45603	60684
36.46417	60603
36.47228	66226
36.48040	66216
36.48853	59447
36.49665	57192
36.50478	55231
36.51290	61149
36.52102	54508
36.52915	61953
36.53727	54168
36.54540	59890
36.55352	59576
36.56163	58083
36.56977	58865
36.57788	60448
36.58602	60191
36.59413	63952
36.60225	61930
36.61038	56688
36.61850	62546
36.62662	61363
36.63475	58770
36.64287	60106
36.65100	63224
36.65912	62477
36.66723	61531
36.67537	58603
36.68348	63575
36.69162	62305
36.69973	61469
36.70785	62522
36.71598	62424
36.72410	56602
36.73222	68630
36.74035	61399
36.74847	65931
36.75660	64958
36.76472	62680
36.77283	62426
36.78097	60603
36.78908	56219
36.79722	54683
36.80533	59997
36.81345	59039
36.82158	64794
36.82970	59919
36.83783	59929
36.84595	58762
36.85407	59612
36.86220	60360
36.87032	62013
36.87843	57205
36.88657	61531
36.89468	61468
36.90282	61651
36.91093	61960
36.91905	64246
36.92718	58040
36.93530	64793
36.94343	66912
36.95155	69882
36.95967	74007
36.96780	73181
36.97592	77661
36.98403	82480
36.99217	82987
37.00028	76428
37.00842	78063
37.01653	68879
37.02465	71034
37.03278	76638
37.04090	76602
37.04903	74201
37.05715	75243
37.06527	81368
37.07340	78865
37.08152	80161
37.08965	82650
37.09777	86424
37.10588	82280
37.11402	82567
37.12213	83149
37.13025	78214
37.13838	84428
37.14650	80968
37.15463	81798
37.16275	76787
37.17087	80450
37.17900	76584
37.18712	79345
37.19525	81528
37.20337	79416
37.21148	79546
37.21962	86096
37.22773	81416
37.23587	80902
37.24398	82249
37.25210	83011
37.26023	76480
37.26835	73775
37.27647	76461
37.28460	74820
37.29272	75440
37.30085	73489
37.30897	75074
37.31708	77944
37.32522	76182
37.33333	77603
37.34147	83459
37.34958	85188
37.35770	86126
37.36583	88189
37.37395	83615
37.38207	90063
37.39020	89813
37.39832	88154
37.40645	86226
37.41457	86386
37.42268	84416
37.43082	82687
37.43893	81793
37.44707	88698
37.45518	81924
37.46330	87623
37.47143	78621
37.47955	79618
37.48768	79176
