D:\MassHunter\GCMS\1\data\JTB-E02\BACandSTRAW\JTB-E02-207-12.D Wed Mar 13 14:35:24 2019
Start of data points
2.09523	218974
2.10337	217224
2.11148	212490
2.11960	215978
2.12773	220253
2.13585	195574
2.14398	209023
2.15210	199628
2.16022	182471
2.16835	174949
2.17647	169394
2.18458	156652
2.19272	159592
2.20083	152297
2.20897	143482
2.21708	141497
2.22520	131238
2.23333	134523
2.24145	127558
2.24958	140424
2.25770	129512
2.26582	127574
2.27395	122788
2.28207	120986
2.29020	117766
2.29832	130155
2.30643	118987
2.31457	117424
2.32268	113976
2.33080	113700
2.33893	113466
2.34705	110921
2.35518	114559
2.36330	113409
2.37142	119736
2.37955	165757
2.38767	373438
2.39580	556864
2.40392	629958
2.41203	1008965
2.42017	811483
2.42828	432004
2.43642	336839
2.44453	296270
2.45265	274860
2.46078	276995
2.46890	262117
2.47702	266042
2.48515	236547
2.49327	233429
2.50140	238336
2.50952	234609
2.51763	230440
2.52577	225293
2.53388	220465
2.54202	219936
2.55013	218054
2.55825	212041
2.56638	213013
2.57450	212002
2.58263	209551
2.59075	205194
2.59887	202784
2.60700	206399
2.61512	203165
2.62323	194226
2.63137	197748
2.63948	196692
2.64762	196822
2.65573	191141
2.66385	188331
2.67198	187379
2.68010	185800
2.68823	184079
2.69635	186080
2.70447	186821
2.71260	182155
2.72072	174339
2.72883	179858
2.73697	178420
2.74508	185561
2.75322	183730
2.76133	187447
2.76945	194110
2.77758	178235
2.78570	169575
2.79383	161790
2.80195	158357
2.81007	161828
2.81820	163402
2.82632	151494
2.83445	157549
2.84257	161712
2.85068	158479
2.85882	159699
2.86693	163134
2.87505	158643
2.88318	162101
2.89130	159757
2.89943	161166
2.90755	158979
2.91567	158898
2.92380	161022
2.93192	159233
2.94005	159004
2.94817	165627
2.95628	157125
2.96442	153743
2.97253	149878
2.98067	150353
2.98878	148997
2.99690	149266
3.00503	154867
3.01315	151557
3.02127	151083
3.02940	150202
3.03752	148298
3.04565	145436
3.05377	147119
3.06188	145597
3.07002	145925
3.07813	144126
3.08627	144139
3.09438	137652
3.10250	140164
3.11063	140436
3.11875	134280
3.12687	146341
3.13500	167596
3.14312	176924
3.15125	158208
3.15937	146609
3.16748	140059
3.17562	147372
3.18373	144860
3.19187	136291
3.19998	136119
3.20810	133422
3.21623	132430
3.22435	131669
3.23248	139081
3.24060	130302
3.24872	134308
3.25685	138373
3.26497	149549
3.27308	167690
3.28122	241948
3.28933	454314
3.29747	495913
3.30558	269379
3.31370	167990
3.32183	145455
3.32995	140012
3.33808	141361
3.34620	141290
3.35432	163248
3.36245	273025
3.37057	649329
3.37870	1103162
3.38682	722664
3.39493	277216
3.40307	173026
3.41118	152691
3.41930	143838
3.42743	140850
3.43555	143722
3.44368	139608
3.45180	142296
3.45992	198428
3.46805	466745
3.47617	1300099
3.48430	2375209
3.49242	2315280
3.50053	1362321
3.50867	739632
3.51678	502708
3.52490	391345
3.53303	340286
3.54115	297095
3.54928	270106
3.55740	263559
3.56552	256513
3.57365	246201
3.58177	238605
3.58990	234102
3.59802	223147
3.60613	212279
3.61427	210838
3.62238	208714
3.63052	212754
3.63863	201760
3.64675	200218
3.65488	201427
3.66300	204013
3.67112	211369
3.67925	215522
3.68737	224036
3.69550	227455
3.70362	214976
3.71173	212170
3.71987	218147
3.72798	210205
3.73612	207964
3.74423	201583
3.75235	205930
3.76048	195080
3.76860	207197
3.77673	211902
3.78485	206526
3.79297	197935
3.80110	184825
3.80922	176840
3.81733	182096
3.82547	177959
3.83358	187092
3.84172	190084
3.84983	188234
3.85795	186125
3.86608	211653
3.87420	332813
3.88233	555819
3.89045	577578
3.89857	355614
3.90670	216551
3.91482	195104
3.92295	186251
3.93107	186530
3.93918	178974
3.94732	173189
3.95543	178271
3.96355	178744
3.97168	183309
3.97980	186990
3.98793	286911
3.99605	580409
4.00417	840547
4.01230	662322
4.02042	348641
4.02855	212370
4.03667	193694
4.04478	172304
4.05292	170402
4.06103	171133
4.06915	176498
4.07728	172923
4.08540	174600
4.09353	205780
4.10165	211070
4.10977	191061
4.11790	177483
4.12602	165290
4.13415	168415
4.14227	160241
4.15038	165172
4.15852	166019
4.16663	165855
4.17477	162894
4.18288	164473
4.19100	161593
4.19913	153229
4.20725	159768
4.21537	164096
4.22350	158157
4.23162	157299
4.23975	164951
4.24787	163940
4.25598	156731
4.26412	156673
4.27223	166675
4.28037	166999
4.28848	155472
4.29660	160853
4.30473	159617
4.31285	159653
4.32098	157716
4.32910	152323
4.33722	154832
4.34535	156543
4.35347	154341
4.36158	148894
4.36972	161154
4.37783	179320
4.38597	224068
4.39408	277657
4.40220	262953
4.41033	201320
4.41845	169386
4.42658	157632
4.43470	151094
4.44282	152649
4.45095	153937
4.45907	157874
4.46718	165154
4.47532	186831
4.48343	194500
4.49157	180810
4.49968	162722
4.50780	158599
4.51593	159260
4.52405	152175
4.53218	157150
4.54030	149048
4.54842	148314
4.55655	160393
4.56467	155750
4.57280	159780
4.58092	151041
4.58903	153644
4.59717	153313
4.60528	154234
4.61340	154325
4.62153	149017
4.62965	144662
4.63778	151876
4.64590	144381
4.65402	142855
4.66215	147764
4.67027	146647
4.67840	148077
4.68652	145638
4.69463	151757
4.70277	148455
4.71088	150281
4.71902	153921
4.72713	145236
4.73525	148097
4.74338	151222
4.75150	142478
4.75962	147586
4.76775	144269
4.77587	154796
4.78400	160764
4.79212	163126
4.80023	153268
4.80837	148566
4.81648	143276
4.82462	144961
4.83273	139777
4.84085	146475
4.84898	148647
4.85710	148251
4.86522	143685
4.87335	144105
4.88147	142864
4.88960	142042
4.89772	135243
4.90583	145991
4.91397	141319
4.92208	145013
4.93022	149390
4.93833	149569
4.94645	151767
4.95458	141494
4.96270	138931
4.97083	142585
4.97895	139117
4.98707	144754
4.99520	135866
5.00332	141733
5.01143	140420
5.01957	134956
5.02768	138987
5.03582	144855
5.04393	150005
5.05205	154983
5.06018	158667
5.06830	146496
5.07643	142811
5.08455	146454
5.09267	157216
5.10080	149574
5.10892	157078
5.11705	144652
5.12517	144362
5.13328	149105
5.14142	171365
5.14953	248038
5.15765	433052
5.16578	675438
5.17390	804424
5.18203	721347
5.19015	522684
5.19827	387514
5.20640	482863
5.21452	1358169
5.22265	3835793
5.23077	6845900
5.23888	6843127
5.24702	3860086
5.25513	1425835
5.26327	523186
5.27138	316502
5.27950	267446
5.28763	239394
5.29575	247712
5.30387	238291
5.31200	229422
5.32012	216210
5.32825	204976
5.33637	206964
5.34448	204398
5.35262	202947
5.36073	186314
5.36887	187642
5.37698	186726
5.38510	193450
5.39323	180253
5.40135	176530
5.40947	173006
5.41760	168451
5.42572	171429
5.43385	159884
5.44197	169484
5.45008	159475
5.45822	156122
5.46633	151211
5.47447	149668
5.48258	155172
5.49070	153879
5.49883	155948
5.50695	157438
5.51508	166854
5.52320	155894
5.53132	157102
5.53945	147373
5.54757	163666
5.55568	151947
5.56382	151789
5.57193	147827
5.58007	145382
5.58818	143916
5.59630	141183
5.60443	151579
5.61255	158036
5.62068	148709
5.62880	145995
5.63692	147884
5.64505	158279
5.65317	200633
5.66130	246444
5.66942	255779
5.67753	222953
5.68567	177521
5.69378	153810
5.70190	149364
5.71003	152689
5.71815	159818
5.72628	156221
5.73440	143291
5.74252	156553
5.75065	151875
5.75877	141367
5.76690	134693
5.77502	142367
5.78313	141707
5.79127	147508
5.79938	134429
5.80750	138854
5.81563	154461
5.82375	170407
5.83188	237295
5.84000	318745
5.84812	339603
5.85625	270058
5.86437	202830
5.87250	153331
5.88062	144420
5.88873	145275
5.89687	143153
5.90498	138290
5.91312	142085
5.92123	138033
5.92935	139606
5.93748	135177
5.94560	135935
5.95372	144139
5.96185	141959
5.96997	161629
5.97810	169563
5.98622	179372
5.99433	178752
6.00247	159711
6.01058	147634
6.01872	154823
6.02683	139712
6.03495	139035
6.04308	138715
6.05120	140903
6.05933	136864
6.06745	132055
6.07557	117776
6.08370	108686
6.09182	109499
6.09993	106214
6.10807	114118
6.11618	108464
6.12432	106281
6.13243	103198
6.14055	108078
6.14868	107568
6.15680	107807
6.16493	119484
6.17305	203735
6.18117	494210
6.18930	1143593
6.19742	1778011
6.20553	1753502
6.21367	1089831
6.22178	487321
6.22992	208784
6.23803	141105
6.24615	120115
6.25428	137320
6.26240	202704
6.27053	391194
6.27865	773068
6.28677	1070365
6.29490	1031860
6.30302	671207
6.31115	327562
6.31927	170230
6.32738	121138
6.33552	110368
6.34363	105006
6.35175	102633
6.35988	106715
6.36800	104462
6.37613	102608
6.38425	100990
6.39237	97119
6.40050	102081
6.40862	99001
6.41675	93924
6.42487	98096
6.43298	107572
6.44112	108118
6.44923	102246
6.45737	109685
6.46548	108411
6.47360	100292
6.48173	111743
6.48985	113161
6.49797	115170
6.50610	115155
6.51422	122575
6.52235	129118
6.53047	128288
6.53858	144367
6.54672	157026
6.55483	174922
6.56297	161028
6.57108	148108
6.57920	146855
6.58733	145369
6.59545	152802
6.60358	158139
6.61170	158943
6.61982	159912
6.62795	166585
6.63607	163121
6.64418	169781
6.65232	166579
6.66043	181550
6.66857	183859
6.67668	188216
6.68480	186839
6.69293	187117
6.70105	192145
6.70918	194289
6.71730	197315
6.72542	200089
6.73355	203548
6.74167	205854
6.74978	210864
6.75792	214660
6.76603	224942
6.77417	227259
6.78228	228968
6.79040	228776
6.79853	228146
6.80665	182338
6.81478	169851
6.82290	161239
6.83102	153580
6.83915	148921
6.84727	143012
6.85540	148310
6.86352	158375
6.87163	181208
6.87977	203499
6.88788	209599
6.89600	203332
6.90413	168710
6.91225	148661
6.92038	132849
6.92850	135289
6.93662	124578
6.94475	136568
6.95287	142894
6.96100	185842
6.96912	299742
6.97723	376821
6.98537	371752
6.99348	307420
7.00162	205082
7.00973	170969
7.01785	156522
7.02598	139051
7.03410	131321
7.04222	112456
7.05035	103451
7.05847	111106
7.06660	97585
7.07472	94240
7.08283	89946
7.09097	93682
7.09908	88523
7.10722	87265
7.11533	93225
7.12345	88400
7.13158	90356
7.13970	88109
7.14782	87368
7.15595	88877
7.16407	90686
7.17220	92359
7.18032	95920
7.18843	106672
7.19657	117889
7.20468	107190
7.21282	97933
7.22093	94631
7.22905	94642
7.23718	89938
7.24530	90068
7.25343	94584
7.26155	87355
7.26967	84957
7.27780	89585
7.28592	92423
7.29403	106438
7.30217	129704
7.31028	140113
7.31842	127970
7.32653	108880
7.33465	97776
7.34278	88925
7.35090	85286
7.35903	91622
7.36715	88053
7.37527	84280
7.38340	85158
7.39152	82358
7.39965	84824
7.40777	81980
7.41588	81692
7.42402	84542
7.43213	85663
7.44025	82970
7.44838	80267
7.45650	80272
7.46463	77578
7.47275	84457
7.48087	83099
7.48900	87428
7.49712	82935
7.50525	86511
7.51337	86073
7.52148	80241
7.52962	82350
7.53773	81261
7.54585	81150
7.55398	78870
7.56210	76919
7.57023	82538
7.57835	79364
7.58647	86858
7.59460	77045
7.60272	85149
7.61085	81686
7.61897	84023
7.62708	80218
7.63522	71463
7.64333	79018
7.65147	83326
7.65958	82085
7.66770	82154
7.67583	81477
7.68395	87641
7.69207	78503
7.70020	81418
7.70832	79273
7.71645	78945
7.72457	89796
7.73268	81981
7.74082	82542
7.74893	90807
7.75707	72655
7.76518	85086
7.77330	83289
7.78143	92600
7.78955	99762
7.79768	97523
7.80580	92360
7.81392	84893
7.82205	85621
7.83017	82406
7.83828	87910
7.84642	79555
7.85453	78157
7.86267	76513
7.87078	88421
7.87890	77698
7.88703	81995
7.89515	77032
7.90328	83150
7.91140	78251
7.91952	83807
7.92765	86217
7.93577	78435
7.94390	76551
7.95202	77098
7.96013	81981
7.96827	79292
7.97638	80504
7.98450	84465
7.99263	73810
8.00075	77115
8.00888	71846
8.01700	72302
8.02512	73516
8.03325	76219
8.04137	79061
8.04950	76562
8.05762	74806
8.06573	74638
8.07387	76724
8.08198	74105
8.09010	72304
8.09823	72491
8.10635	70461
8.11448	68636
8.12260	75904
8.13072	73421
8.13885	77584
8.14697	76756
8.15510	73454
8.16322	71800
8.17133	74236
8.17947	97242
8.18758	122175
8.19572	164200
8.20383	192711
8.21195	211541
8.22008	231919
8.22820	258310
8.23632	264371
8.24445	231692
8.25257	176029
8.26070	123362
8.26882	94770
8.27693	78347
8.28507	73402
8.29318	77853
8.30132	70957
8.30943	75534
8.31755	86623
8.32568	76157
8.33380	70396
8.34193	72452
8.35005	75937
8.35817	72081
8.36630	72577
8.37442	78954
8.38253	71743
8.39067	71121
8.39878	68964
8.40692	75989
8.41503	67403
8.42315	71069
8.43128	71422
8.43940	69479
8.44753	73109
8.45565	77029
8.46377	91383
8.47190	81051
8.48002	78009
8.48813	74286
8.49627	70866
8.50438	81256
8.51252	69443
8.52063	72353
8.52875	71972
8.53688	69003
8.54500	69755
8.55313	67680
8.56125	71584
8.56937	75425
8.57750	72066
8.58562	73622
8.59375	71721
8.60187	74331
8.60998	74654
8.61812	73799
8.62623	71586
8.63435	71876
8.64248	82718
8.65060	68701
8.65873	67891
8.66685	67623
8.67497	64881
8.68310	73843
8.69122	70070
8.69935	72465
8.70747	73657
8.71558	69580
8.72372	73756
8.73183	74049
8.73997	75862
8.74808	72663
8.75620	83333
8.76433	81717
8.77245	72518
8.78057	76041
8.78870	81109
8.79682	102740
8.80495	103554
8.81307	103309
8.82118	106137
8.82932	85396
8.83743	72020
8.84557	68124
8.85368	68625
8.86180	78318
8.86993	81243
8.87805	84725
8.88617	81619
8.89430	79221
8.90242	77228
8.91055	70069
8.91867	66767
8.92678	69323
8.93492	64894
8.94303	67763
8.95117	65715
8.95928	65165
8.96740	64369
8.97553	64375
8.98365	67344
8.99178	62964
8.99990	66751
9.00802	70261
9.01615	83435
9.02427	116309
9.03238	195646
9.04052	265990
9.04863	309954
9.05677	301997
9.06488	237219
9.07300	195938
9.08113	156927
9.08925	139844
9.09738	130008
9.10550	131558
9.11362	115159
9.12175	112626
9.12987	111297
9.13800	120431
9.14612	109626
9.15423	109272
9.16237	108545
9.17048	104120
9.17860	103230
9.18673	101048
9.19485	96554
9.20298	102593
9.21110	97361
9.21922	94823
9.22735	108595
9.23547	109914
9.24360	100257
9.25172	103939
9.25983	103473
9.26797	100395
9.27608	97506
9.28422	96772
9.29233	98969
9.30045	94102
9.30858	90024
9.31670	90489
9.32482	87922
9.33295	93286
9.34107	90645
9.34920	92305
9.35732	90098
9.36543	85763
9.37357	85640
9.38168	83914
9.38982	86691
9.39793	87609
9.40605	78414
9.41418	84930
9.42230	80693
9.43042	80999
9.43855	83727
9.44667	79093
9.45480	83404
9.46292	85252
9.47103	92286
9.47917	80683
9.48728	79934
9.49542	80020
9.50353	81806
9.51165	77194
9.51978	79939
9.52790	81374
9.53603	79408
9.54415	73915
9.55227	76217
9.56040	79423
9.56852	74482
9.57663	77200
9.58477	74952
9.59288	75103
9.60102	75924
9.60913	69397
9.61725	73383
9.62538	79794
9.63350	91498
9.64163	91495
9.64975	96668
9.65787	85409
9.66600	81125
9.67412	78247
9.68225	74122
9.69037	71525
9.69848	71314
9.70662	69518
9.71473	69818
9.72285	71888
9.73098	69925
9.73910	71603
9.74723	71687
9.75535	71083
9.76347	72677
9.77160	71638
9.77972	69659
9.78785	71109
9.79597	66102
9.80408	61741
9.81222	55976
9.82033	54890
9.82845	51227
9.83658	53043
9.84470	56815
9.85283	56800
9.86095	56054
9.86907	67440
9.87720	64563
9.88532	64470
9.89345	71803
9.90157	72640
9.90968	68518
9.91782	62846
9.92593	63770
9.93407	58196
9.94218	66367
9.95030	63043
9.95843	63622
9.96655	67748
9.97467	65046
9.98280	65301
9.99092	75032
9.99905	158556
10.00717	464947
10.01528	1332185
10.02342	2998667
10.03153	5148678
10.03967	6497153
10.04778	6017492
10.05590	4111702
10.06403	2108631
10.07215	879376
10.08028	354010
10.08840	168077
10.09652	121897
10.10465	108174
10.11277	98091
10.12088	100654
10.12902	92156
10.13713	91306
10.14527	83437
10.15338	78412
10.16150	74041
10.16963	75621
10.17775	74044
10.18588	70776
10.19400	72226
10.20212	74848
10.21025	80025
10.21837	75944
10.22648	75187
10.23462	65804
10.24273	68676
10.25087	70821
10.25898	66426
10.26710	65154
10.27523	73800
10.28335	79328
10.29148	73258
10.29960	73092
10.30772	77266
10.31585	74236
10.32397	70068
10.33210	78858
10.34022	72679
10.34833	76930
10.35647	72433
10.36458	77116
10.37270	69715
10.38083	67049
10.38895	60956
10.39708	59937
10.40520	61836
10.41332	62451
10.42145	65324
10.42957	62632
10.43770	57549
10.44582	57528
10.45393	66947
10.46207	62479
10.47018	62648
10.47832	62401
10.48643	56733
10.49455	54893
10.50268	57592
10.51080	56371
10.51892	58996
10.52705	61396
10.53517	57075
10.54330	60797
10.55142	71165
10.55953	75848
10.56767	85805
10.57578	94510
10.58392	86870
10.59203	83887
10.60015	73389
10.60828	61866
10.61640	62173
10.62453	60822
10.63265	56020
10.64077	62077
10.64890	65668
10.65702	63176
10.66513	75756
10.67327	76078
10.68138	75075
10.68952	75130
10.69763	87860
10.70575	92187
10.71388	85669
10.72200	81355
10.73013	66296
10.73825	61790
10.74637	60087
10.75450	58822
10.76262	58853
10.77073	63590
10.77887	57786
10.78698	64854
10.79512	58193
10.80323	55419
10.81135	59248
10.81948	53303
10.82760	53802
10.83573	58458
10.84385	61453
10.85197	56703
10.86010	59922
10.86822	64090
10.87635	69025
10.88447	63381
10.89258	67904
10.90072	60212
10.90883	58811
10.91695	60281
10.92508	59759
10.93320	56245
10.94133	60131
10.94945	58695
10.95757	68673
10.96570	91008
10.97382	111390
10.98195	137960
10.99007	148098
10.99818	143571
11.00632	109348
11.01443	82329
11.02257	64026
11.03068	56799
11.03880	55238
11.04693	52773
11.05505	50170
11.06317	52229
11.07130	54019
11.07942	54785
11.08755	54007
11.09567	55736
11.10378	54428
11.11192	64981
11.12003	54171
11.12817	55829
11.13628	56749
11.14440	61096
11.15253	57451
11.16065	56328
11.16877	55096
11.17690	51984
11.18502	59110
11.19315	53050
11.20127	62159
11.20938	55318
11.21752	52138
11.22563	51175
11.23377	53635
11.24188	56328
11.25000	58928
11.25813	60997
11.26625	53881
11.27438	50642
11.28250	49060
11.29062	50888
11.29875	55598
11.30687	58546
11.31498	61217
11.32312	68264
11.33123	72511
11.33937	70092
11.34748	62096
11.35560	61157
11.36373	60051
11.37185	53103
11.37998	59906
11.38810	55267
11.39622	62707
11.40435	84566
11.41247	134243
11.42060	261823
11.42872	495033
11.43683	835440
11.44497	1261346
11.45308	1556176
11.46120	1541033
11.46933	1206155
11.47745	744976
11.48558	383293
11.49370	196002
11.50182	104360
11.50995	73831
11.51807	61519
11.52620	63410
11.53432	59032
11.54243	60286
11.55057	60824
11.55868	58886
11.56680	62180
11.57493	63188
11.58305	56227
11.59118	54041
11.59930	50189
11.60742	58476
11.61555	47416
11.62367	50621
11.63180	53682
11.63992	54310
11.64803	55302
11.65617	58952
11.66428	57257
11.67242	54344
11.68053	55528
11.68865	52146
11.69678	51199
11.70490	58116
11.71302	55344
11.72115	54526
11.72927	53074
11.73740	54569
11.74552	58318
11.75363	52117
11.76177	49194
11.76988	52343
11.77802	58578
11.78613	53365
11.79425	54950
11.80238	51910
11.81050	50840
11.81863	56786
11.82675	59129
11.83487	70185
11.84300	73508
11.85112	74464
11.85923	70758
11.86737	67901
11.87548	65500
11.88362	54708
11.89173	60775
11.89985	57051
11.90798	57089
11.91610	57848
11.92423	67364
11.93235	57618
11.94047	69510
11.94860	59898
11.95672	65558
11.96485	72553
11.97297	69070
11.98108	72748
11.98922	62371
11.99733	57234
12.00545	54011
12.01358	62654
12.02170	53983
12.02983	54508
12.03795	58340
12.04607	53507
12.05420	55018
12.06232	57717
12.07045	52289
12.07857	53246
12.08668	54118
12.09482	60647
12.10293	62072
12.11105	61221
12.11918	59469
12.12730	57412
12.13543	60735
12.14355	49496
12.15167	52638
12.15980	51609
12.16792	53950
12.17605	54256
12.18417	57581
12.19228	47886
12.20042	52045
12.20853	53053
12.21667	57818
12.22478	50423
12.23290	50643
12.24103	46294
12.24915	46119
12.25727	47776
12.26540	56637
12.27352	51101
12.28165	47828
12.28977	55489
12.29788	48207
12.30602	47819
12.31413	43765
12.32227	48152
12.33038	54912
12.33850	50676
12.34663	61840
12.35475	60014
12.36288	56491
12.37100	56286
12.37912	50440
12.38725	46083
12.39537	50552
12.40348	55902
12.41162	57915
12.41973	60725
12.42787	71063
12.43598	90345
12.44410	98472
12.45223	98927
12.46035	101291
12.46848	73934
12.47660	63062
12.48472	55153
12.49285	54370
12.50097	45764
12.50908	54207
12.51722	46689
12.52533	50203
12.53347	47912
12.54158	54240
12.54970	47128
12.55783	52738
12.56595	53199
12.57408	48534
12.58220	50596
12.59032	45773
12.59845	47181
12.60657	51782
12.61470	68809
12.62282	131118
12.63093	226715
12.63907	379489
12.64718	528803
12.65530	584748
12.66343	496556
12.67155	362432
12.67968	207262
12.68780	112482
12.69592	78093
12.70405	61043
12.71217	53800
12.72030	52096
12.72842	51209
12.73653	57956
12.74467	52172
12.75278	50216
12.76092	51869
12.76903	50760
12.77715	48991
12.78528	48670
12.79340	49908
12.80152	51201
12.80965	51606
12.81777	54900
12.82590	56199
12.83402	52736
12.84213	57505
12.85027	54441
12.85838	54645
12.86652	53176
12.87463	55047
12.88275	50939
12.89088	56114
12.89900	48547
12.90712	51861
12.91525	47451
12.92337	45886
12.93150	46731
12.93962	50135
12.94773	48047
12.95587	47670
12.96398	47768
12.97212	44830
12.98023	55745
12.98835	49491
12.99648	51187
13.00460	47142
13.01273	52702
13.02085	49818
13.02897	47891
13.03710	48165
13.04522	48561
13.05333	45143
13.06147	47478
13.06958	48403
13.07772	50331
13.08583	46608
13.09395	47547
13.10208	50282
13.11020	49657
13.11833	53682
13.12645	64254
13.13457	63068
13.14270	61993
13.15082	63774
13.15895	65743
13.16707	64329
13.17518	71144
13.18332	84265
13.19143	81557
13.19955	76529
13.20768	67583
13.21580	59829
13.22393	50839
13.23205	49627
13.24017	57598
13.24830	44456
13.25642	49362
13.26455	47166
13.27267	44892
13.28078	48372
13.28892	48137
13.29703	49230
13.30517	54878
13.31328	46833
13.32140	53101
13.32953	46850
13.33765	48455
13.34577	51387
13.35390	48059
13.36202	53846
13.37015	55654
13.37827	58525
13.38638	49856
13.39452	48348
13.40263	49962
13.41077	51553
13.41888	60089
13.42700	46897
13.43513	50916
13.44325	51408
13.45137	45259
13.45950	47404
13.46762	48431
13.47575	48094
13.48387	48556
13.49198	54887
13.50012	49034
13.50823	46733
13.51637	43104
13.52448	42764
13.53260	49747
13.54073	48355
13.54885	43194
13.55698	47149
13.56510	45592
13.57322	49958
13.58135	46765
13.58947	49456
13.59758	53726
13.60572	52428
13.61383	47445
13.62197	48544
13.63008	45381
13.63820	46035
13.64633	46364
13.65445	46357
13.66258	48795
13.67070	45964
13.67882	46935
13.68695	46676
13.69507	47242
13.70320	46923
13.71132	47042
13.71943	48695
13.72757	51381
13.73568	50138
13.74380	53742
13.75193	46696
13.76005	46161
13.76818	48101
13.77630	54861
13.78442	48030
13.79255	49498
13.80067	46697
13.80880	50091
13.81692	42817
13.82503	43874
13.83317	42922
13.84128	51302
13.84940	45849
13.85753	47132
13.86565	42612
13.87378	44981
13.88190	46846
13.89002	44765
13.89815	48146
13.90627	45086
13.91440	49182
13.92252	49227
13.93063	44155
13.93877	55194
13.94688	44901
13.95502	48848
13.96313	46333
13.97125	44734
13.97938	50987
13.98750	47201
13.99562	56836
14.00375	64721
14.01187	77243
14.02000	128990
14.02812	177953
14.03623	216123
14.04437	213351
14.05248	185698
14.06062	123180
14.06873	90944
14.07685	60848
14.08498	51574
14.09310	52259
14.10123	56793
14.10935	53791
14.11747	52612
14.12560	55760
14.13372	60219
14.14183	53517
14.14997	56223
14.15808	47322
14.16622	56554
14.17433	49648
14.18245	50954
14.19058	55558
14.19870	60310
14.20683	60028
14.21495	62691
14.22307	58330
14.23120	58549
14.23932	62193
14.24743	54542
14.25557	52802
14.26368	59794
14.27182	54379
14.27993	48167
14.28805	48890
14.29618	53785
14.30430	52235
14.31243	49045
14.32055	48580
14.32867	50862
14.33680	53395
14.34492	48223
14.35305	46796
14.36117	49759
14.36928	47257
14.37742	44376
14.38553	43402
14.39365	48566
14.40178	48263
14.40990	46437
14.41803	48422
14.42615	45248
14.43427	46648
14.44240	52279
14.45052	49928
14.45865	59147
14.46677	72111
14.47488	89352
14.48302	116711
14.49113	125814
14.49927	121608
14.50738	106990
14.51550	97524
14.52363	89874
14.53175	91575
14.53987	96726
14.54800	111936
14.55612	127975
14.56425	152784
14.57237	169298
14.58048	160435
14.58862	140347
14.59673	109479
14.60487	93886
14.61298	83241
14.62110	70191
14.62923	64384
14.63735	65894
14.64548	70718
14.65360	91007
14.66172	97630
14.66985	112148
14.67797	109099
14.68608	101771
14.69422	73904
14.70233	62980
14.71047	54652
14.71858	50349
14.72670	50423
14.73483	53310
14.74295	55055
14.75108	48757
14.75920	51284
14.76732	50026
14.77545	52367
14.78357	55563
14.79168	56259
14.79982	49803
14.80793	49146
14.81607	49719
14.82418	47253
14.83230	48802
14.84043	47202
14.84855	55529
14.85668	51104
14.86480	59714
14.87292	51998
14.88105	54915
14.88917	51659
14.89730	50573
14.90542	48532
14.91353	47842
14.92167	44908
14.92978	51490
14.93790	51117
14.94603	57551
14.95415	55068
14.96228	51828
14.97040	48119
14.97852	52262
14.98665	54181
14.99477	50805
15.00290	48136
15.01102	46771
15.01913	47198
15.02727	47150
15.03538	51243
15.04352	47317
15.05163	49220
15.05975	47767
15.06788	44846
15.07600	48219
15.08412	43936
15.09225	44238
15.10037	49195
15.10850	47599
15.11662	44371
15.12473	54549
15.13287	45526
15.14098	46890
15.14912	46582
15.15723	46987
15.16535	44510
15.17348	49190
15.18160	47105
15.18973	43543
15.19785	46386
15.20597	46076
15.21410	48828
15.22222	44559
15.23033	43560
15.23847	46950
15.24658	50937
15.25472	69419
15.26283	73239
15.27095	74290
15.27908	68917
15.28720	63106
15.29533	53076
15.30345	50961
15.31157	51539
15.31970	48747
15.32782	43509
15.33593	48932
15.34407	46873
15.35218	48532
15.36032	48588
15.36843	45021
15.37655	45289
15.38468	48837
15.39280	46285
15.40093	47568
15.40905	48849
15.41717	48248
15.42530	44674
15.43342	47075
15.44155	52184
15.44967	46478
15.45778	44944
15.46592	45282
15.47403	46734
15.48215	46672
15.49028	45210
15.49840	44791
15.50653	54412
15.51465	46507
15.52277	43496
15.53090	42998
15.53902	44014
15.54715	47042
15.55527	52708
15.56338	44536
15.57152	43572
15.57963	48297
15.58777	44018
15.59588	46025
15.60400	45298
15.61213	42756
15.62025	46971
15.62837	49988
15.63650	43609
15.64462	48982
15.65275	48735
15.66087	45837
15.66898	54802
15.67712	54888
15.68523	47126
15.69337	47957
15.70148	46222
15.70960	42572
15.71773	45763
15.72585	46513
15.73397	45358
15.74210	55213
15.75022	44887
15.75835	46290
15.76647	46929
15.77458	42670
15.78272	47094
15.79083	54832
15.79897	46004
15.80708	47634
15.81520	44204
15.82333	43069
15.83145	44090
15.83958	46732
15.84770	46624
15.85582	48038
15.86395	45975
15.87207	46158
15.88018	45309
15.88832	46416
15.89643	51830
15.90457	44204
15.91268	45035
15.92080	45327
15.92893	45919
15.93705	47628
15.94518	43815
15.95330	46021
15.96142	44888
15.96955	44344
15.97767	47703
15.98580	49409
15.99392	52496
16.00203	51860
16.01017	49466
16.01828	49509
16.02640	44690
16.03453	42450
16.04265	40650
16.05078	44971
16.05890	45293
16.06702	47746
16.07515	47367
16.08327	43258
16.09140	41459
16.09952	46482
16.10763	42069
16.11577	46471
16.12388	43668
16.13202	41484
16.14013	48793
16.14825	44515
16.15638	42707
16.16450	43151
16.17262	53547
16.18075	46040
16.18887	47636
16.19700	55025
16.20512	47077
16.21323	55986
16.22137	71409
16.22948	79757
16.23762	71988
16.24573	67339
16.25385	64586
16.26198	60913
16.27010	44701
16.27822	45924
16.28635	51694
16.29447	54519
16.30260	46439
16.31072	50160
16.31883	51887
16.32697	54530
16.33508	59471
16.34322	69665
16.35133	73538
16.35945	77668
16.36758	64854
16.37570	60458
16.38383	56274
16.39195	51859
16.40007	48545
16.40820	50748
16.41632	53075
16.42443	63023
16.43257	81222
16.44068	99043
16.44882	107064
16.45693	116515
16.46505	97048
16.47318	79437
16.48130	67625
16.48943	59261
16.49755	60661
16.50567	52134
16.51380	59161
16.52192	51520
16.53005	52349
16.53817	50481
16.54628	48865
16.55442	53269
16.56253	47555
16.57065	48063
16.57878	59538
16.58690	44225
16.59503	49700
16.60315	51038
16.61127	50293
16.61940	50836
16.62752	52392
16.63565	49488
16.64377	48718
16.65188	46976
16.66002	47487
16.66813	45937
16.67625	48583
16.68438	46686
16.69250	45032
16.70063	48099
16.70875	48924
16.71687	48433
16.72500	46270
16.73312	43788
16.74125	43486
16.74937	47761
16.75748	47943
16.76562	46689
16.77373	48791
16.78187	45700
16.78998	46617
16.79810	48792
16.80623	49108
16.81435	50151
16.82247	47896
16.83060	51567
16.83872	48367
16.84685	46749
16.85497	49720
16.86308	46448
16.87122	44709
16.87933	44672
16.88747	50213
16.89558	43667
16.90370	45762
16.91183	48984
16.91995	46120
16.92808	53215
16.93620	53444
16.94432	46754
16.95245	47293
16.96057	44731
16.96868	45078
16.97682	44925
16.98493	53206
16.99307	46860
17.00118	53618
17.00930	43968
17.01743	42440
17.02555	42498
17.03368	47828
17.04180	42160
17.04992	48814
17.05805	43676
17.06617	43560
17.07428	45722
17.08242	46401
17.09053	60620
17.09867	56078
17.10678	57974
17.11490	56105
17.12303	58294
17.13115	56368
17.13928	58694
17.14740	44428
17.15552	49089
17.16365	59635
17.17177	66279
17.17990	67377
17.18802	69140
17.19613	74056
17.20427	67228
17.21238	58141
17.22050	51577
17.22863	47535
17.23675	44927
17.24488	44987
17.25300	50110
17.26112	47061
17.26925	46606
17.27737	45404
17.28550	46268
17.29362	44819
17.30173	45923
17.30987	45854
17.31798	48495
17.32612	51887
17.33423	42058
17.34235	47545
17.35048	48816
17.35860	46931
17.36672	42875
17.37485	45977
17.38297	47464
17.39110	46993
17.39922	48136
17.40733	45503
17.41547	48743
17.42358	46737
17.43172	43642
17.43983	48023
17.44795	48628
17.45608	51937
17.46420	54758
17.47233	45200
17.48045	45930
17.48857	43144
17.49670	44010
17.50482	48213
17.51293	56295
17.52107	44446
17.52918	48629
17.53732	45741
17.54543	53008
17.55355	48940
17.56168	57154
17.56980	44863
17.57793	45823
17.58605	45396
17.59417	46583
17.60230	43325
17.61042	45243
17.61853	45110
17.62667	48836
17.63478	52472
17.64292	47194
17.65103	49984
17.65915	48354
17.66728	44839
17.67540	48157
17.68353	49699
17.69165	47516
17.69977	46158
17.70790	46096
17.71602	48041
17.72415	52055
17.73227	49667
17.74038	47567
17.74852	53902
17.75663	46647
17.76475	53816
17.77288	50558
17.78100	59103
17.78913	55241
17.79725	54047
17.80537	62479
17.81350	50651
17.82162	53280
17.82975	51408
17.83787	52193
17.84598	59744
17.85412	50276
17.86223	48729
17.87037	50895
17.87848	45317
17.88660	50480
17.89473	48494
17.90285	47428
17.91097	48026
17.91910	52197
17.92722	53088
17.93535	45687
17.94347	47386
17.95158	45443
17.95972	45563
17.96783	56941
17.97597	57238
17.98408	56590
17.99220	56783
18.00033	52455
18.00845	57958
18.01657	53899
18.02470	51305
18.03282	50936
18.04095	51879
18.04907	47721
18.05718	51781
18.06532	51355
18.07343	60659
18.08157	53658
18.08968	53483
18.09780	53524
18.10593	55738
18.11405	54205
18.12218	56889
18.13030	52527
18.13842	50437
18.14655	47710
18.15467	50668
18.16278	47797
18.17092	48419
18.17903	52077
18.18717	53251
18.19528	46330
18.20340	48005
18.21153	44575
18.21965	46622
18.22778	47495
18.23590	48983
18.24402	52621
18.25215	49206
18.26027	58051
18.26840	56371
18.27652	57473
18.28463	57528
18.29277	53663
18.30088	56681
18.30900	57766
18.31713	60142
18.32525	58593
18.33338	49213
18.34150	50561
18.34962	48128
18.35775	54812
18.36587	56617
18.37400	49928
18.38212	55553
18.39023	55543
18.39837	56560
18.40648	56237
18.41460	50780
18.42273	47693
18.43085	53183
18.43898	50526
18.44710	49692
18.45522	49068
18.46335	46837
18.47147	48385
18.47960	48089
18.48772	46525
18.49583	48111
18.50397	49797
18.51208	53490
18.52022	53359
18.52833	52978
18.53645	54831
18.54458	55159
18.55270	55817
18.56082	51164
18.56895	55932
18.57707	55087
18.58520	54493
18.59332	50651
18.60143	50582
18.60957	48540
18.61768	53950
18.62582	49676
18.63393	46041
18.64205	46939
18.65018	51974
18.65830	52183
18.66643	59171
18.67455	56744
18.68267	61709
18.69080	75934
18.69892	74559
18.70703	80586
18.71517	80257
18.72328	82536
18.73142	79084
18.73953	88017
18.74765	81966
18.75578	77156
18.76390	86463
18.77203	73633
18.78015	79271
18.78827	78772
18.79640	72343
18.80452	76407
18.81265	74008
18.82077	75263
18.82888	70872
18.83702	69151
18.84513	76212
18.85325	70359
18.86138	69050
18.86950	64813
18.87763	71411
18.88575	58232
18.89387	64866
18.90200	62152
18.91012	61233
18.91825	64584
18.92637	59013
18.93448	62832
18.94262	65561
18.95073	64965
18.95885	72319
18.96698	61375
18.97510	60835
18.98323	59496
18.99135	57088
18.99947	57014
19.00760	66780
19.01572	58426
19.02385	69358
19.03197	78595
19.04008	85214
19.04822	88247
19.05633	82326
19.06447	73011
19.07258	65500
19.08070	58943
19.08883	53574
19.09695	55062
19.10507	53763
19.11320	53666
19.12132	53732
19.12945	48399
19.13757	48274
19.14568	53469
19.15382	51190
19.16193	51381
19.17007	50666
19.17818	52284
19.18630	51666
19.19443	51424
19.20255	49336
19.21068	53507
19.21880	55460
19.22692	54088
19.23505	59748
19.24317	51649
19.25128	56668
19.25942	51113
19.26753	50897
19.27567	52259
19.28378	53438
19.29190	53117
19.30003	61366
19.30815	51605
19.31628	55299
19.32440	54213
19.33252	52076
19.34065	51520
19.34877	50733
19.35688	55793
19.36502	52061
19.37313	53268
19.38127	51921
19.38938	56886
19.39750	54405
19.40563	52854
19.41375	52644
19.42188	58714
19.43000	49985
19.43812	56662
19.44625	51664
19.45437	49428
19.46250	49661
19.47062	51849
19.47873	50287
19.48687	50474
19.49498	49212
19.50310	57467
19.51123	51144
19.51935	50243
19.52748	54098
19.53560	59640
19.54372	66629
19.55185	66990
19.55997	68061
19.56810	71000
19.57622	71703
19.58433	62431
19.59247	60772
19.60058	56223
19.60872	60514
19.61683	55566
19.62495	55022
19.63308	55487
19.64120	54039
19.64932	54016
19.65745	52188
19.66557	60086
19.67370	51206
19.68182	48893
19.68993	56466
19.69807	56218
19.70618	65400
19.71432	69465
19.72243	83643
19.73055	85397
19.73868	85850
19.74680	79177
19.75492	71061
19.76305	67243
19.77117	60765
19.77930	65246
19.78742	77750
19.79553	93908
19.80367	109290
19.81178	118418
19.81992	109368
19.82803	96256
19.83615	80672
19.84428	70152
19.85240	60615
19.86053	63638
19.86865	53590
19.87677	54097
19.88490	58438
19.89302	50913
19.90113	53249
19.90927	49982
19.91738	50236
19.92552	52751
19.93363	47261
19.94175	48524
19.94988	50135
19.95800	46040
19.96613	50346
19.97425	47551
19.98237	59949
19.99050	59230
19.99862	51230
20.00675	52166
20.01487	51606
20.02298	72126
20.03112	93379
20.03923	125692
20.04735	173713
20.05548	206677
20.06360	207002
20.07173	198895
20.07985	165666
20.08797	133880
20.09610	110989
20.10422	96841
20.11235	88340
20.12047	80266
20.12858	77034
20.13672	67203
20.14483	60085
20.15297	59210
20.16108	55452
20.16920	57324
20.17733	64574
20.18545	55879
20.19357	56976
20.20170	52592
20.20982	54572
20.21795	52138
20.22607	51189
20.23418	55921
20.24232	54436
20.25043	55982
20.25857	62900
20.26668	53212
20.27480	51610
20.28293	53336
20.29105	58896
20.29917	51425
20.30730	52430
20.31542	49088
20.32355	50383
20.33167	51351
20.33978	47843
20.34792	54108
20.35603	53948
20.36417	56697
20.37228	60731
20.38040	64698
20.38853	67246
20.39665	67731
20.40478	59551
20.41290	53673
20.42102	52204
20.42915	53093
20.43727	49839
20.44538	55669
20.45352	50389
20.46163	59015
20.46977	53199
20.47788	47074
20.48600	48854
20.49413	52523
20.50225	49594
20.51038	51343
20.51850	49742
20.52662	55854
20.53475	49804
20.54287	51618
20.55100	44312
20.55912	51542
20.56723	49035
20.57537	49165
20.58348	57446
20.59160	75978
20.59973	88132
20.60785	116319
20.61598	149151
20.62410	163967
20.63222	172233
20.64035	166272
20.64847	140407
20.65660	126965
20.66472	100799
20.67283	81664
20.68097	84237
20.68908	70136
20.69720	65165
20.70533	59491
20.71345	58841
20.72158	57395
20.72970	55051
20.73782	54225
20.74595	60159
20.75407	56206
20.76220	60394
20.77032	79876
20.77843	79470
20.78657	85603
20.79468	87388
20.80282	87363
20.81093	78091
20.81905	73234
20.82718	71662
20.83530	77638
20.84342	66707
20.85155	66506
20.85967	63083
20.86780	62894
20.87592	70272
20.88403	57263
20.89217	56376
20.90028	61386
20.90842	62468
20.91653	52888
20.92465	51752
20.93278	51204
20.94090	50853
20.94903	53439
20.95715	52122
20.96527	53116
20.97340	49065
20.98152	50918
20.98963	48061
20.99777	60312
21.00588	49726
21.01402	58447
21.02213	47894
21.03025	58724
21.03838	49731
21.04650	55742
21.05463	53683
21.06275	47699
21.07087	47942
21.07900	49057
21.08712	51590
21.09523	55303
21.10337	59153
21.11148	47389
21.11962	46296
21.12773	49056
21.13585	50631
21.14398	49717
21.15210	49028
21.16023	50137
21.16835	50574
21.17647	49032
21.18460	49220
21.19272	46431
21.20085	47647
21.20897	50555
21.21708	58864
21.22522	66220
21.23333	97938
21.24145	168634
21.24958	287659
21.25770	435325
21.26583	547140
21.27395	575101
21.28207	459146
21.29020	298268
21.29832	181697
21.30645	117777
21.31457	71428
21.32268	70777
21.33082	58095
21.33893	58821
21.34707	58119
21.35518	57317
21.36330	56184
21.37143	57783
21.37955	54604
21.38767	59408
21.39580	58036
21.40392	56584
21.41205	55086
21.42017	54526
21.42828	56393
21.43642	54631
21.44453	53203
21.45267	50528
21.46078	52788
21.46890	53975
21.47703	53018
21.48515	51956
21.49328	54939
21.50140	51754
21.50952	48560
21.51765	61331
21.52577	50937
21.53388	47298
21.54202	52222
21.55013	51141
21.55827	49862
21.56638	59276
21.57450	51219
21.58263	59538
21.59075	53587
21.59888	60572
21.60700	54669
21.61512	61063
21.62325	57728
21.63137	61142
21.63948	60296
21.64762	62236
21.65573	54644
21.66387	53234
21.67198	52096
21.68010	50831
21.68823	48796
21.69635	52218
21.70448	53306
21.71260	52939
21.72072	56206
21.72885	52481
21.73697	50244
21.74510	56803
21.75322	54826
21.76133	53461
21.76947	54988
21.77758	54484
21.78570	54691
21.79383	51990
21.80195	54726
21.81008	51838
21.81820	51748
21.82632	53430
21.83445	46058
21.84257	49544
21.85070	50107
21.85882	56726
21.86693	49869
21.87507	50749
21.88318	50009
21.89132	51189
21.89943	47685
21.90755	50148
21.91568	48634
21.92380	56312
21.93192	59583
21.94005	61871
21.94817	70555
21.95630	81330
21.96442	83315
21.97253	86647
21.98067	79768
21.98878	74147
21.99692	64279
22.00503	64886
22.01315	57674
22.02128	63989
22.02940	58896
22.03752	56830
22.04565	57510
22.05377	54910
22.06190	52471
22.07002	52549
22.07813	52018
22.08627	51568
22.09438	51567
22.10252	54121
22.11063	52448
22.11875	57972
22.12688	57078
22.13500	65797
22.14313	68492
22.15125	74986
22.15937	80638
22.16750	92039
22.17562	78305
22.18373	73782
22.19187	66288
22.19998	64038
22.20812	63215
22.21623	61523
22.22435	57708
22.23248	55283
22.24060	59480
22.24873	58090
22.25685	58006
22.26497	62032
22.27310	62973
22.28122	58401
22.28935	57145
22.29747	53096
22.30558	59646
22.31372	52744
22.32183	53079
22.32995	56341
22.33808	57030
22.34620	56368
22.35433	63081
22.36245	66665
22.37057	56785
22.37870	52233
22.38682	52892
22.39495	53372
22.40307	55325
22.41118	55104
22.41932	56949
22.42743	52107
22.43555	55794
22.44368	59356
22.45180	63953
22.45993	58100
22.46805	65393
22.47617	56094
22.48430	57973
22.49242	52836
22.50055	56470
22.50867	53661
22.51678	55426
22.52492	57877
22.53303	58172
22.54117	62791
22.54928	70684
22.55740	72566
22.56553	75916
22.57365	78957
22.58177	89613
22.58990	83508
22.59802	78220
22.60615	66886
22.61427	62386
22.62238	54060
22.63052	56657
22.63863	55052
22.64677	57686
22.65488	60765
22.66300	54659
22.67113	53266
22.67925	53350
22.68738	57549
22.69550	53681
22.70362	56589
22.71175	55641
22.71987	57380
22.72798	59714
22.73612	56282
22.74423	56390
22.75237	57504
22.76048	57929
22.76860	61139
22.77673	66195
22.78485	73466
22.79298	78127
22.80110	78022
22.80922	77278
22.81735	75887
22.82547	74125
22.83360	73275
22.84172	66497
22.84983	68456
22.85797	62151
22.86608	60934
22.87420	66836
22.88233	65273
22.89045	58838
22.89858	59593
22.90670	61902
22.91482	58419
22.92295	56584
22.93107	58913
22.93920	54599
22.94732	57095
22.95543	59252
22.96357	58998
22.97168	63150
22.97980	61229
22.98793	59740
22.99605	60585
23.00418	61324
23.01230	63740
23.02042	61779
23.02855	57507
23.03667	56822
23.04480	55414
23.05292	52084
23.06103	53434
23.06917	52389
23.07728	56616
23.08542	56381
23.09353	59634
23.10165	59988
23.10978	53550
23.11790	56686
23.12602	58101
23.13415	58608
23.14227	65169
23.15040	57678
23.15852	52342
23.16663	57406
23.17477	54281
23.18288	54939
23.19102	57390
23.19913	55636
23.20725	61809
23.21538	54180
23.22350	54003
23.23163	54857
23.23975	50617
23.24787	52196
23.25600	47686
23.26412	51600
23.27223	58023
23.28037	50525
23.28848	51746
23.29662	60811
23.30473	58185
23.31285	57437
23.32098	63123
23.32910	59589
23.33723	67014
23.34535	77081
23.35347	69913
23.36160	72058
23.36972	70563
23.37783	74487
23.38597	68536
23.39408	63844
23.40222	66440
23.41033	74105
23.41845	92672
23.42658	128929
23.43470	178474
23.44283	221357
23.45095	278771
23.45907	324928
23.46720	348218
23.47532	338478
23.48345	312122
23.49157	270753
23.49968	220346
23.50782	188666
23.51593	154345
23.52405	138002
23.53218	138509
23.54030	118306
23.54843	123788
23.55655	115786
23.56467	106979
23.57280	108831
23.58092	107956
23.58905	103378
23.59717	100557
23.60528	93217
23.61342	94900
23.62153	89036
23.62967	81670
23.63778	80517
23.64590	77809
23.65403	72712
23.66215	69071
23.67027	63484
23.67840	67720
23.68652	61759
23.69465	68586
23.70277	61933
23.71088	70320
23.71902	62575
23.72713	64714
23.73527	61853
23.74338	57147
23.75150	59901
23.75963	63301
23.76775	65066
23.77587	61942
23.78400	69273
23.79212	68644
23.80025	57622
23.80837	63352
23.81648	59315
23.82462	59052
23.83273	56702
23.84087	66602
23.84898	56958
23.85710	56205
23.86523	55788
23.87335	59186
23.88148	56715
23.88960	57137
23.89772	55647
23.90585	57165
23.91397	56115
23.92208	55045
23.93022	65219
23.93833	57989
23.94647	54111
23.95458	55623
23.96270	56192
23.97083	56136
23.97895	56583
23.98708	67851
23.99520	57074
24.00332	57896
24.01145	56664
24.01957	55231
24.02770	57470
24.03582	62189
24.04393	57943
24.05207	58138
24.06018	61698
24.06830	64708
24.07643	58929
24.08455	60540
24.09268	57133
24.10080	67983
24.10892	62840
24.11705	69900
24.12517	71598
24.13330	71308
24.14142	67859
24.14953	68631
24.15767	71219
24.16578	64967
24.17392	65456
24.18203	64928
24.19015	66546
24.19828	60677
24.20640	60363
24.21452	61509
24.22265	77615
24.23077	133025
24.23890	311923
24.24702	734835
24.25513	1545002
24.26327	2648901
24.27138	3469122
24.27952	3694153
24.28763	3200907
24.29575	2628446
24.30388	1996984
24.31200	1527059
24.32012	1169324
24.32825	922461
24.33637	740397
24.34450	610775
24.35262	514233
24.36073	415410
24.36887	355219
24.37698	295587
24.38512	262730
24.39323	229854
24.40135	210035
24.40948	187522
24.41760	173216
24.42573	160535
24.43385	149465
24.44197	144692
24.45010	135831
24.45822	132626
24.46633	124346
24.47447	111925
24.48258	113279
24.49072	104651
24.49883	99486
24.50695	96398
24.51508	98150
24.52320	104617
24.53133	101312
24.53945	101040
24.54757	92507
24.55570	94119
24.56382	93527
24.57195	83020
24.58007	86152
24.58818	78871
24.59632	78777
24.60443	79687
24.61255	75805
24.62068	77551
24.62880	77995
24.63693	75621
24.64505	84203
24.65317	77258
24.66130	92348
24.66942	90399
24.67755	95316
24.68567	99967
24.69378	106159
24.70192	117517
24.71003	116956
24.71815	119749
24.72628	114053
24.73440	100079
24.74253	105262
24.75065	95410
24.75877	89202
24.76690	90247
24.77502	84045
24.78315	82471
24.79127	76060
24.79938	80101
24.80752	77445
24.81563	83367
24.82377	84775
24.83188	84171
24.84000	80459
24.84813	84328
24.85625	73806
24.86437	67861
24.87250	69591
24.88062	73490
24.88875	64669
24.89687	68055
24.90498	69176
24.91312	67816
24.92123	64345
24.92937	65824
24.93748	64329
24.94560	64724
24.95373	64109
24.96185	70602
24.96998	65850
24.97810	64785
24.98622	66994
24.99435	66730
25.00247	60798
25.01058	68846
25.01872	62996
25.02683	58942
25.03497	60422
25.04308	64374
25.05120	63820
25.05933	60778
25.06745	68170
25.07558	67580
25.08370	59927
25.09182	71235
25.09995	71467
25.10807	64004
25.11618	61582
25.12432	61235
25.13243	63128
25.14057	64892
25.14868	63008
25.15680	71212
25.16493	65495
25.17305	66779
25.18118	68444
25.18930	58913
25.19742	61083
25.20555	61841
25.21367	64327
25.22180	56944
25.22992	63235
25.23803	59037
25.24617	61597
25.25428	65658
25.26240	63450
25.27053	67146
25.27865	63140
25.28678	69469
25.29490	65181
25.30302	62697
25.31115	67861
25.31927	61259
25.32740	70321
25.33552	62713
25.34363	72912
25.35177	64138
25.35988	60145
25.36802	71563
25.37613	63444
25.38425	70826
25.39238	60255
25.40050	60769
25.40862	61451
25.41675	64320
25.42487	58927
25.43300	61215
25.44112	59750
25.44923	67904
25.45737	59400
25.46548	63131
25.47362	74046
25.48173	61600
25.48985	59281
25.49798	64938
25.50610	64147
25.51423	63901
25.52235	71240
25.53047	63520
25.53860	63972
25.54672	64531
25.55483	66322
25.56297	64746
25.57108	65582
25.57922	65108
25.58733	61885
25.59545	64854
25.60358	70312
25.61170	71298
25.61983	75095
25.62795	84146
25.63607	82122
25.64420	84802
25.65232	87616
25.66043	77828
25.66857	77670
25.67668	71040
25.68482	71948
25.69293	68819
25.70105	67259
25.70918	64693
25.71730	71581
25.72543	63070
25.73355	65262
25.74167	62098
25.74980	73252
25.75792	63160
25.76605	61350
25.77417	67764
25.78228	70507
25.79042	69046
25.79853	66023
25.80665	70749
25.81478	80591
25.82290	80132
25.83103	71618
25.83915	71019
25.84727	74913
25.85540	69474
25.86352	63713
25.87165	66164
25.87977	66027
25.88788	67986
25.89602	70415
25.90413	73539
25.91227	77105
25.92038	83019
25.92850	92633
25.93663	87548
25.94475	89696
25.95287	96896
25.96100	81529
25.96912	79646
25.97725	72178
25.98537	68647
25.99348	74152
26.00162	67627
26.00973	71989
26.01787	66304
26.02598	65488
26.03410	62557
26.04223	64152
26.05035	66451
26.05847	77890
26.06660	67681
26.07472	60314
26.08285	63222
26.09097	58593
26.09908	63021
26.10722	63330
26.11533	66197
26.12347	65147
26.13158	72838
26.13970	67451
26.14783	66064
26.15595	59662
26.16408	67621
26.17220	70410
26.18032	61153
26.18845	59121
26.19657	63234
26.20468	59669
26.21282	60989
26.22093	61812
26.22907	65373
26.23718	69682
26.24530	68256
26.25343	67938
26.26155	68279
26.26968	64408
26.27780	59368
26.28592	62532
26.29405	61329
26.30217	66604
26.31030	73427
26.31842	65592
26.32653	67292
26.33467	81993
26.34278	94093
26.35090	104799
26.35903	119730
26.36715	122336
26.37528	108984
26.38340	99089
26.39152	86765
26.39965	81678
26.40777	85376
26.41590	84800
26.42402	101175
26.43213	101778
26.44027	101555
26.44838	105143
26.45650	84071
26.46463	73999
26.47275	69978
26.48088	68916
26.48900	64538
26.49712	61558
26.50525	62627
26.51337	63078
26.52150	63598
26.52962	59090
26.53773	60321
26.54587	67566
26.55398	65325
26.56212	77560
26.57023	71993
26.57835	67216
26.58648	63907
26.59460	61781
26.60272	62187
26.61085	63912
26.61897	65503
26.62710	70216
26.63522	70955
26.64333	69666
26.65147	73677
26.65958	73506
26.66772	76243
26.67583	76397
26.68395	75076
26.69208	68801
26.70020	63932
26.70833	65927
26.71645	64898
26.72457	70440
26.73270	61935
26.74082	64677
26.74893	65871
26.75707	58798
26.76518	60300
26.77332	65574
26.78143	61180
26.78955	58179
26.79768	65409
26.80580	65576
26.81393	61477
26.82205	60989
26.83017	68778
26.83830	68398
26.84642	69328
26.85455	84058
26.86267	92680
26.87078	87898
26.87892	82775
26.88703	84017
26.89515	86327
26.90328	71904
26.91140	75318
26.91953	68429
26.92765	65600
26.93577	63870
26.94390	70403
26.95202	65545
26.96015	69141
26.96827	84063
26.97638	76993
26.98452	79698
26.99263	89038
27.00075	87865
27.00888	88834
27.01700	81839
27.02513	85003
27.03325	72566
27.04137	71080
27.04950	72972
27.05762	69124
27.06575	67423
27.07387	74463
27.08198	67334
27.09012	69382
27.09823	72948
27.10637	71797
27.11448	74510
27.12260	73640
27.13073	67027
27.13885	68637
27.14697	69683
27.15510	69398
27.16322	69646
27.17135	65964
27.17947	68549
27.18758	71686
27.19572	72579
27.20383	68407
27.21197	64929
27.22008	66512
27.22820	66820
27.23633	64811
27.24445	67191
27.25258	74724
27.26070	83615
27.26882	79577
27.27695	78577
27.28507	79976
27.29318	82161
27.30132	75344
27.30943	71856
27.31757	74636
27.32568	74267
27.33380	70714
27.34193	73975
27.35005	71962
27.35818	68939
27.36630	71532
27.37442	73832
27.38255	69684
27.39067	72812
27.39878	82548
27.40692	83368
27.41503	115130
27.42317	183986
27.43128	278871
27.43940	396314
27.44753	539626
27.45565	630609
27.46378	690831
27.47190	680635
27.48002	619923
27.48815	540125
27.49627	472197
27.50440	396548
27.51252	335725
27.52063	273775
27.52877	236335
27.53688	214007
27.54500	184770
27.55313	173706
27.56125	145937
27.56938	141135
27.57750	132581
27.58562	119276
27.59375	108245
27.60187	110735
27.61000	103064
27.61812	97168
27.62623	104941
27.63437	92154
27.64248	92379
27.65062	89953
27.65873	94123
27.66685	88406
27.67498	94305
27.68310	90863
27.69122	99584
27.69935	102742
27.70747	88675
27.71560	88914
27.72372	81907
27.73183	81034
27.73997	80432
27.74808	79810
27.75622	77908
27.76433	84255
27.77245	77088
27.78058	74676
27.78870	72858
27.79682	77019
27.80495	77300
27.81307	83651
27.82120	73194
27.82932	78862
27.83743	86396
27.84557	76430
27.85368	80251
27.86182	79740
27.86993	82121
27.87805	76506
27.88618	73875
27.89430	74685
27.90243	73746
27.91055	75948
27.91867	72240
27.92680	79464
27.93492	74090
27.94303	74509
27.95117	72366
27.95928	76493
27.96742	79161
27.97553	72214
27.98365	74125
27.99178	70878
27.99990	72892
28.00803	74876
28.01615	72540
28.02427	72301
28.03240	72516
28.04052	69610
28.04865	73461
28.05677	71924
28.06488	69818
28.07302	76744
28.08113	71441
28.08925	80395
28.09738	78867
28.10550	73981
28.11363	74537
28.12175	73671
28.12987	76597
28.13800	74476
28.14612	82048
28.15425	73349
28.16237	73776
28.17048	75108
28.17862	74038
28.18673	72886
28.19487	81559
28.20298	71430
28.21110	77157
28.21923	75639
28.22735	76584
28.23547	71754
28.24360	74480
28.25172	74911
28.25985	72871
28.26797	77924
28.27608	75072
28.28422	78469
28.29233	78783
28.30047	84163
28.30858	79975
28.31670	80696
28.32483	72453
28.33295	76044
28.34107	72427
28.34920	86510
28.35732	80828
28.36545	76919
28.37357	78789
28.38168	83647
28.38982	78150
28.39793	74488
28.40607	79193
28.41418	74023
28.42230	74337
28.43043	77778
28.43855	78316
28.44668	80101
28.45480	80614
28.46292	77637
28.47105	81599
28.47917	75742
28.48728	77824
28.49542	80719
28.50353	80176
28.51167	81656
28.51978	85444
28.52790	91971
28.53603	76037
28.54415	82850
28.55228	87997
28.56040	79997
28.56852	78797
28.57665	79824
28.58477	84204
28.59290	84843
28.60102	88982
28.60913	88074
28.61727	84772
28.62538	79163
28.63350	80027
28.64163	83473
28.64975	75875
28.65788	71599
28.66600	71876
28.67412	77810
28.68225	76453
28.69037	81858
28.69850	89638
28.70662	109074
28.71473	118452
28.72287	139545
28.73098	159470
28.73912	188623
28.74723	203645
28.75535	217075
28.76348	226411
28.77160	228153
28.77972	234637
28.78785	230333
28.79597	221056
28.80410	220364
28.81222	205712
28.82033	199704
28.82847	197597
28.83658	185015
28.84472	180687
28.85283	172776
28.86095	170115
28.86908	163218
28.87720	155699
28.88532	145640
28.89345	133682
28.90157	136003
28.90970	124694
28.91782	128146
28.92593	117686
28.93407	124278
28.94218	116013
28.95032	111741
28.95843	108936
28.96655	103099
28.97468	106531
28.98280	104809
28.99093	103145
28.99905	95107
29.00717	98346
29.01530	92695
29.02342	93207
29.03153	100113
29.03967	93142
29.04778	98480
29.05592	90105
29.06403	94505
29.07215	93222
29.08028	96017
29.08840	95720
29.09653	97899
29.10465	92053
29.11277	88709
29.12090	88537
29.12902	87585
29.13715	94317
29.14527	88702
29.15338	80127
29.16152	85112
29.16963	96031
29.17775	95637
29.18588	94543
29.19400	91980
29.20213	93222
29.21025	86150
29.21837	91183
29.22650	82004
29.23462	91923
29.24275	86737
29.25087	83415
29.25898	85462
29.26712	90492
29.27523	87139
29.28335	77670
29.29148	87515
29.29960	79801
29.30773	82591
29.31585	85809
29.32397	80959
29.33210	77636
29.34022	78577
29.34835	75783
29.35647	78534
29.36458	92569
29.37272	89631
29.38083	83016
29.38897	85750
29.39708	77206
29.40520	77586
29.41333	81399
29.42145	78773
29.42957	76793
29.43770	77879
29.44582	76789
29.45395	85730
29.46207	88325
29.47018	87240
29.47832	94944
29.48643	98271
29.49457	112613
29.50268	106660
29.51080	104562
29.51893	98114
29.52705	98545
29.53518	94659
29.54330	78080
29.55142	73706
29.55955	78855
29.56767	78311
29.57578	86611
29.58392	85526
29.59203	78762
29.60017	78906
29.60828	79932
29.61640	84303
29.62453	78399
29.63265	74281
29.64078	77949
29.64890	81114
29.65702	78893
29.66515	80654
29.67327	76618
29.68140	81889
29.68952	80983
29.69763	83206
29.70577	84085
29.71388	82888
29.72200	86334
29.73013	83098
29.73825	81891
29.74638	86834
29.75450	77895
29.76262	82218
29.77075	83717
29.77887	90285
29.78700	84333
29.79512	81721
29.80323	82322
29.81137	84630
29.81948	84652
29.82760	79530
29.83573	78314
29.84385	82706
29.85198	84388
29.86010	82564
29.86822	90628
29.87635	82977
29.88447	83013
29.89260	90633
29.90072	77692
29.90883	82532
29.91697	78460
29.92508	83353
29.93322	76867
29.94133	87273
29.94945	83384
29.95758	76649
29.96570	76977
29.97382	84079
29.98195	82729
29.99007	84913
29.99820	87434
30.00632	84318
30.01443	86420
30.02257	89335
30.03068	87514
30.03882	99647
30.04693	92480
30.05505	86123
30.06318	89671
30.07130	85982
30.07943	84709
30.08755	87942
30.09567	83349
30.10380	100013
30.11192	93495
30.12003	89726
30.12817	96406
30.13628	106594
30.14442	100556
30.15253	106608
30.16065	103205
30.16878	107013
30.17690	113789
30.18503	105647
30.19315	102360
30.20127	107189
30.20940	104353
30.21752	106781
30.22563	103322
30.23377	107301
30.24188	105263
30.25002	109391
30.25813	113089
30.26625	107767
30.27438	112793
30.28250	113215
30.29063	108707
30.29875	116931
30.30687	123485
30.31500	140932
30.32312	143990
30.33125	154332
30.33937	166983
30.34748	170460
30.35562	180091
30.36373	183336
30.37185	183187
30.37998	181522
30.38810	184100
30.39623	190701
30.40435	173237
30.41247	171702
30.42060	188338
30.42872	183167
30.43685	185780
30.44497	181956
30.45308	178792
30.46122	173637
30.46933	163117
30.47747	156561
30.48558	150507
30.49370	147109
30.50183	137981
30.50995	138460
30.51807	135578
30.52620	126895
30.53432	126617
30.54245	119274
30.55057	118542
30.55868	116342
30.56682	111116
30.57493	108961
30.58307	112654
30.59118	116272
30.59930	116634
30.60743	116628
30.61555	110861
30.62367	115367
30.63180	118107
30.63992	112060
30.64805	114813
30.65617	111322
30.66428	110891
30.67242	106904
30.68053	104197
30.68867	106206
30.69678	113696
30.70490	100773
30.71303	104453
30.72115	97469
30.72928	93246
30.73740	96212
30.74552	99617
30.75365	92401
30.76177	93624
30.76988	95465
30.77802	92052
30.78613	89120
30.79427	96106
30.80238	95476
30.81050	98110
30.81863	109017
30.82675	98143
30.83488	98034
30.84300	106786
30.85112	103884
30.85925	101901
30.86737	100744
30.87550	97282
30.88362	89768
30.89173	86290
30.89987	93467
30.90798	89389
30.91610	93961
30.92423	92865
30.93235	91384
30.94048	92313
30.94860	97514
30.95672	95198
30.96485	97764
30.97297	103643
30.98110	99875
30.98922	97741
30.99733	102091
31.00547	97354
31.01358	102138
31.02172	104345
31.02983	112403
31.03795	101180
31.04608	101001
31.05420	109663
31.06232	96890
31.07045	97205
31.07857	95370
31.08670	91290
31.09482	95822
31.10293	90361
31.11107	88496
31.11918	97753
31.12732	86134
31.13543	88407
31.14355	93996
31.15168	91616
31.15980	90490
31.16792	90128
31.17605	86516
31.18417	97967
31.19230	93109
31.20042	93809
31.20853	89350
31.21667	91533
31.22478	95169
31.23292	92716
31.24103	95935
31.24915	90500
31.25728	87221
31.26540	94844
31.27353	91907
31.28165	101764
31.28977	90002
31.29790	93935
31.30602	98860
31.31413	90219
31.32227	94679
31.33038	101752
31.33852	98138
31.34663	94844
31.35475	88574
31.36288	93788
31.37100	99012
31.37913	95044
31.38725	94620
31.39537	92958
31.40350	103144
31.41162	89053
31.41975	101271
31.42787	94715
31.43598	100548
31.44412	95360
31.45223	98336
31.46035	93563
31.46848	95796
31.47660	97581
31.48473	98326
31.49285	92049
31.50097	97619
31.50910	95921
31.51722	93494
31.52535	105076
31.53347	98661
31.54158	95499
31.54972	94803
31.55783	100033
31.56595	92663
31.57408	95339
31.58220	98205
31.59033	106147
31.59845	131956
31.60657	190436
31.61470	339279
31.62282	692286
31.63095	1352924
31.63907	2319119
31.64718	3248210
31.65532	3809577
31.66343	3793507
31.67157	3107734
31.67968	2281263
31.68780	1383132
31.69593	767694
31.70405	421749
31.71217	237189
31.72030	176055
31.72842	153208
31.73655	138123
31.74467	121943
31.75278	128004
31.76092	113884
31.76903	122745
31.77717	119500
31.78528	109774
31.79340	113376
31.80153	109372
31.80965	121111
31.81778	106572
31.82590	103830
31.83402	108313
31.84215	105878
31.85027	102487
31.85838	103151
31.86652	106632
31.87463	104843
31.88277	112258
31.89088	104902
31.89900	105854
31.90713	101680
31.91525	97742
31.92338	102414
31.93150	106592
31.93962	110103
31.94775	100045
31.95587	98164
31.96398	100219
31.97212	103325
31.98023	108336
31.98837	118364
31.99648	107392
32.00460	120762
32.01273	121918
32.02085	118927
32.02898	113224
32.03710	117320
32.04522	121885
32.05335	114622
32.06147	116017
32.06960	114113
32.07772	118140
32.08583	125852
32.09397	139912
32.10208	132757
32.11020	136548
32.11833	140528
32.12645	136497
32.13458	132352
32.14270	129609
32.15082	135013
32.15895	136239
32.16707	128616
32.17520	122419
32.18332	116622
32.19143	122071
32.19957	111833
32.20768	110692
32.21582	112658
32.22393	109619
32.23205	111508
32.24018	120065
32.24830	125045
32.25642	126990
32.26455	145692
32.27267	146297
32.28080	157076
32.28892	162078
32.29703	165171
32.30517	172705
32.31328	166758
32.32142	173563
32.32953	160249
32.33765	163958
32.34578	156802
32.35390	150226
32.36203	157802
32.37015	150398
32.37827	149973
32.38640	144765
32.39452	139602
32.40263	140607
32.41077	134077
32.41888	131728
32.42702	126007
32.43513	126620
32.44325	127303
32.45138	119761
32.45950	121997
32.46763	124429
32.47575	118180
32.48387	122118
32.49200	116562
32.50012	121178
32.50823	155263
32.51637	196541
32.52448	287657
32.53262	416156
32.54073	600044
32.54885	776327
32.55698	824502
32.56510	767464
32.57323	608829
32.58135	447695
32.58947	310785
32.59760	234504
32.60572	190918
32.61385	155888
32.62197	148036
32.63008	136949
32.63822	126629
32.64633	123563
32.65445	117588
32.66258	125193
32.67070	120046
32.67883	116844
32.68695	115751
32.69507	114016
32.70320	126991
32.71132	116552
32.71945	120579
32.72757	120617
32.73568	119597
32.74382	116087
32.75193	117705
32.76007	123278
32.76818	124224
32.77630	123740
32.78443	118079
32.79255	125922
32.80067	123760
32.80880	133872
32.81692	124781
32.82505	129380
32.83317	138439
32.84128	135909
32.84942	129209
32.85753	125769
32.86567	118999
32.87378	118408
32.88190	116262
32.89003	108662
32.89815	112672
32.90627	115756
32.91440	114892
32.92252	121024
32.93065	118779
32.93877	136358
32.94688	124966
32.95502	127562
32.96313	140975
32.97127	126991
32.97938	127894
32.98750	128903
32.99563	131279
33.00375	123904
33.01188	123948
33.02000	119905
33.02812	127064
33.03625	119395
33.04437	117218
33.05248	120014
33.06062	114034
33.06873	125978
33.07687	119146
33.08498	118790
33.09310	115102
33.10123	117573
33.10935	114928
33.11748	113267
33.12560	118834
33.13372	113443
33.14185	110157
33.14997	118034
33.15810	121756
33.16622	114364
33.17433	118995
33.18247	114917
33.19058	117013
33.19870	119954
33.20683	119947
33.21495	131295
33.22308	128823
33.23120	129396
33.23932	124892
33.24745	118253
33.25557	120342
33.26370	116914
33.27182	126819
33.27993	119012
33.28807	115141
33.29618	123551
33.30430	117973
33.31243	123499
33.32055	113980
33.32868	116123
33.33680	119574
33.34492	111069
33.35305	119771
33.36117	120151
33.36930	115563
33.37742	123006
33.38553	118031
33.39367	116549
33.40178	115800
33.40992	116721
33.41803	118457
33.42615	119690
33.43428	136404
33.44240	125786
33.45052	118630
33.45865	117642
33.46677	129066
33.47490	118669
33.48302	119269
33.49113	120839
33.49927	126122
33.50738	132522
33.51552	142166
33.52363	138188
33.53175	144465
33.53988	149730
33.54800	145428
33.55613	151273
33.56425	164393
33.57237	159895
33.58050	157432
33.58862	163384
33.59673	155408
33.60487	148570
33.61298	146963
33.62112	145751
33.62923	149242
33.63735	147654
33.64548	150500
33.65360	145289
33.66173	155178
33.66985	147825
33.67797	150531
33.68610	141091
33.69422	140531
33.70235	133458
33.71047	130781
33.71858	133921
33.72672	134774
33.73483	140623
33.74295	135815
33.75108	126337
33.75920	122170
33.76733	128779
33.77545	119634
33.78357	122199
33.79170	124984
33.79982	129688
33.80795	132773
33.81607	135977
33.82418	135940
33.83232	135417
33.84043	134195
33.84855	132252
33.85668	127051
33.86480	122669
33.87293	124458
33.88105	125424
33.88917	126825
33.89730	129613
33.90542	128505
33.91355	136964
33.92167	120496
33.92978	121811
33.93792	121971
33.94603	130094
33.95417	127442
33.96228	123960
33.97040	133193
33.97853	122543
33.98665	133148
33.99477	130211
34.00290	128907
34.01102	133765
34.01915	135784
34.02727	142240
34.03538	153527
34.04352	142994
34.05163	145613
34.05977	148024
34.06788	148175
34.07600	136695
34.08413	140325
34.09225	133180
34.10038	137246
34.10850	129265
34.11662	135617
34.12475	137006
34.13287	140581
34.14098	136395
34.14912	128344
34.15723	131422
34.16537	133718
34.17348	131876
34.18160	141711
34.18973	136548
34.19785	140282
34.20598	134890
34.21410	138269
34.22222	142282
34.23035	152007
34.23847	149332
34.24658	158031
34.25472	149355
34.26283	147564
34.27097	144629
34.27908	136977
34.28720	145301
34.29533	132035
34.30345	133778
34.31158	134009
34.31970	139289
34.32782	134150
34.33595	137607
34.34407	134467
34.35220	133268
34.36032	131078
34.36843	130760
34.37657	128557
34.38468	139015
34.39280	132653
34.40093	139087
34.40905	138375
34.41718	134995
34.42530	136758
34.43342	135956
34.44155	133292
34.44967	135893
34.45780	133520
34.46592	137042
34.47403	139316
34.48217	133029
34.49028	138315
34.49842	136479
34.50653	134757
34.51465	140751
34.52278	135735
34.53090	150472
34.53902	142219
34.54715	165187
34.55527	188313
34.56340	219666
34.57152	262735
34.57963	295422
34.58777	303028
34.59588	282000
34.60402	245952
34.61213	200438
34.62025	185016
34.62838	158328
34.63650	159585
34.64462	142702
34.65275	144386
34.66087	144313
34.66900	144826
34.67712	150275
34.68523	146147
34.69337	147941
34.70148	145171
34.70962	145508
34.71773	144761
34.72585	138861
34.73398	145473
34.74210	143988
34.75023	137315
34.75835	141332
34.76647	141764
34.77460	147025
34.78272	138535
34.79083	142717
34.79897	143764
34.80708	142570
34.81522	142524
34.82333	139256
34.83145	137366
34.83958	143855
34.84770	154044
34.85583	160517
34.86395	175139
34.87207	193382
34.88020	206195
34.88832	224009
34.89645	225161
34.90457	227737
34.91268	219112
34.92082	208650
34.92893	189005
34.93705	187451
34.94518	189771
34.95330	182794
34.96143	165179
34.96955	171482
34.97767	165079
34.98580	163030
34.99392	158891
35.00205	154364
35.01017	158729
35.01828	154151
35.02642	157925
35.03453	160031
35.04267	151165
35.05078	150739
35.05890	154790
35.06703	154088
35.07515	159106
35.08327	155010
35.09140	151331
35.09952	142184
35.10765	152198
35.11577	151585
35.12388	149212
35.13202	152312
35.14013	146719
35.14827	156451
35.15638	154696
35.16450	160134
35.17263	163451
35.18075	167678
35.18887	167510
35.19700	164325
35.20512	157752
35.21325	163847
35.22137	159875
35.22948	170917
35.23762	154338
35.24573	157790
35.25387	154877
35.26198	155223
35.27010	152796
35.27823	158626
35.28635	164873
35.29448	156917
35.30260	161976
35.31072	153706
35.31885	160424
35.32697	159744
35.33508	159717
35.34322	169025
35.35133	161937
35.35947	156627
35.36758	161645
35.37570	161364
35.38383	152001
35.39195	158310
35.40008	162836
35.40820	152588
35.41632	163525
35.42445	168366
35.43257	154061
35.44070	160263
35.44882	159916
35.45693	157739
35.46507	159237
35.47318	161618
35.48130	166568
35.48943	165110
35.49755	169335
35.50568	169311
35.51380	171998
35.52192	174037
35.53005	163009
35.53817	162785
35.54630	174990
35.55442	168156
35.56253	173374
35.57067	179512
35.57878	171936
35.58690	186974
35.59503	197268
35.60315	226130
35.61128	255275
35.61940	273733
35.62752	286707
35.63565	297755
35.64377	289808
35.65190	285209
35.66002	294681
35.66813	280963
35.67627	287322
35.68438	276568
35.69252	250667
35.70063	226698
35.70875	199153
35.71688	191172
35.72500	188843
35.73312	183448
35.74125	180848
35.74937	178929
35.75750	178241
35.76562	179928
35.77373	178507
35.78187	183742
35.78998	186272
35.79812	185817
35.80623	191555
35.81435	190606
35.82248	186677
35.83060	177711
35.83873	178858
35.84685	172204
35.85497	181451
35.86310	177916
35.87122	170901
35.87933	167034
35.88747	174846
35.89558	170402
35.90372	164589
35.91183	167162
35.91995	179905
35.92808	183228
35.93620	178213
35.94433	176834
35.95245	171092
35.96057	165568
35.96870	169714
35.97682	173133
35.98493	176028
35.99307	181791
36.00118	189697
36.00932	178112
36.01743	176710
36.02555	185294
36.03368	184720
36.04180	184180
36.04993	175416
36.05805	181778
36.06617	174900
36.07430	172846
36.08242	184424
36.09055	178617
36.09867	182397
36.10678	190961
36.11492	187324
36.12303	186744
36.13115	189500
36.13928	197035
36.14740	184138
36.15553	179721
36.16365	175775
36.17177	179294
36.17990	178782
36.18802	166862
36.19615	179574
36.20427	175491
36.21238	179179
36.22052	176959
36.22863	174222
36.23677	178720
36.24488	172891
36.25300	181256
36.26113	179653
36.26925	176716
36.27737	190810
36.28550	181109
36.29362	169121
36.30175	171251
36.30987	171849
36.31798	172251
36.32612	174215
36.33423	183652
36.34237	177554
36.35048	175823
36.35860	185989
36.36673	179777
36.37485	174229
36.38298	169659
36.39110	180256
36.39922	174935
36.40735	182651
36.41547	173660
36.42358	182025
36.43172	175647
36.43983	182360
36.44797	172097
36.45608	181675
36.46420	185291
36.47233	181930
36.48045	176448
36.48858	190313
36.49670	176521
36.50482	183545
36.51295	177699
36.52107	186990
36.52918	181813
36.53732	186870
36.54543	197296
36.55357	200190
36.56168	191045
36.56980	192970
36.57793	205624
36.58605	209308
36.59418	204314
36.60230	201806
36.61042	195492
36.61855	199716
36.62667	193898
36.63480	192895
36.64292	201635
36.65103	212651
36.65917	205262
36.66728	207165
36.67540	215193
36.68353	210004
36.69165	210308
36.69978	219482
36.70790	227356
36.71602	226267
36.72415	230978
36.73227	236259
36.74040	232281
36.74852	245618
36.75663	232402
36.76477	227827
36.77288	218313
36.78102	223073
36.78913	234752
36.79725	249006
36.80538	245182
36.81350	253042
36.82162	247597
36.82975	256879
36.83787	236946
36.84600	219640
36.85412	215132
36.86223	215759
36.87037	206465
36.87848	223490
36.88662	237247
36.89473	263621
36.90285	299794
36.91098	346445
36.91910	376243
36.92722	356481
36.93535	351786
36.94347	328144
36.95160	315773
36.95972	343232
36.96783	369995
36.97597	439762
36.98408	492405
36.99222	504684
37.00033	498792
37.00845	414063
37.01658	340670
37.02470	288414
37.03283	246831
37.04095	227449
37.04907	223458
37.05720	222339
37.06532	227295
37.07343	218767
37.08157	224997
37.08968	214470
37.09782	218169
37.10593	214023
37.11405	223223
37.12218	216532
37.13030	225739
37.13843	220586
37.14655	226146
37.15467	213979
37.16280	221819
37.17092	218585
37.17905	212821
37.18717	214172
37.19528	207219
37.20342	223365
37.21153	204367
37.21965	210388
37.22778	211156
37.23590	206625
37.24403	221659
37.25215	219209
37.26027	216725
37.26840	226856
37.27652	223819
37.28465	225899
37.29277	242047
37.30088	248370
37.30902	254526
37.31713	243147
37.32525	241286
37.33338	236806
37.34150	235523
37.34963	219271
37.35775	223521
37.36587	223847
37.37400	224037
37.38212	212373
37.39025	214979
37.39837	215630
37.40648	210305
37.41462	223518
37.42273	216416
37.43087	216059
37.43898	212638
37.44710	219942
37.45523	214370
37.46335	223330
37.47147	216227
37.47960	218109
37.48772	216159
