Z:\data\JTB-E02\BACandBLUE\JTB-E02-192-06.D Tue Dec 18 08:32:24 2018
Start of data points
2.09513	65222
2.10325	61521
2.11137	68734
2.11950	66015
2.12762	73738
2.13575	75029
2.14387	82299
2.15198	86095
2.16012	94502
2.16823	95809
2.17637	96816
2.18448	96627
2.19260	98363
2.20073	94410
2.20885	94046
2.21697	91096
2.22510	88377
2.23322	85935
2.24135	88927
2.24947	83847
2.25758	102166
2.26572	539095
2.27383	2447863
2.28197	4034666
2.29008	3215155
2.29820	1696510
2.30633	1069278
2.31445	809988
2.32258	694903
2.33070	604659
2.33882	564801
2.34695	494268
2.35507	424440
2.36318	377739
2.37132	343444
2.37943	330914
2.38757	338851
2.39568	328641
2.40380	351762
2.41193	441706
2.42005	514975
2.42818	750331
2.43630	675301
2.44442	543104
2.45255	479588
2.46067	422562
2.46880	371113
2.47692	331120
2.48503	300608
2.49317	285921
2.50128	274250
2.50940	251400
2.51753	245385
2.52565	238631
2.53378	225635
2.54190	234299
2.55002	259332
2.55815	313324
2.56627	382594
2.57440	344206
2.58252	275611
2.59063	225840
2.59877	215235
2.60688	208434
2.61500	230487
2.62313	241339
2.63125	232894
2.63938	209773
2.64750	192837
2.65562	186499
2.66375	180780
2.67187	180365
2.68000	168914
2.68812	169617
2.69623	163379
2.70437	166077
2.71248	166679
2.72062	150254
2.72873	148769
2.73685	148893
2.74498	153748
2.75310	145056
2.76122	145700
2.76935	140889
2.77747	138185
2.78560	141227
2.79372	143937
2.80183	143255
2.80997	154773
2.81808	152924
2.82622	148021
2.83433	142496
2.84245	137053
2.85058	137514
2.85870	144489
2.86682	144640
2.87495	139057
2.88307	133664
2.89120	152581
2.89932	143969
2.90743	138898
2.91557	132534
2.92368	126793
2.93182	122463
2.93993	122397
2.94805	126849
2.95618	123705
2.96430	120100
2.97243	130867
2.98055	122934
2.98867	121890
2.99680	128494
3.00492	129161
3.01303	124334
3.02117	124137
3.02928	122011
3.03742	120804
3.04553	114389
3.05365	114219
3.06178	112666
3.06990	112986
3.07803	109363
3.08615	108138
3.09427	118271
3.10240	126612
3.11052	160654
3.11865	200785
3.12677	190604
3.13488	174879
3.14302	154913
3.15113	150781
3.15925	141741
3.16738	132371
3.17550	128284
3.18363	124815
3.19175	123075
3.19987	123180
3.20800	119088
3.21612	122569
3.22425	122107
3.23237	117973
3.24048	108024
3.24862	117646
3.25673	111470
3.26485	110154
3.27298	110989
3.28110	185332
3.28923	995938
3.29735	6069702
3.30547	1.956674E+07
3.31360	3.218826E+07
3.32172	3.540388E+07
3.32985	3.06834E+07
3.33797	2.33059E+07
3.34608	1.714614E+07
3.35422	1.288218E+07
3.36233	1.001857E+07
3.37047	8201026
3.37858	6837189
3.38670	5835246
3.39483	5090520
3.40295	4496046
3.41107	4013795
3.41920	3635147
3.42732	3326374
3.43545	3093018
3.44357	2895757
3.45168	2663862
3.45982	2476150
3.46793	2376600
3.47607	2242406
3.48418	2116229
3.49230	1994445
3.50043	1913429
3.50855	1800715
3.51668	1730898
3.52480	1649551
3.53292	1595300
3.54105	1533160
3.54917	1460747
3.55728	1426387
3.56542	1358574
3.57353	1307645
3.58167	1282792
3.58978	1243400
3.59790	1223538
3.60603	1176217
3.61415	1143545
3.62228	1123235
3.63040	1098610
3.63852	1079500
3.64665	1022906
3.65477	1000618
3.66288	957721
3.67102	953027
3.67913	938711
3.68727	945751
3.69538	941881
3.70350	910208
3.71163	893548
3.71975	883953
3.72788	851821
3.73600	831748
3.74412	829177
3.75225	808726
3.76037	787372
3.76850	776020
3.77662	756306
3.78473	739805
3.79287	737636
3.80098	743063
3.80910	720751
3.81723	721594
3.82535	737276
3.83348	712002
3.84160	700512
3.84972	675730
3.85785	655022
3.86597	648628
3.87410	637838
3.88222	623269
3.89033	609457
3.89847	603364
3.90658	579765
3.91470	592770
3.92283	591582
3.93095	580399
3.93908	576552
3.94720	558083
3.95532	553842
3.96345	540454
3.97157	548034
3.97970	534932
3.98782	522372
3.99593	518152
4.00407	497843
4.01218	507292
4.02032	510389
4.02843	498395
4.03655	496930
4.04468	478692
4.05280	487302
4.06092	487533
4.06905	482804
4.07717	462535
4.08530	462154
4.09342	461904
4.10153	450806
4.10967	450449
4.11778	461989
4.12592	438482
4.13403	451749
4.14215	477891
4.15028	566218
4.15840	640426
4.16653	637368
4.17465	569782
4.18277	516614
4.19090	490396
4.19902	443865
4.20713	447526
4.21527	447776
4.22338	474717
4.23152	511791
4.23963	530065
4.24775	509276
4.25588	498161
4.26400	461203
4.27213	432991
4.28025	408069
4.28837	402323
4.29650	392986
4.30462	390884
4.31275	384242
4.32087	379477
4.32898	386869
4.33712	407872
4.34523	404868
4.35335	398609
4.36148	393812
4.36960	394754
4.37773	379979
4.38585	386249
4.39397	375485
4.40210	380242
4.41022	375884
4.41835	370285
4.42647	356766
4.43458	342123
4.44272	344269
4.45083	353970
4.45895	341581
4.46708	350191
4.47520	356719
4.48333	353823
4.49145	360370
4.49957	361195
4.50770	355153
4.51582	358235
4.52395	349354
4.53207	344452
4.54018	334342
4.54832	328691
4.55643	329201
4.56457	328679
4.57268	334293
4.58080	328423
4.58893	314942
4.59705	323542
4.60517	300702
4.61330	316478
4.62142	303422
4.62955	311885
4.63767	296260
4.64578	298575
4.65392	298468
4.66203	297173
4.67017	299215
4.67828	292812
4.68640	296149
4.69453	293217
4.70265	286897
4.71077	288310
4.71890	287618
4.72702	282222
4.73515	275130
4.74327	283122
4.75138	276981
4.75952	276329
4.76763	277121
4.77577	265850
4.78388	277803
4.79200	271911
4.80013	273417
4.80825	283900
4.81638	274397
4.82450	280016
4.83262	275287
4.84075	267409
4.84887	268649
4.85698	265304
4.86512	275998
4.87323	288026
4.88137	273459
4.88948	281385
4.89760	284255
4.90573	273110
4.91385	262337
4.92198	265088
4.93010	300420
4.93822	558845
4.94635	1737096
4.95447	5251343
4.96260	1.13979E+07
4.97072	1.74232E+07
4.97883	1.973446E+07
4.98697	1.754068E+07
4.99508	1.328163E+07
5.00320	9411601
5.01133	6617947
5.01945	4960777
5.02758	3979039
5.03570	3331659
5.04382	2860194
5.05195	2604901
5.06007	2301454
5.06820	2139505
5.07632	1964642
5.08443	1859693
5.09257	1734179
5.10068	1634094
5.10880	1538083
5.11693	1427770
5.12505	1358835
5.13318	1300864
5.14130	1240448
5.14942	1183493
5.15755	1153736
5.16567	1110556
5.17380	1093651
5.18192	1057761
5.19003	1037585
5.19817	1010537
5.20628	1000793
5.21442	956311
5.22253	916250
5.23065	923417
5.23878	927479
5.24690	936230
5.25502	916614
5.26315	879004
5.27127	867932
5.27940	790846
5.28752	773560
5.29563	754353
5.30377	729047
5.31188	702814
5.32002	688397
5.32813	664393
5.33625	660092
5.34438	656644
5.35250	648903
5.36063	634358
5.36875	627623
5.37687	641667
5.38500	629134
5.39312	623710
5.40123	608724
5.40937	600076
5.41748	576979
5.42562	563427
5.43373	569254
5.44185	545818
5.44998	540625
5.45810	542572
5.46623	530355
5.47435	525360
5.48247	496341
5.49060	507046
5.49872	510045
5.50683	497141
5.51497	477925
5.52308	480299
5.53122	476981
5.53933	468430
5.54745	459321
5.55558	449108
5.56370	443673
5.57183	442859
5.57995	438282
5.58807	457778
5.59620	456177
5.60432	450966
5.61245	449664
5.62057	452818
5.62868	468933
5.63682	495494
5.64493	504950
5.65305	498626
5.66118	476781
5.66930	460458
5.67743	467312
5.68555	490998
5.69367	549406
5.70180	577659
5.70992	552578
5.71805	525167
5.72617	467204
5.73428	440833
5.74242	419995
5.75053	421373
5.75865	417039
5.76678	389894
5.77490	380969
5.78303	388381
5.79115	395260
5.79927	378119
5.80740	365630
5.81552	370186
5.82365	370794
5.83177	352256
5.83988	366531
5.84802	358459
5.85613	364513
5.86427	348221
5.87238	360181
5.88050	346319
5.88863	343268
5.89675	332773
5.90487	346683
5.91300	323165
5.92112	285699
5.92925	257322
5.93737	259943
5.94548	260152
5.95362	243828
5.96173	253741
5.96987	258718
5.97798	264259
5.98610	293915
5.99423	291224
6.00235	296722
6.01048	293749
6.01860	284696
6.02672	291785
6.03485	288441
6.04297	284009
6.05108	285625
6.05922	265178
6.06733	252704
6.07547	264616
6.08358	246574
6.09170	243073
6.09983	239186
6.10795	237254
6.11608	239803
6.12420	230555
6.13232	235190
6.14045	233033
6.14857	223342
6.15668	239074
6.16482	235721
6.17293	249460
6.18107	255963
6.18918	261360
6.19730	243185
6.20543	244821
6.21355	236807
6.22168	236646
6.22980	238948
6.23792	234613
6.24605	247026
6.25417	251164
6.26230	257517
6.27042	255902
6.27853	263379
6.28667	265633
6.29478	256670
6.30290	255116
6.31103	264525
6.31915	264792
6.32728	263508
6.33540	262899
6.34352	255900
6.35165	258436
6.35977	263532
6.36790	265596
6.37602	267718
6.38413	268064
6.39227	263970
6.40038	241389
6.40852	243994
6.41663	227775
6.42475	222958
6.43288	218985
6.44100	215071
6.44912	214422
6.45725	203926
6.46537	206552
6.47350	217834
6.48162	217885
6.48973	219080
6.49787	212848
6.50598	219895
6.51412	210153
6.52223	222591
6.53035	206341
6.53848	203897
6.54660	199925
6.55472	195939
6.56285	190042
6.57097	190301
6.57910	189247
6.58722	196202
6.59533	196645
6.60347	187994
6.61158	183459
6.61972	188567
6.62783	186820
6.63595	192028
6.64408	180104
6.65220	184328
6.66033	184586
6.66845	186979
6.67657	183858
6.68470	182321
6.69282	188798
6.70093	180722
6.70907	185180
6.71718	171839
6.72532	173083
6.73343	176787
6.74155	174815
6.74968	174962
6.75780	173942
6.76593	174613
6.77405	174050
6.78217	177714
6.79030	172532
6.79842	180262
6.80653	177776
6.81467	177357
6.82278	178542
6.83092	166190
6.83903	163798
6.84715	172375
6.85528	161176
6.86340	148551
6.87153	130574
6.87965	118536
6.88777	112944
6.89590	126107
6.90402	131289
6.91215	131523
6.92027	128485
6.92838	122629
6.93652	117291
6.94463	109161
6.95275	109643
6.96088	115295
6.96900	104781
6.97713	104318
6.98525	106666
6.99337	102674
7.00150	110209
7.00962	109738
7.01775	100676
7.02587	108083
7.03398	107726
7.04212	102528
7.05023	102539
7.05837	102067
7.06648	99858
7.07460	98139
7.08273	98146
7.09085	103794
7.09897	98772
7.10710	99345
7.11522	99484
7.12335	101112
7.13147	100183
7.13958	108171
7.14772	107993
7.15583	114428
7.16397	108070
7.17208	104240
7.18020	102359
7.18833	96093
7.19645	96355
7.20457	96365
7.21270	92505
7.22082	95255
7.22895	96092
7.23707	98043
7.24518	97424
7.25332	110869
7.26143	124208
7.26957	152077
7.27768	157493
7.28580	157442
7.29393	143873
7.30205	127304
7.31018	110357
7.31830	106320
7.32642	99893
7.33455	96807
7.34267	104019
7.35078	102797
7.35892	108756
7.36703	109020
7.37517	115500
7.38328	109611
7.39140	99010
7.39953	108973
7.40765	97469
7.41578	99095
7.42390	103368
7.43202	101034
7.44015	99720
7.44827	97914
7.45640	104615
7.46452	94984
7.47263	105268
7.48077	115272
7.48888	122682
7.49700	117391
7.50513	115604
7.51325	115074
7.52138	110614
7.52950	106099
7.53762	97745
7.54575	92952
7.55387	94589
7.56200	97104
7.57012	96179
7.57823	100158
7.58637	98744
7.59448	95865
7.60260	102177
7.61073	99950
7.61885	93200
7.62698	95145
7.63510	97818
7.64322	97715
7.65135	90717
7.65947	92962
7.66760	98630
7.67572	88202
7.68383	91419
7.69197	91201
7.70008	90776
7.70822	89322
7.71633	90092
7.72445	90510
7.73258	96577
7.74070	93803
7.74882	95116
7.75695	97814
7.76507	94534
7.77320	93300
7.78132	89132
7.78943	93589
7.79757	93616
7.80568	92051
7.81382	90767
7.82193	94308
7.83005	94174
7.83818	102026
7.84630	98442
7.85443	99212
7.86255	91097
7.87067	86092
7.87880	85707
7.88692	85714
7.89503	83388
7.90317	86097
7.91128	82383
7.91942	81840
7.92753	81984
7.93565	76098
7.94378	74232
7.95190	78334
7.96003	74035
7.96815	77967
7.97627	76858
7.98440	76810
7.99252	79152
8.00063	84306
8.00877	88262
8.01688	84156
8.02502	81200
8.03313	83468
8.04125	83319
8.04938	80762
8.05750	81091
8.06563	85459
8.07375	83854
8.08187	81796
8.09000	83698
8.09812	82774
8.10625	77785
8.11437	79272
8.12248	78580
8.13062	81368
8.13873	84003
8.14685	82594
8.15498	92802
8.16310	86378
8.17123	93269
8.17935	96615
8.18747	92613
8.19560	94015
8.20372	95434
8.21185	91516
8.21997	97317
8.22808	96883
8.23622	94719
8.24433	92222
8.25245	91700
8.26058	91626
8.26870	84758
8.27683	85508
8.28495	81420
8.29307	83301
8.30120	78390
8.30932	82923
8.31745	78296
8.32557	80490
8.33368	82944
8.34182	85377
8.34993	85690
8.35807	94285
8.36618	98446
8.37430	95846
8.38243	97364
8.39055	99220
8.39867	96138
8.40680	92651
8.41492	89361
8.42305	91446
8.43117	89513
8.43928	86615
8.44742	91308
8.45553	92047
8.46367	81280
8.47178	81723
8.47990	81257
8.48803	83369
8.49615	87942
8.50428	94810
8.51240	102891
8.52052	107352
8.52865	101029
8.53677	93108
8.54488	90123
8.55302	88533
8.56113	86015
8.56927	87987
8.57738	83428
8.58550	81088
8.59363	77535
8.60175	84760
8.60988	84243
8.61800	79774
8.62612	78391
8.63425	78684
8.64237	79374
8.65050	76464
8.65862	74711
8.66673	75453
8.67487	73636
8.68298	73818
8.69110	71125
8.69923	69955
8.70735	71503
8.71548	74330
8.72360	75207
8.73172	74570
8.73985	78184
8.74797	74370
8.75610	76587
8.76422	82223
8.77233	118030
8.78047	259328
8.78858	681777
8.79670	1650378
8.80483	3263301
8.81295	4982956
8.82108	5790862
8.82920	5348495
8.83732	4219466
8.84545	3033606
8.85357	2098712
8.86170	1549432
8.86982	1211951
8.87793	977844
8.88607	857010
8.89418	750997
8.90232	683504
8.91043	615621
8.91855	576857
8.92668	543743
8.93480	502594
8.94292	491388
8.95105	458048
8.95917	444074
8.96730	420135
8.97542	391074
8.98353	385068
8.99167	376313
8.99978	369081
9.00792	348643
9.01603	346865
9.02415	344108
9.03228	321976
9.04040	314164
9.04852	310356
9.05665	311908
9.06477	297239
9.07290	288433
9.08102	287622
9.08913	288949
9.09727	283063
9.10538	274365
9.11352	263997
9.12163	263322
9.12975	255526
9.13788	256733
9.14600	256214
9.15413	248250
9.16225	240629
9.17037	240484
9.17850	235386
9.18662	235472
9.19473	232762
9.20287	233943
9.21098	239191
9.21912	242249
9.22723	227630
9.23535	226371
9.24348	215852
9.25160	213447
9.25973	214564
9.26785	201934
9.27597	201388
9.28410	198181
9.29222	192760
9.30033	188007
9.30847	185613
9.31658	181532
9.32472	179411
9.33283	172657
9.34095	175092
9.34908	172135
9.35720	167031
9.36533	166258
9.37345	174289
9.38157	166111
9.38970	155846
9.39782	166060
9.40595	156950
9.41407	160016
9.42218	153844
9.43032	152030
9.43843	143851
9.44655	143928
9.45468	144847
9.46280	148347
9.47093	146055
9.47905	145775
9.48717	136038
9.49530	140434
9.50342	146818
9.51155	139009
9.51967	143708
9.52778	147273
9.53592	156424
9.54403	158656
9.55217	153181
9.56028	157466
9.56840	152836
9.57653	138508
9.58465	123431
9.59277	120154
9.60090	113276
9.60902	112549
9.61715	116544
9.62527	119233
9.63338	110167
9.64152	105155
9.64963	104167
9.65777	96152
9.66588	97372
9.67400	91895
9.68213	94949
9.69025	90074
9.69838	89820
9.70650	88880
9.71462	89210
9.72275	84052
9.73087	87560
9.73898	85145
9.74712	80820
9.75523	83815
9.76337	79646
9.77148	84960
9.77960	81657
9.78773	81449
9.79585	84559
9.80398	81941
9.81210	85555
9.82022	87321
9.82835	87355
9.83647	90376
9.84458	92964
9.85272	100460
9.86083	91676
9.86897	94116
9.87708	88456
9.88520	90855
9.89333	84101
9.90145	88114
9.90958	94334
9.91770	92294
9.92582	87581
9.93395	91639
9.94207	92386
9.95020	87786
9.95832	89155
9.96643	85952
9.97457	88395
9.98268	89820
9.99080	94429
9.99893	111294
10.00705	122607
10.01518	139278
10.02330	160360
10.03142	197391
10.03955	230530
10.04767	267980
10.05580	285893
10.06392	273240
10.07203	244926
10.08017	217849
10.08828	198348
10.09640	168720
10.10453	148892
10.11265	140169
10.12078	133917
10.12890	125810
10.13702	127266
10.14515	120608
10.15327	117201
10.16140	112123
10.16952	110447
10.17763	103929
10.18577	117741
10.19388	109842
10.20202	104167
10.21013	108669
10.21825	120592
10.22638	134908
10.23450	148414
10.24262	173846
10.25075	184349
10.25887	189671
10.26700	165131
10.27512	153732
10.28323	142299
10.29137	138404
10.29948	148176
10.30762	155494
10.31573	189845
10.32385	203001
10.33198	206222
10.34010	208236
10.34823	176576
10.35635	169224
10.36447	152177
10.37260	150377
10.38072	144747
10.38883	139338
10.39697	134756
10.40508	131908
10.41322	129222
10.42133	126936
10.42945	132280
10.43758	124229
10.44570	115283
10.45383	116640
10.46195	110262
10.47007	115437
10.47820	111808
10.48632	113336
10.49443	113065
10.50257	106399
10.51068	106626
10.51882	105672
10.52693	101577
10.53505	107293
10.54318	113334
10.55130	107796
10.55943	109348
10.56755	109879
10.57567	115900
10.58380	115065
10.59192	112766
10.60005	107869
10.60817	107190
10.61628	106511
10.62442	114132
10.63253	102409
10.64065	101389
10.64878	105124
10.65690	98340
10.66503	94710
10.67315	105983
10.68127	103742
10.68940	97852
10.69752	101445
10.70565	106297
10.71377	106489
10.72188	103986
10.73002	107603
10.73813	108115
10.74627	111737
10.75438	109512
10.76250	112820
10.77063	110859
10.77875	116289
10.78687	116934
10.79500	119611
10.80312	113939
10.81125	112256
10.81937	106198
10.82748	101920
10.83562	98394
10.84373	96661
10.85187	96718
10.85998	93867
10.86810	94320
10.87623	95335
10.88435	89075
10.89247	90130
10.90060	91662
10.90872	93861
10.91685	89543
10.92497	90654
10.93308	92211
10.94122	94634
10.94933	98227
10.95747	99730
10.96558	97776
10.97370	105910
10.98183	107203
10.98995	107510
10.99808	112580
11.00620	104226
11.01432	99262
11.02245	96147
11.03057	97813
11.03868	93438
11.04682	85784
11.05493	88412
11.06307	87827
11.07118	84852
11.07930	83739
11.08743	88169
11.09555	85018
11.10368	87600
11.11180	87215
11.11992	86330
11.12805	86407
11.13617	87784
11.14428	85698
11.15242	79897
11.16053	80368
11.16867	79728
11.17678	91200
11.18490	91509
11.19303	117282
11.20115	136927
11.20928	167111
11.21740	193345
11.22552	205904
11.23365	199106
11.24177	172695
11.24990	145532
11.25802	130707
11.26613	109751
11.27427	96964
11.28238	92515
11.29050	89616
11.29863	86514
11.30675	91660
11.31488	91437
11.32300	93640
11.33112	86903
11.33925	89101
11.34737	85288
11.35550	91912
11.36362	93214
11.37173	94504
11.37987	94600
11.38798	93786
11.39612	90771
11.40423	89809
11.41235	89597
11.42048	85633
11.42860	85982
11.43672	83084
11.44485	84613
11.45297	86274
11.46110	79046
11.46922	86586
11.47733	78878
11.48547	81325
11.49358	80144
11.50172	79439
11.50983	81373
11.51795	82409
11.52608	79000
11.53420	84056
11.54232	76700
11.55045	77056
11.55857	79510
11.56670	79336
11.57482	80405
11.58293	82715
11.59107	79639
11.59918	81988
11.60732	80690
11.61543	80597
11.62355	79769
11.63168	79996
11.63980	78959
11.64793	83766
11.65605	79328
11.66417	76984
11.67230	78041
11.68042	76884
11.68853	78174
11.69667	81540
11.70478	83648
11.71292	89773
11.72103	93053
11.72915	89555
11.73728	89717
11.74540	92757
11.75353	100024
11.76165	96060
11.76977	102459
11.77790	111339
11.78602	108963
11.79415	110881
11.80227	103756
11.81038	103123
11.81852	96585
11.82663	87549
11.83475	85729
11.84288	89124
11.85100	87699
11.85913	88404
11.86725	88127
11.87537	90397
11.88350	91459
11.89162	91971
11.89975	84070
11.90787	84147
11.91598	78770
11.92412	82980
11.93223	82905
11.94035	86480
11.94848	77927
11.95660	82170
11.96473	79769
11.97285	81223
11.98097	77715
11.98910	81585
11.99722	77135
12.00535	79110
12.01347	73618
12.02158	79117
12.02972	77099
12.03783	81577
12.04597	78762
12.05408	86075
12.06220	83327
12.07033	79163
12.07845	81019
12.08657	78630
12.09470	78862
12.10282	73438
12.11095	82957
12.11907	78711
12.12718	81291
12.13532	75964
12.14343	76487
12.15157	84081
12.15968	84681
12.16780	93422
12.17593	92210
12.18405	96031
12.19218	92482
12.20030	98618
12.20842	97154
12.21655	98238
12.22467	93174
12.23278	95611
12.24092	97001
12.24903	92180
12.25717	88954
12.26528	93831
12.27340	91995
12.28153	86905
12.28965	88590
12.29778	87808
12.30590	90037
12.31402	85498
12.32215	86514
12.33027	89862
12.33838	84429
12.34652	85066
12.35463	87977
12.36277	82758
12.37088	83798
12.37900	87788
12.38713	87824
12.39525	81449
12.40338	90661
12.41150	94139
12.41962	96661
12.42775	92460
12.43587	94332
12.44400	95344
12.45212	95935
12.46023	95053
12.46837	98717
12.47648	100345
12.48460	103352
12.49273	107631
12.50085	100649
12.50898	97758
12.51710	95454
12.52522	93533
12.53335	93214
12.54147	90075
12.54960	87592
12.55772	84007
12.56583	83019
12.57397	84497
12.58208	82809
12.59020	84990
12.59833	87528
12.60645	80416
12.61458	84297
12.62270	84368
12.63082	80137
12.63895	81009
12.64707	79557
12.65520	82735
12.66332	88658
12.67143	85653
12.67957	80184
12.68768	82644
12.69582	77000
12.70393	87773
12.71205	88388
12.72018	89472
12.72830	90625
12.73642	99806
12.74455	114505
12.75267	122510
12.76080	146584
12.76892	144134
12.77703	135706
12.78517	126973
12.79328	112128
12.80142	105288
12.80953	99480
12.81765	93708
12.82578	89225
12.83390	84213
12.84203	82790
12.85015	87728
12.85827	78979
12.86640	86801
12.87452	88715
12.88263	85459
12.89077	85969
12.89888	75605
12.90702	82109
12.91513	74376
12.92325	76801
12.93138	76740
12.93950	72708
12.94763	77033
12.95575	76485
12.96387	76997
12.97200	84324
12.98012	82533
12.98823	82001
12.99637	81125
13.00448	82543
13.01262	81640
13.02073	75385
13.02885	77952
13.03698	79212
13.04510	75115
13.05323	76019
13.06135	70581
13.06947	77254
13.07760	75153
13.08572	76309
13.09385	73124
13.10197	74952
13.11008	81388
13.11822	84144
13.12633	85167
13.13445	87038
13.14258	81948
13.15070	75568
13.15883	78339
13.16695	75814
13.17507	79640
13.18320	78715
13.19132	86470
13.19945	90251
13.20757	103842
13.21568	128253
13.22382	133707
13.23193	142537
13.24007	138721
13.24818	126069
13.25630	103036
13.26443	92619
13.27255	86089
13.28067	86264
13.28880	79695
13.29692	85498
13.30505	79239
13.31317	83364
13.32128	81497
13.32942	80225
13.33753	79953
13.34567	81761
13.35378	86148
13.36190	79126
13.37003	75493
13.37815	80580
13.38627	79930
13.39440	79708
13.40252	76608
13.41065	76179
13.41877	73299
13.42688	74056
13.43502	70781
13.44313	71373
13.45127	70935
13.45938	76268
13.46750	71505
13.47563	72328
13.48375	74454
13.49188	72978
13.50000	73854
13.50812	75903
13.51625	74707
13.52437	70651
13.53248	75083
13.54062	78921
13.54873	72348
13.55687	70267
13.56498	73998
13.57310	74835
13.58123	75913
13.58935	74834
13.59748	72574
13.60560	80269
13.61372	76437
13.62185	73350
13.62997	69230
13.63808	78297
13.64622	77604
13.65433	70499
13.66247	71800
13.67058	71171
13.67870	66656
13.68683	72691
13.69495	68410
13.70308	74715
13.71120	69982
13.71932	67514
13.72745	70774
13.73557	65068
13.74370	69539
13.75182	65733
13.75993	73222
13.76807	72491
13.77618	72940
13.78430	69546
13.79243	68419
13.80055	71286
13.80868	75428
13.81680	68515
13.82492	74407
13.83305	73752
13.84117	74778
13.84930	73921
13.85742	69452
13.86553	73070
13.87367	77174
13.88178	76794
13.88992	74303
13.89803	79833
13.90615	77649
13.91428	76212
13.92240	78173
13.93052	86994
13.93865	98297
13.94677	103420
13.95490	104960
13.96302	109416
13.97113	107640
13.97927	89946
13.98738	87122
13.99552	77357
14.00363	74075
14.01175	76849
14.01988	81871
14.02800	78163
14.03612	76167
14.04425	77888
14.05237	75253
14.06050	76629
14.06862	87264
14.07673	95069
14.08487	97838
14.09298	100384
14.10112	109998
14.10923	100683
14.11735	89315
14.12548	88351
14.13360	84887
14.14173	77542
14.14985	82808
14.15797	83601
14.16610	77692
14.17422	85772
14.18233	95582
14.19047	126923
14.19858	229843
14.20672	455254
14.21483	887893
14.22295	1395934
14.23108	1766988
14.23920	1801423
14.24733	1494615
14.25545	1116266
14.26357	827026
14.27170	663687
14.27982	554993
14.28795	482103
14.29607	424560
14.30418	369371
14.31232	325674
14.32043	290598
14.32855	279544
14.33668	254541
14.34480	237676
14.35293	222127
14.36105	205369
14.36917	185817
14.37730	164219
14.38542	138293
14.39355	120951
14.40167	115600
14.40978	112535
14.41792	104406
14.42603	105586
14.43415	97965
14.44228	95268
14.45040	93709
14.45853	93428
14.46665	94606
14.47477	94163
14.48290	94035
14.49102	90707
14.49915	90497
14.50727	92865
14.51538	89793
14.52352	88761
14.53163	87159
14.53977	90538
14.54788	92022
14.55600	93627
14.56413	97589
14.57225	88471
14.58037	95639
14.58850	96662
14.59662	102329
14.60475	93823
14.61287	97624
14.62098	88047
14.62912	84700
14.63723	86074
14.64537	84810
14.65348	80204
14.66160	76540
14.66973	79662
14.67785	75604
14.68597	78045
14.69410	77447
14.70222	79195
14.71035	74226
14.71847	83233
14.72658	80252
14.73472	85296
14.74283	79318
14.75097	84572
14.75908	76971
14.76720	80207
14.77533	82881
14.78345	81314
14.79158	78443
14.79970	80924
14.80782	85431
14.81595	100578
14.82407	121107
14.83218	167130
14.84032	208779
14.84843	257969
14.85657	290628
14.86468	313561
14.87280	305491
14.88093	291488
14.88905	284126
14.89718	266658
14.90530	266291
14.91342	257084
14.92155	238246
14.92967	227901
14.93780	227456
14.94592	225944
14.95403	225986
14.96217	204463
14.97028	207765
14.97840	206954
14.98653	210732
14.99465	199045
15.00278	189783
15.01090	199792
15.01902	183525
15.02715	174770
15.03527	173286
15.04340	181713
15.05152	172080
15.05963	170521
15.06777	168925
15.07588	163546
15.08402	163132
15.09213	164142
15.10025	161749
15.10838	157935
15.11650	149986
15.12462	151940
15.13275	147737
15.14087	149234
15.14900	144637
15.15712	136618
15.16523	128307
15.17337	124861
15.18148	111369
15.18962	105850
15.19773	106420
15.20585	105935
15.21398	97971
15.22210	101812
15.23022	101168
15.23835	102789
15.24647	94911
15.25460	95764
15.26272	90266
15.27083	99925
15.27897	95379
15.28708	97851
15.29522	93141
15.30333	83272
15.31145	87868
15.31958	88600
15.32770	88628
15.33583	84437
15.34395	88666
15.35207	86222
15.36020	87881
15.36832	84875
15.37643	83724
15.38457	83054
15.39268	81979
15.40082	84560
15.40893	82471
15.41705	81594
15.42518	91407
15.43330	79251
15.44143	81961
15.44955	78434
15.45767	85243
15.46580	82893
15.47392	76537
15.48203	79404
15.49017	81299
15.49828	85439
15.50642	86123
15.51453	98653
15.52265	93976
15.53078	101663
15.53890	97484
15.54703	88069
15.55515	87412
15.56327	84090
15.57140	79375
15.57952	77676
15.58765	79586
15.59577	78785
15.60388	77615
15.61202	80178
15.62013	73056
15.62825	74759
15.63638	71309
15.64450	78968
15.65263	72849
15.66075	71753
15.66887	77040
15.67700	75255
15.68512	73660
15.69325	72309
15.70137	75241
15.70948	75520
15.71762	71778
15.72573	72996
15.73387	70315
15.74198	74635
15.75010	72493
15.75823	80434
15.76635	74102
15.77447	78467
15.78260	80725
15.79072	85360
15.79885	85525
15.80697	99158
15.81508	95879
15.82322	95600
15.83133	91470
15.83947	92086
15.84758	85664
15.85570	85106
15.86383	87212
15.87195	85272
15.88007	85817
15.88820	85704
15.89632	86733
15.90445	82857
15.91257	81720
15.92068	79222
15.92882	87175
15.93693	85283
15.94507	88025
15.95318	88127
15.96130	81989
15.96943	86855
15.97755	80413
15.98568	86946
15.99380	86265
16.00192	87652
16.01005	108326
16.01817	142972
16.02628	209794
16.03442	305214
16.04253	415283
16.05067	490461
16.05878	489337
16.06690	428304
16.07503	327710
16.08315	244061
16.09128	189554
16.09940	149281
16.10752	138216
16.11565	124550
16.12377	114216
16.13190	116261
16.14002	105621
16.14813	99948
16.15627	98283
16.16438	96134
16.17250	96691
16.18063	91613
16.18875	94984
16.19688	94358
16.20500	94517
16.21312	91553
16.22125	90806
16.22937	87942
16.23750	92451
16.24562	95210
16.25373	95899
16.26187	96648
16.26998	98346
16.27810	93738
16.28623	94638
16.29435	87947
16.30248	89084
16.31060	88572
16.31872	85350
16.32685	81443
16.33497	85557
16.34310	88123
16.35122	93089
16.35933	95447
16.36747	93964
16.37558	90089
16.38372	88875
16.39183	83799
16.39995	79686
16.40808	77443
16.41620	78116
16.42432	81208
16.43245	80401
16.44057	76085
16.44870	75658
16.45682	77126
16.46493	79766
16.47307	79971
16.48118	91534
16.48932	102119
16.49743	112159
16.50555	115175
16.51368	123876
16.52180	127524
16.52992	123171
16.53805	117193
16.54617	120188
16.55430	109078
16.56242	108089
16.57053	110478
16.57867	102495
16.58678	101717
16.59492	100310
16.60303	96163
16.61115	98617
16.61928	94527
16.62740	95617
16.63553	92853
16.64365	94722
16.65177	94962
16.65990	87604
16.66802	93910
16.67613	91692
16.68427	87217
16.69238	88200
16.70052	87675
16.70863	86202
16.71675	85628
16.72488	87950
16.73300	79145
16.74113	78045
16.74925	80116
16.75737	74949
16.76550	74935
16.77362	71345
16.78175	73503
16.78987	70968
16.79798	73571
16.80612	71776
16.81423	72194
16.82235	71241
16.83048	72080
16.83860	74291
16.84673	74271
16.85485	73399
16.86297	77132
16.87110	69323
16.87922	75364
16.88735	70891
16.89547	67539
16.90358	67269
16.91172	73726
16.91983	73003
16.92795	76306
16.93608	69520
16.94420	75530
16.95233	75345
16.96045	74249
16.96857	74568
16.97670	76091
16.98482	67616
16.99295	71851
17.00107	76149
17.00918	67489
17.01732	76627
17.02543	72594
17.03357	69719
17.04168	71654
17.04980	70222
17.05793	75005
17.06605	76613
17.07417	74808
17.08230	73825
17.09042	79329
17.09855	70492
17.10667	74092
17.11478	79136
17.12292	75334
17.13103	76298
17.13917	77098
17.14728	84008
17.15540	72805
17.16353	77381
17.17165	72830
17.17978	76549
17.18790	72636
17.19602	73316
17.20415	71399
17.21227	70016
17.22038	71686
17.22852	74648
17.23663	72773
17.24477	74333
17.25288	66650
17.26100	76050
17.26913	72650
17.27725	73818
17.28538	76277
17.29350	78084
17.30162	77262
17.30975	76718
17.31787	79087
17.32598	80468
17.33412	76329
17.34223	83283
17.35037	82458
17.35848	94577
17.36660	107985
17.37473	123100
17.38285	134683
17.39098	142468
17.39910	145134
17.40722	142592
17.41535	137070
17.42347	121254
17.43160	114623
17.43972	113750
17.44783	111191
17.45597	106672
17.46408	103308
17.47220	100862
17.48033	101494
17.48845	98919
17.49658	100905
17.50470	101044
17.51282	96195
17.52095	98423
17.52907	99784
17.53720	95231
17.54532	97323
17.55343	97703
17.56157	99787
17.56968	99454
17.57782	97699
17.58593	96723
17.59405	93281
17.60218	100017
17.61030	101317
17.61842	92959
17.62655	96894
17.63467	90170
17.64280	94351
17.65092	98694
17.65903	89872
17.66717	90908
17.67528	95341
17.68342	99301
17.69153	99762
17.69965	102276
17.70778	103868
17.71590	98968
17.72402	98546
17.73215	96483
17.74027	95108
17.74840	99264
17.75652	97753
17.76463	101383
17.77277	92259
17.78088	94040
17.78902	86755
17.79713	82478
17.80525	81414
17.81338	82247
17.82150	82885
17.82963	90171
17.83775	92892
17.84587	96798
17.85400	104032
17.86212	114374
17.87023	118221
17.87837	111839
17.88648	108886
17.89462	100319
17.90273	90344
17.91085	89046
17.91898	83422
17.92710	81814
17.93523	76431
17.94335	80619
17.95147	83666
17.95960	72150
17.96772	77638
17.97583	73712
17.98397	73841
17.99208	73922
18.00022	75741
18.00833	73462
18.01645	80219
18.02458	76686
18.03270	76972
18.04083	76110
18.04895	87342
18.05707	84640
18.06520	88609
18.07332	104163
18.08145	143631
18.08957	205175
18.09768	315094
18.10582	415755
18.11393	515208
18.12205	575985
18.13018	584138
18.13830	565942
18.14643	533055
18.15455	495053
18.16267	452205
18.17080	445681
18.17892	416339
18.18705	403416
18.19517	388639
18.20328	361638
18.21142	332997
18.21953	322713
18.22767	308163
18.23578	306289
18.24390	290745
18.25203	300757
18.26015	278285
18.26827	269990
18.27640	247930
18.28452	232434
18.29265	207264
18.30077	180574
18.30888	156665
18.31702	133885
18.32513	123678
18.33327	114310
18.34138	110119
18.34950	102477
18.35763	107742
18.36575	103169
18.37387	104914
18.38200	102180
18.39012	102660
18.39825	97565
18.40637	94514
18.41448	94608
18.42262	99210
18.43073	93800
18.43887	93686
18.44698	101893
18.45510	92858
18.46323	95222
18.47135	94367
18.47948	107136
18.48760	103118
18.49572	104774
18.50385	98400
18.51197	102816
18.52008	91056
18.52822	93754
18.53633	80202
18.54447	81972
18.55258	84956
18.56070	81211
18.56883	79340
18.57695	87054
18.58508	83194
18.59320	84129
18.60132	87314
18.60945	98967
18.61757	96769
18.62570	110254
18.63382	111120
18.64193	112021
18.65007	98646
18.65818	97796
18.66630	91383
18.67443	91505
18.68255	93706
18.69068	90734
18.69880	85849
18.70692	81476
18.71505	79007
18.72317	78177
18.73130	80303
18.73942	77001
18.74753	79095
18.75567	80113
18.76378	84019
18.77190	77932
18.78003	77981
18.78815	79651
18.79628	81294
18.80440	73439
18.81252	77894
18.82065	76269
18.82877	77753
18.83690	82722
18.84502	80690
18.85313	80124
18.86127	76188
18.86938	82207
18.87752	76303
18.88563	83256
18.89375	82676
18.90188	80993
18.91000	84853
18.91812	84302
18.92625	83120
18.93437	77016
18.94250	84476
18.95062	79839
18.95873	85122
18.96687	85180
18.97498	89612
18.98312	81814
18.99123	74810
18.99935	82667
19.00748	85684
19.01560	86328
19.02372	81213
19.03185	84067
19.03997	82990
19.04810	84119
19.05622	81421
19.06433	80125
19.07247	78617
19.08058	89363
19.08872	96247
19.09683	117288
19.10495	143509
19.11308	160818
19.12120	175987
19.12933	176458
19.13745	172954
19.14557	150429
19.15370	128770
19.16182	113988
19.16993	102285
19.17807	97958
19.18618	95386
19.19432	95679
19.20243	93746
19.21055	92776
19.21868	94932
19.22680	95000
19.23493	94445
19.24305	85263
19.25117	85157
19.25930	88609
19.26742	96555
19.27555	115071
19.28367	161950
19.29178	233475
19.29992	340043
19.30803	448783
19.31615	525413
19.32428	533112
19.33240	457756
19.34053	370053
19.34865	264581
19.35677	212605
19.36490	184778
19.37302	169609
19.38115	169376
19.38927	161081
19.39738	155767
19.40552	150479
19.41363	146203
19.42175	135604
19.42988	128448
19.43800	134946
19.44613	122085
19.45425	117338
19.46237	119250
19.47050	111170
19.47862	119907
19.48675	118625
19.49487	126048
19.50298	161385
19.51112	267208
19.51923	445208
19.52737	686296
19.53548	893658
19.54360	952458
19.55173	802365
19.55985	580449
19.56797	359208
19.57610	235741
19.58422	165416
19.59235	146497
19.60047	131380
19.60858	124026
19.61672	116717
19.62483	121904
19.63297	132607
19.64108	188774
19.64920	304983
19.65733	609919
19.66545	1136268
19.67358	1998593
19.68170	2954561
19.68982	3494165
19.69795	3224897
19.70607	2566254
19.71418	1861988
19.72232	1187916
19.73043	805514
19.73857	566673
19.74668	434497
19.75480	350464
19.76293	301781
19.77105	260844
19.77918	224182
19.78730	206137
19.79542	186354
19.80355	189203
19.81167	196715
19.81978	209368
19.82792	218247
19.83603	223649
19.84417	216114
19.85228	222637
19.86040	210881
19.86853	215921
19.87665	219044
19.88478	219446
19.89290	231702
19.90102	266491
19.90915	290327
19.91727	315269
19.92540	340084
19.93352	346992
19.94163	350396
19.94977	335163
19.95788	315866
19.96600	309227
19.97413	298985
19.98225	291874
19.99038	290953
19.99850	282533
20.00662	278803
20.01475	270486
20.02287	272351
20.03100	257246
20.03912	249354
20.04723	255511
20.05537	245150
20.06348	231988
20.07160	223280
20.07973	222488
20.08785	199689
20.09598	207536
20.10410	198418
20.11222	203678
20.12035	198505
20.12847	190335
20.13660	203323
20.14472	189955
20.15283	190495
20.16097	181898
20.16908	180359
20.17722	184144
20.18533	177681
20.19345	188094
20.20158	181968
20.20970	189831
20.21782	184748
20.22595	185034
20.23407	185213
20.24220	193658
20.25032	221177
20.25843	316773
20.26657	560317
20.27468	984563
20.28282	1666036
20.29093	2479338
20.29905	3021468
20.30718	3058610
20.31530	2735272
20.32343	2023019
20.33155	1401674
20.33967	928434
20.34780	628037
20.35592	445719
20.36403	349009
20.37217	304533
20.38028	281865
20.38842	259143
20.39653	251005
20.40465	243837
20.41278	245916
20.42090	262722
20.42903	336261
20.43715	458527
20.44527	642153
20.45340	864335
20.46152	1020718
20.46965	1092381
20.47777	993627
20.48588	843574
20.49402	643709
20.50213	506301
20.51025	399959
20.51838	324886
20.52650	280683
20.53463	253551
20.54275	243410
20.55087	227279
20.55900	216481
20.56712	209848
20.57525	208860
20.58337	214739
20.59148	196697
20.59962	205377
20.60773	196697
20.61585	191392
20.62398	187153
20.63210	179671
20.64023	182629
20.64835	186151
20.65647	174988
20.66460	186858
20.67272	173048
20.68085	177155
20.68897	184259
20.69708	175562
20.70522	177392
20.71333	173828
20.72147	169776
20.72958	167860
20.73770	160447
20.74583	161967
20.75395	160067
20.76207	154083
20.77020	166850
20.77832	159296
20.78645	156849
20.79457	157165
20.80268	153915
20.81082	162238
20.81893	164228
20.82707	160926
20.83518	176555
20.84330	175260
20.85143	169078
20.85955	169018
20.86767	167287
20.87580	169872
20.88392	163828
20.89205	155051
20.90017	158190
20.90828	149625
20.91642	151275
20.92453	146375
20.93267	143764
20.94078	145322
20.94890	144768
20.95703	149646
20.96515	148911
20.97328	150496
20.98140	142056
20.98952	148366
20.99765	140503
21.00577	144085
21.01388	135454
21.02202	140795
21.03013	140082
21.03827	139319
21.04638	144398
21.05450	134662
21.06263	139407
21.07075	139496
21.07888	136398
21.08700	141576
21.09512	136187
21.10325	129732
21.11137	133634
21.11950	131321
21.12762	132580
21.13573	132101
21.14387	133393
21.15198	140937
21.16010	146221
21.16823	146502
21.17635	162487
21.18448	165893
21.19260	166625
21.20072	165937
21.20885	158018
21.21697	153953
21.22510	154753
21.23322	148126
21.24133	153298
21.24947	155074
21.25758	154695
21.26570	151626
21.27383	148473
21.28195	146139
21.29008	152552
21.29820	146015
21.30632	142014
21.31445	142513
21.32257	142132
21.33070	144178
21.33882	133729
21.34693	133029
21.35507	132272
21.36318	132908
21.37132	129298
21.37943	135779
21.38755	135174
21.39568	130854
21.40380	140995
21.41192	141689
21.42005	150578
21.42817	151165
21.43630	159979
21.44442	162678
21.45253	166064
21.46067	165254
21.46878	158939
21.47692	157220
21.48503	159237
21.49315	150498
21.50128	142760
21.50940	142293
21.51753	138083
21.52565	144518
21.53377	139986
21.54190	128564
21.55002	130443
21.55813	130657
21.56627	133125
21.57438	137981
21.58252	134468
21.59063	142396
21.59875	138292
21.60688	140960
21.61500	153762
21.62313	174733
21.63125	248064
21.63937	361080
21.64750	557854
21.65562	816534
21.66373	1038298
21.67187	1112625
21.67998	999685
21.68812	778263
21.69623	556560
21.70435	402585
21.71248	285753
21.72060	227109
21.72873	193235
21.73685	180488
21.74497	168370
21.75310	168526
21.76122	162015
21.76935	160437
21.77747	162616
21.78558	162906
21.79372	160821
21.80183	151592
21.80995	157009
21.81808	172390
21.82620	223226
21.83433	309666
21.84245	459556
21.85057	663632
21.85870	837351
21.86682	899538
21.87495	820945
21.88307	651922
21.89118	482847
21.89932	346052
21.90743	251732
21.91555	199441
21.92368	171807
21.93180	162559
21.93993	157218
21.94805	153398
21.95617	152412
21.96430	153657
21.97242	160700
21.98055	151612
21.98867	150531
21.99678	144112
22.00492	134208
22.01303	127779
22.02117	129714
22.02928	121730
22.03740	125156
22.04553	129349
22.05365	128677
22.06177	134261
22.06990	130370
22.07802	126073
22.08615	134399
22.09427	143482
22.10238	142151
22.11052	134321
22.11863	136013
22.12677	137104
22.13488	139911
22.14300	138500
22.15113	140062
22.15925	147671
22.16738	150262
22.17550	156998
22.18362	162504
22.19175	159149
22.19987	150244
22.20798	145322
22.21612	161228
22.22423	172547
22.23237	207428
22.24048	244080
22.24860	293423
22.25673	303392
22.26485	292397
22.27298	260977
22.28110	225053
22.28922	186661
22.29735	169782
22.30547	142673
22.31358	139132
22.32172	138472
22.32983	135381
22.33797	136779
22.34608	130035
22.35420	128766
22.36233	133351
22.37045	131383
22.37858	136049
22.38670	135869
22.39482	130265
22.40295	128864
22.41107	126939
22.41920	124882
22.42732	127556
22.43543	131507
22.44357	140111
22.45168	143595
22.45980	155825
22.46793	167724
22.47605	175206
22.48418	174520
22.49230	166728
22.50042	154865
22.50855	155589
22.51667	134294
22.52480	132047
22.53292	130775
22.54103	126970
22.54917	132859
22.55728	133186
22.56542	132367
22.57353	124043
22.58165	126845
22.58978	122089
22.59790	125703
22.60602	128609
22.61415	127279
22.62227	125892
22.63040	114811
22.63852	116279
22.64663	119558
22.65477	116307
22.66288	116534
22.67102	117348
22.67913	116778
22.68725	122578
22.69538	120167
22.70350	115439
22.71162	122556
22.71975	130101
22.72787	140296
22.73600	127983
22.74412	137336
22.75223	136235
22.76037	128144
22.76848	132389
22.77662	126986
22.78473	124950
22.79285	125985
22.80098	120177
22.80910	127790
22.81723	131826
22.82535	142728
22.83347	143105
22.84160	142407
22.84972	147662
22.85783	148395
22.86597	153268
22.87408	153911
22.88222	148776
22.89033	154459
22.89845	142461
22.90658	150443
22.91470	147328
22.92283	154855
22.93095	170356
22.93907	184776
22.94720	197351
22.95532	220676
22.96345	214321
22.97157	207324
22.97968	199194
22.98782	183151
22.99593	178061
23.00405	161418
23.01218	148740
23.02030	147689
23.02843	142968
23.03655	137704
23.04467	138394
23.05280	130540
23.06092	125653
23.06905	121413
23.07717	122466
23.08528	120663
23.09342	122514
23.10153	121892
23.10965	121481
23.11778	118572
23.12590	120845
23.13403	120441
23.14215	117437
23.15027	112339
23.15840	116342
23.16652	113209
23.17465	116669
23.18277	111146
23.19088	118446
23.19902	116507
23.20713	119211
23.21527	116313
23.22338	118995
23.23150	120966
23.23963	113161
23.24775	112933
23.25587	110917
23.26400	113957
23.27212	113915
23.28025	114212
23.28837	110408
23.29648	117112
23.30462	113999
23.31273	115235
23.32087	112100
23.32898	114435
23.33710	111423
23.34523	115555
23.35335	116955
23.36147	122089
23.36960	119626
23.37772	124368
23.38585	120543
23.39397	130814
23.40208	130639
23.41022	129102
23.41833	123740
23.42647	130460
23.43458	119230
23.44270	121193
23.45083	116921
23.45895	120073
23.46708	117127
23.47520	113200
23.48332	114907
23.49145	106723
23.49957	110594
23.50768	111607
23.51582	111364
23.52393	109665
23.53207	109570
23.54018	109203
23.54830	108718
23.55643	114841
23.56455	118945
23.57268	120019
23.58080	111250
23.58892	123279
23.59705	116140
23.60517	109171
23.61330	110964
23.62142	111503
23.62953	110474
23.63767	119447
23.64578	111987
23.65390	111471
23.66203	110958
23.67015	120312
23.67828	116335
23.68640	126815
23.69452	125137
23.70265	120342
23.71077	120864
23.71890	120063
23.72702	118990
23.73513	116084
23.74327	142402
23.75138	229790
23.75950	523285
23.76763	1432590
23.77575	3317005
23.78388	6158123
23.79200	8889044
23.80012	1.08922E+07
23.80825	1.120177E+07
23.81637	9738599
23.82450	7474584
23.83262	5452680
23.84073	3671262
23.84887	2519164
23.85698	1747877
23.86512	1358298
23.87323	1078767
23.88135	893960
23.88948	803345
23.89760	703432
23.90572	633102
23.91385	593665
23.92197	539101
23.93010	516685
23.93822	487278
23.94633	454839
23.95447	422352
23.96258	411596
23.97072	400256
23.97883	381084
23.98695	360204
23.99508	363225
24.00320	332898
24.01133	337135
24.01945	317630
24.02757	317081
24.03570	315028
24.04382	288635
24.05193	294717
24.06007	284931
24.06818	286466
24.07632	292058
24.08443	269019
24.09255	256314
24.10068	268998
24.10880	250220
24.11693	245423
24.12505	247473
24.13317	256588
24.14130	285656
24.14942	316211
24.15753	366130
24.16567	397018
24.17378	423341
24.18192	408894
24.19003	373767
24.19815	334696
24.20628	310959
24.21440	317932
24.22253	319325
24.23065	363695
24.23877	405627
24.24690	460779
24.25502	474785
24.26315	444179
24.27127	385867
24.27938	328800
24.28752	280645
24.29563	247774
24.30375	226582
24.31188	225049
24.32000	218288
24.32813	219649
24.33625	213654
24.34437	212624
24.35250	214106
24.36062	233841
24.36875	231419
24.37687	232670
24.38498	241397
24.39312	243252
24.40123	276940
24.40935	341945
24.41748	444736
24.42560	616726
24.43373	679879
24.44185	649154
24.44997	527411
24.45810	396437
24.46622	289939
24.47435	237254
24.48247	206774
24.49058	196937
24.49872	199529
24.50683	220884
24.51497	241583
24.52308	298765
24.53120	389419
24.53933	454898
24.54745	505788
24.55557	478174
24.56370	429984
24.57182	357419
24.57995	300098
24.58807	265042
24.59618	237838
24.60432	228662
24.61243	216781
24.62057	222312
24.62868	217192
24.63680	218369
24.64493	215254
24.65305	215983
24.66118	224882
24.66930	249374
24.67742	256621
24.68555	262649
24.69367	258143
24.70178	235145
24.70992	217113
24.71803	201060
24.72617	182489
24.73428	171838
24.74240	169492
24.75053	163356
24.75865	163426
24.76678	157403
24.77490	166130
24.78302	164334
24.79115	163221
24.79927	160409
24.80740	160188
24.81552	154514
24.82363	155186
24.83177	153019
24.83988	162150
24.84800	156240
24.85613	156364
24.86425	160029
24.87238	165137
24.88050	166841
24.88862	182523
24.89675	185066
24.90487	186101
24.91300	181640
24.92112	189998
24.92923	185340
24.93737	162264
24.94548	157439
24.95360	153801
24.96173	152051
24.96985	151630
24.97798	144381
24.98610	144107
24.99422	142670
25.00235	141541
25.01047	142357
25.01860	144020
25.02672	146382
25.03483	148483
25.04297	155282
25.05108	167013
25.05922	172644
25.06733	181607
25.07545	171124
25.08358	161973
25.09170	154901
25.09982	147321
25.10795	150524
25.11607	146773
25.12420	168614
25.13232	207518
25.14043	271498
25.14857	379245
25.15668	503443
25.16482	615396
25.17293	676841
25.18105	655908
25.18918	580316
25.19730	480727
25.20542	381180
25.21355	306205
25.22167	257667
25.22980	210491
25.23792	207702
25.24603	188018
25.25417	183046
25.26228	170508
25.27042	170508
25.27853	171687
25.28665	167067
25.29478	164033
25.30290	161930
25.31103	160393
25.31915	167187
25.32727	178865
25.33540	183799
25.34352	178590
25.35163	167054
25.35977	155275
25.36788	152423
25.37602	145099
25.38413	141953
25.39225	135733
25.40038	131907
25.40850	131678
25.41663	133315
25.42475	133345
25.43287	126610
25.44100	126339
25.44912	131234
25.45723	131399
25.46537	138901
25.47348	161786
25.48162	195498
25.48973	233445
25.49785	304762
25.50598	346340
25.51410	373756
25.52223	352158
25.53035	332019
25.53847	278592
25.54660	237020
25.55472	211088
25.56285	187369
25.57097	178181
25.57908	163927
25.58722	158903
25.59533	152994
25.60345	148913
25.61158	146573
25.61970	144782
25.62783	145180
25.63595	130901
25.64407	130803
25.65220	138913
25.66032	129726
25.66845	134600
25.67657	130723
25.68468	134280
25.69282	130694
25.70093	132124
25.70907	128992
25.71718	131881
25.72530	141315
25.73343	134114
25.74155	139872
25.74967	128836
25.75780	127799
25.76592	130057
25.77405	123679
25.78217	124849
25.79028	122859
25.79842	124591
25.80653	127808
25.81467	126472
25.82278	130714
25.83090	129252
25.83903	121025
25.84715	132118
25.85528	128515
25.86340	128540
25.87152	127218
25.87965	127514
25.88777	128838
25.89588	117431
25.90402	118970
25.91213	123068
25.92027	122841
25.92838	116030
25.93650	114675
25.94463	114315
25.95275	120283
25.96088	118709
25.96900	122531
25.97712	114866
25.98525	115414
25.99337	105953
26.00148	117416
26.00962	111145
26.01773	110017
26.02587	113846
26.03398	108918
26.04210	107806
26.05023	108609
26.05835	116877
26.06648	116396
26.07460	117804
26.08272	119432
26.09085	126395
26.09897	120132
26.10710	130640
26.11522	127176
26.12333	128351
26.13147	134238
26.13958	137208
26.14770	149441
26.15583	148253
26.16395	149356
26.17208	161849
26.18020	154310
26.18832	146598
26.19645	145939
26.20457	127121
26.21270	128314
26.22082	121882
26.22893	119326
26.23707	109272
26.24518	109715
26.25330	107979
26.26143	117097
26.26955	111750
26.27768	128184
26.28580	127807
26.29392	135514
26.30205	144700
26.31017	133203
26.31830	129414
26.32642	126142
26.33453	121333
26.34267	116547
26.35078	115163
26.35892	120871
26.36703	125719
26.37515	123707
26.38328	137509
26.39140	148786
26.39952	158369
26.40765	171133
26.41577	188109
26.42390	195325
26.43202	190998
26.44013	184463
26.44827	171905
26.45638	158295
26.46452	139256
26.47263	135760
26.48075	127337
26.48888	122083
26.49700	115821
26.50513	116663
26.51325	116858
26.52137	111845
26.52950	114958
26.53762	115510
26.54573	103263
26.55387	109803
26.56198	107552
26.57012	105694
26.57823	109935
26.58635	115923
26.59448	109336
26.60260	109580
26.61073	108132
26.61885	109934
26.62697	110932
26.63510	109418
26.64322	107627
26.65133	105535
26.65947	112749
26.66758	112714
26.67572	113699
26.68383	113262
26.69195	116486
26.70008	115212
26.70820	109973
26.71633	117264
26.72445	109176
26.73257	109541
26.74070	111084
26.74882	113990
26.75695	118136
26.76507	121059
26.77318	123914
26.78132	123277
26.78943	117088
26.79755	117264
26.80568	115498
26.81380	113023
26.82193	118590
26.83005	122483
26.83817	124640
26.84630	128662
26.85442	125956
26.86255	137070
26.87067	138237
26.87878	148691
26.88692	155300
26.89503	163638
26.90317	173678
26.91128	164319
26.91940	162885
26.92753	159890
26.93565	170264
26.94377	221154
26.95190	416240
26.96002	1038274
26.96815	3071155
26.97627	8483255
26.98438	1.834221E+07
26.99252	3.039813E+07
27.00063	3.963518E+07
27.00877	4.45214E+07
27.01688	4.338342E+07
27.02500	3.879948E+07
27.03313	3.175523E+07
27.04125	2.366252E+07
27.04937	1.671521E+07
27.05750	1.161224E+07
27.06562	8128704
27.07375	6012072
27.08187	4504133
27.08998	3557146
27.09812	2961656
27.10623	2550427
27.11437	2265771
27.12248	2067531
27.13060	1924238
27.13873	1781096
27.14685	1629606
27.15498	1489088
27.16310	1408983
27.17122	1356754
27.17935	1263816
27.18747	1197591
27.19558	1146843
27.20372	1135923
27.21183	1080879
27.21997	1027466
27.22808	1020630
27.23620	979259
27.24433	912249
27.25245	887646
27.26058	840103
27.26870	816177
27.27682	789632
27.28495	750614
27.29307	744274
27.30118	718531
27.30932	719188
27.31743	681926
27.32557	674240
27.33368	645180
27.34180	624775
27.34993	620110
27.35805	607963
27.36618	599067
27.37430	592847
27.38242	585692
27.39055	555243
27.39867	555691
27.40680	545462
27.41492	528579
27.42303	523066
27.43117	510536
27.43928	515542
27.44740	484390
27.45553	486030
27.46365	483594
27.47178	480433
27.47990	458728
27.48802	458327
27.49615	456822
27.50427	446007
27.51240	435732
27.52052	437410
27.52863	430633
27.53677	435022
27.54488	438897
27.55302	457264
27.56113	458394
27.56925	482484
27.57738	470924
27.58550	460250
27.59362	434918
27.60175	427022
27.60987	415344
27.61800	418507
27.62612	413401
27.63423	420401
27.64237	428109
27.65048	425822
27.65862	424060
27.66673	407581
27.67485	401635
27.68298	396684
27.69110	390071
27.69922	370235
27.70735	370992
27.71547	357343
27.72360	351058
27.73172	361755
27.73983	358297
27.74797	352102
27.75608	356063
27.76422	344616
27.77233	341758
27.78045	344111
27.78858	347596
27.79670	352513
27.80483	349315
27.81295	349602
27.82107	334160
27.82920	338363
27.83732	326306
27.84543	339308
27.85357	327181
27.86168	327858
27.86982	315170
27.87793	319116
27.88605	308686
27.89418	308436
27.90230	305995
27.91043	310342
27.91855	288816
27.92667	286330
27.93480	285816
27.94292	280408
27.95105	286900
27.95917	274813
27.96728	282393
27.97542	283881
27.98353	282713
27.99165	280164
27.99978	272902
28.00790	275951
28.01603	271552
28.02415	274525
28.03227	275648
28.04040	265340
28.04852	261963
28.05665	265404
28.06477	281934
28.07288	271267
28.08102	274525
28.08913	262312
28.09725	270013
28.10538	259042
28.11350	255629
28.12163	254653
28.12975	242371
28.13787	244838
28.14600	242316
28.15412	234402
28.16225	234610
28.17037	228390
28.17848	222558
28.18662	221644
28.19473	226117
28.20287	228644
28.21098	234772
28.21910	247655
28.22723	277457
28.23535	305052
28.24347	335413
28.25160	336613
28.25972	335414
28.26785	331159
28.27597	381425
28.28408	563758
28.29222	1055079
28.30033	2147578
28.30847	4276275
28.31658	7640934
28.32470	1.204622E+07
28.33283	1.588115E+07
28.34095	1.840601E+07
28.34908	1.938674E+07
28.35720	1.943449E+07
28.36532	1.799857E+07
28.37345	1.627561E+07
28.38157	1.35817E+07
28.38968	1.130091E+07
28.39782	9448923
28.40593	7780458
28.41407	6210101
28.42218	5025015
28.43030	4051198
28.43843	3287678
28.44655	2783487
28.45468	2423105
28.46280	2108480
28.47092	1832299
28.47905	1651686
28.48717	1532418
28.49528	1358235
28.50342	1263656
28.51153	1202367
28.51967	1119459
28.52778	1062741
28.53590	1016214
28.54403	981732
28.55215	915400
28.56028	886738
28.56840	839109
28.57652	799403
28.58465	773323
28.59277	757533
28.60090	748089
28.60902	717794
28.61713	684996
28.62527	674247
28.63338	655783
28.64150	645445
28.64963	652228
28.65775	629128
28.66588	626881
28.67400	627483
28.68212	619851
28.69025	615622
28.69837	592514
28.70650	575864
28.71462	538735
28.72273	560011
28.73087	543854
28.73898	527857
28.74710	514381
28.75523	503628
28.76335	515240
28.77148	528704
28.77960	539630
28.78772	596784
28.79585	632324
28.80397	714548
28.81210	735918
28.82022	696928
28.82833	624871
28.83647	559435
28.84458	515275
28.85272	495100
28.86083	462879
28.86895	455600
28.87708	453599
28.88520	462291
28.89332	451261
28.90145	429293
28.90957	433357
28.91770	436792
28.92582	433298
28.93393	444967
28.94207	431898
28.95018	425779
28.95832	425384
28.96643	427192
28.97455	415068
28.98268	421385
28.99080	405164
28.99893	407191
29.00705	394558
29.01517	407880
29.02330	395533
29.03142	389786
29.03953	382649
29.04767	394854
29.05578	389068
29.06392	374464
29.07203	371110
29.08015	383060
29.08828	357674
29.09640	378747
29.10453	378384
29.11265	372572
29.12077	362556
29.12890	368433
29.13702	383610
29.14513	370619
29.15327	371371
29.16138	365609
29.16952	368228
29.17763	368525
29.18575	372581
29.19388	363287
29.20200	357050
29.21013	358122
29.21825	364482
29.22637	359277
29.23450	370271
29.24262	367289
29.25075	370141
29.25887	362132
29.26698	376696
29.27512	356660
29.28323	354836
29.29135	348479
29.29948	359454
29.30760	354461
29.31573	349880
29.32385	337611
29.33197	348289
29.34010	349651
29.34822	336560
29.35635	341477
29.36447	330288
29.37258	341929
29.38072	346573
29.38883	344480
29.39697	336287
29.40508	364671
29.41320	379541
29.42133	372299
29.42945	366781
29.43757	358702
29.44570	336556
29.45382	327234
29.46195	320276
29.47007	313320
29.47818	285867
29.48632	290256
29.49443	292250
29.50257	303891
29.51068	310795
29.51880	330032
29.52693	336567
29.53505	336604
29.54317	321288
29.55130	308620
29.55942	288413
29.56755	270122
29.57567	257157
29.58378	250885
29.59192	253902
29.60003	250494
29.60817	237990
29.61628	233452
29.62440	241257
29.63253	242673
29.64065	235463
29.64878	241511
29.65690	246546
29.66502	234540
29.67315	237775
29.68127	225914
29.68938	218384
29.69752	229472
29.70563	218876
29.71377	226926
29.72188	214229
29.73000	222715
29.73813	220612
29.74625	223597
29.75438	218867
29.76250	230976
29.77062	221619
29.77875	220202
29.78687	215137
29.79498	209712
29.80312	204587
29.81123	202927
29.81937	195571
29.82748	198361
29.83560	204221
29.84373	204792
29.85185	200338
29.85998	198374
29.86810	201052
29.87622	197925
29.88435	205696
29.89247	204526
29.90060	219203
29.90872	228489
29.91683	238034
29.92497	257648
29.93308	291515
29.94120	351774
29.94933	505933
29.95745	786005
29.96558	1224354
29.97370	1877087
29.98182	2861890
29.98995	4302665
29.99807	5647012
30.00620	6966631
30.01432	8168520
30.02243	8795831
30.03057	9131184
30.03868	8901217
30.04682	8696035
30.05493	8061736
30.06305	7232993
30.07118	6451651
30.07930	5720535
30.08742	5021769
30.09555	4392911
30.10367	3747509
30.11180	3152123
30.11992	2586577
30.12803	2274805
30.13617	1963801
30.14428	1690697
30.15242	1482850
30.16053	1270913
30.16865	1151231
30.17678	1046320
30.18490	951441
30.19303	899193
30.20115	811281
30.20927	737772
30.21740	686824
30.22552	636024
30.23363	604929
30.24177	574843
30.24988	552153
30.25802	543096
30.26613	516441
30.27425	496393
30.28238	457209
30.29050	435584
30.29863	431756
30.30675	421146
30.31487	413018
30.32300	408474
30.33112	384641
30.33923	389202
30.34737	384872
30.35548	364057
30.36362	363480
30.37173	346821
30.37985	360940
30.38798	346571
30.39610	339737
30.40423	326683
30.41235	338402
30.42047	326076
30.42860	318734
30.43672	320505
30.44485	307124
30.45297	315841
30.46108	314638
30.46922	300374
30.47733	304263
30.48545	302506
30.49358	299170
30.50170	308902
30.50983	310503
30.51795	297947
30.52607	299416
30.53420	296799
30.54232	288248
30.55045	294716
30.55857	285517
30.56668	293955
30.57482	284831
30.58293	274650
30.59105	272603
30.59918	274638
30.60730	281965
30.61543	280083
30.62355	274007
30.63167	276320
30.63980	265486
30.64792	260349
30.65605	264225
30.66417	258790
30.67228	255542
30.68042	248595
30.68853	254426
30.69667	242993
30.70478	248094
30.71290	251170
30.72103	245618
30.72915	251290
30.73727	237434
30.74540	244102
30.75352	244105
30.76165	240037
30.76977	237543
30.77788	238493
30.78602	234229
30.79413	241104
30.80227	250454
30.81038	265335
30.81850	278564
30.82663	282408
30.83475	276296
30.84288	278190
30.85100	267349
30.85912	242568
30.86725	247167
30.87537	244604
30.88348	237795
30.89162	225223
30.89973	222185
30.90787	231757
30.91598	226789
30.92410	221671
30.93223	217224
30.94035	228139
30.94848	217872
30.95660	221129
30.96472	220668
30.97285	225790
30.98097	213053
30.98908	224685
30.99722	230756
31.00533	212442
31.01347	223475
31.02158	222047
31.02970	224011
31.03783	223342
31.04595	225223
31.05408	224533
31.06220	222453
31.07032	219593
31.07845	218605
31.08657	217325
31.09470	232267
31.10282	244122
31.11093	266959
31.11907	275165
31.12718	281683
31.13530	280897
31.14343	280290
31.15155	279207
31.15968	281118
31.16780	298368
31.17592	304183
31.18405	319493
31.19217	354663
31.20030	426407
31.20842	534128
31.21653	702107
31.22467	886688
31.23278	994969
31.24092	1073301
31.24903	1007137
31.25715	841807
31.26528	636483
31.27340	480195
31.28152	371707
31.28965	297811
31.29777	254885
31.30590	237664
31.31402	219694
31.32213	210886
31.33027	209498
31.33838	199775
31.34652	206838
31.35463	198573
31.36275	195295
31.37088	192897
31.37900	182555
31.38712	184637
31.39525	186272
31.40337	176501
31.41150	190434
31.41962	182499
31.42773	187484
31.43587	189307
31.44398	192600
31.45212	208956
31.46023	206484
31.46835	210381
31.47648	199331
31.48460	202624
31.49273	182743
31.50085	187407
31.50897	178872
31.51710	179215
31.52522	174294
31.53333	180187
31.54147	175910
31.54958	175544
31.55772	173516
31.56583	168736
31.57395	160177
31.58208	162660
31.59020	173210
31.59833	163193
31.60645	160407
31.61457	171780
31.62270	170897
31.63082	173401
31.63893	178966
31.64707	182849
31.65518	193423
31.66332	198061
31.67143	200803
31.67955	202663
31.68768	197760
31.69580	197220
31.70393	196490
31.71205	184926
31.72017	179247
31.72830	166458
31.73642	167652
31.74455	155661
31.75267	157045
31.76078	162834
31.76892	152930
31.77703	152414
31.78515	160247
31.79328	151053
31.80140	163481
31.80953	166443
31.81765	165095
31.82577	170784
31.83390	166206
31.84202	169686
31.85015	159311
31.85827	158948
31.86638	165232
31.87452	160189
31.88263	157011
31.89077	172492
31.89888	187580
31.90700	224358
31.91513	313608
31.92325	477222
31.93137	711134
31.93950	1072948
31.94762	1623000
31.95575	2213577
31.96387	2992929
31.97198	3728965
31.98012	4253580
31.98823	4571280
31.99637	4569146
32.00448	4444515
32.01260	4096412
32.02073	3701345
32.02885	3292768
32.03697	2788472
32.04510	2276140
32.05322	1955515
32.06135	1662812
32.06947	1365449
32.07758	1176021
32.08572	997239
32.09383	885970
32.10197	796047
32.11008	766374
32.11820	705031
32.12633	679223
32.13445	614580
32.14258	539762
32.15070	487033
32.15882	443619
32.16695	413859
32.17507	383802
32.18318	355642
32.19132	335290
32.19943	321383
32.20757	300663
32.21568	305736
32.22380	300422
32.23193	293367
32.24005	279770
32.24818	279238
32.25630	269554
32.26442	258187
32.27255	250181
32.28067	248203
32.28880	247107
32.29692	247963
32.30503	246758
32.31317	237621
32.32128	237598
32.32940	233858
32.33753	243973
32.34565	226427
32.35378	233196
32.36190	221058
32.37002	232446
32.37815	223883
32.38627	230887
32.39440	234316
32.40252	218808
32.41063	216940
32.41877	209838
32.42688	204828
32.43500	210435
32.44313	199385
32.45125	204078
32.45938	199293
32.46750	203999
32.47562	196206
32.48375	198908
32.49187	194535
32.50000	191239
32.50812	191647
32.51623	181426
32.52437	189436
32.53248	196766
32.54062	189839
32.54873	185931
32.55685	192113
32.56498	173650
32.57310	187036
32.58122	182786
32.58935	181416
32.59747	183544
32.60560	178654
32.61372	181505
32.62183	171809
32.62997	176561
32.63808	179651
32.64622	177697
32.65433	178318
32.66245	180729
32.67058	191567
32.67870	228158
32.68682	258832
32.69495	282477
32.70307	310103
32.71120	309584
32.71932	290219
32.72743	257535
32.73557	233209
32.74368	216304
32.75182	204696
32.75993	191246
32.76805	186255
32.77618	181767
32.78430	186460
32.79243	183568
32.80055	176358
32.80867	171961
32.81680	176865
32.82492	170306
32.83303	169737
32.84117	167298
32.84928	169624
32.85742	169744
32.86553	169246
32.87365	168606
32.88178	175846
32.88990	174412
32.89803	180740
32.90615	176361
32.91427	185797
32.92240	177543
32.93052	184254
32.93865	177601
32.94677	183691
32.95488	174836
32.96302	170579
32.97113	177982
32.97925	168217
32.98738	165853
32.99550	177520
33.00363	175147
33.01175	179277
33.01987	188086
33.02800	180158
33.03612	176266
33.04425	175048
33.05237	166081
33.06048	161244
33.06862	164114
33.07673	165875
33.08485	167011
33.09298	169576
33.10110	174295
33.10923	188600
33.11735	196087
33.12547	216112
33.13360	223636
33.14172	221452
33.14985	215140
33.15797	200102
33.16608	183475
33.17422	168257
33.18233	162421
33.19047	156955
33.19858	155114
33.20670	164772
33.21483	157156
33.22295	173084
33.23107	176645
33.23920	182564
33.24732	189719
33.25545	195156
33.26357	182073
33.27168	171175
33.27982	159974
33.28793	161237
33.29607	153447
33.30418	160957
33.31230	157852
33.32043	155861
33.32855	155279
33.33668	151360
33.34480	148784
33.35292	144690
33.36105	146599
33.36917	145143
33.37728	144065
33.38542	149439
33.39353	154190
33.40167	148743
33.40978	141164
33.41790	139444
33.42603	148666
33.43415	143515
33.44228	144273
33.45040	145474
33.45852	137920
33.46665	137523
33.47477	135851
33.48288	141246
33.49102	138029
33.49913	138418
33.50727	150454
33.51538	145137
33.52350	146717
33.53163	143282
33.53975	144464
33.54788	152567
33.55600	143178
33.56412	153250
33.57225	152756
33.58037	158654
33.58850	156528
33.59662	150593
33.60473	146102
33.61287	148327
33.62098	142343
33.62910	140293
33.63723	137069
33.64535	135312
33.65348	144423
33.66160	140240
33.66972	141327
33.67785	144291
33.68597	140010
33.69410	137100
33.70222	141491
33.71033	135865
33.71847	135285
33.72658	132961
33.73472	127085
33.74283	125855
33.75095	126507
33.75908	132469
33.76720	132310
33.77532	131966
33.78345	126138
33.79157	138274
33.79970	137264
33.80782	141169
33.81593	139279
33.82407	136612
33.83218	138063
33.84032	142839
33.84843	136495
33.85655	142081
33.86468	147748
33.87280	146316
33.88092	151529
33.88905	144889
33.89717	148568
33.90530	145590
33.91342	141512
33.92153	140015
33.92967	137549
33.93778	137216
33.94592	138125
33.95403	133195
33.96215	136657
33.97028	140483
33.97840	144022
33.98653	145053
33.99465	140179
34.00277	140918
34.01090	129948
34.01902	138166
34.02713	128420
34.03527	135256
34.04338	136966
34.05152	130295
34.05963	124607
34.06775	130078
34.07588	135282
34.08400	136270
34.09213	136944
34.10025	136457
34.10837	137507
34.11650	135708
34.12462	132027
34.13273	131172
34.14087	122198
34.14898	130888
34.15712	122055
34.16523	129010
34.17335	128601
34.18148	131080
34.18960	128190
34.19773	135742
34.20585	131274
34.21397	129040
34.22210	126576
34.23022	129312
34.23835	117054
34.24647	122042
34.25458	122098
34.26272	122559
34.27083	121426
34.27895	125088
34.28708	126353
34.29520	123391
34.30333	124170
34.31145	121276
34.31957	127577
34.32770	122095
34.33582	120922
34.34395	124698
34.35207	123651
34.36018	124817
34.36832	125548
34.37643	127046
34.38457	119052
34.39268	121782
34.40080	127204
34.40893	119058
34.41705	126071
34.42517	121764
34.43330	123878
34.44142	119486
34.44955	119207
34.45767	112640
34.46578	113679
34.47392	123367
34.48203	120227
34.49017	124242
34.49828	122812
34.50640	125158
34.51453	135105
34.52265	153947
34.53077	213759
34.53890	333421
34.54702	538578
34.55515	885206
34.56327	1389880
34.57138	1954304
34.57952	2428272
34.58763	2657535
34.59577	2645373
34.60388	2398025
34.61200	2013835
34.62013	1664883
34.62825	1287385
34.63638	1024417
34.64450	805754
34.65262	675104
34.66075	572569
34.66887	499880
34.67698	463259
34.68512	416615
34.69323	395682
34.70137	363708
34.70948	335805
34.71760	329580
34.72573	312633
34.73385	295308
34.74198	285109
34.75010	289245
34.75822	276954
34.76635	272616
34.77447	265292
34.78260	257124
34.79072	246476
34.79883	241826
34.80697	235300
34.81508	234643
34.82320	224135
34.83133	217159
34.83945	215401
34.84758	205155
34.85570	213946
34.86382	202976
34.87195	201477
34.88007	205806
34.88820	192937
34.89632	190224
34.90443	195423
34.91257	191194
34.92068	184571
34.92880	195707
34.93693	185342
34.94505	182780
34.95318	186013
34.96130	185354
34.96942	183577
34.97755	185848
34.98567	191997
34.99380	192193
35.00192	200707
35.01003	189490
35.01817	182153
35.02628	178033
35.03442	179094
35.04253	172474
35.05065	163455
35.05878	168205
35.06690	171232
35.07502	164348
35.08315	174183
35.09127	164320
35.09940	159953
35.10752	167073
35.11563	173924
35.12377	181046
35.13188	194980
35.14002	218502
35.14813	247801
35.15625	305445
35.16438	327522
35.17250	350682
35.18062	347669
35.18875	326749
35.19687	286674
35.20500	254568
35.21312	223895
35.22123	200003
35.22937	180368
35.23748	176617
35.24562	169983
35.25373	167811
35.26185	170338
35.26998	169130
35.27810	169620
35.28623	174034
35.29435	173665
35.30247	181012
35.31060	175432
35.31872	170807
35.32683	168080
35.33497	158858
35.34308	162355
35.35122	159315
35.35933	158441
35.36745	154188
35.37558	153546
35.38370	147584
35.39183	155303
35.39995	150710
35.40807	152124
35.41620	155688
35.42432	154189
35.43245	151936
35.44057	155875
35.44868	152647
35.45682	163648
35.46493	162071
35.47305	158339
35.48118	159484
35.48930	158714
35.49743	161528
35.50555	160235
35.51367	160226
35.52180	166506
35.52992	157207
35.53805	159593
35.54617	153634
35.55428	163068
35.56242	159925
35.57053	154303
35.57867	164468
35.58678	160336
35.59490	163249
35.60303	168472
35.61115	161958
35.61927	164191
35.62740	158193
35.63552	166481
35.64365	164619
35.65177	164078
35.65988	167449
35.66802	164483
35.67613	160520
35.68427	163264
35.69238	167126
35.70050	177785
35.70863	195330
35.71675	202940
35.72487	203463
35.73300	200395
35.74112	191131
35.74925	182531
35.75737	170215
35.76548	173610
35.77362	171128
35.78173	166650
35.78987	166260
35.79798	171806
35.80610	167501
35.81423	165619
35.82235	162506
35.83048	156629
35.83860	158213
35.84672	161605
35.85485	169092
35.86297	165217
35.87108	165509
35.87922	159949
35.88733	167296
35.89547	153046
35.90358	152809
35.91170	152582
35.91983	146117
35.92795	151551
35.93608	147142
35.94420	145828
35.95232	155272
35.96045	145629
35.96857	139716
35.97668	144268
35.98482	142640
35.99293	142284
36.00107	145307
36.00918	142643
36.01730	149255
36.02543	152689
36.03355	155175
36.04168	157381
36.04980	155070
36.05792	151307
36.06605	158040
36.07417	157951
36.08230	153835
36.09042	151884
36.09853	156674
36.10667	159258
36.11478	154378
36.12290	153403
36.13103	151741
36.13915	150522
36.14728	159650
36.15540	160884
36.16352	169149
36.17165	161291
36.17977	168197
36.18790	166236
36.19602	173611
36.20413	177523
36.21227	178447
36.22038	184612
36.22852	185873
36.23663	178645
36.24475	172735
36.25288	162051
36.26100	154696
36.26912	148674
36.27725	147565
36.28537	151272
36.29350	150594
36.30162	160058
36.30973	152897
36.31787	176921
36.32598	199125
36.33412	235251
36.34223	272199
36.35035	302377
36.35848	306423
36.36660	312950
36.37472	320275
36.38285	337389
36.39097	352869
36.39910	383811
36.40722	391435
36.41533	358790
36.42347	323692
36.43158	278602
36.43972	245823
36.44783	205397
36.45595	189485
36.46408	178680
36.47220	163635
36.48033	155436
36.48845	149970
36.49657	138921
36.50470	144470
36.51282	138075
36.52093	145738
36.52907	145853
36.53718	148849
36.54532	147879
36.55343	143006
36.56155	141154
36.56968	143318
36.57780	136515
36.58593	139626
36.59405	142368
36.60217	137684
36.61030	132130
36.61842	136104
36.62655	131775
36.63467	134767
36.64278	135647
36.65092	135164
36.65903	135477
36.66715	135096
36.67528	142502
36.68340	144225
36.69153	154404
36.69965	158134
36.70777	164538
36.71590	158583
36.72402	148531
36.73215	156254
36.74027	152776
36.74838	149805
36.75652	144219
36.76463	146224
36.77275	137290
36.78088	139737
36.78900	133810
36.79713	134514
36.80525	137405
36.81337	136966
36.82150	135716
36.82962	137484
36.83775	136922
36.84587	133946
36.85398	143805
36.86212	136134
36.87023	136115
36.87837	128212
36.88648	132326
36.89460	133079
36.90273	132748
36.91085	137632
36.91897	140192
36.92710	128979
36.93522	129580
36.94335	131307
36.95147	133004
36.95958	130933
36.96772	143443
36.97583	140463
36.98397	134938
36.99208	140054
37.00020	146076
37.00833	141212
37.01645	144555
37.02457	136369
37.03270	135847
37.04082	132545
37.04895	131165
37.05707	133422
37.06518	140550
37.07332	137788
37.08143	137719
37.08957	146299
37.09768	145611
37.10580	142359
37.11393	138132
37.12205	141228
37.13018	147169
37.13830	134603
37.14642	132398
37.15455	143645
37.16267	134574
37.17078	140282
37.17892	141017
37.18703	131112
37.19517	132118
37.20328	134544
37.21140	140209
37.21953	149622
37.22765	146627
37.23578	151417
37.24390	157609
37.25202	156130
37.26015	157165
37.26827	160380
37.27640	158568
37.28452	162725
37.29263	154123
37.30077	156800
37.30888	151830
37.31700	151325
37.32513	145926
37.33325	170371
37.34138	197530
37.34950	266279
37.35762	418314
37.36575	648536
37.37387	966812
37.38200	1198085
37.39012	1388128
37.39823	1423596
37.40637	1326092
37.41448	1131373
37.42260	939102
37.43073	772665
37.43885	640447
37.44698	539732
37.45510	459060
37.46322	425033
37.47135	389893
37.47947	345210
37.48760	336586
