Z:\data\JTB-E02\BACandBLUE\JTB-E02-197-16.D Thu Feb 21 17:14:32 2019
Start of data points
2.09522,72153
2.10335,74215
2.11147,72921
2.11958,77548
2.12772,72092
2.13583,75888
2.14395,70033
2.15208,68106
2.16020,71951
2.16833,70108
2.17645,68488
2.18457,67417
2.19270,62766
2.20082,72396
2.20895,75015
2.21707,304213
2.22518,1195991
2.23332,1790044
2.24143,1244446
2.24957,699362
2.25768,522170
2.26580,438483
2.27393,396621
2.28205,356480
2.29017,336804
2.29830,287778
2.30642,266717
2.31455,254475
2.32267,237550
2.33078,235700
2.33892,221780
2.34703,206135
2.35517,199302
2.36328,191357
2.37140,188879
2.37953,180232
2.38765,176473
2.39577,176335
2.40390,168031
2.41202,166251
2.42015,155280
2.42827,154661
2.43638,154916
2.44452,164167
2.45263,159596
2.46077,151710
2.46888,152678
2.47700,149290
2.48513,147744
2.49325,152613
2.50138,175442
2.50950,341834
2.51762,599597
2.52575,578220
2.53387,379675
2.54198,292902
2.55012,254264
2.55823,230711
2.56637,235214
2.57448,230090
2.58260,213608
2.59073,192429
2.59885,180846
2.60698,179288
2.61510,178875
2.62322,174411
2.63135,166930
2.63947,164640
2.64758,158818
2.65572,154592
2.66383,143028
2.67197,154296
2.68008,150120
2.68820,149722
2.69633,151363
2.70445,143735
2.71258,136572
2.72070,140073
2.72882,131593
2.73695,137796
2.74507,151985
2.75320,168382
2.76132,208688
2.76943,230842
2.77757,200022
2.78568,196133
2.79380,187604
2.80193,172643
2.81005,179730
2.81818,200920
2.82630,198823
2.83442,189877
2.84255,189744
2.85067,194356
2.85880,178580
2.86692,151401
2.87503,144617
2.88317,141086
2.89128,143079
2.89942,140105
2.90753,128244
2.91565,124467
2.92378,119009
2.93190,122538
2.94002,119494
2.94815,115879
2.95627,185953
2.96440,308703
2.97252,334868
2.98063,253264
2.98877,176597
2.99688,154043
3.00502,155847
3.01313,162253
3.02125,180891
3.02938,167771
3.03750,171487
3.04563,226454
3.05375,378327
3.06187,1019352
3.07000,1962620
3.07812,2151465
3.08623,1628633
3.09437,1222076
3.10248,963495
3.11062,763051
3.11873,655524
3.12685,577246
3.13498,499350
3.14310,439622
3.15123,411434
3.15935,372506
3.16747,340007
3.17560,324435
3.18372,304623
3.19183,278898
3.19997,263789
3.20808,240831
3.21622,217852
3.22433,205043
3.23245,209083
3.24058,232129
3.24870,457879
3.25683,1595699
3.26495,4422546
3.27307,7648233
3.28120,8199883
3.28932,6317359
3.29745,4269989
3.30557,3053618
3.31368,2347435
3.32182,1954970
3.32993,1713862
3.33805,1572513
3.34618,1466128
3.35430,1405599
3.36243,1341957
3.37055,1260743
3.37867,1191177
3.38680,1088555
3.39492,979937
3.40305,880988
3.41117,844078
3.41928,900114
3.42742,1156269
3.43553,1465617
3.44365,1467844
3.45178,1251424
3.45990,1080230
3.46803,930432
3.47615,867356
3.48427,840128
3.49240,817419
3.50052,737570
3.50865,643784
3.51677,575855
3.52488,525024
3.53302,480655
3.54113,449145
3.54927,423807
3.55738,414036
3.56550,403395
3.57363,394957
3.58175,408462
3.58987,403035
3.59800,406660
3.60612,392742
3.61425,366641
3.62237,368741
3.63048,431058
3.63862,524705
3.64673,558819
3.65487,553772
3.66298,550342
3.67110,558066
3.67923,527363
3.68735,454842
3.69548,411687
3.70360,398973
3.71172,379759
3.71985,348210
3.72797,327539
3.73608,327547
3.74422,353256
3.75233,466798
3.76047,659082
3.76858,1008085
3.77670,1817326
3.78483,2524137
3.79295,2241052
3.80108,1532524
3.80920,1083919
3.81732,877155
3.82545,761092
3.83357,670292
3.84168,616674
3.84982,568531
3.85793,536696
3.86607,508861
3.87418,495973
3.88230,472977
3.89043,458157
3.89855,444839
3.90668,418446
3.91480,402497
3.92292,378594
3.93105,382299
3.93917,386532
3.94730,371565
3.95542,354458
3.96353,364869
3.97167,375809
3.97978,388361
3.98790,414259
3.99603,436537
4.00415,433795
4.01228,425699
4.02040,414599
4.02852,396554
4.03665,351484
4.04477,322918
4.05290,308714
4.06102,310025
4.06913,327244
4.07727,377486
4.08538,387440
4.09352,406623
4.10163,382106
4.10975,392999
4.11788,444688
4.12600,519425
4.13412,554835
4.14225,513494
4.15037,442200
4.15850,369633
4.16662,324980
4.17473,295285
4.18287,317763
4.19098,387040
4.19912,535193
4.20723,614396
4.21535,559604
4.22348,465171
4.23160,397384
4.23972,341608
4.24785,307713
4.25597,284831
4.26410,264391
4.27222,264298
4.28033,245372
4.28847,242193
4.29658,242431
4.30472,238782
4.31283,227117
4.32095,232473
4.32908,230357
4.33720,224310
4.34533,223866
4.35345,225133
4.36157,220180
4.36970,217363
4.37782,225392
4.38593,223422
4.39407,225767
4.40218,224289
4.41032,218966
4.41843,215328
4.42655,215765
4.43468,219341
4.44280,219701
4.45093,238951
4.45905,246224
4.46717,271267
4.47530,321715
4.48342,319305
4.49153,322490
4.49967,288738
4.50778,275007
4.51592,262272
4.52403,267380
4.53215,267129
4.54028,260754
4.54840,248803
4.55653,260081
4.56465,239740
4.57277,244428
4.58090,244525
4.58902,237314
4.59715,246713
4.60527,249450
4.61338,238598
4.62152,231387
4.62963,234668
4.63775,247151
4.64588,249552
4.65400,240430
4.66213,220499
4.67025,199795
4.67837,199099
4.68650,193037
4.69462,187776
4.70275,179191
4.71087,182313
4.71898,182518
4.72712,184274
4.73523,189430
4.74337,203383
4.75148,194905
4.75960,194022
4.76773,201606
4.77585,202848
4.78397,198356
4.79210,205197
4.80022,222568
4.80835,238895
4.81647,260196
4.82458,257477
4.83272,230741
4.84083,210979
4.84897,226781
4.85708,234449
4.86520,239904
4.87333,231262
4.88145,210116
4.88957,194076
4.89770,190900
4.90582,192097
4.91395,250675
4.92207,481658
4.93018,1054547
4.93832,1970311
4.94643,2716303
4.95457,2849047
4.96268,2446160
4.97080,1846545
4.97893,1413334
4.98705,1131563
4.99518,958809
5.00330,833688
5.01142,763689
5.01955,698539
5.02767,650123
5.03578,613528
5.04392,575073
5.05203,544565
5.06017,502726
5.06828,485035
5.07640,459844
5.08453,448924
5.09265,434496
5.10078,417021
5.10890,417119
5.11702,392028
5.12515,404669
5.13327,410065
5.14140,418699
5.14952,447736
5.15763,490826
5.16577,556810
5.17388,576736
5.18200,519472
5.19013,450996
5.19825,379526
5.20638,345308
5.21450,339659
5.22262,331282
5.23075,325243
5.23887,313963
5.24700,310201
5.25512,301235
5.26323,292642
5.27137,275011
5.27948,286391
5.28760,272888
5.29573,290714
5.30385,311512
5.31198,338165
5.32010,375163
5.32822,371377
5.33635,360205
5.34447,357809
5.35260,342136
5.36072,331848
5.36883,309229
5.37697,300508
5.38508,292618
5.39322,270845
5.40133,266273
5.40945,279883
5.41758,311808
5.42570,345720
5.43382,348507
5.44195,346079
5.45007,341507
5.45820,310489
5.46632,293099
5.47443,295026
5.48257,316998
5.49068,343992
5.49882,372307
5.50693,381556
5.51505,351242
5.52318,312976
5.53130,274886
5.53943,259049
5.54755,258591
5.55567,284058
5.56380,315866
5.57192,341764
5.58003,344145
5.58817,325905
5.59628,312369
5.60442,291115
5.61253,272155
5.62065,269764
5.62878,262259
5.63690,246340
5.64503,250655
5.65315,239780
5.66127,263380
5.66940,278071
5.67752,297882
5.68563,306293
5.69377,294530
5.70188,269972
5.71002,259619
5.71813,245760
5.72625,238965
5.73438,228973
5.74250,230740
5.75063,229931
5.75875,238520
5.76687,238850
5.77500,247959
5.78312,235952
5.79125,222376
5.79937,209815
5.80748,212133
5.81562,218669
5.82373,215472
5.83185,218946
5.83998,217583
5.84810,207101
5.85623,201498
5.86435,196636
5.87247,198677
5.88060,194919
5.88872,205597
5.89685,207043
5.90497,204766
5.91308,192083
5.92122,181654
5.92933,180670
5.93745,176710
5.94558,193885
5.95370,197043
5.96183,201843
5.96995,204351
5.97807,191659
5.98620,176784
5.99432,170385
6.00245,165915
6.01057,166735
6.01868,162455
6.02682,164062
6.03493,168427
6.04307,175730
6.05118,174242
6.05930,177639
6.06743,171912
6.07555,163078
6.08367,150165
6.09180,146307
6.09992,147527
6.10805,153167
6.11617,146556
6.12428,147106
6.13242,171663
6.14053,178199
6.14867,201495
6.15678,210781
6.16490,200107
6.17303,195883
6.18115,190912
6.18928,180140
6.19740,185599
6.20552,181937
6.21365,190039
6.22177,185586
6.22988,201115
6.23802,212448
6.24613,209051
6.25427,211912
6.26238,220325
6.27050,207583
6.27863,208432
6.28675,197826
6.29488,204011
6.30300,202684
6.31112,209007
6.31925,202777
6.32737,205358
6.33548,212628
6.34362,222317
6.35173,212137
6.35987,212166
6.36798,228243
6.37610,232202
6.38423,233018
6.39235,244818
6.40048,234121
6.40860,231825
6.41672,230992
6.42485,232509
6.43297,250858
6.44110,255293
6.44922,256827
6.45733,247173
6.46547,249833
6.47358,249220
6.48170,246734
6.48983,240302
6.49795,243337
6.50608,248919
6.51420,248388
6.52232,250392
6.53045,253511
6.53857,246379
6.54670,258717
6.55482,249674
6.56293,251296
6.57107,250520
6.57918,251825
6.58732,259322
6.59543,269420
6.60355,275085
6.61168,265748
6.61980,296334
6.62792,398961
6.63605,797313
6.64417,1716402
6.65230,2901994
6.66042,3366197
6.66853,2812371
6.67667,1853489
6.68478,1180367
6.69292,870546
6.70103,719417
6.70915,630683
6.71728,554199
6.72540,510123
6.73352,464129
6.74165,439381
6.74977,420664
6.75790,415541
6.76602,399499
6.77413,373025
6.78227,377636
6.79038,376292
6.79852,352206
6.80663,350160
6.81475,355749
6.82288,345592
6.83100,360472
6.83913,362872
6.84725,363710
6.85537,343053
6.86350,330485
6.87162,315824
6.87973,299478
6.88787,254631
6.89598,218545
6.90412,199135
6.91223,193327
6.92035,183207
6.92848,183607
6.93660,168164
6.94473,179791
6.95285,188107
6.96097,200697
6.96910,205527
6.97722,188545
6.98533,173056
6.99347,157397
7.00158,149067
7.00972,145520
7.01783,143609
7.02595,138963
7.03408,144632
7.04220,160798
7.05033,189638
7.05845,215574
7.06657,224780
7.07470,213419
7.08282,178506
7.09095,164442
7.09907,133935
7.10718,134947
7.11532,133560
7.12343,141945
7.13155,133397
7.13968,143556
7.14780,139331
7.15593,131771
7.16405,133070
7.17217,125481
7.18030,121955
7.18842,126850
7.19655,122569
7.20467,121632
7.21278,122540
7.22092,115803
7.22903,116548
7.23717,123265
7.24528,115302
7.25340,124753
7.26153,131896
7.26965,137123
7.27777,135995
7.28590,137062
7.29402,125773
7.30215,115637
7.31027,118205
7.31838,115827
7.32652,116351
7.33463,116105
7.34277,117357
7.35088,122958
7.35900,117519
7.36713,123350
7.37525,120861
7.38338,116380
7.39150,114656
7.39962,113159
7.40775,112996
7.41587,110873
7.42398,120805
7.43212,102699
7.44023,104080
7.44837,100827
7.45648,96325
7.46460,100564
7.47273,100178
7.48085,99472
7.48898,96899
7.49710,103026
7.50522,104881
7.51335,105742
7.52147,106422
7.52958,107054
7.53772,103495
7.54583,97880
7.55397,108966
7.56208,104743
7.57020,109339
7.57833,107443
7.58645,102640
7.59458,107846
7.60270,101704
7.61082,104747
7.61895,105032
7.62707,104379
7.63520,108795
7.64332,109969
7.65143,106669
7.65957,100565
7.66768,100758
7.67580,98530
7.68393,97046
7.69205,93996
7.70018,95564
7.70830,92656
7.71642,92965
7.72455,86416
7.73267,84063
7.74080,81607
7.74892,79251
7.75703,82700
7.76517,85037
7.77328,88693
7.78140,91752
7.78953,100203
7.79765,92719
7.80578,97007
7.81390,98706
7.82202,94238
7.83015,92335
7.83827,92811
7.84640,92975
7.85452,88997
7.86263,93571
7.87077,96205
7.87888,93566
7.88702,97528
7.89513,108904
7.90325,112806
7.91138,128654
7.91950,145812
7.92762,176879
7.93575,216520
7.94387,233878
7.95200,227885
7.96012,184718
7.96823,151163
7.97637,125461
7.98448,117159
7.99262,113800
8.00073,102412
8.00885,104444
8.01698,96853
8.02510,101485
8.03322,95266
8.04135,99907
8.04947,111176
8.05760,103050
8.06572,102976
8.07383,96165
8.08197,98899
8.09008,100266
8.09822,109844
8.10633,122044
8.11445,123768
8.12258,116154
8.13070,102884
8.13883,94705
8.14695,89556
8.15507,82742
8.16320,85942
8.17132,88585
8.17943,82679
8.18757,80432
8.19568,87633
8.20382,79966
8.21193,89554
8.22005,80693
8.22818,79182
8.23630,80516
8.24443,80009
8.25255,85376
8.26067,99954
8.26880,135135
8.27692,149307
8.28505,168142
8.29317,165047
8.30128,141250
8.30942,123485
8.31753,101040
8.32565,95393
8.33378,91294
8.34190,94886
8.35003,100153
8.35815,111395
8.36627,116000
8.37440,123751
8.38252,119473
8.39065,109696
8.39877,95379
8.40688,88027
8.41502,82079
8.42313,81851
8.43127,78088
8.43938,83635
8.44750,84336
8.45563,76560
8.46375,68712
8.47187,75186
8.48000,68932
8.48812,73626
8.49625,78229
8.50437,72863
8.51248,74527
8.52062,75102
8.52873,80952
8.53687,105287
8.54498,235692
8.55310,666395
8.56123,1690645
8.56935,3026930
8.57747,4251317
8.58560,4424659
8.59372,3491131
8.60185,2396545
8.60997,1405556
8.61808,729505
8.62622,430065
8.63433,286570
8.64247,250045
8.65058,225869
8.65870,215620
8.66683,193124
8.67495,164411
8.68308,162784
8.69120,155027
8.69932,148852
8.70745,140927
8.71557,136613
8.72368,126166
8.73182,131678
8.73993,141615
8.74807,155741
8.75618,221950
8.76430,345674
8.77243,522210
8.78055,694922
8.78868,786955
8.79680,733019
8.80492,608871
8.81305,467635
8.82117,370325
8.82928,311522
8.83742,262012
8.84553,226551
8.85367,203503
8.86178,208880
8.86990,223612
8.87803,241669
8.88615,240101
8.89428,231129
8.90240,230645
8.91052,220431
8.91865,213606
8.92677,207044
8.93490,198994
8.94302,193319
8.95113,198131
8.95927,188753
8.96738,182893
8.97550,178539
8.98363,171605
8.99175,168532
8.99988,166990
9.00800,159221
9.01612,160044
9.02425,161786
9.03237,151699
9.04050,153493
9.04862,154879
9.05673,150257
9.06487,149794
9.07298,149668
9.08112,146130
9.08923,145518
9.09735,145066
9.10548,147529
9.11360,147975
9.12172,130927
9.12985,130810
9.13797,134883
9.14610,132261
9.15422,125045
9.16233,130344
9.17047,123246
9.17858,123873
9.18672,120884
9.19483,121544
9.20295,123019
9.21108,125705
9.21920,117799
9.22732,122959
9.23545,122830
9.24357,114276
9.25170,121727
9.25982,120636
9.26793,113056
9.27607,113652
9.28418,118900
9.29232,113221
9.30043,114591
9.30855,109467
9.31668,109704
9.32480,107845
9.33293,112707
9.34105,106384
9.34917,109006
9.35730,108069
9.36542,110396
9.37353,114803
9.38167,113538
9.38978,109913
9.39792,111100
9.40603,108461
9.41415,106252
9.42228,100799
9.43040,100055
9.43853,106298
9.44665,99803
9.45477,95994
9.46290,93598
9.47102,93237
9.47915,99191
9.48727,113961
9.49538,137365
9.50352,161919
9.51163,170318
9.51975,165106
9.52788,149125
9.53600,138921
9.54413,114355
9.55225,109972
9.56037,105147
9.56850,102056
9.57662,94563
9.58475,81364
9.59287,78791
9.60098,80413
9.60912,73800
9.61723,67840
9.62535,68284
9.63348,68003
9.64160,61522
9.64973,64319
9.65785,66388
9.66597,63834
9.67410,62933
9.68222,62163
9.69035,59781
9.69847,64457
9.70658,59978
9.71472,60976
9.72283,61009
9.73097,62587
9.73908,62151
9.74720,58984
9.75533,61345
9.76345,59022
9.77157,60309
9.77970,58209
9.78782,56306
9.79595,57580
9.80407,59267
9.81218,56637
9.82032,58503
9.82843,54454
9.83657,58264
9.84468,54304
9.85280,54707
9.86093,59282
9.86905,64438
9.87717,67348
9.88530,75423
9.89342,90742
9.90155,88450
9.90967,99827
9.91778,100130
9.92592,90391
9.93403,85624
9.94217,77596
9.95028,69308
9.95840,64471
9.96653,65066
9.97465,68134
9.98278,72483
9.99090,84326
9.99902,87790
10.00715,89432
10.01527,92919
10.02338,85504
10.03152,74676
10.03963,64700
10.04777,63473
10.05588,56473
10.06400,60082
10.07213,58851
10.08025,56142
10.08838,63967
10.09650,59861
10.10462,63900
10.11275,65177
10.12087,62826
10.12900,65993
10.13712,61039
10.14523,60616
10.15337,51361
10.16148,51014
10.16960,58412
10.17773,56458
10.18585,51346
10.19398,57106
10.20210,52874
10.21022,57817
10.21835,56972
10.22647,59177
10.23460,60146
10.24272,66841
10.25083,71108
10.25897,74946
10.26708,73653
10.27520,82896
10.28333,112745
10.29145,195756
10.29958,327526
10.30770,523570
10.31582,687902
10.32395,938640
10.33207,1347492
10.34020,1894451
10.34832,2316032
10.35643,2321548
10.36457,1874822
10.37268,1188461
10.38082,639132
10.38893,321821
10.39705,203312
10.40518,154021
10.41330,126515
10.42142,115865
10.42955,107500
10.43767,97620
10.44580,96256
10.45392,85305
10.46203,84526
10.47017,86976
10.47828,86850
10.48642,80362
10.49453,87166
10.50265,87507
10.51078,86903
10.51890,92208
10.52703,87716
10.53515,78590
10.54327,75748
10.55140,72878
10.55952,72289
10.56763,67370
10.57577,68657
10.58388,64448
10.59202,66148
10.60013,69768
10.60825,68437
10.61638,64491
10.62450,66568
10.63263,70858
10.64075,69842
10.64887,73755
10.65700,77920
10.66512,71417
10.67323,70363
10.68137,67288
10.68948,65870
10.69762,65526
10.70573,61346
10.71385,62352
10.72198,62747
10.73010,70314
10.73823,64348
10.74635,68837
10.75447,63556
10.76260,62371
10.77072,64092
10.77885,59999
10.78697,54548
10.79508,58289
10.80322,60260
10.81133,48448
10.81945,53509
10.82758,59361
10.83570,54894
10.84383,58330
10.85195,57536
10.86007,57338
10.86820,55093
10.87632,55611
10.88445,54981
10.89257,49597
10.90068,51783
10.90882,51497
10.91693,49407
10.92507,56173
10.93318,53121
10.94130,50581
10.94943,55199
10.95755,51811
10.96567,50006
10.97380,44112
10.98192,51957
10.99005,48593
10.99817,47419
11.00628,45070
11.01442,46870
11.02253,41946
11.03067,48800
11.03878,44185
11.04690,45747
11.05503,47895
11.06315,47596
11.07127,46157
11.07940,41987
11.08752,45462
11.09565,43817
11.10377,42403
11.11188,43711
11.12002,44258
11.12813,40727
11.13627,43305
11.14438,45325
11.15250,49580
11.16063,49842
11.16875,49521
11.17688,51053
11.18500,52317
11.19312,56362
11.20125,53719
11.20937,52338
11.21748,49806
11.22562,46956
11.23373,50107
11.24187,41913
11.24998,43865
11.25810,45176
11.26623,42996
11.27435,54675
11.28248,46281
11.29060,45834
11.29872,48005
11.30685,47895
11.31497,51426
11.32308,47113
11.33122,46599
11.33933,41550
11.34747,45567
11.35558,42024
11.36370,45925
11.37183,45166
11.37995,42290
11.38808,50420
11.39620,41905
11.40432,43477
11.41245,42289
11.42057,39589
11.42870,39809
11.43682,40862
11.44493,44101
11.45307,40321
11.46118,42590
11.46930,45238
11.47743,44112
11.48555,55940
11.49368,53796
11.50180,62130
11.50992,70062
11.51805,70883
11.52617,62840
11.53430,64514
11.54242,54064
11.55053,58286
11.55867,69883
11.56678,57338
11.57492,55440
11.58303,51932
11.59115,54785
11.59928,49359
11.60740,44263
11.61552,48514
11.62365,43407
11.63177,51084
11.63990,49471
11.64802,48964
11.65613,44199
11.66427,47754
11.67238,52885
11.68052,67180
11.68863,66585
11.69675,83938
11.70488,86653
11.71300,81315
11.72112,72192
11.72925,60325
11.73737,54205
11.74550,48102
11.75362,47395
11.76173,45757
11.76987,48992
11.77798,47976
11.78612,48569
11.79423,47286
11.80235,56168
11.81048,46492
11.81860,48363
11.82673,53398
11.83485,48146
11.84297,47884
11.85110,47479
11.85922,47330
11.86733,46092
11.87547,44991
11.88358,44550
11.89172,44841
11.89983,44600
11.90795,44661
11.91608,47765
11.92420,43709
11.93233,42747
11.94045,41616
11.94857,45748
11.95670,44083
11.96482,41330
11.97295,39436
11.98107,46120
11.98918,43497
11.99732,46313
12.00543,54571
12.01355,57268
12.02168,62276
12.02980,62309
12.03793,58989
12.04605,54502
12.05417,47744
12.06230,44033
12.07042,44129
12.07855,42366
12.08667,40898
12.09478,41805
12.10292,43574
12.11103,49192
12.11915,49490
12.12728,47168
12.13540,52925
12.14353,45132
12.15165,43552
12.15977,42154
12.16790,41476
12.17602,44249
12.18415,41409
12.19227,42845
12.20038,45119
12.20852,44287
12.21663,43609
12.22477,41626
12.23288,42924
12.24100,48137
12.24913,48599
12.25725,44232
12.26537,43928
12.27350,48750
12.28162,44857
12.28975,46924
12.29787,47604
12.30598,45614
12.31412,39151
12.32223,42707
12.33037,39982
12.33848,42940
12.34660,44859
12.35473,43062
12.36285,41291
12.37097,45253
12.37910,44566
12.38722,44620
12.39535,43894
12.40347,45351
12.41158,49961
12.41972,47407
12.42783,54313
12.43597,57228
12.44408,59192
12.45220,54906
12.46033,53473
12.46845,50820
12.47658,42465
12.48470,43893
12.49282,44883
12.50095,41618
12.50907,41169
12.51718,45416
12.52532,47883
12.53343,44982
12.54157,45141
12.54968,41707
12.55780,50623
12.56593,54650
12.57405,58790
12.58218,64810
12.59030,69684
12.59842,68042
12.60655,65178
12.61467,52338
12.62280,53330
12.63092,52013
12.63903,42062
12.64717,46353
12.65528,42762
12.66340,43248
12.67153,44222
12.67965,42726
12.68778,45849
12.69590,41823
12.70402,42849
12.71215,45190
12.72027,43623
12.72840,43497
12.73652,47673
12.74463,46455
12.75277,42443
12.76088,48178
12.76900,44912
12.77713,42004
12.78525,40367
12.79338,41458
12.80150,42361
12.80962,39703
12.81775,44798
12.82587,40673
12.83400,38018
12.84212,41635
12.85023,41476
12.85837,36200
12.86648,41282
12.87462,37293
12.88273,41806
12.89085,40757
12.89898,36979
12.90710,38825
12.91522,37350
12.92335,35356
12.93147,34942
12.93960,35399
12.94772,38833
12.95583,38386
12.96397,41339
12.97208,39311
12.98022,46671
12.98833,38524
12.99645,41930
13.00458,43989
13.01270,45177
13.02083,41416
13.02895,46376
13.03707,42970
13.04520,41098
13.05332,36246
13.06143,42764
13.06957,38938
13.07768,40519
13.08582,37229
13.09393,39188
13.10205,39299
13.11018,38384
13.11830,40028
13.12643,39104
13.13455,40982
13.14267,40111
13.15080,38848
13.15892,41236
13.16703,42832
13.17517,39839
13.18328,38456
13.19142,37075
13.19953,38236
13.20765,42961
13.21578,46086
13.22390,48536
13.23203,43719
13.24015,42707
13.24827,46214
13.25640,47825
13.26452,39287
13.27265,38926
13.28077,38892
13.28888,40004
13.29702,38145
13.30513,39464
13.31325,39846
13.32138,38462
13.32950,39664
13.33763,44966
13.34575,36252
13.35387,35302
13.36200,34226
13.37012,41063
13.37825,39890
13.38637,37750
13.39448,35385
13.40262,37235
13.41073,37347
13.41885,43616
13.42698,39076
13.43510,38033
13.44323,36592
13.45135,37250
13.45947,38702
13.46760,34976
13.47572,40491
13.48385,39547
13.49197,35260
13.50008,37787
13.50822,38807
13.51633,37335
13.52447,41059
13.53258,36155
13.54070,38503
13.54883,34945
13.55695,38858
13.56507,38359
13.57320,37330
13.58132,41042
13.58945,40013
13.59757,39124
13.60568,41132
13.61382,38753
13.62193,37912
13.63007,41199
13.63818,39672
13.64630,37302
13.65443,42737
13.66255,39628
13.67068,36352
13.67880,33770
13.68692,44070
13.69505,37740
13.70317,36245
13.71128,41717
13.71942,38894
13.72753,36131
13.73567,38001
13.74378,37055
13.75190,38017
13.76003,47545
13.76815,65791
13.77628,95943
13.78440,119456
13.79252,140968
13.80065,146312
13.80877,140788
13.81690,106523
13.82502,101637
13.83313,71139
13.84127,63942
13.84938,53152
13.85750,51149
13.86563,48554
13.87375,45877
13.88188,48575
13.89000,50637
13.89812,40800
13.90625,38641
13.91437,43530
13.92250,43523
13.93062,49152
13.93873,44339
13.94687,52864
13.95498,54439
13.96310,71714
13.97123,98393
13.97935,145037
13.98748,202015
13.99560,249589
14.00372,277916
14.01185,220597
14.01997,181298
14.02810,133482
14.03622,103135
14.04433,81897
14.05247,75679
14.06058,76080
14.06872,71235
14.07683,65200
14.08495,59545
14.09308,61663
14.10120,63394
14.10932,57077
14.11745,56563
14.12557,51855
14.13370,51516
14.14182,54237
14.14993,59226
14.15807,58166
14.16618,51190
14.17432,57523
14.18243,59886
14.19055,60107
14.19868,73606
14.20680,119536
14.21492,171903
14.22305,226355
14.23117,260803
14.23930,279854
14.24742,262562
14.25553,239968
14.26367,201274
14.27178,175715
14.27992,161063
14.28803,134640
14.29615,129385
14.30428,124168
14.31240,108472
14.32053,105967
14.32865,103710
14.33677,99648
14.34490,93358
14.35302,92094
14.36113,83790
14.36927,82540
14.37738,68938
14.38552,69106
14.39363,64284
14.40175,56345
14.40988,50284
14.41800,50424
14.42613,51902
14.43425,45435
14.44237,46710
14.45050,44878
14.45862,44051
14.46675,46912
14.47487,42124
14.48298,42093
14.49112,40735
14.49923,38248
14.50735,39619
14.51548,44169
14.52360,51995
14.53173,44006
14.53985,42221
14.54797,42813
14.55610,41810
14.56422,39816
14.57235,41659
14.58047,35791
14.58858,41129
14.59672,40348
14.60483,37630
14.61295,38013
14.62108,37441
14.62920,38543
14.63733,39282
14.64545,38129
14.65357,42436
14.66170,42250
14.66982,38241
14.67795,40778
14.68607,41625
14.69418,40150
14.70232,38907
14.71043,37892
14.71857,38770
14.72668,40385
14.73480,41595
14.74293,39101
14.75105,39565
14.75917,37196
14.76730,36892
14.77542,40182
14.78355,41768
14.79167,40019
14.79978,38024
14.80792,40709
14.81603,36481
14.82417,41934
14.83228,47665
14.84040,49871
14.84853,56804
14.85665,67369
14.86478,66275
14.87290,61372
14.88102,60329
14.88915,57008
14.89727,54648
14.90538,52276
14.91352,53427
14.92163,56433
14.92977,55350
14.93788,53785
14.94600,54287
14.95413,57308
14.96225,51210
14.97038,47530
14.97850,52620
14.98662,51085
14.99475,48920
15.00287,51727
15.01098,47478
15.01912,46623
15.02723,47469
15.03537,57496
15.04348,48479
15.05160,48331
15.05973,47491
15.06785,45200
15.07598,47268
15.08410,44887
15.09222,47258
15.10035,47963
15.10847,46504
15.11660,44016
15.12472,40684
15.13283,41233
15.14097,43788
15.14908,45058
15.15720,46246
15.16533,47843
15.17345,43984
15.18158,45738
15.18970,45722
15.19782,43795
15.20595,38954
15.21407,39237
15.22220,38453
15.23032,38230
15.23843,40870
15.24657,41076
15.25468,39125
15.26280,37784
15.27093,40286
15.27905,39467
15.28718,38705
15.29530,38066
15.30342,39642
15.31155,39365
15.31967,36634
15.32780,39247
15.33592,36470
15.34403,36354
15.35217,36805
15.36028,38702
15.36842,42312
15.37653,36054
15.38465,38093
15.39278,37739
15.40090,35393
15.40902,33856
15.41715,35604
15.42527,37090
15.43340,37239
15.44152,36897
15.44963,37681
15.45777,39527
15.46588,37835
15.47402,38564
15.48213,37365
15.49025,40757
15.49838,41522
15.50650,46118
15.51463,54805
15.52275,73060
15.53087,95710
15.53900,117717
15.54712,134243
15.55523,142170
15.56337,112512
15.57148,83163
15.57962,73578
15.58773,52814
15.59585,44025
15.60398,50259
15.61210,43170
15.62023,43701
15.62835,39856
15.63647,41485
15.64460,39788
15.65272,39658
15.66083,41433
15.66897,39566
15.67708,36874
15.68522,33348
15.69333,39689
15.70145,49099
15.70958,37056
15.71770,39917
15.72583,41746
15.73395,35917
15.74207,39442
15.75020,35493
15.75832,39000
15.76645,31426
15.77457,37911
15.78268,44418
15.79082,43912
15.79893,42811
15.80705,46251
15.81518,51166
15.82330,45048
15.83143,43257
15.83955,41598
15.84767,42550
15.85580,40343
15.86392,42274
15.87205,43511
15.88017,40097
15.88828,44676
15.89642,44265
15.90453,38047
15.91267,43257
15.92078,44080
15.92890,42450
15.93703,44052
15.94515,42313
15.95327,40944
15.96140,42248
15.96952,44951
15.97765,44874
15.98577,52271
15.99388,49622
16.00202,50981
16.01013,50890
16.01827,50786
16.02638,52415
16.03450,49362
16.04263,49199
16.05075,51837
16.05887,44508
16.06700,47262
16.07512,47124
16.08325,49573
16.09137,45191
16.09948,42342
16.10762,43201
16.11573,42404
16.12387,46655
16.13198,40931
16.14010,44578
16.14823,40759
16.15635,43705
16.16448,37981
16.17260,45151
16.18072,44591
16.18885,40252
16.19697,43505
16.20508,45103
16.21322,42048
16.22133,42799
16.22947,42236
16.23758,39900
16.24570,45117
16.25383,45464
16.26195,42561
16.27008,44671
16.27820,41705
16.28632,41640
16.29445,40963
16.30257,43181
16.31070,40480
16.31882,42377
16.32693,41846
16.33507,39501
16.34318,42651
16.35130,45832
16.35943,45214
16.36755,47130
16.37568,55583
16.38380,65942
16.39192,71198
16.40005,76594
16.40817,63579
16.41630,60779
16.42442,49587
16.43253,55091
16.44067,48880
16.44878,48654
16.45690,42636
16.46503,45926
16.47315,39161
16.48128,43421
16.48940,40904
16.49752,40816
16.50565,40054
16.51377,52657
16.52190,43447
16.53002,41282
16.53813,38161
16.54627,40378
16.55438,43504
16.56252,48506
16.57063,42245
16.57875,37953
16.58688,41062
16.59500,44570
16.60312,43639
16.61125,46591
16.61937,48064
16.62750,47789
16.63562,45008
16.64373,46142
16.65187,46124
16.65998,40416
16.66812,40255
16.67623,44367
16.68435,44048
16.69248,37987
16.70060,42173
16.70872,42186
16.71685,38669
16.72497,36066
16.73310,37493
16.74122,35520
16.74933,36714
16.75747,40982
16.76558,39558
16.77372,34591
16.78183,37432
16.78995,37328
16.79808,37431
16.80620,35781
16.81433,35566
16.82245,33486
16.83057,35496
16.83870,37309
16.84682,36340
16.85493,35300
16.86307,33097
16.87118,36344
16.87932,33703
16.88743,36508
16.89555,36779
16.90368,33332
16.91180,35633
16.91993,34122
16.92805,32245
16.93617,35744
16.94430,38334
16.95242,30735
16.96055,37726
16.96867,35590
16.97678,36871
16.98492,37281
16.99303,35980
17.00115,33480
17.00928,34588
17.01740,34965
17.02553,34285
17.03365,33277
17.04177,31805
17.04990,38761
17.05802,36392
17.06615,31162
17.07427,38176
17.08238,46497
17.09052,51342
17.09863,56101
17.10675,64887
17.11488,60492
17.12300,60216
17.13113,58995
17.13925,50729
17.14737,48769
17.15550,49262
17.16362,39983
17.17175,43396
17.17987,45699
17.18798,41426
17.19612,41010
17.20423,39479
17.21237,38544
17.22048,34873
17.22860,37311
17.23673,36932
17.24485,34841
17.25297,38511
17.26110,39878
17.26922,37495
17.27735,39236
17.28547,39732
17.29358,33900
17.30172,36392
17.30983,39446
17.31797,38367
17.32608,37072
17.33420,37121
17.34233,39588
17.35045,40536
17.35858,37882
17.36670,44262
17.37482,41797
17.38295,41019
17.39107,43364
17.39918,41735
17.40732,41789
17.41543,42558
17.42357,45914
17.43168,42201
17.43980,48156
17.44793,42320
17.45605,42486
17.46418,39899
17.47230,45125
17.48042,41405
17.48855,37968
17.49667,36686
17.50478,38139
17.51292,41182
17.52103,38315
17.52917,41811
17.53728,41865
17.54540,41773
17.55353,45603
17.56165,46898
17.56978,44635
17.57790,42880
17.58602,46917
17.59415,41847
17.60227,40903
17.61040,36027
17.61852,37389
17.62663,37804
17.63477,39557
17.64288,46144
17.65100,57177
17.65913,70445
17.66725,88596
17.67538,107789
17.68350,104327
17.69162,113353
17.69975,99218
17.70787,84211
17.71600,71640
17.72412,58251
17.73223,56945
17.74037,52202
17.74848,47133
17.75660,47900
17.76473,44246
17.77285,47332
17.78098,44909
17.78910,48626
17.79722,49479
17.80535,43214
17.81347,41794
17.82160,43867
17.82972,40808
17.83783,40499
17.84597,42130
17.85408,44352
17.86222,44226
17.87033,41149
17.87845,41105
17.88658,39143
17.89470,36336
17.90282,34093
17.91095,31026
17.91907,33811
17.92720,40706
17.93532,36524
17.94343,34971
17.95157,34617
17.95968,38510
17.96782,37973
17.97593,34640
17.98405,37467
17.99218,37453
18.00030,36749
18.00843,35648
18.01655,34156
18.02467,39529
18.03280,37312
18.04092,43324
18.04903,41764
18.05717,43467
18.06528,38656
18.07342,45912
18.08153,41046
18.08965,43971
18.09778,48890
18.10590,54203
18.11403,63119
18.12215,67387
18.13027,64651
18.13840,68853
18.14652,68283
18.15463,63189
18.16277,62517
18.17088,67154
18.17902,66527
18.18713,65712
18.19525,62216
18.20338,61598
18.21150,65077
18.21963,63068
18.22775,57566
18.23587,58471
18.24400,53972
18.25212,53944
18.26025,52324
18.26837,52291
18.27648,54235
18.28462,53319
18.29273,55188
18.30085,46988
18.30898,43983
18.31710,40416
18.32523,39372
18.33335,40830
18.34147,43899
18.34960,40065
18.35772,39282
18.36585,41149
18.37397,36114
18.38208,38709
18.39022,38371
18.39833,45167
18.40647,37335
18.41458,40626
18.42270,35016
18.43083,41580
18.43895,39077
18.44707,33371
18.45520,37688
18.46332,36067
18.47145,35022
18.47957,36785
18.48768,36931
18.49582,36648
18.50393,39065
18.51207,36226
18.52018,34538
18.52830,36325
18.53643,38759
18.54455,36045
18.55267,34826
18.56080,38480
18.56892,36385
18.57705,34889
18.58517,39612
18.59328,36994
18.60142,36893
18.60953,41440
18.61767,38808
18.62578,37898
18.63390,40392
18.64203,38271
18.65015,42199
18.65828,35875
18.66640,35635
18.67452,34319
18.68265,34143
18.69077,35303
18.69888,32936
18.70702,39616
18.71513,32123
18.72327,41993
18.73138,31177
18.73950,33035
18.74763,36341
18.75575,34398
18.76388,32065
18.77200,32977
18.78012,42706
18.78825,35205
18.79637,32693
18.80450,30785
18.81262,31366
18.82073,33221
18.82887,34357
18.83698,32257
18.84510,34185
18.85323,33940
18.86135,34175
18.86948,31553
18.87760,34793
18.88572,34516
18.89385,32342
18.90197,36618
18.91010,32424
18.91822,31160
18.92633,30722
18.93447,32887
18.94258,31685
18.95070,32745
18.95883,32473
18.96695,34280
18.97508,36253
18.98320,36014
18.99132,36425
18.99945,36325
19.00757,40778
19.01570,30771
19.02382,28465
19.03193,31692
19.04007,32429
19.04818,35871
19.05632,34414
19.06443,35560
19.07255,32865
19.08068,37044
19.08880,39777
19.09692,46275
19.10505,51719
19.11317,55279
19.12130,55347
19.12942,59013
19.13753,58383
19.14567,47197
19.15378,47837
19.16192,49234
19.17003,44897
19.17815,47921
19.18628,51400
19.19440,51086
19.20253,52409
19.21065,50288
19.21877,47701
19.22690,48456
19.23502,42993
19.24313,40818
19.25127,44477
19.25938,41978
19.26752,43242
19.27563,43029
19.28375,47184
19.29188,46975
19.30000,50352
19.30813,50763
19.31625,52079
19.32437,51460
19.33250,49062
19.34062,51908
19.34873,49715
19.35687,46532
19.36498,50100
19.37312,51469
19.38123,51093
19.38935,47463
19.39748,44723
19.40560,41796
19.41373,46746
19.42185,45549
19.42997,43447
19.43810,42507
19.44622,42921
19.45435,41498
19.46247,44690
19.47058,39696
19.47872,47134
19.48683,54944
19.49495,51219
19.50308,64787
19.51120,89798
19.51933,126425
19.52745,162246
19.53557,199290
19.54370,185933
19.55182,155100
19.55995,126697
19.56807,87219
19.57618,67373
19.58432,56232
19.59243,47865
19.60055,48958
19.60868,46028
19.61680,43318
19.62493,42056
19.63305,45895
19.64117,52011
19.64930,63141
19.65742,99303
19.66555,146266
19.67367,200191
19.68178,266327
19.68992,296211
19.69803,299796
19.70617,268682
19.71428,213465
19.72240,181565
19.73053,135354
19.73865,124964
19.74677,100678
19.75490,99753
19.76302,98132
19.77115,84388
19.77927,85359
19.78738,72828
19.79552,64001
19.80363,62366
19.81177,55213
19.81988,65386
19.82800,57634
19.83613,53792
19.84425,52525
19.85238,51351
19.86050,55278
19.86862,59922
19.87675,74880
19.88487,124438
19.89298,189071
19.90112,293152
19.90923,391139
19.91737,482288
19.92548,534693
19.93360,530714
19.94173,528000
19.94985,496358
19.95798,449086
19.96610,437861
19.97422,414547
19.98235,389595
19.99047,361560
19.99858,346874
20.00672,336891
20.01483,308494
20.02297,292711
20.03108,298775
20.03920,266461
20.04733,254252
20.05545,232148
20.06358,202445
20.07170,166027
20.07982,137932
20.08795,108853
20.09607,88460
20.10420,80451
20.11232,79724
20.12043,75436
20.12857,72756
20.13668,74455
20.14480,69570
20.15293,73276
20.16105,75691
20.16918,70539
20.17730,66968
20.18542,70838
20.19355,71395
20.20167,68197
20.20980,64512
20.21792,63810
20.22603,61624
20.23417,60476
20.24228,63897
20.25042,67473
20.25853,73439
20.26665,100633
20.27478,129540
20.28290,177518
20.29102,229620
20.29915,259523
20.30727,264773
20.31540,251411
20.32352,210357
20.33163,190023
20.33977,148217
20.34788,125008
20.35602,100500
20.36413,78613
20.37225,70527
20.38038,65379
20.38850,59188
20.39662,61788
20.40475,55298
20.41287,49669
20.42100,53289
20.42912,59111
20.43723,68985
20.44537,76555
20.45348,87209
20.46162,100298
20.46973,101576
20.47785,100354
20.48598,98972
20.49410,82712
20.50223,75631
20.51035,59382
20.51847,62327
20.52660,53186
20.53472,52970
20.54283,49935
20.55097,51818
20.55908,47489
20.56722,47616
20.57533,47619
20.58345,49708
20.59158,47602
20.59970,47733
20.60783,48394
20.61595,47862
20.62407,43762
20.63220,43865
20.64032,45967
20.64843,44714
20.65657,47110
20.66468,43338
20.67282,46662
20.68093,47770
20.68905,43063
20.69718,39440
20.70530,42783
20.71343,43565
20.72155,46436
20.72967,37580
20.73780,41602
20.74592,46447
20.75405,39816
20.76217,44538
20.77028,42904
20.77842,43792
20.78653,44567
20.79465,45756
20.80278,44571
20.81090,45520
20.81903,48761
20.82715,47822
20.83527,47453
20.84340,47035
20.85152,44021
20.85965,45949
20.86777,45735
20.87588,50028
20.88402,49597
20.89213,46433
20.90027,44934
20.90838,49433
20.91650,52997
20.92463,45714
20.93275,43153
20.94087,44603
20.94900,45383
20.95712,47575
20.96525,51694
20.97337,45483
20.98148,42448
20.98962,47862
20.99773,47248
21.00587,51823
21.01398,45334
21.02210,45900
21.03023,46651
21.03835,47714
21.04647,44876
21.05460,49606
21.06272,48767
21.07085,50202
21.07897,48143
21.08708,49737
21.09522,43019
21.10333,41388
21.11147,47328
21.11958,47545
21.12770,46917
21.13583,47895
21.14395,46597
21.15208,49798
21.16020,50389
21.16832,53306
21.17645,53761
21.18457,52066
21.19268,48162
21.20082,60575
21.20893,46312
21.21707,47179
21.22518,57573
21.23330,48382
21.24143,49920
21.24955,48692
21.25768,46280
21.26580,51457
21.27392,49490
21.28205,48077
21.29017,46298
21.29830,47474
21.30642,43040
21.31453,49125
21.32267,43787
21.33078,48508
21.33890,47537
21.34703,45406
21.35515,46331
21.36328,43761
21.37140,44326
21.37952,41669
21.38765,41756
21.39577,43263
21.40390,40718
21.41202,43571
21.42013,48916
21.42827,45790
21.43638,44791
21.44450,45703
21.45263,49481
21.46075,51460
21.46888,48623
21.47700,45929
21.48512,49085
21.49325,46746
21.50137,45934
21.50950,45928
21.51762,46661
21.52573,43087
21.53387,44512
21.54198,44378
21.55012,45027
21.55823,44819
21.56635,44426
21.57448,45744
21.58260,41946
21.59072,42111
21.59885,40431
21.60697,40907
21.61510,43952
21.62322,50738
21.63133,52850
21.63947,67178
21.64758,75383
21.65572,91459
21.66383,105042
21.67195,106694
21.68008,94209
21.68820,85440
21.69633,68407
21.70445,62270
21.71257,55711
21.72070,48861
21.72882,51513
21.73693,46096
21.74507,48691
21.75318,46043
21.76132,45635
21.76943,46150
21.77755,46299
21.78568,46263
21.79380,46045
21.80193,49524
21.81005,45921
21.81817,49011
21.82630,50388
21.83442,60815
21.84253,70997
21.85067,94625
21.85878,101886
21.86692,104786
21.87503,95092
21.88315,84674
21.89128,72730
21.89940,59611
21.90753,55872
21.91565,51711
21.92377,49595
21.93190,48222
21.94002,46232
21.94815,49249
21.95627,44208
21.96438,48161
21.97252,45326
21.98063,46667
21.98875,44848
21.99688,44141
22.00500,39953
22.01313,41063
22.02125,40729
22.02937,42380
22.03750,40816
22.04562,41064
22.05375,42456
22.06187,37954
22.06998,39612
22.07812,37036
22.08623,40157
22.09435,40888
22.10248,42430
22.11060,41972
22.11873,42498
22.12685,39950
22.13497,42323
22.14310,41920
22.15122,41307
22.15935,41578
22.16747,45164
22.17558,43638
22.18372,41411
22.19183,41326
22.19997,43436
22.20808,42275
22.21620,41196
22.22433,41073
22.23245,48160
22.24057,51754
22.24870,54851
22.25682,54963
22.26495,54034
22.27307,53316
22.28118,54282
22.28932,45845
22.29743,41649
22.30557,42054
22.31368,46287
22.32180,50081
22.32993,64853
22.33805,72101
22.34618,80109
22.35430,83559
22.36242,74993
22.37055,66603
22.37867,63365
22.38678,57559
22.39492,49946
22.40303,48770
22.41117,46584
22.41928,44335
22.42740,43260
22.43553,43223
22.44365,44359
22.45178,44060
22.45990,40532
22.46802,45570
22.47615,38206
22.48427,40676
22.49238,41216
22.50052,44873
22.50863,39590
22.51677,43825
22.52488,44169
22.53300,39233
22.54113,37651
22.54925,42824
22.55738,40364
22.56550,38517
22.57362,34866
22.58175,42054
22.58987,41041
22.59800,37972
22.60612,38316
22.61423,38968
22.62237,39969
22.63048,37144
22.63860,38087
22.64673,35722
22.65485,34499
22.66298,36128
22.67110,38753
22.67922,40754
22.68735,43700
22.69547,46546
22.70360,44701
22.71172,45879
22.71983,44720
22.72797,44938
22.73608,41003
22.74422,44275
22.75233,38232
22.76045,41896
22.76858,40607
22.77670,40621
22.78482,37348
22.79295,37081
22.80107,34655
22.80920,36488
22.81732,36742
22.82543,34792
22.83357,37000
22.84168,33108
22.84982,40684
22.85793,39771
22.86605,40666
22.87418,40688
22.88230,42784
22.89042,43358
22.89855,40256
22.90667,45289
22.91480,46037
22.92292,51428
22.93103,59148
22.93917,67698
22.94728,68271
22.95542,79882
22.96353,80131
22.97165,79205
22.97978,83327
22.98790,72974
22.99603,72321
23.00415,63193
23.01227,63307
23.02040,57831
23.02852,54293
23.03663,50989
23.04477,53070
23.05288,43752
23.06102,47815
23.06913,49153
23.07725,41413
23.08538,44517
23.09350,43284
23.10163,44023
23.10975,38877
23.11787,41563
23.12600,41801
23.13412,40732
23.14223,39064
23.15037,35289
23.15848,36916
23.16662,37491
23.17473,38550
23.18285,36078
23.19098,40696
23.19910,37124
23.20723,37539
23.21535,37378
23.22347,38862
23.23160,37683
23.23972,38150
23.24785,38783
23.25597,41410
23.26408,42472
23.27222,44077
23.28033,43506
23.28845,41302
23.29658,42490
23.30470,38061
23.31283,38958
23.32095,43056
23.32907,40735
23.33720,36573
23.34532,37961
23.35345,41221
23.36157,36603
23.36968,39587
23.37782,36917
23.38593,35950
23.39407,42285
23.40218,41984
23.41030,40711
23.41843,39002
23.42655,40211
23.43467,42859
23.44280,38487
23.45092,39259
23.45905,37098
23.46717,37358
23.47528,37174
23.48342,41046
23.49153,39870
23.49967,38914
23.50778,40522
23.51590,41306
23.52403,42018
23.53215,39525
23.54028,39868
23.54840,40853
23.55652,41291
23.56465,43467
23.57277,42598
23.58088,43230
23.58902,48741
23.59713,49242
23.60527,49815
23.61338,55297
23.62150,54133
23.62963,58423
23.63775,63861
23.64588,72690
23.65400,109098
23.66212,135488
23.67025,183904
23.67837,214980
23.68648,235416
23.69462,223592
23.70273,177955
23.71087,139674
23.71898,107962
23.72710,83227
23.73523,73912
23.74335,69210
23.75148,76816
23.75960,109935
23.76772,216970
23.77585,594308
23.78397,1444657
23.79210,2871870
23.80022,4352047
23.80833,5339189
23.81647,5385137
23.82458,4634135
23.83270,3421501
23.84083,2339509
23.84895,1618115
23.85708,1125010
23.86520,830554
23.87332,637458
23.88145,531522
23.88957,441132
23.89770,391934
23.90582,348997
23.91393,307093
23.92207,278101
23.93018,254898
23.93830,245879
23.94643,227206
23.95455,215734
23.96268,210848
23.97080,187038
23.97892,179281
23.98705,166327
23.99517,167103
24.00330,163526
24.01142,149221
24.01953,154098
24.02767,144600
24.03578,143371
24.04392,137869
24.05203,137703
24.06015,136471
24.06828,137099
24.07640,133675
24.08452,132676
24.09265,122086
24.10077,115494
24.10890,102702
24.11702,104984
24.12513,100333
24.13327,101632
24.14138,101369
24.14952,111543
24.15763,121494
24.16575,112668
24.17388,118188
24.18200,101081
24.19012,96756
24.19825,99991
24.20637,98963
24.21450,90390
24.22262,99190
24.23073,99905
24.23887,111761
24.24698,113246
24.25512,109747
24.26323,104775
24.27135,97870
24.27948,94417
24.28760,83664
24.29573,82003
24.30385,82162
24.31197,79990
24.32010,86554
24.32822,78442
24.33633,79916
24.34447,75222
24.35258,70006
24.36072,86467
24.36883,75790
24.37695,71128
24.38508,78251
24.39320,82389
24.40133,100071
24.40945,126553
24.41757,150429
24.42570,175776
24.43382,170333
24.44195,147770
24.45007,117466
24.45818,91075
24.46632,76528
24.47443,67828
24.48255,69193
24.49068,65246
24.49880,67647
24.50693,67477
24.51505,74786
24.52317,81067
24.53130,89649
24.53942,92773
24.54755,92781
24.55567,87614
24.56378,81739
24.57192,77716
24.58003,73031
24.58817,67979
24.59628,68550
24.60440,68286
24.61253,65438
24.62065,69583
24.62877,68486
24.63690,63755
24.64502,68568
24.65315,69156
24.66127,67145
24.66938,64751
24.67752,67727
24.68563,64577
24.69377,66241
24.70188,63906
24.71000,61443
24.71813,57112
24.72625,59356
24.73437,59489
24.74250,57433
24.75062,56041
24.75875,55290
24.76687,56457
24.77498,55623
24.78312,51799
24.79123,52318
24.79937,51092
24.80748,53504
24.81560,51520
24.82373,49342
24.83185,51094
24.83998,50917
24.84810,51338
24.85622,49328
24.86435,53462
24.87247,53522
24.88058,50382
24.88872,48063
24.89683,49508
24.90497,53182
24.91308,52343
24.92120,54222
24.92933,51093
24.93745,49383
24.94558,50333
24.95370,53948
24.96182,49483
24.96995,50277
24.97807,51120
24.98618,47467
24.99432,46888
25.00243,51257
25.01057,47471
25.01868,44911
25.02680,47162
25.03493,47561
25.04305,45261
25.05118,45031
25.05930,46419
25.06742,44453
25.07555,44684
25.08367,47887
25.09180,48568
25.09992,49844
25.10803,45944
25.11617,49344
25.12428,48315
25.13240,50753
25.14053,48723
25.14865,57741
25.15678,59307
25.16490,65443
25.17302,68981
25.18115,67245
25.18927,70612
25.19740,63794
25.20552,60679
25.21363,55562
25.22177,56302
25.22988,52778
25.23802,46398
25.24613,48885
25.25425,50617
25.26238,51494
25.27050,51569
25.27862,47411
25.28675,57826
25.29487,49950
25.30300,53040
25.31112,55503
25.31923,57405
25.32737,55023
25.33548,51458
25.34362,53747
25.35173,53990
25.35985,52614
25.36798,50868
25.37610,48044
25.38422,43070
25.39235,44696
25.40047,42783
25.40860,48302
25.41672,42416
25.42483,45818
25.43297,44922
25.44108,46286
25.44922,44343
25.45733,42484
25.46545,42679
25.47358,43208
25.48170,47314
25.48983,44797
25.49795,55350
25.50607,55132
25.51420,53675
25.52232,51233
25.53043,47851
25.53857,47675
25.54668,49656
25.55482,49869
25.56293,44184
25.57105,45575
25.57918,43832
25.58730,44675
25.59543,41727
25.60355,40448
25.61167,39592
25.61980,40539
25.62792,38373
25.63605,43231
25.64417,43230
25.65228,43233
25.66042,44249
25.66853,52237
25.67665,51915
25.68478,48583
25.69290,45343
25.70103,45108
25.70915,42810
25.71727,42465
25.72540,42412
25.73352,45978
25.74165,43584
25.74977,48863
25.75788,44915
25.76602,48188
25.77413,45078
25.78225,46256
25.79038,42547
25.79850,42706
25.80663,42472
25.81475,40638
25.82287,44840
25.83100,41202
25.83912,41744
25.84725,46129
25.85537,48075
25.86348,52368
25.87162,46199
25.87973,44312
25.88787,40216
25.89598,40945
25.90410,42474
25.91223,33242
25.92035,40419
25.92847,37838
25.93660,39914
25.94472,39024
25.95285,37489
25.96097,37052
25.96908,38941
25.97722,36824
25.98533,37996
25.99347,38362
26.00158,36491
26.00970,41254
26.01783,37074
26.02595,39893
26.03407,40058
26.04220,38900
26.05032,40724
26.05845,38631
26.06657,37592
26.07468,40653
26.08282,40446
26.09093,40448
26.09907,39537
26.10718,41956
26.11530,43048
26.12343,38516
26.13155,43922
26.13968,46863
26.14780,46333
26.15592,52486
26.16405,49872
26.17217,53054
26.18028,60292
26.18842,54973
26.19653,48890
26.20467,48115
26.21278,52151
26.22090,46536
26.22903,46091
26.23715,45693
26.24528,42427
26.25340,42990
26.26152,39772
26.26965,39547
26.27777,45162
26.28590,45989
26.29402,44631
26.30213,43043
26.31027,40630
26.31838,36588
26.32650,38950
26.33463,41230
26.34275,40182
26.35088,42088
26.35900,37256
26.36712,39958
26.37525,36292
26.38337,45712
26.39150,47677
26.39962,41614
26.40773,41074
26.41587,45260
26.42398,47868
26.43210,43559
26.44023,42280
26.44835,44168
26.45648,45623
26.46460,40131
26.47272,43169
26.48085,39671
26.48897,37378
26.49710,42879
26.50522,40870
26.51333,43910
26.52147,39950
26.52958,35985
26.53772,35875
26.54583,40128
26.55395,38856
26.56208,37795
26.57020,38071
26.57832,36317
26.58645,39338
26.59457,37526
26.60270,37129
26.61082,42538
26.61893,37861
26.62707,38176
26.63518,36777
26.64332,38814
26.65143,43851
26.65955,38638
26.66768,39891
26.67580,41718
26.68393,41934
26.69205,43493
26.70017,43836
26.70830,43995
26.71642,38914
26.72453,41876
26.73267,46103
26.74078,40904
26.74892,48622
26.75703,44910
26.76515,37720
26.77328,38808
26.78140,48895
26.78953,42763
26.79765,39837
26.80577,42382
26.81390,47133
26.82202,44527
26.83013,48000
26.83827,49150
26.84638,44788
26.85452,48113
26.86263,50976
26.87075,48482
26.87888,51193
26.88700,43345
26.89513,50338
26.90325,49363
26.91137,46025
26.91950,42753
26.92762,44755
26.93575,42093
26.94387,43413
26.95198,45568
26.96012,47800
26.96823,48678
26.97635,57651
26.98448,75334
26.99260,127780
27.00073,241198
27.00885,420657
27.01697,718120
27.02510,1086493
27.03322,1461400
27.04135,1622396
27.04947,1577879
27.05758,1301053
27.06572,1005181
27.07383,737781
27.08197,564130
27.09008,418140
27.09820,348189
27.10633,292532
27.11445,250912
27.12257,216837
27.13070,196170
27.13882,187415
27.14695,167469
27.15507,156702
27.16318,145911
27.17132,135257
27.17943,134161
27.18757,128814
27.19568,127097
27.20380,112362
27.21193,116248
27.22005,115141
27.22817,107279
27.23630,103887
27.24442,101240
27.25255,97463
27.26067,95155
27.26878,88475
27.27692,84931
27.28503,78220
27.29317,80809
27.30128,77117
27.30940,76213
27.31753,73329
27.32565,74190
27.33378,73454
27.34190,71959
27.35002,69024
27.35815,68338
27.36627,68106
27.37438,71040
27.38252,70992
27.39063,71324
27.39877,67081
27.40688,66160
27.41500,65330
27.42313,58712
27.43125,65650
27.43938,66316
27.44750,65062
27.45562,62375
27.46375,61716
27.47187,62030
27.47998,61354
27.48812,62043
27.49623,56515
27.50437,59734
27.51248,56855
27.52060,55891
27.52873,56564
27.53685,57051
27.54498,57188
27.55310,58942
27.56122,61074
27.56935,58452
27.57747,56481
27.58560,55335
27.59372,52557
27.60183,55348
27.60997,55509
27.61808,55865
27.62620,58174
27.63433,58347
27.64245,55373
27.65058,53694
27.65870,57669
27.66682,53229
27.67495,51420
27.68307,48240
27.69120,47554
27.69932,45777
27.70743,49257
27.71557,52852
27.72368,48883
27.73182,52041
27.73993,49673
27.74805,45408
27.75618,45924
27.76430,46613
27.77242,43565
27.78055,47814
27.78867,47427
27.79680,46793
27.80492,41342
27.81303,43840
27.82117,45630
27.82928,43649
27.83742,51088
27.84553,49207
27.85365,51685
27.86178,47714
27.86990,45862
27.87802,49277
27.88615,45165
27.89427,45072
27.90240,49359
27.91052,42419
27.91863,48602
27.92677,44971
27.93488,45883
27.94302,42752
27.95113,44796
27.95925,43426
27.96738,41804
27.97550,44247
27.98363,46879
27.99175,44779
27.99987,42846
28.00800,41313
28.01612,45430
28.02423,46282
28.03237,45016
28.04048,42941
28.04862,39258
28.05673,42973
28.06485,40366
28.07298,41147
28.08110,42669
28.08923,44753
28.09735,47471
28.10547,45080
28.11360,51667
28.12172,42903
28.12985,42656
28.13797,42224
28.14608,42221
28.15422,40341
28.16233,40403
28.17045,40287
28.17858,45073
28.18670,40030
28.19483,41564
28.20295,48474
28.21107,43404
28.21920,50991
28.22732,53558
28.23545,53145
28.24357,55346
28.25168,47382
28.25982,48638
28.26793,47463
28.27605,46835
28.28418,46186
28.29230,47556
28.30043,47935
28.30855,47337
28.31667,55414
28.32480,61858
28.33292,78674
28.34105,103822
28.34917,138439
28.35728,175437
28.36542,217211
28.37353,245018
28.38167,261714
28.38978,267648
28.39790,271239
28.40603,253449
28.41415,224501
28.42227,201181
28.43040,174894
28.43852,161843
28.44665,146176
28.45477,128463
28.46288,112099
28.47102,105484
28.47913,103540
28.48727,97005
28.49538,85366
28.50350,87495
28.51163,81601
28.51975,84271
28.52787,80252
28.53600,76661
28.54412,73124
28.55225,74018
28.56037,72137
28.56848,66774
28.57662,71267
28.58473,64651
28.59287,65018
28.60098,65351
28.60910,61630
28.61723,65292
28.62535,59720
28.63348,59297
28.64160,62418
28.64972,60804
28.65785,66789
28.66597,64686
28.67408,61899
28.68222,67027
28.69033,62794
28.69847,57564
28.70658,57939
28.71470,68156
28.72283,54026
28.73095,54598
28.73908,53590
28.74720,52530
28.75532,53910
28.76345,55146
28.77157,65397
28.77970,73672
28.78782,84521
28.79593,92582
28.80407,92955
28.81218,88862
28.82030,76047
28.82843,71183
28.83655,55645
28.84468,52823
28.85280,52365
28.86092,54384
28.86905,47169
28.87717,46539
28.88530,44814
28.89342,48012
28.90153,44396
28.90967,47575
28.91778,49203
28.92592,50460
28.93403,44461
28.94215,52641
28.95028,47931
28.95840,47124
28.96652,56103
28.97465,54248
28.98277,53942
28.99090,56707
28.99902,57248
29.00713,56032
29.01527,49407
29.02338,51068
29.03152,49916
29.03963,51873
29.04775,48356
29.05588,50839
29.06400,55846
29.07212,47725
29.08025,49084
29.08837,45586
29.09650,45874
29.10462,48997
29.11273,45854
29.12087,43883
29.12898,50342
29.13712,46580
29.14523,48638
29.15335,51085
29.16148,52695
29.16960,49122
29.17773,49381
29.18585,47336
29.19397,49059
29.20210,42643
29.21022,47525
29.21833,46561
29.22647,46138
29.23458,50923
29.24272,56691
29.25083,54577
29.25895,52355
29.26708,61139
29.27520,66678
29.28333,57073
29.29145,56049
29.29957,51691
29.30770,49030
29.31582,51426
29.32393,50630
29.33207,50994
29.34018,46391
29.34832,45622
29.35643,47638
29.36455,45177
29.37268,43135
29.38080,41039
29.38893,47216
29.39705,49351
29.40517,46809
29.41330,47539
29.42142,46613
29.42955,46906
29.43767,46305
29.44578,45757
29.45392,45807
29.46203,46456
29.47015,46949
29.47828,52850
29.48640,44821
29.49453,49582
29.50265,47383
29.51077,52144
29.51890,57998
29.52702,52664
29.53515,52961
29.54327,51393
29.55138,50166
29.55952,47293
29.56763,45519
29.57577,46546
29.58388,44172
29.59200,42954
29.60013,44830
29.60825,43050
29.61637,46469
29.62450,41666
29.63262,43185
29.64075,45980
29.64887,39260
29.65698,44139
29.66512,44092
29.67323,44784
29.68137,41632
29.68948,41687
29.69760,43107
29.70573,43197
29.71385,39209
29.72197,43028
29.73010,44081
29.73822,45395
29.74635,46281
29.75447,41532
29.76258,39778
29.77072,42826
29.77883,40370
29.78697,43188
29.79508,42060
29.80320,38612
29.81133,38487
29.81945,37857
29.82758,39078
29.83570,43756
29.84382,35105
29.85195,39893
29.86007,44307
29.86818,43690
29.87632,57894
29.88443,76099
29.89257,114194
29.90068,173014
29.90880,232378
29.91693,272321
29.92505,266924
29.93318,222160
29.94130,172661
29.94942,117438
29.95755,93867
29.96567,75885
29.97380,68490
29.98192,74474
29.99003,93740
29.99817,100202
30.00628,111872
30.01440,129547
30.02253,136698
30.03065,156644
30.03878,166238
30.04690,166546
30.05502,164472
30.06315,171690
30.07127,160166
30.07940,150629
30.08752,139635
30.09563,133158
30.10377,119401
30.11188,117004
30.12000,110810
30.12813,102304
30.13625,94430
30.14438,89350
30.15250,91218
30.16062,84640
30.16875,82326
30.17687,76274
30.18500,77424
30.19312,73771
30.20123,71632
30.20937,70353
30.21748,68628
30.22562,64165
30.23373,60125
30.24185,65591
30.24998,62343
30.25810,58041
30.26622,59650
30.27435,54821
30.28247,54910
30.29060,52997
30.29872,53777
30.30683,52678
30.31497,53465
30.32308,49501
30.33122,55400
30.33933,52972
30.34745,51049
30.35558,49771
30.36370,51447
30.37182,50695
30.37995,54897
30.38807,52482
30.39620,48487
30.40432,46990
30.41243,44257
30.42057,49728
30.42868,44487
30.43682,47713
30.44493,55602
30.45305,46156
30.46118,46737
30.46930,45588
30.47743,43116
30.48555,46652
30.49367,43907
30.50180,48374
30.50992,46423
30.51803,46002
30.52617,50670
30.53428,47714
30.54242,44569
30.55053,44118
30.55865,41562
30.56678,41099
30.57490,41995
30.58303,45846
30.59115,47496
30.59927,51275
30.60740,45601
30.61552,42319
30.62365,44166
30.63177,42041
30.63988,42178
30.64802,46927
30.65613,46513
30.66425,43055
30.67238,41787
30.68050,43581
30.68863,44281
30.69675,42614
30.70487,42683
30.71300,38165
30.72112,38087
30.72925,40322
30.73737,42997
30.74548,40230
30.75362,40307
30.76173,39508
30.76985,40985
30.77798,45657
30.78610,41845
30.79423,47636
30.80235,55107
30.81047,51593
30.81860,54932
30.82672,50769
30.83485,54278
30.84297,49062
30.85108,52047
30.85922,48351
30.86733,43268
30.87547,43592
30.88358,41126
30.89170,42907
30.89983,43948
30.90795,41112
30.91607,41066
30.92420,43205
30.93232,44173
30.94045,43476
30.94857,43495
30.95668,40551
30.96482,44294
30.97293,44526
30.98107,46202
30.98918,40451
30.99730,43816
31.00543,44530
31.01355,40396
31.02168,40060
31.02980,42882
31.03792,43491
31.04605,43942
31.05417,45058
31.06228,47082
31.07042,48263
31.07853,49815
31.08667,51764
31.09478,53770
31.10290,67104
31.11103,78028
31.11915,96218
31.12728,101366
31.13540,96243
31.14352,85219
31.15165,70444
31.15977,58459
31.16788,55170
31.17602,49656
31.18413,49570
31.19227,55652
31.20038,68105
31.20850,83339
31.21663,103682
31.22475,134588
31.23288,154607
31.24100,155179
31.24912,144845
31.25725,123717
31.26537,99670
31.27350,86925
31.28162,66200
31.28973,52651
31.29787,52113
31.30598,51792
31.31410,48875
31.32223,44142
31.33035,42624
31.33848,42135
31.34660,46971
31.35472,52319
31.36285,41998
31.37097,44250
31.37910,46062
31.38722,45926
31.39533,48722
31.40347,52891
31.41158,53413
31.41970,53216
31.42783,50484
31.43595,49651
31.44408,49840
31.45220,51223
31.46032,46422
31.46845,46959
31.47657,46910
31.48470,45210
31.49282,43143
31.50093,41905
31.50907,43350
31.51718,39547
31.52532,44426
31.53343,43292
31.54155,44611
31.54968,44636
31.55780,39445
31.56592,40302
31.57405,41802
31.58217,48741
31.59030,39374
31.59842,38611
31.60653,42509
31.61467,40589
31.62278,38916
31.63092,41468
31.63903,41808
31.64715,40876
31.65528,41494
31.66340,39296
31.67153,43053
31.67965,41603
31.68777,42966
31.69590,41336
31.70402,40445
31.71213,38499
31.72027,37870
31.72838,38121
31.73652,38883
31.74463,43797
31.75275,39839
31.76088,38344
31.76900,44214
31.77713,40108
31.78525,39220
31.79337,42019
31.80150,39885
31.80962,41379
31.81773,41378
31.82587,43386
31.83398,46184
31.84212,42693
31.85023,41433
31.85835,42871
31.86648,43268
31.87460,43467
31.88273,47031
31.89085,48550
31.89897,48268
31.90710,48834
31.91522,53433
31.92335,51058
31.93147,65003
31.93958,67961
31.94772,74024
31.95583,91251
31.96395,98001
31.97208,109656
31.98020,114858
31.98833,123440
31.99645,121180
32.00457,118706
32.01270,115608
32.02082,110388
32.02895,109675
32.03707,98251
32.04518,92384
32.05332,91390
32.06143,79921
32.06957,80507
32.07768,73450
32.08580,75523
32.09393,82525
32.10205,72560
32.11017,75149
32.11830,74281
32.12642,67019
32.13455,65118
32.14267,63572
32.15078,59912
32.15892,59278
32.16703,59400
32.17517,56328
32.18328,50251
32.19140,49692
32.19953,53800
32.20765,48907
32.21577,48674
32.22390,49720
32.23202,52137
32.24015,53865
32.24827,47132
32.25638,50791
32.26452,50188
32.27263,50797
32.28077,50331
32.28888,48113
32.29700,49640
32.30513,46592
32.31325,52244
32.32138,52105
32.32950,47373
32.33762,47636
32.34575,50123
32.35387,53431
32.36198,54985
32.37012,56676
32.37823,59937
32.38637,58217
32.39448,60916
32.40260,48271
32.41073,47609
32.41885,47468
32.42698,44658
32.43510,49400
32.44322,44590
32.45135,47381
32.45947,47538
32.46760,44356
32.47572,41739
32.48383,44687
32.49197,44271
32.50008,44817
32.50820,43301
32.51633,39087
32.52445,45512
32.53258,45728
32.54070,42825
32.54882,44609
32.55695,47277
32.56507,46160
32.57320,41487
32.58132,49090
32.58943,40303
32.59757,46557
32.60568,45009
32.61380,43415
32.62193,49461
32.63005,42250
32.63818,47508
32.64630,43187
32.65442,41780
32.66255,45680
32.67067,56630
32.67880,65357
32.68692,78990
32.69503,75673
32.70317,80024
32.71128,71457
32.71942,63594
32.72753,55159
32.73565,51164
32.74378,48038
32.75190,43871
32.76002,47064
32.76815,46973
32.77627,45953
32.78440,40873
32.79252,41660
32.80063,44931
32.80877,38700
32.81688,39279
32.82502,43636
32.83313,42478
32.84125,40444
32.84938,40246
32.85750,41712
32.86562,41897
32.87375,42425
32.88187,41867
32.89000,38384
32.89812,48147
32.90623,44886
32.91437,43672
32.92248,50750
32.93062,40780
32.93873,43387
32.94685,42848
32.95498,40541
32.96310,45748
32.97123,37882
32.97935,42713
32.98747,45399
32.99560,39399
33.00372,45302
33.01183,51165
33.01997,42351
33.02808,41764
33.03622,41124
33.04433,39189
33.05245,42980
33.06058,40989
33.06870,39520
33.07683,39410
33.08495,43871
33.09307,43778
33.10120,46017
33.10932,51660
33.11745,61832
33.12557,66110
33.13368,67521
33.14182,66984
33.14993,60684
33.15805,57179
33.16618,50350
33.17430,51193
33.18243,49804
33.19055,49618
33.19867,42546
33.20680,44508
33.21492,44108
33.22305,44983
33.23117,48728
33.23928,45482
33.24742,42774
33.25553,48879
33.26365,42805
33.27178,40784
33.27990,42691
33.28803,41464
33.29615,45646
33.30427,45535
33.31240,38787
33.32052,47758
33.32865,45914
33.33677,46368
33.34488,41947
33.35302,40404
33.36113,40539
33.36927,42180
33.37738,39994
33.38550,39626
33.39363,42518
33.40175,41963
33.40987,44940
33.41800,40314
33.42612,42434
33.43425,40334
33.44237,41094
33.45048,40963
33.45862,40665
33.46673,41646
33.47487,40726
33.48298,43056
33.49110,39879
33.49923,41724
33.50735,40687
33.51548,41906
33.52360,41838
33.53172,40923
33.53985,41096
33.54797,40153
33.55608,43776
33.56422,42910
33.57233,40540
33.58047,44004
33.58858,42972
33.59670,40760
33.60483,43395
33.61295,41723
33.62108,39667
33.62920,42803
33.63732,41216
33.64545,42891
33.65357,40886
33.66168,42257
33.66982,43201
33.67793,42049
33.68607,46900
33.69418,41678
33.70230,42912
33.71043,45253
33.71855,40754
33.72668,43779
33.73480,41774
33.74292,41474
33.75105,40590
33.75917,43470
33.76730,44449
33.77542,51522
33.78353,39704
33.79167,39702
33.79978,39522
33.80790,44098
33.81603,42013
33.82415,42500
33.83228,43802
33.84040,43923
33.84852,45322
33.85665,47979
33.86477,47333
33.87290,47009
33.88102,49084
33.88913,46512
33.89727,46129
33.90538,45376
33.91350,41833
33.92163,44850
33.92975,46130
33.93788,46362
33.94600,45836
33.95412,44999
33.96225,45467
33.97037,43113
33.97850,47876
33.98662,46323
33.99473,42050
34.00287,45248
34.01098,46291
34.01912,39795
34.02723,46816
34.03535,43705
34.04348,44819
34.05160,42917
34.05972,43909
34.06785,45684
34.07597,41883
34.08410,43343
34.09222,42974
34.10033,42973
34.10847,40215
34.11658,42446
34.12472,43686
34.13283,44782
34.14095,45430
34.14908,45501
34.15720,45695
34.16533,45942
34.17345,45207
34.18157,49518
34.18970,48256
34.19782,45640
34.20593,40432
34.21407,42685
34.22218,50854
34.23032,43959
34.23843,40370
34.24655,44258
34.25468,43530
34.26280,43117
34.27093,43675
34.27905,45380
34.28717,44186
34.29530,45928
34.30342,44646
34.31153,43951
34.31967,48320
34.32778,47342
34.33592,50284
34.34403,49082
34.35215,44581
34.36028,45569
34.36840,43998
34.37653,46118
34.38465,43720
34.39277,46572
34.40090,45645
34.40902,48824
34.41715,41895
34.42527,43181
34.43338,42256
34.44152,46988
34.44963,43856
34.45775,47262
34.46588,44473
34.47400,43739
34.48213,47246
34.49025,46751
34.49837,47564
34.50650,49262
34.51462,47999
34.52275,51577
34.53087,53235
34.53898,61125
34.54712,73011
34.55523,81869
34.56337,92245
34.57148,109272
34.57960,111901
34.58773,112761
34.59585,104730
34.60397,104724
34.61210,93291
34.62022,81342
34.62835,77938
34.63647,75417
34.64458,66636
34.65272,67308
34.66083,65090
34.66897,62145
34.67708,66528
34.68520,61327
34.69333,60082
34.70145,61720
34.70957,60588
34.71770,64175
34.72582,58008
34.73395,59602
34.74207,56545
34.75018,53389
34.75832,55356
34.76643,53795
34.77457,55925
34.78268,60510
34.79080,55044
34.79893,59149
34.80705,53582
34.81518,58313
34.82330,52405
34.83142,52526
34.83955,53430
34.84767,52853
34.85578,49995
34.86392,51557
34.87203,51881
34.88017,54362
34.88828,50829
34.89640,53138
34.90453,49123
34.91265,49587
34.92078,53884
34.92890,51418
34.93702,50998
34.94515,56898
34.95327,59187
34.96138,73905
34.96952,96637
34.97763,120806
34.98577,140113
34.99388,167224
35.00200,166171
35.01013,140398
35.01825,111283
35.02638,92790
35.03450,75157
35.04262,69372
35.05075,66213
35.05887,60832
35.06700,60417
35.07512,59703
35.08323,58557
35.09137,61841
35.09948,57583
35.10760,59036
35.11573,58022
35.12385,58765
35.13198,59239
35.14010,57014
35.14822,55478
35.15635,63185
35.16447,58294
35.17260,57576
35.18072,65419
35.18883,63484
35.19697,56743
35.20508,58684
35.21322,52674
35.22133,59464
35.22945,56575
35.23758,52621
35.24570,49491
35.25382,53292
35.26195,51680
35.27007,52287
35.27820,55683
35.28632,55018
35.29443,56424
35.30257,56190
35.31068,53177
35.31882,53476
35.32693,51492
35.33505,51342
35.34318,50868
35.35130,51551
35.35943,52383
35.36755,51779
35.37567,52716
35.38380,47762
35.39192,49305
35.40003,52256
35.40817,53618
35.41628,50742
35.42442,58167
35.43253,53062
35.44065,48596
35.44878,52527
35.45690,53958
35.46503,55384
35.47315,54476
35.48127,54726
35.48940,56394
35.49752,55376
35.50563,57343
35.51377,52211
35.52188,53762
35.53002,52419
35.53813,51751
35.54625,59052
35.55438,56911
35.56250,57377
35.57063,50803
35.57875,51492
35.58687,51748
35.59500,53474
35.60312,57612
35.61125,55111
35.61937,57660
35.62748,56085
35.63562,59156
35.64373,54968
35.65185,53179
35.65998,59448
35.66810,57209
35.67623,56061
35.68435,57049
35.69247,60949
35.70060,61550
35.70872,65530
35.71685,63309
35.72497,63444
35.73308,59599
35.74122,61734
35.74933,56475
35.75745,62248
35.76558,56085
35.77370,56672
35.78183,56198
35.78995,56889
35.79807,55752
35.80620,58019
35.81432,56045
35.82245,57707
35.83057,54633
35.83868,54663
35.84682,50403
35.85493,50662
35.86307,56819
35.87118,51073
35.87930,51991
35.88743,54800
35.89555,54668
35.90367,54735
35.91180,53444
35.91992,53802
35.92805,52893
35.93617,49483
35.94428,51563
35.95242,51023
35.96053,55113
35.96867,48747
35.97678,49717
35.98490,49794
35.99303,50792
36.00115,54286
36.00928,51192
36.01740,54259
36.02552,57533
36.03365,53935
36.04177,53648
36.04988,52770
36.05802,58760
36.06613,57023
36.07427,58306
36.08238,65473
36.09050,60548
36.09863,60495
36.10675,56250
36.11488,54305
36.12300,53186
36.13112,52958
36.13925,56582
36.14737,54256
36.15548,58693
36.16362,58754
36.17173,56142
36.17987,56956
36.18798,55512
36.19610,54383
36.20423,52254
36.21235,53858
36.22048,55989
36.22860,58394
36.23672,56464
36.24485,54920
36.25297,53481
36.26110,55521
36.26922,56770
36.27733,53680
36.28547,53945
36.29358,52290
36.30170,59003
36.30983,59165
36.31795,70211
36.32608,75174
36.33420,82160
36.34232,86787
36.35045,80740
36.35857,79294
36.36670,68352
36.37482,74435
36.38293,64541
36.39107,60473
36.39918,60466
36.40732,61300
36.41543,56689
36.42355,58786
36.43168,55587
36.43980,56232
36.44792,58899
36.45605,55854
36.46417,59746
36.47230,56956
36.48042,55423
36.48853,60926
36.49667,55850
36.50478,55013
36.51292,54396
36.52103,54600
36.52915,55111
36.53728,53343
36.54540,59253
36.55352,56598
36.56165,52515
36.56977,55592
36.57790,55457
36.58602,55448
36.59413,56073
36.60227,51906
36.61038,55834
36.61852,54434
36.62663,55887
36.63475,55261
36.64288,52733
36.65100,58276
36.65913,57951
36.66725,58053
36.67537,55423
36.68350,60352
36.69162,61473
36.69973,61849
36.70787,62548
36.71598,64153
36.72412,60533
36.73223,58238
36.74035,59411
36.74848,53985
36.75660,55252
36.76473,57117
36.77285,62819
36.78097,62096
36.78910,58462
36.79722,56859
36.80533,63519
36.81347,54577
36.82158,54962
36.82972,56897
36.83783,55817
36.84595,53889
36.85408,56559
36.86220,59855
36.87033,56000
36.87845,56304
36.88657,57516
36.89470,57769
36.90282,56974
36.91095,56763
36.91907,57602
36.92718,59985
36.93532,54347
36.94343,51598
36.95155,54165
36.95968,54872
36.96780,56826
36.97593,55888
36.98405,53269
36.99217,56977
37.00030,56269
37.00842,59823
37.01655,57965
37.02467,60229
37.03278,54310
37.04092,61912
37.04903,52628
37.05717,56978
37.06528,58661
37.07340,58891
37.08153,54209
37.08965,61180
37.09777,60094
37.10590,60154
37.11402,62933
37.12215,60349
37.13027,59497
37.13838,57804
37.14652,59791
37.15463,58345
37.16277,55400
37.17088,57983
37.17900,57963
37.18713,68575
37.19525,58062
37.20337,61967
37.21150,58178
37.21962,61309
37.22775,58225
37.23587,67068
37.24398,70043
37.25212,63349
37.26023,69202
37.26837,64752
37.27648,65941
37.28460,67302
37.29273,65671
37.30085,62738
37.30898,67595
37.31710,61453
37.32522,62253
37.33335,61522
37.34147,62511
37.34958,66797
37.35772,76588
37.36583,85705
37.37397,93044
37.38208,95164
37.39020,106074
37.39833,98259
37.40645,95553
37.41458,89631
37.42270,79733
37.43082,83317
37.43895,85024
37.44707,82296
37.45520,78611
37.46332,77548
37.47143,72234
37.47957,78106
37.48768,70797
