C:\MassHunter\GCMS\1\data\JTB-E02\BACandBLUE\JTB-E18-014-04.D Tue Jun 25 08:38:20 2019
Start of data points
2.09520,83187
2.10333,83892
2.11145,91255
2.11958,103361
2.12770,112390
2.13582,116361
2.14395,124999
2.15207,119692
2.16020,119127
2.16832,117475
2.17643,110839
2.18457,112456
2.19268,103067
2.20080,96611
2.20893,97863
2.21705,95008
2.22518,95152
2.23330,90083
2.24142,88162
2.24955,87013
2.25767,86505
2.26580,98733
2.27392,622017
2.28203,3589934
2.29017,4114320
2.29828,1834791
2.30640,925700
2.31453,655905
2.32265,553595
2.33078,487373
2.33890,473259
2.34702,511542
2.35515,398519
2.36327,349962
2.37140,316896
2.37952,292286
2.38763,281301
2.39577,267702
2.40388,252599
2.41202,248646
2.42013,247111
2.42825,288559
2.43638,280827
2.44450,253022
2.45262,242638
2.46075,243358
2.46887,214379
2.47700,203733
2.48512,184144
2.49323,272074
2.50137,450817
2.50948,376998
2.51762,302711
2.52573,274560
2.53385,241288
2.54198,226197
2.55010,223145
2.55823,216847
2.56635,218928
2.57447,207569
2.58260,191224
2.59072,178327
2.59883,177110
2.60697,170893
2.61508,179553
2.62322,185346
2.63133,184802
2.63945,165704
2.64758,161168
2.65570,147961
2.66383,149805
2.67195,147735
2.68007,146714
2.68820,145004
2.69632,138775
2.70445,141597
2.71257,135556
2.72068,134973
2.72882,129269
2.73693,128163
2.74505,125452
2.75318,123484
2.76130,123622
2.76943,131682
2.77755,122213
2.78567,119922
2.79380,121993
2.80192,120660
2.81005,118329
2.81817,124391
2.82628,122174
2.83442,120528
2.84253,118069
2.85065,109801
2.85878,116002
2.86690,120434
2.87503,116581
2.88315,112527
2.89127,114459
2.89940,110450
2.90752,116212
2.91565,111255
2.92377,105848
2.93188,108269
2.94002,106862
2.94813,108457
2.95627,103935
2.96438,104874
2.97250,107326
2.98063,107679
2.98875,105673
2.99687,103987
3.00500,107968
3.01312,102274
3.02125,105559
3.02937,98826
3.03748,100465
3.04562,100701
3.05373,104741
3.06187,103016
3.06998,103875
3.07810,96692
3.08623,90616
3.09435,99858
3.10247,110478
3.11060,143446
3.11872,167167
3.12685,166588
3.13497,147889
3.14308,137510
3.15122,129253
3.15933,123836
3.16747,113949
3.17558,114277
3.18370,111003
3.19183,109107
3.19995,102084
3.20808,103829
3.21620,103268
3.22432,99067
3.23245,104974
3.24057,102868
3.24868,96250
3.25682,94571
3.26493,97403
3.27307,100617
3.28118,166037
3.28930,1100796
3.29743,7631792
3.30555,2.52937E+07
3.31368,4.052802E+07
3.32180,4.393303E+07
3.32992,3.704216E+07
3.33805,2.791494E+07
3.34617,2.060661E+07
3.35430,1.558536E+07
3.36242,1.209107E+07
3.37053,9668285
3.37867,7977545
3.38678,6700801
3.39490,5790719
3.40303,5066964
3.41115,4452727
3.41928,4006345
3.42740,3667274
3.43552,3336175
3.44365,3079917
3.45177,2887058
3.45990,2697157
3.46802,2514948
3.47613,2413341
3.48427,2276342
3.49238,2155572
3.50050,2047230
3.50863,1964779
3.51675,1893419
3.52488,1776084
3.53300,1700042
3.54112,1639131
3.54925,1592729
3.55737,1510466
3.56550,1477796
3.57362,1442167
3.58173,1396389
3.58987,1355757
3.59798,1328450
3.60612,1301663
3.61423,1264935
3.62235,1239894
3.63048,1213949
3.63860,1184679
3.64672,1144770
3.65485,1124689
3.66297,1075997
3.67110,1049177
3.67922,1054208
3.68733,1030821
3.69547,1009799
3.70358,994384
3.71172,984668
3.71983,954335
3.72795,931259
3.73608,911052
3.74420,894874
3.75233,896711
3.76045,858619
3.76857,855578
3.77670,845053
3.78482,828284
3.79293,833016
3.80107,809845
3.80918,803940
3.81732,790529
3.82543,779708
3.83355,774997
3.84168,776223
3.84980,743266
3.85793,738755
3.86605,724693
3.87417,717118
3.88230,704205
3.89042,712121
3.89853,711303
3.90667,694583
3.91478,692420
3.92292,666200
3.93103,665454
3.93915,656189
3.94728,645776
3.95540,660265
3.96353,639380
3.97165,636780
3.97977,627471
3.98790,635224
3.99602,607319
4.00415,608741
4.01227,628781
4.02038,621553
4.02852,631456
4.03663,617335
4.04475,599733
4.05288,598300
4.06100,591481
4.06913,575007
4.07725,562683
4.08537,566481
4.09350,568741
4.10162,546207
4.10975,528986
4.11787,536050
4.12598,535468
4.13412,526856
4.14223,553011
4.15035,610671
4.15848,670026
4.16660,663389
4.17473,630336
4.18285,586940
4.19097,569240
4.19910,532432
4.20722,521647
4.21535,508643
4.22347,507663
4.23158,511008
4.23972,511672
4.24783,504374
4.25597,491255
4.26408,491389
4.27220,482908
4.28033,464103
4.28845,473647
4.29657,464083
4.30470,455269
4.31282,458004
4.32095,447805
4.32907,444675
4.33718,463106
4.34532,469300
4.35343,446824
4.36157,467914
4.36968,467007
4.37780,467867
4.38593,465203
4.39405,457823
4.40218,453265
4.41030,441737
4.41842,428928
4.42655,417865
4.43467,429928
4.44278,418865
4.45092,407219
4.45903,411407
4.46717,402935
4.47528,407113
4.48340,395889
4.49153,394106
4.49965,387619
4.50778,385914
4.51590,391252
4.52402,395021
4.53215,386288
4.54027,384938
4.54838,375926
4.55652,367980
4.56463,367785
4.57277,364764
4.58088,358264
4.58900,365633
4.59713,370986
4.60525,352108
4.61338,369564
4.62150,355395
4.62962,355212
4.63775,356624
4.64587,344606
4.65400,348984
4.66212,349503
4.67023,338302
4.67837,342486
4.68648,345864
4.69460,339398
4.70273,337383
4.71085,332015
4.71898,332688
4.72710,328312
4.73522,335505
4.74335,324415
4.75147,326504
4.75960,329066
4.76772,315527
4.77583,315891
4.78397,316650
4.79208,310695
4.80022,321190
4.80833,315490
4.81645,315001
4.82458,316296
4.83270,305739
4.84082,298791
4.84895,314647
4.85707,317580
4.86520,312135
4.87332,306695
4.88143,301997
4.88957,309412
4.89768,303215
4.90582,301711
4.91393,309243
4.92205,351325
4.93018,722809
4.93830,2516816
4.94642,8096936
4.95455,1.814584E+07
4.96267,2.741794E+07
4.97080,3.049454E+07
4.97892,2.729497E+07
4.98703,2.118013E+07
4.99517,1.465154E+07
5.00328,1.011268E+07
5.01142,7238467
5.01953,5518626
5.02765,4456286
5.03578,3662552
5.04390,3208455
5.05203,2790793
5.06015,2489862
5.06827,2256498
5.07640,2065541
5.08452,1900624
5.09263,1787279
5.10077,1649031
5.10888,1557479
5.11702,1492280
5.12513,1406775
5.13325,1358172
5.14138,1308507
5.14950,1245277
5.15763,1187404
5.16575,1152914
5.17387,1123815
5.18200,1106241
5.19012,1048929
5.19825,1029028
5.20637,1002147
5.21448,986546
5.22262,979925
5.23073,982356
5.23885,1032247
5.24698,1086886
5.25510,1046832
5.26323,979539
5.27135,913406
5.27947,843950
5.28760,827021
5.29572,807316
5.30385,767856
5.31197,774275
5.32008,755407
5.32822,727552
5.33633,718206
5.34445,724777
5.35258,698239
5.36070,678023
5.36883,668265
5.37695,658581
5.38507,657894
5.39320,659222
5.40132,620797
5.40945,627527
5.41757,619633
5.42568,603865
5.43382,593257
5.44193,592693
5.45007,593239
5.45818,576379
5.46630,586178
5.47443,563165
5.48255,565254
5.49067,560874
5.49880,545689
5.50692,546323
5.51505,527912
5.52317,535137
5.53128,527291
5.53942,508070
5.54753,504358
5.55567,509760
5.56378,502884
5.57190,499249
5.58003,497339
5.58815,499338
5.59627,495763
5.60440,489696
5.61252,499674
5.62065,493752
5.62877,526331
5.63688,555322
5.64502,593429
5.65313,564070
5.66127,552118
5.66938,542299
5.67750,559921
5.68563,619180
5.69375,658718
5.70188,647474
5.71000,583683
5.71812,544634
5.72625,492960
5.73437,477478
5.74248,450578
5.75062,443101
5.75873,433755
5.76687,434121
5.77498,425491
5.78310,412023
5.79123,428224
5.79935,406843
5.80748,404655
5.81560,404604
5.82372,408462
5.83185,400799
5.83997,388797
5.84810,390053
5.85622,391554
5.86433,395221
5.87247,382438
5.88058,385592
5.88870,372589
5.89683,375853
5.90495,372631
5.91308,314520
5.92120,283137
5.92932,253723
5.93745,256232
5.94557,249770
5.95370,258315
5.96182,240678
5.96993,251828
5.97807,252044
5.98618,267079
5.99430,268132
6.00243,268301
6.01055,265558
6.01868,247194
6.02680,249187
6.03492,243832
6.04305,235702
6.05117,234852
6.05930,239823
6.06742,234171
6.07553,233002
6.08367,234682
6.09178,227652
6.09992,226135
6.10803,224402
6.11615,224244
6.12428,218198
6.13240,222962
6.14052,226345
6.14865,230866
6.15677,227959
6.16490,228795
6.17302,237117
6.18113,226685
6.18927,227483
6.19738,226633
6.20552,225502
6.21363,230072
6.22175,221433
6.22988,223598
6.23800,226744
6.24613,216933
6.25425,221432
6.26237,231976
6.27050,225400
6.27862,230683
6.28673,235248
6.29487,231582
6.30298,226912
6.31112,227712
6.31923,227607
6.32735,222517
6.33548,227076
6.34360,225963
6.35173,225058
6.35985,237167
6.36797,225428
6.37610,227085
6.38422,231725
6.39233,226608
6.40047,228924
6.40858,227892
6.41672,228026
6.42483,228508
6.43295,230302
6.44108,241842
6.44920,245912
6.45733,250779
6.46545,247886
6.47357,244754
6.48170,241971
6.48982,235026
6.49795,237365
6.50607,235993
6.51418,232690
6.52232,233339
6.53043,222714
6.53855,224765
6.54668,212695
6.55480,210007
6.56293,206168
6.57105,206820
6.57917,197332
6.58730,201338
6.59542,190587
6.60355,185006
6.61167,181802
6.61978,185025
6.62792,190405
6.63603,180154
6.64415,188366
6.65228,180406
6.66040,188257
6.66853,193906
6.67665,181659
6.68477,179184
6.69290,186506
6.70102,177982
6.70915,177831
6.71727,173312
6.72538,176808
6.73352,173835
6.74163,175694
6.74977,173230
6.75788,170306
6.76600,176268
6.77413,170355
6.78225,176219
6.79037,174931
6.79850,171610
6.80662,172770
6.81475,171191
6.82287,171829
6.83098,168313
6.83912,167909
6.84723,165058
6.85537,157365
6.86348,133218
6.87160,111157
6.87973,99388
6.88785,102368
6.89598,100874
6.90410,92258
6.91222,93036
6.92035,94979
6.92847,89327
6.93658,93324
6.94472,93726
6.95283,85011
6.96097,85646
6.96908,91879
6.97720,85602
6.98533,86773
6.99345,87690
7.00158,82589
7.00970,86725
7.01782,88353
7.02595,86777
7.03407,86857
7.04218,87241
7.05032,88009
7.05843,90316
7.06657,85320
7.07468,86827
7.08280,87612
7.09093,83869
7.09905,79838
7.10718,82385
7.11530,81548
7.12342,84627
7.13155,86352
7.13967,81647
7.14780,79555
7.15592,80470
7.16403,82953
7.17217,83052
7.18028,86252
7.18840,91901
7.19653,76838
7.20465,80417
7.21278,84884
7.22090,80844
7.22902,79771
7.23715,84011
7.24527,80968
7.25340,80901
7.26152,81987
7.26963,77969
7.27777,81663
7.28588,78741
7.29402,80519
7.30213,80615
7.31025,76411
7.31838,75834
7.32650,81206
7.33462,79454
7.34275,82906
7.35087,78202
7.35900,74439
7.36712,77391
7.37523,75544
7.38337,81212
7.39148,81243
7.39962,80816
7.40773,82043
7.41585,85534
7.42398,91555
7.43210,95119
7.44022,112244
7.44835,136475
7.45647,133124
7.46460,131171
7.47272,127667
7.48083,114891
7.48897,102287
7.49708,90372
7.50522,86125
7.51333,84611
7.52145,87427
7.52958,81002
7.53770,81116
7.54583,79835
7.55395,80307
7.56207,76998
7.57020,78150
7.57832,80934
7.58643,83540
7.59457,82671
7.60268,78848
7.61082,82663
7.61893,79456
7.62705,79926
7.63518,80818
7.64330,75896
7.65143,78589
7.65955,78174
7.66767,84292
7.67580,78597
7.68392,75744
7.69203,80925
7.70017,79243
7.70828,75435
7.71642,75103
7.72453,73136
7.73265,74443
7.74078,79017
7.74890,79924
7.75703,74294
7.76515,80660
7.77327,69637
7.78140,73606
7.78952,74578
7.79765,75421
7.80577,77311
7.81388,85254
7.82202,83186
7.83013,80526
7.83825,75447
7.84638,73698
7.85450,73389
7.86263,69135
7.87075,64874
7.87887,69894
7.88700,68057
7.89512,68124
7.90325,67308
7.91137,67618
7.91948,66745
7.92762,69298
7.93573,71948
7.94387,69132
7.95198,67411
7.96010,68035
7.96823,73226
7.97635,73087
7.98447,72557
7.99260,68531
8.00072,72510
8.00885,68946
8.01697,66393
8.02508,64123
8.03322,67047
8.04133,69283
8.04947,63322
8.05758,66683
8.06570,68339
8.07383,70508
8.08195,67027
8.09008,69046
8.09820,67086
8.10632,67968
8.11445,65694
8.12257,66335
8.13068,65705
8.13882,66743
8.14693,66103
8.15507,68698
8.16318,70448
8.17130,68358
8.17943,72194
8.18755,73816
8.19568,75033
8.20380,67965
8.21192,71523
8.22005,69639
8.22817,66584
8.23628,70328
8.24442,65192
8.25253,66372
8.26067,66639
8.26878,69821
8.27690,70790
8.28503,71899
8.29315,65838
8.30128,64127
8.30940,66327
8.31752,66805
8.32565,65753
8.33377,70170
8.34190,74027
8.35002,69689
8.35813,75019
8.36627,76147
8.37438,73949
8.38250,73082
8.39063,71746
8.39875,70410
8.40688,75439
8.41500,244021
8.42312,883865
8.43125,798544
8.43937,318149
8.44750,178138
8.45562,145155
8.46373,129295
8.47187,120438
8.47998,107763
8.48810,109580
8.49623,112228
8.50435,110176
8.51248,124516
8.52060,122123
8.52872,115159
8.53685,112107
8.54497,135473
8.55310,130346
8.56122,118072
8.56933,110168
8.57747,108698
8.58558,101659
8.59372,103168
8.60183,103022
8.60995,104697
8.61808,99651
8.62620,99827
8.63432,92742
8.64245,90310
8.65057,90980
8.65870,88430
8.66682,85275
8.67493,87154
8.68307,90798
8.69118,88244
8.69932,84025
8.70743,84166
8.71555,83479
8.72368,80743
8.73180,81415
8.73993,90234
8.74805,138864
8.75617,373090
8.76430,1113893
8.77242,2892853
8.78053,5748149
8.78867,8605772
8.79678,9602541
8.80492,8327157
8.81303,6013372
8.82115,4381663
8.82928,9360156
8.83740,2.173445E+07
8.84553,1.784165E+07
8.85365,8501372
8.86177,4741596
8.86990,3174264
8.87802,2411828
8.88613,1913999
8.89427,1588133
8.90238,1359542
8.91052,1174072
8.91863,1060925
8.92675,953571
8.93488,864333
8.94300,801830
8.95113,752422
8.95925,697649
8.96737,668102
8.97550,611517
8.98362,584103
8.99175,556567
8.99987,542492
9.00798,511497
9.01612,501003
9.02423,471971
9.03235,459812
9.04048,445616
9.04860,425108
9.05673,419639
9.06485,397522
9.07297,387345
9.08110,378096
9.08922,355503
9.09735,347011
9.10547,334736
9.11358,330743
9.12172,320455
9.12983,312619
9.13797,304933
9.14608,296286
9.15420,296721
9.16233,294836
9.17045,297580
9.17857,297186
9.18670,301954
9.19482,285107
9.20295,274568
9.21107,277447
9.21918,282532
9.22732,281518
9.23543,274421
9.24357,266149
9.25168,269885
9.25980,269874
9.26793,259389
9.27605,248587
9.28417,245528
9.29230,239100
9.30042,223883
9.30855,220467
9.31667,217021
9.32478,281655
9.33292,1404454
9.34103,6809015
9.34917,1.306045E+07
9.35728,1.084893E+07
9.36540,5747143
9.37353,3120141
9.38165,2019218
9.38978,1470623
9.39790,1152985
9.40602,929791
9.41415,793765
9.42227,674450
9.43038,596372
9.43852,535787
9.44663,490448
9.45477,445560
9.46288,410952
9.47100,383823
9.47913,362691
9.48725,344087
9.49538,331974
9.50350,311441
9.51162,308075
9.51975,303214
9.52787,294980
9.53598,286850
9.54412,275528
9.55223,258244
9.56037,235709
9.56848,227931
9.57660,206182
9.58473,189052
9.59285,181747
9.60098,176392
9.60910,176665
9.61722,172977
9.62535,169431
9.63347,162489
9.64160,155020
9.64972,153071
9.65783,152061
9.66597,146664
9.67408,143844
9.68220,141158
9.69033,144648
9.69845,145957
9.70658,133496
9.71470,135522
9.72282,126806
9.73095,129026
9.73907,128074
9.74720,124404
9.75532,126669
9.76343,121889
9.77157,129714
9.77968,142033
9.78782,152670
9.79593,150052
9.80405,141803
9.81218,131508
9.82030,132124
9.82842,123959
9.83655,122416
9.84467,133718
9.85280,153460
9.86092,166815
9.86903,159722
9.87717,132301
9.88528,122786
9.89342,119341
9.90153,116621
9.90965,117262
9.91778,118687
9.92590,112240
9.93402,107066
9.94215,112550
9.95027,115022
9.95840,114000
9.96652,116913
9.97463,116079
9.98277,127781
9.99088,138608
9.99902,156007
10.00713,182291
10.01525,213871
10.02338,235865
10.03150,233216
10.03963,237318
10.04775,217710
10.05587,207075
10.06400,193211
10.07212,192097
10.08023,185770
10.08837,180627
10.09648,179624
10.10462,182023
10.11273,175448
10.12085,162726
10.12898,153363
10.13710,135473
10.14523,133803
10.15335,132922
10.16147,130858
10.16960,127002
10.17772,123023
10.18585,122569
10.19397,120879
10.20208,122235
10.21022,130252
10.21833,145518
10.22645,152887
10.23458,173703
10.24270,183540
10.25083,182304
10.25895,157892
10.26707,148577
10.27520,139788
10.28332,127869
10.29145,128627
10.29957,129415
10.30768,133148
10.31582,141677
10.32393,138100
10.33205,130045
10.34018,129310
10.34830,130743
10.35643,123399
10.36455,124768
10.37267,124076
10.38080,126518
10.38892,119310
10.39705,113663
10.40517,109857
10.41328,108777
10.42142,115579
10.42953,109481
10.43767,107577
10.44578,111483
10.45390,112983
10.46203,113996
10.47015,109866
10.47827,105282
10.48640,109897
10.49452,107539
10.50265,111124
10.51077,103564
10.51888,109381
10.52702,111653
10.53513,107102
10.54327,101123
10.55138,108133
10.55950,104442
10.56763,107363
10.57575,106356
10.58387,113050
10.59200,105883
10.60012,108445
10.60825,103281
10.61637,110400
10.62448,105168
10.63262,98090
10.64073,103655
10.64887,103212
10.65698,102393
10.66510,97631
10.67323,95993
10.68135,96998
10.68948,100681
10.69760,94945
10.70572,102805
10.71385,99401
10.72197,97760
10.73008,99633
10.73822,97726
10.74633,94153
10.75447,91215
10.76258,102482
10.77070,97220
10.77883,98197
10.78695,101087
10.79508,99648
10.80320,96808
10.81132,103763
10.81945,97456
10.82757,98864
10.83570,100943
10.84382,94977
10.85193,95467
10.86007,93095
10.86818,93793
10.87630,89206
10.88443,93325
10.89255,93542
10.90068,92397
10.90880,92353
10.91692,94343
10.92505,91100
10.93317,93101
10.94130,97923
10.94942,113557
10.95753,229546
10.96567,696387
10.97378,1791733
10.98190,3059394
10.99003,3286303
10.99815,2455985
11.00628,1536739
11.01440,923879
11.02252,624033
11.03065,470305
11.03877,386482
11.04690,318104
11.05502,272464
11.06313,246303
11.07127,219235
11.07938,204889
11.08752,188492
11.09563,178375
11.10375,163314
11.11188,157355
11.12000,154652
11.12812,144871
11.13625,134442
11.14437,133841
11.15250,136230
11.16062,144914
11.16873,174608
11.17687,194194
11.18498,234903
11.19312,259038
11.20123,266799
11.20935,249980
11.21748,228156
11.22560,205007
11.23373,169439
11.24185,148221
11.24997,133356
11.25810,123935
11.26622,122904
11.27433,117063
11.28247,112396
11.29058,111411
11.29872,105807
11.30683,105659
11.31495,107217
11.32308,105217
11.33120,106357
11.33933,104314
11.34745,103949
11.35557,98161
11.36370,101915
11.37182,108619
11.37993,106350
11.38807,104125
11.39618,105198
11.40432,98958
11.41243,98350
11.42055,100279
11.42868,98458
11.43680,94164
11.44493,94362
11.45305,92702
11.46117,99781
11.46930,89902
11.47742,97335
11.48555,95751
11.49367,94406
11.50178,91077
11.50992,94088
11.51803,92037
11.52615,89333
11.53428,89021
11.54240,93810
11.55053,96728
11.55865,89790
11.56677,94303
11.57490,94921
11.58302,86609
11.59115,91701
11.59927,88824
11.60738,94105
11.61552,92370
11.62363,97824
11.63177,94458
11.63988,88665
11.64800,94150
11.65613,94166
11.66425,92742
11.67237,92383
11.68050,91217
11.68862,95705
11.69675,97104
11.70487,94004
11.71298,101420
11.72112,102412
11.72923,105393
11.73737,113150
11.74548,108545
11.75360,112148
11.76173,117942
11.76985,115117
11.77797,120464
11.78610,111374
11.79422,103335
11.80235,108225
11.81047,99082
11.81858,97207
11.82672,99042
11.83483,97196
11.84297,102234
11.85108,98739
11.85920,95120
11.86733,97556
11.87545,94155
11.88358,92155
11.89170,95867
11.89982,102761
11.90795,107583
11.91607,98974
11.92418,103374
11.93232,103188
11.94043,101178
11.94857,99437
11.95668,94924
11.96480,96163
11.97293,93406
11.98105,95373
11.98918,97795
11.99730,99249
12.00542,97422
12.01355,99652
12.02167,96854
12.02978,97413
12.03792,100281
12.04603,96243
12.05417,98173
12.06228,98270
12.07040,95965
12.07853,103870
12.08665,99694
12.09478,97854
12.10290,96814
12.11102,99250
12.11915,101511
12.12727,96691
12.13540,97007
12.14352,98321
12.15163,100726
12.15977,100605
12.16788,104914
12.17600,101970
12.18413,103272
12.19225,107495
12.20038,107531
12.20850,109233
12.21662,109238
12.22475,103043
12.23287,106732
12.24100,102249
12.24912,93523
12.25723,102999
12.26537,97336
12.27348,94353
12.28162,93366
12.28973,100156
12.29785,97079
12.30598,99824
12.31410,96685
12.32222,98924
12.33035,98379
12.33847,102508
12.34660,103609
12.35472,101624
12.36283,98450
12.37097,93143
12.37908,101824
12.38722,99917
12.39533,96237
12.40345,100840
12.41158,99875
12.41970,104110
12.42782,104850
12.43595,103353
12.44407,100373
12.45220,105969
12.46032,109311
12.46843,112793
12.47657,112389
12.48468,108961
12.49282,111122
12.50093,103158
12.50905,105111
12.51718,100812
12.52530,99620
12.53343,98842
12.54155,100893
12.54967,101183
12.55780,100736
12.56592,103043
12.57403,101962
12.58217,102364
12.59028,99317
12.59842,100856
12.60653,98819
12.61465,96510
12.62278,93231
12.63090,97768
12.63903,97246
12.64715,99647
12.65527,103108
12.66340,98986
12.67152,99528
12.67965,108152
12.68777,102384
12.69588,110784
12.70402,113920
12.71213,124220
12.72025,127658
12.72838,130280
12.73650,132803
12.74463,127510
12.75275,130321
12.76087,124614
12.76900,117700
12.77712,112619
12.78525,110512
12.79337,110488
12.80148,103724
12.80962,109632
12.81773,102141
12.82585,106079
12.83398,105709
12.84210,103907
12.85023,105648
12.85835,103312
12.86647,101721
12.87460,104251
12.88272,96962
12.89085,96520
12.89897,102385
12.90708,102488
12.91522,103824
12.92333,99704
12.93147,102633
12.93958,93632
12.94770,98554
12.95583,96851
12.96395,97909
12.97207,102682
12.98020,99284
12.98832,94561
12.99645,105039
13.00457,101407
13.01268,101893
13.02082,100687
13.02893,97999
13.03707,102411
13.04518,106459
13.05330,100278
13.06143,101185
13.06955,100966
13.07767,99218
13.08580,102515
13.09392,101755
13.10205,102740
13.11017,99909
13.11828,101253
13.12642,104461
13.13453,96615
13.14267,101408
13.15078,101758
13.15890,99743
13.16703,107522
13.17515,111335
13.18328,127255
13.19140,149106
13.19952,159829
13.20765,167281
13.21577,154590
13.22388,146197
13.23202,130962
13.24013,116924
13.24827,114730
13.25638,108400
13.26450,106211
13.27263,105060
13.28075,106799
13.28888,101746
13.29700,109482
13.30512,109162
13.31325,99116
13.32137,101998
13.32950,104847
13.33762,103779
13.34573,106580
13.35387,109626
13.36198,106933
13.37010,100930
13.37823,103694
13.38635,106260
13.39448,105524
13.40260,110729
13.41072,106886
13.41885,106983
13.42697,103921
13.43510,106586
13.44322,103159
13.45133,99620
13.45947,103718
13.46758,103171
13.47572,108528
13.48383,103613
13.49195,102587
13.50008,108988
13.50820,114411
13.51632,107867
13.52445,108567
13.53257,112968
13.54070,108699
13.54882,111209
13.55693,115219
13.56507,111221
13.57318,116675
13.58132,119006
13.58943,121628
13.59755,116976
13.60568,122264
13.61380,116522
13.62192,116130
13.63005,117429
13.63817,114695
13.64630,117358
13.65442,113199
13.66253,114191
13.67067,116016
13.67878,119508
13.68692,120024
13.69503,117336
13.70315,117640
13.71128,115242
13.71940,121832
13.72753,120469
13.73565,120488
13.74377,123144
13.75190,120714
13.76002,131145
13.76813,133419
13.77627,141295
13.78438,148953
13.79252,153062
13.80063,147035
13.80875,155187
13.81688,149271
13.82500,154661
13.83313,157334
13.84125,153756
13.84937,152911
13.85750,152945
13.86562,158197
13.87373,153471
13.88187,153537
13.88998,158020
13.89812,159862
13.90623,165780
13.91435,170122
13.92248,171633
13.93060,177833
13.93873,178044
13.94685,168729
13.95497,161323
13.96310,152617
13.97122,155037
13.97935,151632
13.98747,155853
13.99558,154081
14.00372,158214
14.01183,163788
14.01995,160170
14.02808,162668
14.03620,150786
14.04433,163484
14.05245,165562
14.06057,171346
14.06870,169014
14.07682,173557
14.08495,162881
14.09307,165035
14.10118,152567
14.10932,153194
14.11743,145929
14.12557,150186
14.13368,159116
14.14180,151725
14.14993,153145
14.15805,177968
14.16617,258090
14.17430,487333
14.18242,1022522
14.19055,1920208
14.19867,2795345
14.20678,3165208
14.21492,2820515
14.22303,2102478
14.23117,1407897
14.23928,927386
14.24740,657405
14.25553,537699
14.26365,458513
14.27177,409136
14.27990,359410
14.28802,343123
14.29615,316306
14.30427,288916
14.31238,283248
14.32052,267210
14.32863,248889
14.33677,233963
14.34488,227554
14.35300,193425
14.36113,178951
14.36925,162691
14.37738,154947
14.38550,142657
14.39362,141492
14.40175,142744
14.40987,135670
14.41798,138971
14.42612,128975
14.43423,126174
14.44237,132538
14.45048,136359
14.45860,136345
14.46673,135722
14.47485,127335
14.48298,135684
14.49110,130480
14.49922,128423
14.50735,127658
14.51547,129691
14.52360,143898
14.53172,143839
14.53983,140772
14.54797,126595
14.55608,134731
14.56420,133355
14.57233,125911
14.58045,125729
14.58858,126490
14.59670,132932
14.60482,126130
14.61295,130004
14.62107,264114
14.62920,926318
14.63732,773587
14.64543,323404
14.65357,231703
14.66168,203638
14.66980,183140
14.67793,176382
14.68605,176797
14.69418,175072
14.70230,185989
14.71042,189040
14.71855,173416
14.72667,175168
14.73480,189879
14.74292,271056
14.75103,450799
14.75917,751896
14.76728,1050381
14.77542,1136424
14.78353,937613
14.79165,666724
14.79978,430746
14.80790,513185
14.81602,1.056335E+07
14.82415,2.552757E+07
14.83227,1.272658E+07
14.84040,5778132
14.84852,3455723
14.85663,2378104
14.86477,1777301
14.87288,1383556
14.88102,1125388
14.88913,968466
14.89725,816986
14.90538,748346
14.91350,662408
14.92162,598397
14.92975,549586
14.93787,501379
14.94600,473337
14.95412,453418
14.96223,453989
14.97037,2194507
14.97848,1.604831E+07
14.98662,1.781536E+07
14.99473,7699692
15.00285,4010230
15.01098,2578899
15.01910,1836769
15.02723,1416814
15.03535,1147960
15.04347,971681
15.05160,841995
15.05972,725653
15.06783,645769
15.07597,583078
15.08408,545216
15.09222,498672
15.10033,466513
15.10845,441868
15.11658,421029
15.12470,421713
15.13283,382292
15.14095,365588
15.14907,350031
15.15720,330407
15.16532,311226
15.17345,317455
15.18157,308110
15.18968,296183
15.19782,292141
15.20593,276266
15.21405,272552
15.22218,278109
15.23030,263048
15.23843,254648
15.24655,267269
15.25467,300134
15.26280,277933
15.27092,252588
15.27905,251210
15.28717,253199
15.29528,267997
15.30342,248280
15.31153,232498
15.31965,235512
15.32778,252045
15.33590,260049
15.34403,255797
15.35215,247101
15.36027,251474
15.36840,243074
15.37652,238708
15.38465,225888
15.39277,229185
15.40088,223555
15.40902,224341
15.41713,218065
15.42527,222182
15.43338,225542
15.44150,212678
15.44963,205284
15.45775,200978
15.46587,201362
15.47400,229553
15.48212,772029
15.49025,3423745
15.49837,5859895
15.50648,4359929
15.51462,2394726
15.52273,1430295
15.53087,961137
15.53898,726643
15.54710,572013
15.55523,482051
15.56335,404659
15.57148,363097
15.57960,327888
15.58772,306021
15.59585,277166
15.60397,269889
15.61208,245610
15.62022,238581
15.62833,225378
15.63647,228580
15.64458,226024
15.65270,214280
15.66083,212229
15.66895,205640
15.67708,203296
15.68520,203965
15.69332,197286
15.70145,186667
15.70957,185460
15.71768,191372
15.72582,190909
15.73393,179375
15.74207,180831
15.75018,181638
15.75830,177050
15.76643,176405
15.77455,171028
15.78268,178017
15.79080,175686
15.79892,173476
15.80705,179120
15.81517,171343
15.82330,176027
15.83142,172605
15.83953,169897
15.84767,175310
15.85578,167458
15.86390,158286
15.87203,170693
15.88015,157706
15.88828,165034
15.89640,167900
15.90452,169475
15.91265,175058
15.92077,180264
15.92890,180340
15.93702,168574
15.94513,166768
15.95327,165903
15.96138,178477
15.96950,182515
15.97763,176494
15.98575,187004
15.99388,172626
16.00200,187500
16.01012,195661
16.01825,201743
16.02637,228046
16.03450,236151
16.04262,244692
16.05073,242995
16.05887,224948
16.06698,211804
16.07512,196838
16.08323,185635
16.09135,179459
16.09948,177202
16.10760,181082
16.11572,169917
16.12385,169950
16.13197,164994
16.14010,156829
16.14822,167541
16.15633,165026
16.16447,162400
16.17258,162667
16.18072,167442
16.18883,168198
16.19695,173652
16.20508,161407
16.21320,165216
16.22133,159413
16.22945,162030
16.23757,162233
16.24570,158428
16.25382,162583
16.26193,159941
16.27007,162717
16.27818,164620
16.28632,167698
16.29443,158257
16.30255,154159
16.31068,155535
16.31880,155536
16.32693,153797
16.33505,155685
16.34317,158474
16.35130,159800
16.35942,181254
16.36753,177324
16.37567,170781
16.38378,165119
16.39192,158601
16.40003,167557
16.40815,161061
16.41628,157865
16.42440,163562
16.43253,154774
16.44065,153226
16.44877,158740
16.45690,154718
16.46502,156227
16.47315,150950
16.48127,155598
16.48938,160888
16.49752,155559
16.50563,158581
16.51375,156278
16.52188,150005
16.53000,152822
16.53813,148280
16.54625,148827
16.55437,151235
16.56250,154486
16.57062,152037
16.57875,145837
16.58687,146144
16.59498,148516
16.60312,151052
16.61123,147234
16.61937,146672
16.62748,143454
16.63560,151205
16.64373,148713
16.65185,141570
16.65997,143952
16.66810,134898
16.67622,139807
16.68435,144382
16.69247,139766
16.70058,136891
16.70872,136118
16.71683,137369
16.72497,133706
16.73308,141711
16.74120,137640
16.74933,134830
16.75745,135209
16.76557,135073
16.77370,133052
16.78182,143755
16.78995,141726
16.79807,141336
16.80618,142902
16.81432,145428
16.82243,137650
16.83057,141609
16.83868,139662
16.84680,135517
16.85493,134519
16.86305,133690
16.87118,142502
16.87930,135983
16.88742,140103
16.89555,144604
16.90367,131735
16.91178,134903
16.91992,134823
16.92803,133908
16.93617,138474
16.94428,140221
16.95240,133312
16.96053,131669
16.96865,131465
16.97678,136555
16.98490,134316
16.99302,133445
17.00115,132130
17.00927,130423
17.01740,130953
17.02552,131344
17.03363,130408
17.04177,127236
17.04988,128681
17.05800,128643
17.06613,130733
17.07425,129839
17.08238,129638
17.09050,164569
17.09862,331405
17.10675,776199
17.11487,1329945
17.12300,1428858
17.13112,1019484
17.13923,634899
17.14737,428665
17.15548,314561
17.16360,262384
17.17173,222363
17.17985,195999
17.18798,184261
17.19610,176210
17.20422,159098
17.21235,155490
17.22047,150993
17.22860,143619
17.23672,141795
17.24483,139341
17.25297,133644
17.26108,131813
17.26922,134202
17.27733,124901
17.28545,127868
17.29358,123223
17.30170,128976
17.30982,128398
17.31795,121301
17.32607,124668
17.33420,121143
17.34232,132364
17.35043,139318
17.35857,150128
17.36668,161799
17.37482,163094
17.38293,153051
17.39105,149177
17.39918,139854
17.40730,131050
17.41542,132464
17.42355,133078
17.43167,137273
17.43980,127117
17.44792,122806
17.45603,120536
17.46417,116416
17.47228,123079
17.48042,119561
17.48853,117454
17.49665,120871
17.50478,116777
17.51290,119429
17.52103,120100
17.52915,118618
17.53727,116481
17.54540,114127
17.55352,114302
17.56163,115280
17.56977,111325
17.57788,113641
17.58602,108810
17.59413,116017
17.60225,113813
17.61038,106422
17.61850,104597
17.62663,108484
17.63475,108766
17.64287,106210
17.65100,106498
17.65912,107588
17.66725,105602
17.67537,108458
17.68348,120199
17.69162,117678
17.69973,126507
17.70785,119845
17.71598,125430
17.72410,124038
17.73223,119775
17.74035,112059
17.74847,112419
17.75660,114209
17.76472,111599
17.77285,103960
17.78097,107355
17.78908,110619
17.79722,108032
17.80533,107254
17.81345,109358
17.82158,105341
17.82970,106204
17.83783,115863
17.84595,117525
17.85407,118233
17.86220,119455
17.87032,119053
17.87845,113079
17.88657,110714
17.89468,102478
17.90282,106338
17.91093,100382
17.91907,101193
17.92718,101092
17.93530,100515
17.94343,94986
17.95155,95419
17.95967,94023
17.96780,101675
17.97592,96896
17.98405,101478
17.99217,98006
18.00028,96903
18.00842,99169
18.01653,98531
18.02467,98698
18.03278,100955
18.04090,97909
18.04903,100969
18.05715,101931
18.06528,115831
18.07340,122018
18.08152,134201
18.08965,133251
18.09777,148059
18.10588,152504
18.11402,149179
18.12213,151504
18.13027,145381
18.13838,145421
18.14650,139705
18.15463,136315
18.16275,139598
18.17088,134022
18.17900,127616
18.18712,128417
18.19525,124379
18.20337,124928
18.21148,123571
18.21962,121261
18.22773,123295
18.23587,124984
18.24398,127343
18.25210,122594
18.26023,124784
18.26835,128465
18.27648,121442
18.28460,114929
18.29272,117525
18.30085,108307
18.30897,111361
18.31710,107855
18.32522,109396
18.33333,106689
18.34147,114873
18.34958,104904
18.35770,105042
18.36583,106086
18.37395,101505
18.38208,103674
18.39020,100567
18.39832,97925
18.40645,99944
18.41457,100426
18.42270,103257
18.43082,101795
18.43893,102124
18.44707,102463
18.45518,106552
18.46330,103165
18.47143,95162
18.47955,99352
18.48768,103228
18.49580,100732
18.50392,101426
18.51205,101663
18.52017,99644
18.52830,98849
18.53642,96102
18.54453,97350
18.55267,94118
18.56078,96843
18.56892,92058
18.57703,98513
18.58515,100106
18.59328,117585
18.60140,137970
18.60952,156277
18.61765,181074
18.62577,188341
18.63390,204620
18.64202,209248
18.65013,210225
18.65827,214112
18.66638,215150
18.67452,217631
18.68263,227153
18.69075,217400
18.69888,218156
18.70700,218605
18.71513,218078
18.72325,216537
18.73137,202633
18.73950,212224
18.74762,213158
18.75573,211030
18.76387,217484
18.77198,211743
18.78012,208060
18.78823,209519
18.79635,209191
18.80448,212297
18.81260,204245
18.82073,204187
18.82885,207769
18.83697,206407
18.84510,211958
18.85322,210499
18.86135,202842
18.86947,203567
18.87758,203132
18.88572,195749
18.89383,195559
18.90195,203337
18.91008,195053
18.91820,193175
18.92633,189545
18.93445,194018
18.94257,196188
18.95070,189479
18.95882,190227
18.96695,190814
18.97507,188308
18.98318,192450
18.99132,190913
18.99943,185031
19.00755,194564
19.01568,185134
19.02380,173612
19.03193,177025
19.04005,168154
19.04817,174751
19.05630,175402
19.06442,174450
19.07255,174845
19.08067,181841
19.08878,190015
19.09692,197929
19.10503,213842
19.11317,214417
19.12128,207585
19.12940,203226
19.13753,193379
19.14565,185752
19.15377,179179
19.16190,179766
19.17002,166937
19.17815,173560
19.18627,168013
19.19438,164836
19.20252,161432
19.21063,159406
19.21877,159834
19.22688,158067
19.23500,153545
19.24313,152943
19.25125,156967
19.25937,159269
19.26750,178114
19.27562,186081
19.28375,208307
19.29187,249228
19.29998,269837
19.30812,283474
19.31623,261838
19.32437,245261
19.33248,220068
19.34060,201204
19.34873,195556
19.35685,184040
19.36498,180473
19.37310,173558
19.38122,166769
19.38935,167135
19.39747,162979
19.40558,167360
19.41372,160877
19.42183,163842
19.42997,172463
19.43808,163036
19.44620,178075
19.45433,182903
19.46245,195576
19.47058,248589
19.47870,364616
19.48682,648533
19.49495,1103737
19.50307,1441984
19.51120,1547858
19.51932,1381626
19.52743,1016776
19.53557,618371
19.54368,380540
19.55180,253192
19.55993,200430
19.56805,180354
19.57618,186746
19.58430,217654
19.59242,293372
19.60055,403600
19.60867,498338
19.61680,559663
19.62492,542083
19.63303,532925
19.64117,601632
19.64928,832114
19.65740,1223907
19.66553,1683076
19.67365,1963039
19.68178,1994534
19.68990,1641238
19.69802,1259095
19.70615,890608
19.71427,672893
19.72240,513060
19.73052,414673
19.73863,337807
19.74677,297967
19.75488,269432
19.76302,242918
19.77113,221293
19.77925,207922
19.78738,197134
19.79550,193239
19.80362,181790
19.81175,179990
19.81987,181244
19.82800,172615
19.83612,172238
19.84423,169711
19.85237,157142
19.86048,162298
19.86862,166275
19.87673,185457
19.88485,218360
19.89298,260327
19.90110,324431
19.90923,412308
19.91735,464433
19.92547,530923
19.93360,547505
19.94172,528657
19.94983,482040
19.95797,437917
19.96608,399029
19.97422,367058
19.98233,336914
19.99045,317253
19.99858,310716
20.00670,300815
20.01483,295348
20.02295,277211
20.03107,261532
20.03920,252306
20.04732,232530
20.05543,215333
20.06357,197996
20.07168,178711
20.07982,173487
20.08793,164813
20.09605,156854
20.10418,157892
20.11230,156697
20.12043,163626
20.12855,162832
20.13667,156889
20.14480,161354
20.15292,160409
20.16105,157413
20.16917,156223
20.17728,159373
20.18542,158421
20.19353,154414
20.20165,154763
20.20978,156430
20.21790,157908
20.22603,162612
20.23415,191423
20.24227,255602
20.25040,402702
20.25852,647148
20.26665,985083
20.27477,1369685
20.28288,1583305
20.29102,1586037
20.29913,1366051
20.30725,1071095
20.31538,763631
20.32350,554064
20.33163,437107
20.33975,381758
20.34787,396989
20.35600,481015
20.36412,604338
20.37225,644976
20.38037,553882
20.38848,438338
20.39662,334009
20.40473,300774
20.41287,322265
20.42098,369857
20.42910,444928
20.43723,542773
20.44535,629854
20.45347,630629
20.46160,584351
20.46972,496775
20.47785,401592
20.48597,321733
20.49408,270842
20.50222,239188
20.51033,212612
20.51847,199238
20.52658,194235
20.53470,183587
20.54283,170285
20.55095,169578
20.55908,166392
20.56720,163863
20.57532,159746
20.58345,162104
20.59157,162351
20.59968,168189
20.60782,175513
20.61593,171458
20.62407,166936
20.63218,157079
20.64030,153435
20.64843,148178
20.65655,147805
20.66468,136965
20.67280,145935
20.68092,140866
20.68905,134735
20.69717,136385
20.70528,140091
20.71342,127245
20.72153,135274
20.72967,133747
20.73778,125867
20.74590,129850
20.75403,127430
20.76215,126092
20.77028,128545
20.77840,126613
20.78652,119512
20.79465,121690
20.80277,123292
20.81090,119649
20.81902,121649
20.82713,123494
20.83527,126185
20.84338,120375
20.85150,117128
20.85963,118180
20.86775,120739
20.87588,118119
20.88400,120200
20.89212,121584
20.90025,114788
20.90837,120171
20.91650,113665
20.92462,104851
20.93273,107876
20.94087,109067
20.94898,114411
20.95712,113280
20.96523,106144
20.97335,108538
20.98148,115238
20.98960,115405
20.99772,121068
21.00585,149695
21.01397,177170
21.02210,201428
21.03022,210725
21.03833,201606
21.04647,186039
21.05458,169994
21.06272,158641
21.07083,139609
21.07895,135524
21.08708,129987
21.09520,122318
21.10332,117127
21.11145,118591
21.11957,117540
21.12770,120665
21.13582,118235
21.14393,111469
21.15207,122884
21.16018,115886
21.16832,116538
21.17643,121872
21.18455,121878
21.19268,112337
21.20080,118234
21.20893,109716
21.21705,114826
21.22517,107668
21.23330,113598
21.24142,111504
21.24953,112746
21.25767,110279
21.26578,118732
21.27392,113519
21.28203,122544
21.29015,130789
21.29828,151500
21.30640,169958
21.31453,189034
21.32265,186185
21.33077,173055
21.33890,162415
21.34702,151912
21.35515,143132
21.36327,132069
21.37138,129823
21.37952,129031
21.38763,127773
21.39575,134870
21.40388,135665
21.41200,129501
21.42013,133262
21.42825,121603
21.43637,132262
21.44450,139501
21.45262,132725
21.46075,136850
21.46887,135458
21.47698,137306
21.48512,128972
21.49323,142930
21.50135,133246
21.50948,126724
21.51760,127008
21.52573,124554
21.53385,125080
21.54197,124218
21.55010,129703
21.55822,119681
21.56635,129818
21.57447,126743
21.58258,128577
21.59072,135509
21.59883,157663
21.60697,198956
21.61508,268730
21.62320,371571
21.63133,461937
21.63945,512747
21.64757,520850
21.65570,474564
21.66382,374524
21.67195,318731
21.68007,253365
21.68818,223191
21.69632,190848
21.70443,191974
21.71257,202385
21.72068,203500
21.72880,201194
21.73693,196122
21.74505,181713
21.75317,171207
21.76130,172803
21.76942,157451
21.77755,162905
21.78567,157661
21.79378,173911
21.80192,189732
21.81003,246079
21.81817,293858
21.82628,365806
21.83440,393473
21.84253,401316
21.85065,365316
21.85878,318327
21.86690,250387
21.87502,208833
21.88315,184828
21.89127,172389
21.89938,167314
21.90752,164090
21.91563,167087
21.92377,173165
21.93188,174630
21.94000,166855
21.94813,161070
21.95625,145824
21.96438,140892
21.97250,132320
21.98062,127877
21.98875,124947
21.99687,124761
22.00500,116246
22.01312,119683
22.02123,121993
22.02937,118286
22.03748,119905
22.04560,114340
22.05373,113868
22.06185,110045
22.06998,114491
22.07810,112316
22.08622,114868
22.09435,118851
22.10247,109407
22.11060,118277
22.11872,118372
22.12683,122237
22.13497,124420
22.14308,124572
22.15120,130413
22.15933,129645
22.16745,130360
22.17558,124964
22.18370,119989
22.19182,123532
22.19995,139857
22.20807,141789
22.21620,156853
22.22432,164832
22.23243,150980
22.24057,146168
22.24868,144430
22.25682,139795
22.26493,140810
22.27305,140075
22.28118,145097
22.28930,144551
22.29742,143033
22.30555,137820
22.31367,136765
22.32180,125042
22.32992,119999
22.33803,119859
22.34617,117500
22.35428,112702
22.36242,109354
22.37053,109987
22.37865,106682
22.38678,105185
22.39490,103985
22.40303,104341
22.41115,99551
22.41927,101618
22.42740,100615
22.43552,103456
22.44363,107575
22.45177,114383
22.45988,113248
22.46802,115155
22.47613,117325
22.48425,118219
22.49238,108968
22.50050,105246
22.50863,99649
22.51675,93926
22.52487,93061
22.53300,93337
22.54112,87624
22.54923,91406
22.55737,87611
22.56548,88238
22.57362,96032
22.58173,95712
22.58985,92804
22.59798,85678
22.60610,87305
22.61423,86710
22.62235,89091
22.63047,89764
22.63860,88586
22.64672,86264
22.65485,90865
22.66297,86883
22.67108,87630
22.67922,84759
22.68733,84149
22.69545,89951
22.70358,86854
22.71170,84234
22.71983,87581
22.72795,85445
22.73607,84437
22.74420,82578
22.75232,81227
22.76045,79462
22.76857,81304
22.77668,78140
22.78482,82463
22.79293,79969
22.80105,82464
22.80918,76316
22.81730,83742
22.82543,87827
22.83355,86810
22.84167,89605
22.84980,96078
22.85792,93036
22.86605,92352
22.87417,92174
22.88228,97675
22.89042,103848
22.89853,96531
22.90667,112255
22.91478,119309
22.92290,139298
22.93103,157477
22.93915,169610
22.94727,157190
22.95540,149842
22.96352,145084
22.97165,140819
22.97977,132815
22.98788,120307
22.99602,118673
23.00413,114347
23.01227,104913
23.02038,105716
23.02850,93878
23.03663,91795
23.04475,90321
23.05288,89528
23.06100,93648
23.06912,92589
23.07725,94440
23.08537,97908
23.09348,87580
23.10162,92804
23.10973,83307
23.11787,81128
23.12598,88032
23.13410,88882
23.14223,83018
23.15035,87098
23.15848,92522
23.16660,94998
23.17472,89103
23.18285,88745
23.19097,94845
23.19910,92672
23.20722,90055
23.21533,90450
23.22347,84326
23.23158,86020
23.23970,85850
23.24783,82020
23.25595,82685
23.26408,80918
23.27220,81751
23.28032,79879
23.28845,85381
23.29657,83370
23.30470,82557
23.31282,84364
23.32093,88080
23.32907,76219
23.33718,81009
23.34530,85424
23.35343,90720
23.36155,88116
23.36968,88587
23.37780,89461
23.38592,85501
23.39405,93368
23.40217,91087
23.41030,94036
23.41842,89047
23.42653,98768
23.43467,93666
23.44278,90077
23.45092,92333
23.45903,96001
23.46715,91725
23.47528,89987
23.48340,97599
23.49152,88876
23.49965,84072
23.50777,91918
23.51590,91755
23.52402,87106
23.53213,90938
23.54027,94626
23.54838,93291
23.55652,88986
23.56463,91907
23.57275,95344
23.58088,97006
23.58900,94380
23.59712,96787
23.60525,100075
23.61337,91208
23.62150,96036
23.62962,98075
23.63773,94797
23.64587,97253
23.65398,98264
23.66212,101809
23.67023,112749
23.67835,105202
23.68648,108302
23.69460,101750
23.70273,105328
23.71085,97337
23.71897,97558
23.72710,122487
23.73522,205093
23.74333,468524
23.75147,1272792
23.75958,3070452
23.76772,5686398
23.77583,8290679
23.78395,9688162
23.79208,9564043
23.80020,8488859
23.80833,6783425
23.81645,5096461
23.82457,3541197
23.83270,2467723
23.84082,1794001
23.84895,1431823
23.85707,1299495
23.86518,1312784
23.87332,1495584
23.88143,1774132
23.88955,1982356
23.89768,2066841
23.90580,1905611
23.91393,1626850
23.92205,1302015
23.93017,1066892
23.93830,852449
23.94642,706843
23.95455,625376
23.96267,539763
23.97078,483565
23.97892,446560
23.98703,416051
23.99515,389261
24.00328,368429
24.01140,335164
24.01953,330099
24.02765,330387
24.03577,314477
24.04390,300188
24.05202,302975
24.06015,282962
24.06827,274936
24.07638,261525
24.08452,256583
24.09263,250607
24.10077,260355
24.10888,259564
24.11700,291963
24.12513,314497
24.13325,319819
24.14137,329973
24.14950,318976
24.15762,294190
24.16575,271568
24.17387,262172
24.18198,251556
24.19012,267830
24.19823,275810
24.20637,288516
24.21448,300392
24.22260,299228
24.23073,288656
24.23885,261872
24.24698,247814
24.25510,228921
24.26322,218747
24.27135,198884
24.27947,201254
24.28758,201888
24.29572,190714
24.30383,186977
24.31197,179981
24.32008,173621
24.32820,175197
24.33633,170110
24.34445,178655
24.35258,189625
24.36070,242232
24.36882,377740
24.37695,729780
24.38507,1349186
24.39318,2126273
24.40132,2842830
24.40943,3075780
24.41757,2779851
24.42568,2241821
24.43380,1682569
24.44193,1222038
24.45005,890658
24.45818,692956
24.46630,545486
24.47442,499788
24.48255,469919
24.49067,483328
24.49880,511392
24.50692,530137
24.51503,531304
24.52317,494846
24.53128,453474
24.53940,395620
24.54753,353615
24.55565,306877
24.56378,294499
24.57190,293354
24.58002,323081
24.58815,366987
24.59627,416147
24.60440,431562
24.61252,413687
24.62063,343396
24.62877,305284
24.63688,250592
24.64500,235358
24.65313,226569
24.66125,220147
24.66938,223656
24.67750,209015
24.68562,209007
24.69375,189374
24.70187,178976
24.71000,175096
24.71812,172650
24.72623,166872
24.73437,170717
24.74248,167744
24.75062,170657
24.75873,171796
24.76685,180944
24.77498,180590
24.78310,168532
24.79122,169994
24.79935,167900
24.80747,163300
24.81560,156409
24.82372,158155
24.83183,160111
24.83997,153336
24.84808,157183
24.85622,156259
24.86433,153078
24.87245,151594
24.88058,151082
24.88870,150367
24.89683,149177
24.90495,151532
24.91307,152233
24.92120,149141
24.92932,147731
24.93743,144844
24.94557,143861
24.95368,136197
24.96182,140351
24.96993,131871
24.97805,140761
24.98618,137453
24.99430,139012
25.00243,134608
25.01055,137373
25.01867,131468
25.02680,129437
25.03492,130690
25.04303,124378
25.05117,127199
25.05928,131048
25.06742,132213
25.07553,127680
25.08365,124955
25.09178,128027
25.09990,129921
25.10803,135095
25.11615,139163
25.12427,140246
25.13240,153344
25.14052,162182
25.14865,180266
25.15677,176257
25.16488,172011
25.17302,174865
25.18113,170489
25.18925,155976
25.19738,151229
25.20550,141746
25.21363,139933
25.22175,136281
25.22987,133290
25.23800,144771
25.24612,136499
25.25425,132048
25.26237,133265
25.27048,133669
25.27862,131965
25.28673,130497
25.29487,140926
25.30298,147018
25.31110,140467
25.31923,147738
25.32735,139227
25.33547,136670
25.34360,132918
25.35172,120522
25.35985,120225
25.36797,113338
25.37608,110903
25.38422,120257
25.39233,112838
25.40047,111027
25.40858,107195
25.41670,104807
25.42483,105557
25.43295,108545
25.44107,112583
25.44920,119514
25.45732,123787
25.46545,134793
25.47357,144644
25.48168,150679
25.48982,145081
25.49793,145134
25.50607,134028
25.51418,130149
25.52230,122695
25.53043,112372
25.53855,120709
25.54668,114221
25.55480,108788
25.56292,105888
25.57105,103565
25.57917,106984
25.58728,103247
25.59542,105163
25.60353,97586
25.61167,104644
25.61978,96669
25.62790,97439
25.63603,101761
25.64415,95325
25.65228,96575
25.66040,95558
25.66852,96904
25.67665,96276
25.68477,99062
25.69288,101624
25.70102,99770
25.70913,94279
25.71727,97859
25.72538,98646
25.73350,93032
25.74163,95993
25.74975,93133
25.75788,95267
25.76600,95029
25.77412,93609
25.78225,97813
25.79037,95968
25.79850,96800
25.80662,104231
25.81473,97609
25.82287,95590
25.83098,97812
25.83910,98705
25.84723,96838
25.85535,102225
25.86348,103307
25.87160,93797
25.87972,100927
25.88785,93554
25.89597,92291
25.90410,91554
25.91222,90762
25.92033,89394
25.92847,93602
25.93658,93034
25.94472,89362
25.95283,89959
25.96095,88842
25.96908,90147
25.97720,90129
25.98532,86483
25.99345,88527
26.00157,88376
26.00970,87330
26.01782,95422
26.02593,93863
26.03407,96154
26.04218,90959
26.05032,95539
26.05843,99994
26.06655,97246
26.07468,96653
26.08280,100751
26.09092,101117
26.09905,102586
26.10717,100259
26.11530,109146
26.12342,110051
26.13153,109756
26.13967,117163
26.14778,118071
26.15592,121172
26.16403,113780
26.17215,112712
26.18028,109561
26.18840,101941
26.19653,100664
26.20465,98011
26.21277,97305
26.22090,97030
26.22902,95185
26.23713,99694
26.24527,113031
26.25338,124413
26.26152,110249
26.26963,110149
26.27775,106596
26.28588,103144
26.29400,98065
26.30213,107435
26.31025,100686
26.31837,100483
26.32650,98733
26.33462,98050
26.34275,92179
26.35087,92751
26.35898,96905
26.36712,95485
26.37523,93002
26.38335,87733
26.39148,93194
26.39960,92012
26.40773,93640
26.41585,95464
26.42397,92818
26.43210,90258
26.44022,94507
26.44835,87176
26.45647,94298
26.46458,87533
26.47272,87574
26.48083,94076
26.48895,92338
26.49708,92179
26.50520,88381
26.51333,87037
26.52145,94157
26.52957,85269
26.53770,88613
26.54582,84079
26.55395,83335
26.56207,86531
26.57018,90222
26.57832,86673
26.58643,86277
26.59457,81319
26.60268,87156
26.61080,84149
26.61893,85182
26.62705,91410
26.63517,88612
26.64330,87731
26.65142,92106
26.65955,93260
26.66767,84510
26.67578,96317
26.68392,100274
26.69203,93445
26.70017,87903
26.70828,94963
26.71640,97252
26.72453,99889
26.73265,103025
26.74078,101422
26.74890,97132
26.75702,96889
26.76515,90491
26.77327,95790
26.78138,96433
26.78952,98420
26.79763,103947
26.80577,98697
26.81388,96337
26.82200,101862
26.83013,106586
26.83825,107404
26.84638,115661
26.85450,122868
26.86262,125055
26.87075,121406
26.87887,123384
26.88698,121639
26.89512,124121
26.90323,131697
26.91137,130509
26.91948,153506
26.92760,210822
26.93573,346464
26.94385,764673
26.95198,2039448
26.96010,5835123
26.96822,1.442691E+07
26.97635,2.576371E+07
26.98447,3.656696E+07
26.99260,4.218514E+07
27.00072,4.380562E+07
27.00883,4.06552E+07
27.01697,3.543133E+07
27.02508,3.084502E+07
27.03320,2.626775E+07
27.04133,2.142159E+07
27.04945,1.730473E+07
27.05758,1.346609E+07
27.06570,1.016506E+07
27.07382,7817057
27.08195,5723378
27.09007,4183539
27.09820,3394500
27.10632,2759228
27.11443,2373296
27.12257,2073146
27.13068,1835574
27.13880,1635795
27.14693,1457357
27.15505,1351983
27.16318,1279682
27.17130,1184899
27.17942,1116530
27.18755,1088276
27.19567,1074611
27.20380,1217926
27.21192,1576662
27.22003,2244714
27.22817,3170942
27.23628,4409928
27.24442,5416609
27.25253,6063887
27.26065,6451779
27.26878,5888510
27.27690,5069487
27.28502,4103988
27.29315,3382682
27.30127,2745013
27.30940,2241084
27.31752,1837117
27.32563,1541330
27.33377,1341312
27.34188,1156031
27.35002,1011954
27.35813,919287
27.36625,858364
27.37438,800694
27.38250,727750
27.39063,711819
27.39875,673099
27.40687,627171
27.41500,596765
27.42312,580733
27.43123,569312
27.43937,542741
27.44748,515165
27.45562,504659
27.46373,493227
27.47185,473135
27.47998,465476
27.48810,446239
27.49623,448912
27.50435,462906
27.51247,445221
27.52060,472908
27.52872,472168
27.53683,457073
27.54497,428167
27.55308,410351
27.56122,397161
27.56933,392076
27.57745,395967
27.58558,381024
27.59370,384875
27.60183,392020
27.60995,380859
27.61807,386351
27.62620,360473
27.63432,348410
27.64245,338640
27.65057,334419
27.65868,319465
27.66682,319672
27.67493,308255
27.68305,310324
27.69118,294140
27.69930,301333
27.70743,290496
27.71555,294268
27.72367,287749
27.73180,281921
27.73992,280824
27.74805,283516
27.75617,278557
27.76428,278975
27.77242,275099
27.78053,270305
27.78867,267927
27.79678,261981
27.80490,262598
27.81303,255781
27.82115,248282
27.82927,251470
27.83740,254964
27.84552,254457
27.85365,244969
27.86177,243787
27.86988,229871
27.87802,239256
27.88613,228771
27.89427,223791
27.90238,222471
27.91050,222600
27.91863,214981
27.92675,217141
27.93487,216903
27.94300,205863
27.95112,205503
27.95925,202778
27.96737,210539
27.97548,213560
27.98362,209135
27.99173,206530
27.99987,201173
28.00798,213110
28.01610,198765
28.02423,197716
28.03235,196777
28.04048,193280
28.04860,192497
28.05672,195893
28.06485,189431
28.07297,188203
28.08108,190976
28.08922,182719
28.09733,183476
28.10547,181137
28.11358,182855
28.12170,177263
28.12983,178441
28.13795,177888
28.14608,172203
28.15420,166502
28.16232,177161
28.17045,188826
28.17857,207095
28.18668,228543
28.19482,256736
28.20293,269761
28.21107,292678
28.21918,273699
28.22730,262965
28.23543,241219
28.24355,236385
28.25168,278808
28.25980,374404
28.26792,629392
28.27605,1192163
28.28417,2291984
28.29230,4086362
28.30042,6986942
28.30853,1.103682E+07
28.31667,1.480233E+07
28.32478,1.764258E+07
28.33290,1.925886E+07
28.34103,1.950293E+07
28.34915,1.892879E+07
28.35728,1.803069E+07
28.36540,1.691713E+07
28.37352,1.51797E+07
28.38165,1.324279E+07
28.38977,1.127988E+07
28.39790,9880393
28.40602,8381532
28.41413,7055623
28.42227,6089567
28.43038,5129647
28.43852,4219843
28.44663,3551950
28.45475,3201985
28.46288,2918072
28.47100,2798185
28.47912,2839335
28.48725,2837049
28.49537,2916261
28.50350,2953050
28.51162,2993311
28.51973,3002332
28.52787,2891261
28.53598,2704160
28.54412,2609705
28.55223,2500256
28.56035,2327580
28.56848,2146192
28.57660,1923830
28.58472,1735915
28.59285,1635259
28.60097,1477172
28.60910,1367996
28.61722,1239019
28.62533,1157962
28.63347,1044073
28.64158,980577
28.64972,935328
28.65783,873362
28.66595,836439
28.67408,766256
28.68220,743219
28.69033,686593
28.69845,648027
28.70657,619516
28.71470,599091
28.72282,595106
28.73093,582317
28.73907,600885
28.74718,644410
28.75532,758759
28.76343,886667
28.77155,1010164
28.77968,1031694
28.78780,920011
28.79593,816617
28.80405,714626
28.81217,643151
28.82030,592540
28.82842,559283
28.83655,516834
28.84467,465918
28.85278,444358
28.86092,400337
28.86903,384154
28.87715,385980
28.88528,382911
28.89340,362717
28.90153,372219
28.90965,359030
28.91777,352784
28.92590,343043
28.93402,341571
28.94215,341136
28.95027,331301
28.95838,330169
28.96652,325338
28.97463,324626
28.98275,321158
28.99088,307515
28.99900,310350
29.00713,301021
29.01525,304355
29.02337,289978
29.03150,291215
29.03962,291312
29.04775,291409
29.05587,288164
29.06398,281413
29.07212,290164
29.08023,273360
29.08837,275299
29.09648,283166
29.10460,271636
29.11273,266175
29.12085,262879
29.12897,268088
29.13710,258362
29.14522,265815
29.15335,256377
29.16147,271586
29.16958,267048
29.17772,263724
29.18583,259161
29.19397,257239
29.20208,252042
29.21020,256791
29.21833,248898
29.22645,264067
29.23457,254780
29.24270,253825
29.25082,249208
29.25895,258969
29.26707,269136
29.27518,263599
29.28332,268507
29.29143,257935
29.29957,249334
29.30768,253382
29.31580,251593
29.32393,242342
29.33205,240546
29.34018,240326
29.34830,239294
29.35642,237665
29.36455,231845
29.37267,241234
29.38078,228586
29.38892,229354
29.39703,222011
29.40517,231406
29.41328,231098
29.42140,233715
29.42953,236549
29.43765,240179
29.44578,234289
29.45390,228539
29.46202,227886
29.47015,227691
29.47827,233999
29.48640,237192
29.49452,252240
29.50263,232891
29.51077,233551
29.51888,226852
29.52700,214661
29.53513,207864
29.54325,202317
29.55138,195941
29.55950,200381
29.56762,184634
29.57575,180724
29.58387,182740
29.59200,183663
29.60012,184706
29.60823,185235
29.61637,177004
29.62448,179756
29.63262,167538
29.64073,174423
29.64885,172201
29.65698,172515
29.66510,170913
29.67322,167337
29.68135,163452
29.68947,162614
29.69760,157288
29.70572,162836
29.71383,162519
29.72197,162695
29.73008,162402
29.73822,163027
29.74633,159094
29.75445,160490
29.76258,161733
29.77070,162280
29.77882,155508
29.78695,155702
29.79507,150770
29.80320,154779
29.81132,149513
29.81943,149480
29.82757,156842
29.83568,155031
29.84382,153495
29.85193,148875
29.86005,153485
29.86818,159930
29.87630,167421
29.88443,160907
29.89255,184261
29.90067,206465
29.90880,271281
29.91692,359938
29.92503,494103
29.93317,721784
29.94128,1065629
29.94942,1537136
29.95753,2110853
29.96565,2859499
29.97378,3702247
29.98190,4416306
29.99003,5120484
29.99815,5846729
30.00627,6484494
30.01440,6784315
30.02252,6798713
30.03063,6708077
30.03877,6356163
30.04688,6111335
30.05502,5862954
30.06313,5456908
30.07125,5130151
30.07938,4745943
30.08750,4337323
30.09563,3970158
30.10375,3545578
30.11187,3267494
30.12000,2945690
30.12812,2674247
30.13625,2483616
30.14437,2267585
30.15248,2031430
30.16062,1819081
30.16873,1658170
30.17685,1519418
30.18498,1392662
30.19310,1263913
30.20123,1171192
30.20935,1082972
30.21747,988314
30.22560,911778
30.23372,848570
30.24185,778606
30.24997,706144
30.25808,678776
30.26622,636473
30.27433,599755
30.28247,563593
30.29058,537524
30.29870,492958
30.30683,477673
30.31495,452844
30.32307,433537
30.33120,419174
30.33932,402592
30.34745,395531
30.35557,367952
30.36368,362013
30.37182,353788
30.37993,334939
30.38807,335477
30.39618,331600
30.40430,325945
30.41243,318189
30.42055,303293
30.42867,303659
30.43680,285131
30.44492,291596
30.45305,284420
30.46117,274215
30.46928,269200
30.47742,268993
30.48553,262488
30.49367,257104
30.50178,259583
30.50990,244777
30.51803,251945
30.52615,256526
30.53428,242051
30.54240,234664
30.55052,233363
30.55865,219167
30.56677,226824
30.57488,217403
30.58302,223220
30.59113,226307
30.59927,220069
30.60738,222081
30.61550,223657
30.62363,209152
30.63175,206199
30.63988,209758
30.64800,203457
30.65612,203238
30.66425,205716
30.67237,192661
30.68050,191232
30.68862,192440
30.69673,192009
30.70487,192740
30.71298,185533
30.72110,183269
30.72923,187438
30.73735,183195
30.74548,186072
30.75360,180020
30.76172,181234
30.76985,193486
30.77797,194405
30.78610,207468
30.79422,216952
30.80233,221017
30.81047,228373
30.81858,228950
30.82670,219606
30.83483,212682
30.84295,194025
30.85108,187674
30.85920,184221
30.86732,178255
30.87545,178739
30.88357,170733
30.89170,170840
30.89982,170699
30.90793,171348
30.91607,157646
30.92418,166856
30.93232,168071
30.94043,167042
30.94855,171381
30.95668,168758
30.96480,165831
30.97292,169746
30.98105,166547
30.98917,169985
30.99730,169768
31.00542,180065
31.01353,177978
31.02167,166915
31.02978,172581
31.03792,166075
31.04603,162761
31.05415,172341
31.06228,169483
31.07040,173135
31.07852,183820
31.08665,199424
31.09477,204271
31.10290,206654
31.11102,210946
31.11913,200896
31.12727,199812
31.13538,187817
31.14352,182453
31.15163,189207
31.15975,185037
31.16788,191120
31.17600,197781
31.18413,202650
31.19225,217112
31.20037,228604
31.20850,251836
31.21662,280478
31.22473,286202
31.23287,281749
31.24098,265586
31.24912,247597
31.25723,223726
31.26535,204127
31.27348,188671
31.28160,181388
31.28973,169879
31.29785,159619
31.30597,160216
31.31410,158707
31.32222,150732
31.33035,157375
31.33847,152421
31.34658,150332
31.35472,154714
31.36283,154678
31.37095,158427
31.37908,162703
31.38720,161890
31.39533,162870
31.40345,161901
31.41157,175060
31.41970,182189
31.42782,166975
31.43595,166248
31.44407,156734
31.45218,150884
31.46032,140078
31.46843,145601
31.47655,132263
31.48468,133686
31.49280,131395
31.50093,135254
31.50905,132023
31.51717,137581
31.52530,128974
31.53342,127885
31.54155,132192
31.54967,122287
31.55778,129072
31.56592,123508
31.57403,125808
31.58217,125671
31.59028,128578
31.59840,123975
31.60653,130340
31.61465,127563
31.62277,126426
31.63090,130145
31.63902,124043
31.64715,127889
31.65527,134219
31.66338,120147
31.67152,127985
31.67963,127912
31.68777,126889
31.69588,122404
31.70400,116755
31.71213,119612
31.72025,117789
31.72838,121977
31.73650,113852
31.74462,120567
31.75275,109759
31.76087,108792
31.76898,118357
31.77712,115812
31.78523,120564
31.79337,124448
31.80148,125462
31.80960,118169
31.81773,124609
31.82585,123644
31.83398,119438
31.84210,120965
31.85022,131478
31.85835,142598
31.86647,169252
31.87458,220314
31.88272,289704
31.89083,411415
31.89897,574420
31.90708,804998
31.91520,1051670
31.92333,1390966
31.93145,1732648
31.93958,2180903
31.94770,2458924
31.95582,2685351
31.96395,2977520
31.97207,3108521
31.98020,3258484
31.98832,3162504
31.99643,3073142
32.00457,2917962
32.01268,2668652
32.02080,2505913
32.02893,2294655
32.03705,2129574
32.04518,1920616
32.05330,1728100
32.06142,1532853
32.06955,1413576
32.07767,1294523
32.08580,1187932
32.09392,1071236
32.10203,939488
32.11017,825970
32.11828,744081
32.12642,673735
32.13453,605681
32.14265,573969
32.15078,526303
32.15890,491899
32.16702,462448
32.17515,422299
32.18327,404387
32.19140,377491
32.19952,358292
32.20763,351787
32.21577,330637
32.22388,332395
32.23202,312991
32.24013,293379
32.24825,290060
32.25638,277057
32.26450,279307
32.27262,259344
32.28075,263416
32.28887,257958
32.29700,254919
32.30512,233839
32.31323,242114
32.32137,230512
32.32948,232742
32.33762,232132
32.34573,222181
32.35385,230828
32.36198,227532
32.37010,217386
32.37823,214152
32.38635,214036
32.39447,206329
32.40260,202897
32.41072,194822
32.41883,189546
32.42697,192354
32.43508,184293
32.44322,190997
32.45133,183723
32.45945,182566
32.46758,186760
32.47570,180304
32.48383,178775
32.49195,166273
32.50007,166196
32.50820,166556
32.51632,166598
32.52443,171762
32.53257,168729
32.54068,162753
32.54882,165927
32.55693,166347
32.56505,163157
32.57318,154388
32.58130,157411
32.58943,156204
32.59755,149931
32.60567,156652
32.61380,161435
32.62192,168982
32.63005,188052
32.63817,222416
32.64628,293372
32.65442,364482
32.66253,439086
32.67065,460657
32.67878,436785
32.68690,385155
32.69503,315898
32.70315,269251
32.71127,229702
32.71940,201015
32.72752,196105
32.73565,173747
32.74377,165159
32.75188,159394
32.76002,155835
32.76813,148592
32.77627,147900
32.78438,146828
32.79250,151052
32.80063,143621
32.80875,142895
32.81687,138083
32.82500,138978
32.83312,143910
32.84125,142843
32.84937,135595
32.85748,138216
32.86562,132788
32.87373,135187
32.88187,137504
32.88998,131474
32.89810,141883
32.90623,132934
32.91435,138682
32.92247,133229
32.93060,131882
32.93872,126613
32.94685,129657
32.95497,129102
32.96308,128034
32.97122,127496
32.97933,129167
32.98747,129600
32.99558,129541
33.00370,123800
33.01183,128250
33.01995,127713
33.02808,128202
33.03620,126522
33.04432,124343
33.05245,124406
33.06057,125389
33.06868,127977
33.07682,123585
33.08493,123039
33.09307,132881
33.10118,132846
33.10930,139442
33.11743,148502
33.12555,150662
33.13368,140701
33.14180,144456
33.14992,134120
33.15805,129549
33.16617,137360
33.17430,129643
33.18242,134217
33.19053,145758
33.19867,152382
33.20678,153906
33.21490,149531
33.22303,139308
33.23115,137095
33.23928,126838
33.24740,128802
33.25552,126010
33.26365,129291
33.27177,123812
33.27990,120863
33.28802,118632
33.29613,118803
33.30427,115951
33.31238,116140
33.32050,119847
33.32863,117986
33.33675,117668
33.34488,112698
33.35300,114265
33.36112,118866
33.36925,115776
33.37737,118474
33.38550,110383
33.39362,114260
33.40173,114029
33.40987,111147
33.41798,110914
33.42612,111620
33.43423,116333
33.44235,111113
33.45048,110749
33.45860,118520
33.46672,103898
33.47485,112444
33.48297,111336
33.49110,115308
33.49922,116052
33.50733,117605
33.51547,105647
33.52358,109390
33.53172,115748
33.53983,121658
33.54795,113883
33.55608,108747
33.56420,113870
33.57232,110087
33.58045,118383
33.58857,109639
33.59670,112874
33.60482,108028
33.61293,106049
33.62107,103814
33.62918,104227
33.63732,108650
33.64543,107571
33.65355,105017
33.66168,103293
33.66980,109184
33.67793,106121
33.68605,108060
33.69417,103569
33.70230,97608
33.71042,103306
33.71853,109425
33.72667,105976
33.73478,101682
33.74292,105172
33.75103,100837
33.75915,99399
33.76728,101104
33.77540,104528
33.78353,107725
33.79165,111297
33.79977,106338
33.80790,106457
33.81602,111732
33.82415,117996
33.83227,113916
33.84038,114969
33.84852,117970
33.85663,111358
33.86475,122638
33.87288,113833
33.88100,114644
33.88913,103113
33.89725,108294
33.90537,113792
33.91350,108270
33.92162,121876
33.92975,118271
33.93787,124343
33.94598,124794
33.95412,108545
33.96223,113158
33.97037,106108
33.97848,104887
33.98660,107957
33.99473,107150
34.00285,102972
34.01097,108129
34.01910,107598
34.02722,99500
34.03535,110674
34.04347,108107
34.05158,107666
34.05972,106174
34.06783,111250
34.07597,100137
34.08408,107852
34.09220,102057
34.10033,102221
34.10845,108204
34.11657,99253
34.12470,100176
34.13282,99863
34.14095,97262
34.14907,100197
34.15718,97197
34.16532,98723
34.17343,98676
34.18157,96278
34.18968,100483
34.19780,90891
34.20593,93327
34.21405,94960
34.22218,96931
34.23030,95422
34.23842,91786
34.24655,94244
34.25467,98700
34.26278,92420
34.27092,96974
34.27903,98840
34.28717,100624
34.29528,99263
34.30340,95111
34.31153,94516
34.31965,96770
34.32778,98750
34.33590,97816
34.34402,103616
34.35215,95852
34.36027,100166
34.36838,98019
34.37652,96409
34.38463,99001
34.39277,99469
34.40088,101379
34.40900,94634
34.41713,95014
34.42525,95973
34.43338,95388
34.44150,89241
34.44962,97582
34.45775,97588
34.46587,105550
34.47400,112842
34.48212,143346
34.49023,216248
34.49837,337854
34.50648,548359
34.51460,853576
34.52273,1217987
34.53085,1565217
34.53898,1917901
34.54710,2159342
34.55522,2255117
34.56335,2247981
34.57147,2102922
34.57960,1892986
34.58772,1639937
34.59583,1418327
34.60397,1206444
34.61208,1002333
34.62022,876561
34.62833,759845
34.63645,640811
34.64458,594858
34.65270,528635
34.66082,485751
34.66895,451419
34.67707,428025
34.68520,390134
34.69332,381591
34.70143,356436
34.70957,347765
34.71768,337563
34.72582,330329
34.73393,329120
34.74205,295033
34.75018,291606
34.75830,272518
34.76642,265052
34.77455,257304
34.78267,252940
34.79080,234113
34.79892,240247
34.80703,224550
34.81517,221352
34.82328,227496
34.83142,224043
34.83953,212883
34.84765,207713
34.85578,205176
34.86390,203681
34.87203,198669
34.88015,194345
34.88827,186766
34.89640,190547
34.90452,189742
34.91263,188808
34.92077,186047
34.92888,185290
34.93702,191045
34.94513,186839
34.95325,189628
34.96138,186493
34.96950,190675
34.97763,178171
34.98575,173038
34.99387,173141
35.00200,171282
35.01012,170916
35.01825,167916
35.02637,162087
35.03448,164945
35.04262,156175
35.05073,156511
35.05885,158476
35.06698,156735
35.07510,149566
35.08323,157356
35.09135,145930
35.09947,150679
35.10760,157317
35.11572,155866
35.12385,163523
35.13197,172394
35.14008,182272
35.14822,197179
35.15633,197283
35.16445,203682
35.17258,197116
35.18070,180848
35.18883,163051
35.19695,156817
35.20507,144904
35.21320,144314
35.22132,151717
35.22945,149751
35.23757,146668
35.24568,144442
35.25382,141857
35.26193,137353
35.27007,147013
35.27818,147054
35.28630,146012
35.29443,137916
35.30255,139917
35.31067,138255
35.31880,138716
35.32692,131963
35.33505,132613
35.34317,136487
35.35128,131812
35.35942,133748
35.36753,131189
35.37567,130684
35.38378,129004
35.39190,129641
35.40003,126553
35.40815,129843
35.41627,126278
35.42440,126000
35.43252,132213
35.44065,126734
35.44877,134346
35.45688,129485
35.46502,132818
35.47313,141045
35.48127,130942
35.48938,137048
35.49750,129333
35.50563,134481
35.51375,128872
35.52188,130140
35.53000,127322
35.53812,126119
35.54625,133650
35.55437,125544
35.56248,137631
35.57062,139921
35.57873,134054
35.58687,132777
35.59498,129599
35.60310,129870
35.61123,128493
35.61935,130003
35.62748,130794
35.63560,135744
35.64372,141304
35.65185,153071
35.65997,167937
35.66810,178430
35.67622,179178
35.68433,178832
35.69247,173122
35.70058,152741
35.70870,150197
35.71683,140889
35.72495,135336
35.73308,134380
35.74120,128024
35.74932,128044
35.75745,130032
35.76557,125879
35.77370,124995
35.78182,125465
35.78993,125844
35.79807,124235
35.80618,125089
35.81430,133301
35.82243,133594
35.83055,138193
35.83868,132215
35.84680,140711
35.85492,131864
35.86305,126621
35.87117,126660
35.87930,124110
35.88742,121718
35.89553,123424
35.90367,117820
35.91178,119841
35.91992,123960
35.92803,120301
35.93615,120797
35.94428,121145
35.95240,120217
35.96052,117955
35.96865,117434
35.97677,116398
35.98490,119462
35.99302,122694
36.00113,126705
36.00927,129309
36.01738,129888
36.02552,127317
36.03363,120958
36.04175,123552
36.04988,115451
36.05800,118145
36.06613,122344
36.07425,108083
36.08237,119626
36.09050,115296
36.09862,119845
36.10673,120553
36.11487,118815
36.12298,121077
36.13112,121993
36.13923,119242
36.14735,123858
36.15548,123036
36.16360,126870
36.17173,121550
36.17985,117169
36.18797,124686
36.19610,124240
36.20422,120052
36.21233,121470
36.22047,114424
36.22858,118661
36.23672,116657
36.24483,113413
36.25295,119020
36.26108,116253
36.26920,126159
36.27733,148604
36.28545,184402
36.29357,245534
36.30170,281169
36.30982,330540
36.31795,346342
36.32607,318951
36.33418,297431
36.34232,248209
36.35043,217659
36.35855,197076
36.36668,183950
36.37480,183992
36.38293,177618
36.39105,174836
36.39917,169518
36.40730,161027
36.41542,149400
36.42355,145324
36.43167,141296
36.43978,133940
36.44792,130243
36.45603,126557
36.46417,122009
36.47228,124160
36.48040,124907
36.48853,117464
36.49665,122172
36.50477,115584
36.51290,117881
36.52102,117548
36.52915,114110
36.53727,119247
36.54538,110693
36.55352,119853
36.56163,112564
36.56977,116689
36.57788,113878
36.58600,115638
36.59413,113283
36.60225,112173
36.61037,112395
36.61850,114725
36.62662,116410
36.63475,123451
36.64287,127733
36.65098,135505
36.65912,129154
36.66723,126328
36.67537,127290
36.68348,126050
36.69160,118177
36.69973,114699
36.70785,119150
36.71598,116891
36.72410,114670
36.73222,117555
36.74035,111542
36.74847,111535
36.75658,111521
36.76472,110903
36.77283,114838
36.78097,112585
36.78908,109498
36.79720,106228
36.80533,108013
36.81345,110021
36.82158,113375
36.82970,109969
36.83782,109805
36.84595,113043
36.85407,108353
36.86218,109486
36.87032,107936
36.87843,111630
36.88657,100373
36.89468,107745
36.90280,108005
36.91093,110063
36.91905,105933
36.92718,106313
36.93530,101620
36.94342,107597
36.95155,101994
36.95967,107340
36.96780,110418
36.97592,106937
36.98403,102220
36.99217,106925
37.00028,105776
37.00840,106759
37.01653,105888
37.02465,107695
37.03278,103794
37.04090,102955
37.04902,108166
37.05715,108820
37.06527,103415
37.07340,109376
37.08152,102650
37.08963,107211
37.09777,109072
37.10588,106659
37.11402,104343
37.12213,108111
37.13025,109102
37.13838,100192
37.14650,106556
37.15462,107293
37.16275,112896
37.17087,116229
37.17900,120423
37.18712,119385
37.19523,113987
37.20337,116981
37.21148,113692
37.21962,111291
37.22773,109475
37.23585,117510
37.24398,107117
37.25210,110975
37.26022,104847
37.26835,110725
37.27647,118550
37.28460,126425
37.29272,169762
37.30083,239575
37.30897,402333
37.31708,636430
37.32522,893463
37.33333,1126633
37.34145,1310927
37.34958,1363422
37.35770,1321438
37.36583,1204084
37.37395,1065117
37.38207,897568
37.39020,764246
37.39832,661837
37.40643,585858
37.41457,516628
37.42268,467999
37.43082,437622
37.43893,408239
37.44705,377950
37.45518,366267
37.46330,338138
37.47143,331234
37.47955,307164
37.48767,303872
