C:\MassHunter\GCMS\1\data\JTB-E02\BACandBLUE\JTB-E18-010-12.D Fri May 17 14:31:10 2019
Start of data points
2.09538	44908
2.10352	45500
2.11163	45640
2.11975	46390
2.12788	41753
2.13600	45091
2.14412	44298
2.15225	45309
2.16037	50036
2.16850	44556
2.17662	45114
2.18473	40528
2.19287	43222
2.20098	41182
2.20912	41881
2.21723	38856
2.22535	43229
2.23348	38119
2.24160	39445
2.24973	37068
2.25785	41922
2.26597	214181
2.27410	1413293
2.28222	1674284
2.29033	644212
2.29847	324433
2.30658	255920
2.31472	213217
2.32283	179049
2.33095	182334
2.33908	172903
2.34720	146139
2.35533	130102
2.36345	125845
2.37157	116146
2.37970	105929
2.38782	108453
2.39593	101641
2.40407	103484
2.41218	94015
2.42032	98675
2.42843	92139
2.43655	98226
2.44468	94693
2.45280	92343
2.46093	87389
2.46905	84194
2.47717	81968
2.48530	99640
2.49342	131778
2.50155	117731
2.50967	97986
2.51778	88187
2.52592	85211
2.53403	84657
2.54215	82050
2.55028	96979
2.55840	121141
2.56653	121621
2.57465	98394
2.58277	87524
2.59090	85566
2.59902	91749
2.60715	134949
2.61527	178908
2.62338	137528
2.63152	114558
2.63963	104149
2.64775	93065
2.65588	88825
2.66400	84197
2.67213	79583
2.68025	78727
2.68837	76622
2.69650	75014
2.70462	76406
2.71275	74664
2.72087	71761
2.72898	69765
2.73712	67040
2.74523	66975
2.75337	67409
2.76148	70132
2.76960	73381
2.77773	161628
2.78585	393303
2.79397	388201
2.80210	215221
2.81022	159146
2.81835	149941
2.82647	137823
2.83458	120431
2.84272	109126
2.85083	99842
2.85897	93902
2.86708	88174
2.87520	90047
2.88333	80649
2.89145	81192
2.89958	78368
2.90770	76880
2.91582	74024
2.92395	75061
2.93207	69807
2.94018	70019
2.94832	70572
2.95643	70714
2.96457	69117
2.97268	68823
2.98080	72017
2.98893	70187
2.99705	65681
3.00518	74788
3.01330	71949
3.02142	66554
3.02955	63401
3.03767	63601
3.04578	63647
3.05392	65016
3.06203	70373
3.07017	71068
3.07828	90739
3.08640	240653
3.09453	649363
3.10265	1828681
3.11078	3355573
3.11890	2831272
3.12702	1674900
3.13515	1171582
3.14327	908170
3.15140	746546
3.15952	607762
3.16763	509517
3.17577	491835
3.18388	590422
3.19200	1010700
3.20013	1150474
3.20825	837670
3.21638	612892
3.22450	511539
3.23262	446752
3.24075	387806
3.24887	343190
3.25700	311713
3.26512	286302
3.27323	258808
3.28137	274379
3.28948	494552
3.29762	1422236
3.30573	3167119
3.31385	4337426
3.32198	3808131
3.33010	2614112
3.33822	1816314
3.34635	1409300
3.35447	1158589
3.36260	987499
3.37072	878854
3.37883	765617
3.38697	702231
3.39508	642898
3.40322	586562
3.41133	551550
3.41945	523059
3.42758	501827
3.43570	488339
3.44382	481399
3.45195	445009
3.46007	436253
3.46820	419734
3.47632	424896
3.48443	406568
3.49257	398474
3.50068	366669
3.50882	365411
3.51693	348370
3.52505	349040
3.53318	356100
3.54130	348825
3.54943	352172
3.55755	333626
3.56567	322554
3.57380	316046
3.58192	310355
3.59003	310076
3.59817	301414
3.60628	310030
3.61442	314978
3.62253	313406
3.63065	298971
3.63878	303447
3.64690	305830
3.65503	323729
3.66315	845941
3.67127	3327351
3.67940	7190557
3.68752	7780275
3.69563	5026345
3.70377	3054105
3.71188	2255191
3.72002	1842528
3.72813	1570460
3.73625	1390177
3.74438	1233284
3.75250	1139675
3.76063	1052354
3.76875	960047
3.77687	905589
3.78500	859166
3.79312	811091
3.80125	918920
3.80937	1380080
3.81748	1894236
3.82562	1804232
3.83373	1360699
3.84185	1075988
3.84998	916457
3.85810	834035
3.86623	773914
3.87435	732129
3.88247	681872
3.89060	635883
3.89872	605805
3.90685	589172
3.91497	602308
3.92308	689855
3.93122	734011
3.93933	710151
3.94747	715870
3.95558	1024384
3.96370	1583826
3.97183	1797395
3.97995	1438591
3.98807	1070666
3.99620	1534081
4.00432	3787695
4.01245	7462083
4.02057	8466415
4.02868	6131661
4.03682	3453653
4.04493	2134652
4.05307	1545997
4.06118	1229978
4.06930	1016696
4.07743	900454
4.08555	789574
4.09367	714540
4.10180	658023
4.10992	606394
4.11805	577541
4.12617	545636
4.13428	530020
4.14242	545647
4.15053	540029
4.15867	524555
4.16678	490246
4.17490	516171
4.18303	461522
4.19115	444648
4.19928	464981
4.20740	819851
4.21552	2815302
4.22365	7942498
4.23177	1.34714E+07
4.23988	1.493707E+07
4.24802	1.144476E+07
4.25613	6785211
4.26427	4372170
4.27238	3135191
4.28050	2425900
4.28863	1915859
4.29675	1586597
4.30488	1352196
4.31300	1193985
4.32112	1071127
4.32925	969021
4.33737	895702
4.34550	833078
4.35362	786333
4.36173	775673
4.36987	751283
4.37798	722766
4.38610	671257
4.39423	617968
4.40235	595303
4.41048	567131
4.41860	543233
4.42672	517005
4.43485	508701
4.44297	483392
4.45110	473417
4.45922	470420
4.46733	443459
4.47547	432019
4.48358	419650
4.49170	418409
4.49983	408406
4.50795	399807
4.51608	380817
4.52420	376573
4.53232	368719
4.54045	370019
4.54857	366357
4.55670	358744
4.56482	341858
4.57293	340337
4.58107	331157
4.58918	322606
4.59732	317796
4.60543	314940
4.61355	318504
4.62168	329806
4.62980	402248
4.63792	500010
4.64605	557132
4.65417	519346
4.66230	426807
4.67042	371802
4.67853	353012
4.68667	334616
4.69478	323654
4.70292	304571
4.71103	299711
4.71915	288557
4.72728	290660
4.73540	278667
4.74352	276792
4.75165	272398
4.75977	266290
4.76790	264893
4.77602	263196
4.78413	278522
4.79227	384758
4.80038	653222
4.80852	869991
4.81663	843761
4.82475	679328
4.83288	539563
4.84100	493405
4.84913	466132
4.85725	435454
4.86537	393640
4.87350	357671
4.88162	329284
4.88973	322090
4.89787	303201
4.90598	294527
4.91412	286894
4.92223	286458
4.93035	303237
4.93848	433409
4.94660	870292
4.95473	1650153
4.96285	2468496
4.97097	2733865
4.97910	2383964
4.98722	1776923
4.99535	1303988
5.00347	984279
5.01158	827615
5.01972	721426
5.02783	684462
5.03595	728439
5.04408	757077
5.05220	711484
5.06033	641335
5.06845	577698
5.07657	527788
5.08470	513256
5.09282	480550
5.10095	463932
5.10907	442627
5.11718	432570
5.12532	422289
5.13343	408301
5.14157	403595
5.14968	414341
5.15780	426197
5.16593	471659
5.17405	473362
5.18217	453471
5.19030	416842
5.19842	427800
5.20655	418835
5.21467	425597
5.22278	424843
5.23092	400452
5.23903	397258
5.24717	384916
5.25528	374745
5.26340	348261
5.27153	329490
5.27965	316811
5.28777	316669
5.29590	315417
5.30402	307676
5.31215	303209
5.32027	294715
5.32838	310661
5.33652	310924
5.34463	312148
5.35277	316449
5.36088	304394
5.36900	287721
5.37713	289175
5.38525	285813
5.39338	292205
5.40150	292969
5.40962	286311
5.41775	279982
5.42587	276727
5.43398	269810
5.44212	271787
5.45023	275073
5.45837	268877
5.46648	265577
5.47460	261307
5.48273	252257
5.49085	253830
5.49898	252827
5.50710	251694
5.51522	260217
5.52335	258628
5.53147	247603
5.53958	250595
5.54772	247445
5.55583	251087
5.56397	290681
5.57208	309286
5.58020	340288
5.58833	317408
5.59645	283877
5.60458	270019
5.61270	248881
5.62082	248452
5.62895	239451
5.63707	243038
5.64520	248221
5.65332	249680
5.66143	248157
5.66957	244645
5.67768	255560
5.68580	289964
5.69393	310649
5.70205	295806
5.71018	285100
5.71830	253244
5.72642	246072
5.73455	239295
5.74267	234840
5.75080	227093
5.75892	217003
5.76703	211742
5.77517	215962
5.78328	221769
5.79142	218403
5.79953	211149
5.80765	210597
5.81578	213227
5.82390	214996
5.83202	213135
5.84015	200425
5.84827	204239
5.85640	217208
5.86452	211371
5.87263	206146
5.88077	204795
5.88888	207352
5.89702	200054
5.90513	190773
5.91325	174545
5.92138	153410
5.92950	152252
5.93762	149587
5.94575	158309
5.95387	175349
5.96200	196731
5.97012	217109
5.97823	257898
5.98637	290105
5.99448	312249
6.00262	295373
6.01073	262421
6.01885	214947
6.02698	191335
6.03510	179455
6.04323	159847
6.05135	161948
6.05947	152468
6.06760	151138
6.07572	146515
6.08383	145685
6.09197	144642
6.10008	147626
6.10822	150227
6.11633	153281
6.12445	182772
6.13258	230149
6.14070	321558
6.14883	386918
6.15695	381145
6.16507	311443
6.17320	255286
6.18132	220581
6.18945	203024
6.19757	192427
6.20568	190548
6.21382	185058
6.22193	180755
6.23005	172310
6.23818	171230
6.24630	173945
6.25443	173459
6.26255	176747
6.27067	177602
6.27880	178286
6.28692	172546
6.29505	166263
6.30317	179750
6.31128	176265
6.31942	187488
6.32753	232886
6.33565	282460
6.34378	317437
6.35190	307918
6.36003	271270
6.36815	220154
6.37627	211166
6.38440	198533
6.39252	191759
6.40065	193571
6.40877	183144
6.41688	185958
6.42502	185009
6.43313	186685
6.44127	182825
6.44938	187389
6.45750	177906
6.46563	182879
6.47375	188098
6.48187	187748
6.49000	185626
6.49812	179682
6.50625	182489
6.51437	184069
6.52248	187437
6.53062	194732
6.53873	192120
6.54687	187565
6.55498	194137
6.56310	196317
6.57123	211455
6.57935	223761
6.58747	236082
6.59560	230190
6.60372	216424
6.61185	201603
6.61997	204787
6.62808	193513
6.63622	196101
6.64433	205668
6.65247	207247
6.66058	233879
6.66870	261712
6.67683	264633
6.68495	252671
6.69308	230447
6.70120	213367
6.70932	208788
6.71745	207185
6.72557	203549
6.73368	175764
6.74182	168996
6.74993	156338
6.75807	149806
6.76618	153656
6.77430	147575
6.78243	154228
6.79055	161507
6.79868	153457
6.80680	142894
6.81492	138286
6.82305	134740
6.83117	133395
6.83930	142064
6.84742	140470
6.85553	137475
6.86367	132911
6.87178	118467
6.87990	108257
6.88803	94666
6.89615	93823
6.90428	87100
6.91240	82060
6.92052	82393
6.92865	77679
6.93677	79582
6.94490	74810
6.95302	77262
6.96113	83849
6.96927	88505
6.97738	100665
6.98550	103513
6.99363	107228
7.00175	95221
7.00988	89550
7.01800	84300
7.02612	83725
7.03425	80039
7.04237	81816
7.05050	78003
7.05862	84022
7.06673	79516
7.07487	77551
7.08298	77410
7.09112	75706
7.09923	74636
7.10735	70230
7.11548	71544
7.12360	71376
7.13172	71228
7.13985	82677
7.14797	100365
7.15610	133050
7.16422	162723
7.17233	162404
7.18047	149830
7.18858	125630
7.19672	118112
7.20483	192818
7.21295	450685
7.22108	1034556
7.22920	1788502
7.23733	2162935
7.24545	1910522
7.25357	1286201
7.26170	783005
7.26982	501189
7.27793	347220
7.28607	232807
7.29418	148950
7.30232	111362
7.31043	105478
7.31855	107682
7.32668	107431
7.33480	111164
7.34293	106160
7.35105	102301
7.35917	99292
7.36730	87154
7.37542	85375
7.38353	84459
7.39167	81995
7.39978	84021
7.40792	90581
7.41603	87879
7.42415	81289
7.43228	78267
7.44040	78282
7.44853	84164
7.45665	77606
7.46477	74842
7.47290	80521
7.48102	74956
7.48915	71058
7.49727	73280
7.50538	80439
7.51352	79337
7.52163	85267
7.52975	109290
7.53788	163345
7.54600	234151
7.55413	306353
7.56225	362766
7.57037	355375
7.57850	323930
7.58662	251661
7.59475	191116
7.60287	144803
7.61098	115292
7.61912	97271
7.62723	88315
7.63537	82130
7.64348	81474
7.65160	78131
7.65973	73103
7.66785	69030
7.67597	74740
7.68410	72970
7.69222	76510
7.70035	69473
7.70847	73682
7.71658	72913
7.72472	71891
7.73283	67309
7.74097	67478
7.74908	67946
7.75720	69989
7.76533	75638
7.77345	77041
7.78157	73682
7.78970	75031
7.79782	75800
7.80595	80663
7.81407	85141
7.82218	83162
7.83032	81802
7.83843	76088
7.84657	75720
7.85468	64695
7.86280	72859
7.87093	76329
7.87905	87036
7.88718	98615
7.89530	97957
7.90342	95736
7.91155	88740
7.91967	81359
7.92778	83208
7.93592	91158
7.94403	107611
7.95217	107427
7.96028	103013
7.96840	97302
7.97653	89919
7.98465	80432
7.99278	71551
8.00090	67086
8.00902	65339
8.01715	62898
8.02527	60753
8.03338	63270
8.04152	59766
8.04963	62480
8.05777	61415
8.06588	59393
8.07400	59546
8.08213	61565
8.09025	56294
8.09838	57334
8.10650	58495
8.11462	54855
8.12275	62229
8.13087	68801
8.13900	70027
8.14712	81420
8.15523	83563
8.16337	82531
8.17148	77025
8.17960	71525
8.18773	67166
8.19585	64472
8.20398	59961
8.21210	57854
8.22022	56766
8.22835	59250
8.23647	58397
8.24460	56242
8.25272	55594
8.26083	53951
8.26897	51518
8.27708	54227
8.28522	54456
8.29333	57611
8.30145	56417
8.30958	62417
8.31770	62346
8.32582	60896
8.33395	60230
8.34207	66404
8.35020	54264
8.35832	59393
8.36643	58018
8.37457	55272
8.38268	50846
8.39082	56532
8.39893	57514
8.40705	51841
8.41518	52384
8.42330	54370
8.43142	58065
8.43955	54692
8.44767	53302
8.45580	52104
8.46392	50012
8.47203	44707
8.48017	51883
8.48828	50994
8.49642	47678
8.50453	50700
8.51265	63720
8.52078	124079
8.52890	283509
8.53703	582123
8.54515	926374
8.55327	1102505
8.56140	1016007
8.56952	702742
8.57763	409109
8.58577	226102
8.59388	151386
8.60202	114784
8.61013	108661
8.61825	110861
8.62638	98279
8.63450	99173
8.64263	82038
8.65075	80445
8.65887	80507
8.66700	74257
8.67512	75531
8.68325	72316
8.69137	72188
8.69948	75118
8.70762	74252
8.71573	69674
8.72385	64764
8.73198	63742
8.74010	65075
8.74823	66019
8.75635	91666
8.76447	155590
8.77260	270518
8.78072	464390
8.78885	631696
8.79697	686366
8.80508	594699
8.81322	452582
8.82133	317219
8.82945	238374
8.83758	190986
8.84570	182041
8.85383	187232
8.86195	182081
8.87007	184953
8.87820	176884
8.88632	169031
8.89445	155362
8.90257	149248
8.91068	139713
8.91882	148687
8.92693	155263
8.93507	163139
8.94318	175506
8.95130	178890
8.95943	174566
8.96755	172320
8.97567	153232
8.98380	146810
8.99192	146307
9.00005	143791
9.00817	132189
9.01628	130862
9.02442	122131
9.03253	117786
9.04067	110099
9.04878	108726
9.05690	109333
9.06503	107553
9.07315	101767
9.08127	107312
9.08940	105103
9.09752	112084
9.10565	117915
9.11377	119303
9.12188	134159
9.13002	129044
9.13813	119293
9.14627	113618
9.15438	106670
9.16250	102733
9.17063	100923
9.17875	104171
9.18688	96312
9.19500	97690
9.20312	96203
9.21125	94001
9.21937	93138
9.22748	93613
9.23562	87732
9.24373	99686
9.25187	91703
9.25998	89569
9.26810	89176
9.27623	86042
9.28435	90858
9.29248	86973
9.30060	82447
9.30872	83598
9.31685	80413
9.32497	83165
9.33310	82366
9.34122	86058
9.34933	81855
9.35747	78715
9.36558	77327
9.37370	79329
9.38183	78602
9.38995	80994
9.39808	80647
9.40620	81861
9.41432	91876
9.42245	89173
9.43057	100352
9.43870	108591
9.44682	102524
9.45493	103329
9.46307	96858
9.47118	89241
9.47932	85297
9.48743	80732
9.49555	79935
9.50368	82119
9.51180	87281
9.51992	94701
9.52805	101621
9.53617	98642
9.54430	92046
9.55242	84029
9.56053	86811
9.56867	93104
9.57678	107096
9.58492	137499
9.59303	165567
9.60115	174272
9.60928	153283
9.61740	115863
9.62552	82420
9.63365	66981
9.64177	58003
9.64990	53132
9.65802	54665
9.66613	53706
9.67427	55828
9.68238	53683
9.69052	51035
9.69863	49974
9.70675	50455
9.71488	51755
9.72300	47098
9.73113	46865
9.73925	48999
9.74737	48435
9.75550	45805
9.76362	42351
9.77173	45009
9.77987	43185
9.78798	42785
9.79612	44187
9.80423	49781
9.81235	43030
9.82048	43303
9.82860	42685
9.83673	43552
9.84485	46025
9.85297	44017
9.86110	49201
9.86922	51318
9.87733	51302
9.88547	51185
9.89358	49153
9.90172	52006
9.90983	46727
9.91795	48945
9.92608	56129
9.93420	57054
9.94233	82855
9.95045	103432
9.95857	125976
9.96670	130147
9.97482	112650
9.98295	99460
9.99107	85667
9.99918	74319
10.00732	71141
10.01543	70469
10.02355	69840
10.03168	61375
10.03980	58386
10.04793	55103
10.05605	55497
10.06417	55977
10.07230	52753
10.08042	58699
10.08855	58396
10.09667	58391
10.10478	51267
10.11292	58035
10.12103	55321
10.12917	54156
10.13728	52291
10.14540	51760
10.15353	52618
10.16165	51460
10.16977	51396
10.17790	51562
10.18602	52754
10.19415	49554
10.20227	47971
10.21038	47144
10.21852	45865
10.22663	47171
10.23477	53008
10.24288	56982
10.25100	67518
10.25913	101662
10.26725	246586
10.27537	606541
10.28350	1384992
10.29162	2445047
10.29975	3798968
10.30787	5536009
10.31598	8483275
10.32412	1.294188E+07
10.33223	1.819355E+07
10.34037	2.269187E+07
10.34848	2.355422E+07
10.35660	1.877594E+07
10.36473	1.134851E+07
10.37285	5511409
10.38098	2688155
10.38910	1598667
10.39722	1124977
10.40535	912122
10.41347	771248
10.42158	656729
10.42972	571448
10.43783	519405
10.44597	480869
10.45408	434792
10.46220	411577
10.47033	386160
10.47845	351281
10.48658	332296
10.49470	310964
10.50282	294281
10.51095	281491
10.51907	267198
10.52720	258613
10.53532	252998
10.54343	231542
10.55157	232850
10.55968	225411
10.56780	214826
10.57593	208977
10.58405	204426
10.59218	189149
10.60030	182414
10.60842	175282
10.61655	172643
10.62467	159257
10.63280	160801
10.64092	165678
10.64903	150511
10.65717	151549
10.66528	148250
10.67340	135840
10.68153	140058
10.68965	142518
10.69778	138347
10.70590	130121
10.71402	128086
10.72215	126874
10.73027	128137
10.73840	125173
10.74652	113111
10.75463	118615
10.76277	115512
10.77088	116888
10.77902	111208
10.78713	106721
10.79525	100334
10.80338	98180
10.81150	104077
10.81962	105198
10.82775	101750
10.83587	101327
10.84400	92734
10.85212	92496
10.86023	85102
10.86837	86499
10.87648	85735
10.88462	85089
10.89273	84753
10.90085	82465
10.90898	84061
10.91710	84170
10.92522	78715
10.93335	84903
10.94147	79881
10.94960	81494
10.95772	77150
10.96583	80354
10.97397	79460
10.98208	81250
10.99022	71859
10.99833	76041
11.00645	74090
11.01458	74684
11.02270	74186
11.03083	73390
11.03895	71212
11.04707	70670
11.05520	70952
11.06332	66458
11.07143	68555
11.07957	69111
11.08768	68542
11.09582	70072
11.10393	64087
11.11205	65591
11.12018	58240
11.12830	57154
11.13643	49786
11.14455	50049
11.15267	48133
11.16080	48982
11.16892	49913
11.17705	55601
11.18517	58205
11.19328	57920
11.20142	58738
11.20953	54312
11.21765	56050
11.22578	50354
11.23390	45645
11.24203	52204
11.25015	40941
11.25827	46325
11.26640	44016
11.27452	43774
11.28265	48122
11.29077	43792
11.29888	46546
11.30702	58079
11.31513	78614
11.32325	116524
11.33138	162449
11.33950	216403
11.34763	252992
11.35575	239196
11.36387	213007
11.37200	154666
11.38012	128166
11.38825	95579
11.39637	81394
11.40448	77231
11.41262	73930
11.42073	67665
11.42887	68453
11.43698	65554
11.44510	59925
11.45323	58329
11.46135	65061
11.46947	65910
11.47760	80031
11.48572	99174
11.49385	127336
11.50197	153159
11.51008	157556
11.51822	144636
11.52633	125731
11.53447	118428
11.54258	108081
11.55070	106208
11.55883	94869
11.56695	91167
11.57508	73932
11.58320	72283
11.59132	77075
11.59945	93074
11.60757	125719
11.61568	157986
11.62382	176939
11.63193	169313
11.64007	144594
11.64818	110704
11.65630	91624
11.66443	75438
11.67255	66755
11.68068	60632
11.68880	64202
11.69692	58714
11.70505	55638
11.71317	55623
11.72128	61134
11.72942	53774
11.73753	58205
11.74567	54203
11.75378	53375
11.76190	52531
11.77003	54828
11.77815	52985
11.78628	47570
11.79440	48625
11.80252	46106
11.81065	49390
11.81877	50415
11.82690	47485
11.83502	45872
11.84313	45392
11.85127	47558
11.85938	46280
11.86750	42152
11.87563	47027
11.88375	43183
11.89188	40458
11.90000	39762
11.90812	42084
11.91625	48423
11.92437	49307
11.93250	51996
11.94062	60195
11.94873	53105
11.95687	51385
11.96498	43896
11.97310	44595
11.98123	50892
11.98935	60485
11.99748	75986
12.00560	92032
12.01372	110173
12.02185	117307
12.02997	98582
12.03810	87589
12.04622	68428
12.05433	60684
12.06247	55503
12.07058	51311
12.07872	54484
12.08683	50203
12.09495	50130
12.10308	49637
12.11120	51807
12.11932	57533
12.12745	56615
12.13557	57612
12.14370	61025
12.15182	59106
12.15993	54737
12.16807	55691
12.17618	45738
12.18432	48081
12.19243	45840
12.20055	45834
12.20868	47275
12.21680	46202
12.22493	47207
12.23305	47152
12.24117	46858
12.24930	44362
12.25742	45114
12.26553	43484
12.27367	45428
12.28178	46654
12.28992	42424
12.29803	43620
12.30615	47480
12.31428	43758
12.32240	41130
12.33053	44881
12.33865	43601
12.34677	42713
12.35490	42114
12.36302	40376
12.37113	40942
12.37927	40998
12.38738	39878
12.39552	41678
12.40363	50613
12.41175	59864
12.41988	69603
12.42800	77017
12.43613	83749
12.44425	78991
12.45237	67841
12.46050	67283
12.46862	57572
12.47675	55423
12.48487	51448
12.49298	54012
12.50112	48535
12.50923	51295
12.51735	47123
12.52548	46393
12.53360	51047
12.54173	60686
12.54985	74470
12.55797	97130
12.56610	116335
12.57422	121524
12.58235	108897
12.59047	90190
12.59858	78958
12.60672	62736
12.61483	61698
12.62297	59809
12.63108	57280
12.63920	56266
12.64733	51411
12.65545	47966
12.66357	47909
12.67170	46464
12.67982	46570
12.68795	47540
12.69607	43094
12.70418	46419
12.71232	41675
12.72043	45595
12.72857	48116
12.73668	53896
12.74480	53851
12.75293	51739
12.76105	48849
12.76917	46527
12.77730	48163
12.78542	43509
12.79355	43928
12.80167	37838
12.80978	42390
12.81792	39634
12.82603	41015
12.83417	36338
12.84228	35937
12.85040	37690
12.85853	37233
12.86665	33388
12.87478	35669
12.88290	35198
12.89102	32730
12.89915	36153
12.90727	36429
12.91538	32607
12.92352	34872
12.93163	36411
12.93977	38008
12.94788	39057
12.95600	36305
12.96413	38837
12.97225	37973
12.98038	42729
12.98850	44030
12.99662	47160
13.00475	42250
13.01287	43538
13.02100	41407
13.02912	41510
13.03723	37181
13.04537	37344
13.05348	40331
13.06160	32607
13.06973	34359
13.07785	37802
13.08598	42916
13.09410	39456
13.10222	39062
13.11035	38122
13.11847	35542
13.12660	39935
13.13472	37209
13.14283	37037
13.15097	37393
13.15908	37490
13.16720	41450
13.17533	39019
13.18345	44971
13.19158	42545
13.19970	41860
13.20782	39028
13.21595	40813
13.22407	41568
13.23220	42167
13.24032	40031
13.24843	44649
13.25657	39981
13.26468	42449
13.27282	37671
13.28093	36779
13.28905	36885
13.29718	38138
13.30530	34460
13.31342	35592
13.32155	31489
13.32967	37798
13.33780	32284
13.34592	36333
13.35403	36420
13.36217	34445
13.37028	34933
13.37842	34064
13.38653	35664
13.39465	35514
13.40278	37124
13.41090	33095
13.41902	33118
13.42715	29435
13.43527	36690
13.44340	33208
13.45152	32926
13.45963	32559
13.46777	35588
13.47588	33134
13.48402	30263
13.49213	35193
13.50025	34651
13.50838	35339
13.51650	37274
13.52463	37709
13.53275	35765
13.54087	34966
13.54900	36314
13.55712	35530
13.56523	35128
13.57337	36150
13.58148	37902
13.58962	38961
13.59773	46173
13.60585	52210
13.61398	56595
13.62210	62533
13.63023	63191
13.63835	57971
13.64647	50063
13.65460	47417
13.66272	39115
13.67085	34936
13.67897	38268
13.68708	35314
13.69522	35732
13.70333	35197
13.71145	34608
13.71958	37118
13.72770	40557
13.73583	40308
13.74395	53766
13.75207	83502
13.76020	151144
13.76832	235743
13.77645	344197
13.78457	423364
13.79268	459800
13.80082	437872
13.80893	391511
13.81705	310007
13.82518	271696
13.83330	245439
13.84143	237158
13.84955	207784
13.85767	180757
13.86580	155127
13.87392	131278
13.88205	112921
13.89017	100351
13.89828	90976
13.90642	81876
13.91453	82512
13.92267	79886
13.93078	69314
13.93890	68112
13.94703	67283
13.95515	70382
13.96327	68159
13.97140	68619
13.97952	75822
13.98765	75981
13.99577	76427
14.00388	75044
14.01202	75134
14.02013	76515
14.02827	66215
14.03638	69059
14.04450	65186
14.05263	60458
14.06075	58552
14.06888	56232
14.07700	59928
14.08512	57205
14.09325	59848
14.10137	56852
14.10948	53755
14.11762	56127
14.12573	54205
14.13387	49267
14.14198	56907
14.15010	53052
14.15823	59512
14.16635	58589
14.17448	57986
14.18260	70735
14.19072	81641
14.19885	112435
14.20697	139824
14.21508	169438
14.22322	192368
14.23133	195260
14.23947	189367
14.24758	193051
14.25570	199031
14.26383	192802
14.27195	176758
14.28008	150898
14.28820	132721
14.29632	118295
14.30445	111085
14.31257	100856
14.32070	87355
14.32882	99099
14.33693	94640
14.34507	93863
14.35318	82241
14.36130	81475
14.36943	73503
14.37755	64924
14.38568	62524
14.39380	55912
14.40192	60872
14.41005	58088
14.41817	65576
14.42630	70140
14.43442	71158
14.44253	64940
14.45067	58086
14.45878	57776
14.46690	52369
14.47503	53953
14.48315	54329
14.49128	51010
14.49940	51968
14.50752	47999
14.51565	47800
14.52377	47132
14.53190	52721
14.54002	53545
14.54813	48559
14.55627	49406
14.56438	45817
14.57252	45203
14.58063	46342
14.58875	41335
14.59688	46211
14.60500	44448
14.61312	41762
14.62125	39941
14.62937	41693
14.63750	49409
14.64562	36173
14.65373	38917
14.66187	37455
14.66998	41748
14.67812	36768
14.68623	38037
14.69435	35643
14.70248	35398
14.71060	38676
14.71873	42059
14.72685	40824
14.73497	40190
14.74310	41593
14.75122	40190
14.75933	40398
14.76747	39926
14.77558	46463
14.78372	49892
14.79183	93319
14.79995	227177
14.80808	597151
14.81620	1316227
14.82433	2338200
14.83245	3333916
14.84057	3781992
14.84870	3475575
14.85682	2612103
14.86495	1693402
14.87307	1053677
14.88118	671913
14.88932	488334
14.89743	379105
14.90555	314699
14.91368	268848
14.92180	236956
14.92993	215879
14.93805	193194
14.94617	182610
14.95430	175179
14.96242	168279
14.97055	156849
14.97867	149932
14.98678	139055
14.99492	136738
15.00303	126970
15.01115	126215
15.01928	121209
15.02740	116696
15.03553	109443
15.04365	105148
15.05177	106405
15.05990	100980
15.06802	91158
15.07615	92215
15.08427	91699
15.09238	86950
15.10052	83940
15.10863	91161
15.11677	87004
15.12488	93079
15.13300	95627
15.14113	98418
15.14925	105482
15.15737	102484
15.16550	87876
15.17362	79883
15.18175	67641
15.18987	62652
15.19798	57197
15.20612	53532
15.21423	52559
15.22237	50892
15.23048	47874
15.23860	47452
15.24673	49684
15.25485	45654
15.26297	46839
15.27110	45961
15.27922	42180
15.28735	44307
15.29547	45371
15.30358	41168
15.31172	41966
15.31983	42318
15.32797	42669
15.33608	44229
15.34420	41522
15.35233	40164
15.36045	39989
15.36858	38538
15.37670	44691
15.38482	39548
15.39295	43740
15.40107	40448
15.40918	42054
15.41732	43041
15.42543	38686
15.43357	38973
15.44168	36875
15.44980	37146
15.45793	36121
15.46605	39205
15.47418	45888
15.48230	52495
15.49042	55054
15.49855	67220
15.50667	76569
15.51480	82410
15.52292	70543
15.53103	70811
15.53917	62221
15.54728	59544
15.55540	58102
15.56353	53366
15.57165	47601
15.57978	47832
15.58790	43837
15.59602	40144
15.60415	43011
15.61227	41452
15.62040	42421
15.62852	43416
15.63663	40101
15.64477	38499
15.65288	41352
15.66100	38950
15.66913	38044
15.67725	41295
15.68538	41025
15.69350	38469
15.70162	36167
15.70975	37669
15.71787	37743
15.72600	36621
15.73412	41312
15.74223	41812
15.75037	49908
15.75848	67383
15.76662	104081
15.77473	162160
15.78285	252431
15.79098	316665
15.79910	344313
15.80722	297890
15.81535	235873
15.82347	170556
15.83160	122244
15.83972	94498
15.84783	75629
15.85597	75038
15.86408	66158
15.87222	62155
15.88033	63745
15.88845	68124
15.89658	72351
15.90470	67395
15.91283	63201
15.92095	61049
15.92907	59330
15.93720	53114
15.94532	54690
15.95343	52872
15.96157	50598
15.96968	60573
15.97782	61008
15.98593	58263
15.99405	59188
16.00218	58596
16.01030	61099
16.01843	67559
16.02655	70669
16.03467	71432
16.04280	77048
16.05092	69089
16.05903	63991
16.06717	52299
16.07528	50294
16.08342	60853
16.09153	51696
16.09965	48893
16.10778	46898
16.11590	47458
16.12403	45968
16.13215	48271
16.14027	46066
16.14840	49337
16.15652	52437
16.16465	52174
16.17277	51331
16.18088	43946
16.18902	44956
16.19713	45552
16.20525	43498
16.21338	46872
16.22150	45246
16.22963	42618
16.23775	45434
16.24587	41724
16.25400	42553
16.26212	40511
16.27025	44161
16.27837	44496
16.28648	41949
16.29462	49107
16.30273	44472
16.31085	48986
16.31898	45083
16.32710	47015
16.33523	43791
16.34335	46579
16.35147	52600
16.35960	59519
16.36772	63617
16.37585	72542
16.38397	80804
16.39208	75140
16.40022	66929
16.40833	66475
16.41647	57764
16.42458	53939
16.43270	53908
16.44083	57735
16.44895	85378
16.45707	150578
16.46520	273928
16.47332	483353
16.48145	682182
16.48957	803629
16.49768	745322
16.50582	589111
16.51393	396721
16.52207	254778
16.53018	177953
16.53830	134693
16.54643	110284
16.55455	99597
16.56268	86979
16.57080	83749
16.57892	81704
16.58705	80399
16.59517	75918
16.60328	74473
16.61142	71654
16.61953	71388
16.62767	74853
16.63578	67045
16.64390	67723
16.65203	63474
16.66015	58842
16.66828	60780
16.67640	57727
16.68452	58260
16.69265	57426
16.70077	53789
16.70888	54535
16.71702	51659
16.72513	51859
16.73327	45891
16.74138	42947
16.74950	52459
16.75763	50769
16.76575	52820
16.77388	59375
16.78200	53698
16.79012	51487
16.79825	51417
16.80637	44522
16.81450	41242
16.82262	42136
16.83073	41842
16.83887	40531
16.84698	39651
16.85510	40525
16.86323	43755
16.87135	41912
16.87948	41431
16.88760	40119
16.89572	40650
16.90385	42360
16.91197	42767
16.92010	40421
16.92822	39614
16.93633	42186
16.94447	41077
16.95258	40216
16.96072	41570
16.96883	38714
16.97695	40120
16.98508	45352
16.99320	42232
17.00132	40125
17.00945	43841
17.01757	36409
17.02570	39914
17.03382	42726
17.04193	42432
17.05007	45281
17.05818	46153
17.06632	51308
17.07443	45505
17.08255	47396
17.09068	44673
17.09880	41719
17.10692	44837
17.11505	48282
17.12317	48410
17.13130	47985
17.13942	50592
17.14753	48266
17.15567	51610
17.16378	43898
17.17192	43795
17.18003	44125
17.18815	41573
17.19628	39696
17.20440	39977
17.21253	40380
17.22065	39807
17.22877	40899
17.23690	39250
17.24502	39803
17.25313	37926
17.26127	39071
17.26938	44258
17.27752	42387
17.28563	38578
17.29375	41527
17.30188	35544
17.31000	44802
17.31813	43255
17.32625	47837
17.33437	46812
17.34250	52236
17.35062	59350
17.35875	56723
17.36687	57748
17.37498	57016
17.38312	61729
17.39123	56344
17.39935	52128
17.40748	56297
17.41560	54233
17.42373	48561
17.43185	52477
17.43997	49629
17.44810	49861
17.45622	48371
17.46435	50609
17.47247	47589
17.48058	43552
17.48872	42471
17.49683	40680
17.50495	42123
17.51308	44344
17.52120	37102
17.52933	42372
17.53745	44298
17.54557	42865
17.55370	45111
17.56182	59958
17.56995	72258
17.57807	115608
17.58618	190971
17.59432	295787
17.60243	426646
17.61057	521597
17.61868	553370
17.62680	497252
17.63493	412055
17.64305	295233
17.65117	219566
17.65930	169932
17.66742	145537
17.67555	129773
17.68367	118242
17.69178	110521
17.69992	94320
17.70803	94262
17.71617	81556
17.72428	74604
17.73240	73532
17.74053	71468
17.74865	66286
17.75677	62838
17.76490	65190
17.77302	59180
17.78115	61606
17.78927	56710
17.79738	61538
17.80552	61628
17.81363	65212
17.82177	82611
17.82988	85225
17.83800	89148
17.84613	88176
17.85425	91274
17.86238	85365
17.87050	80498
17.87862	83632
17.88675	70741
17.89487	65037
17.90298	58842
17.91112	54991
17.91923	53065
17.92737	52034
17.93548	42999
17.94360	46142
17.95173	44934
17.95985	45093
17.96798	48343
17.97610	43085
17.98422	41600
17.99235	45338
18.00047	44633
18.00860	46761
18.01672	54604
18.02483	62864
18.03297	71818
18.04108	80379
18.04920	85949
18.05733	96139
18.06545	112182
18.07358	152279
18.08170	233781
18.08982	321741
18.09795	414559
18.10607	423597
18.11420	365841
18.12232	296415
18.13043	230133
18.13857	196095
18.14668	161497
18.15480	156566
18.16293	136239
18.17105	127968
18.17918	124101
18.18730	110614
18.19542	96927
18.20355	103242
18.21167	90574
18.21980	90017
18.22792	82258
18.23603	84541
18.24417	78914
18.25228	82019
18.26042	77540
18.26853	73417
18.27665	67294
18.28478	64762
18.29290	59696
18.30102	54007
18.30915	48626
18.31727	46710
18.32540	48272
18.33352	46366
18.34163	44081
18.34977	41519
18.35788	46350
18.36602	43273
18.37413	44873
18.38225	39163
18.39038	43840
18.39850	39985
18.40663	44650
18.41475	39708
18.42287	46978
18.43100	47790
18.43912	50056
18.44723	60762
18.45537	79025
18.46348	104746
18.47162	133390
18.47973	172179
18.48785	188662
18.49598	189729
18.50410	168522
18.51223	148468
18.52035	117176
18.52847	91977
18.53660	75290
18.54472	68757
18.55283	65445
18.56097	62639
18.56908	60713
18.57722	60831
18.58533	59025
18.59345	58042
18.60158	56051
18.60970	54022
18.61783	53426
18.62595	51592
18.63407	52741
18.64220	52911
18.65032	49512
18.65845	49481
18.66657	49300
18.67468	52798
18.68282	72571
18.69093	104029
18.69905	124199
18.70718	139521
18.71530	151093
18.72343	152939
18.73155	150767
18.73967	163993
18.74780	170748
18.75592	170820
18.76405	166095
18.77217	169296
18.78028	164770
18.78842	172523
18.79653	173661
18.80465	174157
18.81278	171265
18.82090	173924
18.82903	171593
18.83715	170944
18.84527	165398
18.85340	168482
18.86152	168393
18.86965	167476
18.87777	164619
18.88588	164239
18.89402	165964
18.90213	169857
18.91027	170849
18.91838	165218
18.92650	169737
18.93463	174036
18.94275	176123
18.95087	176311
18.95900	190086
18.96712	185150
18.97525	180095
18.98337	173185
18.99148	167133
18.99962	159861
19.00773	159107
19.01587	156024
19.02398	159594
19.03210	149397
19.04023	149895
19.04835	157569
19.05648	158961
19.06460	197701
19.07272	274040
19.08085	446113
19.08897	743114
19.09708	1170729
19.10522	1538903
19.11333	1708693
19.12147	1632421
19.12958	1312051
19.13770	948956
19.14583	660798
19.15395	465087
19.16208	347360
19.17020	294946
19.17832	244208
19.18645	222596
19.19457	208680
19.20270	207166
19.21082	193883
19.21893	178032
19.22707	173468
19.23518	160466
19.24330	154377
19.25143	140180
19.25955	154265
19.26768	141659
19.27580	154952
19.28392	161500
19.29205	170697
19.30017	172105
19.30830	164890
19.31642	172921
19.32453	161071
19.33267	153682
19.34078	151087
19.34890	153698
19.35703	159058
19.36515	173154
19.37328	188327
19.38140	189359
19.38952	192627
19.39765	181442
19.40577	163685
19.41390	140039
19.42202	137365
19.43013	128289
19.43827	122582
19.44638	126427
19.45452	121152
19.46263	128652
19.47075	121168
19.47888	117201
19.48700	125220
19.49512	138102
19.50325	165117
19.51137	192338
19.51950	217518
19.52762	219492
19.53573	209793
19.54387	185347
19.55198	154038
19.56012	139582
19.56823	120827
19.57635	115810
19.58448	110363
19.59260	107242
19.60072	108085
19.60885	99583
19.61697	103301
19.62510	103321
19.63322	109766
19.64133	121505
19.64947	150043
19.65758	205031
19.66572	261917
19.67383	303776
19.68195	363549
19.69008	367929
19.69820	332303
19.70633	299734
19.71445	269546
19.72257	235148
19.73070	203729
19.73882	185435
19.74693	169734
19.75507	154235
19.76318	135311
19.77132	129833
19.77943	119035
19.78755	122223
19.79568	123799
19.80380	127729
19.81193	126999
19.82005	121115
19.82817	112558
19.83630	110310
19.84442	107782
19.85255	105359
19.86067	115742
19.86878	146045
19.87692	211654
19.88503	324135
19.89315	480339
19.90128	597837
19.90940	656566
19.91753	654170
19.92565	567008
19.93377	475163
19.94190	383028
19.95002	331709
19.95815	283989
19.96627	270251
19.97438	240327
19.98252	231182
19.99063	221069
19.99875	215706
20.00688	209499
20.01500	201537
20.02313	195156
20.03125	188193
20.03937	181101
20.04750	168821
20.05562	149921
20.06375	140858
20.07187	121652
20.07998	125422
20.08812	119557
20.09623	118027
20.10437	109806
20.11248	102144
20.12060	100602
20.12873	90952
20.13685	99758
20.14497	97404
20.15310	88941
20.16122	104874
20.16935	112687
20.17747	122953
20.18558	134148
20.19372	143171
20.20183	142363
20.20997	143084
20.21808	126584
20.22620	122497
20.23433	122061
20.24245	128338
20.25058	156631
20.25870	208968
20.26682	293873
20.27495	398146
20.28307	487365
20.29118	550460
20.29932	543303
20.30743	483042
20.31557	394717
20.32368	310332
20.33180	239068
20.33993	187946
20.34805	160678
20.35618	136273
20.36430	120936
20.37242	111674
20.38055	105706
20.38867	107409
20.39678	98358
20.40492	96085
20.41303	94958
20.42117	94642
20.42928	102971
20.43740	105206
20.44553	117025
20.45365	120962
20.46178	124135
20.46990	122872
20.47802	108115
20.48615	106737
20.49427	96620
20.50240	92585
20.51052	82834
20.51863	81824
20.52677	73718
20.53488	76867
20.54300	71661
20.55113	74396
20.55925	77796
20.56738	74570
20.57550	71283
20.58362	72055
20.59175	69584
20.59987	69909
20.60800	69265
20.61612	66365
20.62423	63177
20.63237	67123
20.64048	70265
20.64860	65820
20.65673	66011
20.66485	67672
20.67298	70245
20.68110	62176
20.68922	70825
20.69735	60560
20.70547	60808
20.71360	61626
20.72172	59816
20.72983	64770
20.73797	60978
20.74608	67210
20.75422	61461
20.76233	68563
20.77045	62845
20.77858	67503
20.78670	81149
20.79482	93258
20.80295	121861
20.81107	151434
20.81920	172701
20.82732	184652
20.83543	179053
20.84357	152362
20.85168	126679
20.85982	102623
20.86793	81514
20.87605	76906
20.88418	69779
20.89230	68569
20.90043	68187
20.90855	71136
20.91667	66861
20.92480	67525
20.93292	68000
20.94103	70079
20.94917	63316
20.95728	61491
20.96542	67245
20.97353	63973
20.98165	66307
20.98978	60559
20.99790	59075
21.00603	55021
21.01415	64593
21.02227	59181
21.03040	61304
21.03852	63561
21.04663	63727
21.05477	63247
21.06288	62142
21.07102	59576
21.07913	65237
21.08725	67532
21.09538	62644
21.10350	63923
21.11163	60211
21.11975	60853
21.12787	63439
21.13600	70550
21.14412	81130
21.15225	90827
21.16037	104416
21.16848	112101
21.17662	115101
21.18473	115929
21.19285	96201
21.20098	84159
21.20910	77677
21.21723	71112
21.22535	68084
21.23347	69479
21.24160	73346
21.24972	59907
21.25785	62733
21.26597	66455
21.27408	65397
21.28222	60750
21.29033	62735
21.29847	56544
21.30658	54642
21.31470	55052
21.32283	57307
21.33095	54614
21.33907	52906
21.34720	53743
21.35532	51325
21.36345	51077
21.37157	50175
21.37968	51669
21.38782	54711
21.39593	55728
21.40407	59600
21.41218	55442
21.42030	57277
21.42843	60636
21.43655	55809
21.44467	53001
21.45280	50767
21.46092	52732
21.46905	54735
21.47717	47141
21.48528	53208
21.49342	48583
21.50153	47898
21.50967	47725
21.51778	47648
21.52590	50516
21.53403	48577
21.54215	47233
21.55028	47367
21.55840	48663
21.56652	49497
21.57465	48300
21.58277	52804
21.59088	58105
21.59902	62547
21.60713	67025
21.61527	65260
21.62338	69304
21.63150	78063
21.63963	89460
21.64775	95705
21.65588	102452
21.66400	104235
21.67212	94028
21.68025	92900
21.68837	84657
21.69650	79820
21.70462	75974
21.71273	68670
21.72087	64737
21.72898	58628
21.73710	57920
21.74523	56865
21.75335	56550
21.76148	52060
21.76960	55318
21.77772	53486
21.78585	52495
21.79397	58665
21.80210	53192
21.81022	52736
21.81833	63745
21.82647	67481
21.83458	76440
21.84270	92019
21.85083	95165
21.85895	91062
21.86708	85372
21.87520	80985
21.88332	67488
21.89145	64449
21.89957	59474
21.90770	51880
21.91582	51597
21.92393	53021
21.93207	49905
21.94018	54328
21.94832	46843
21.95643	48554
21.96455	48196
21.97268	43637
21.98080	42365
21.98892	44558
21.99705	40571
22.00517	42012
22.01330	43518
22.02142	47532
22.02953	47415
22.03767	48645
22.04578	44349
22.05392	46831
22.06203	47223
22.07015	41716
22.07828	51545
22.08640	53490
22.09452	56157
22.10265	68871
22.11077	72609
22.11890	74736
22.12702	78190
22.13513	85238
22.14327	83095
22.15138	86589
22.15952	84772
22.16763	88568
22.17575	82901
22.18388	87543
22.19200	83490
22.20013	87641
22.20825	87771
22.21637	88326
22.22450	87379
22.23262	90180
22.24073	95451
22.24887	97461
22.25698	96945
22.26512	93307
22.27323	87297
22.28135	90047
22.28948	83884
22.29760	84341
22.30573	82292
22.31385	74041
22.32197	68094
22.33010	74752
22.33822	69828
22.34635	69734
22.35447	68065
22.36258	60969
22.37072	59672
22.37883	62078
22.38695	60001
22.39508	67249
22.40320	76072
22.41133	92889
22.41945	99361
22.42757	101645
22.43570	104271
22.44382	90329
22.45195	80460
22.46007	75439
22.46818	70585
22.47632	63086
22.48443	62150
22.49255	66707
22.50068	69617
22.50880	73679
22.51693	73535
22.52505	68050
22.53317	67633
22.54130	64626
22.54942	61037
22.55755	56988
22.56567	53208
22.57378	52162
22.58192	51423
22.59003	47131
22.59817	53248
22.60628	69312
22.61440	85876
22.62253	102060
22.63065	111242
22.63877	118812
22.64690	117258
22.65502	126250
22.66315	131318
22.67127	137086
22.67938	139359
22.68752	143656
22.69563	156594
22.70377	174287
22.71188	180932
22.72000	198068
22.72813	185516
22.73625	191788
22.74438	186252
22.75250	172707
22.76062	161978
22.76875	160353
22.77687	168354
22.78498	168468
22.79312	184076
22.80123	205384
22.80937	212024
22.81748	224808
22.82560	205259
22.83373	201670
22.84185	185073
22.84998	175182
22.85810	171104
22.86622	163252
22.87435	157672
22.88247	157777
22.89058	161561
22.89872	164186
22.90683	182796
22.91497	200066
22.92308	221269
22.93120	220607
22.93933	231866
22.94745	217851
22.95558	198352
22.96370	185178
22.97182	172093
22.97995	166587
22.98807	156162
22.99620	149544
23.00432	150492
23.01243	140714
23.02057	134254
23.02868	132685
23.03680	130899
23.04493	125648
23.05305	117599
23.06118	121544
23.06930	118138
23.07742	122416
23.08555	118083
23.09367	114848
23.10180	117263
23.10992	109080
23.11803	106807
23.12617	110142
23.13428	107117
23.14240	105382
23.15053	110746
23.15865	105995
23.16678	103437
23.17490	105172
23.18302	101400
23.19115	100844
23.19927	102405
23.20740	103965
23.21552	97774
23.22363	96235
23.23177	98097
23.23988	96470
23.24802	99833
23.25613	96618
23.26425	97723
23.27238	102291
23.28050	102086
23.28862	99482
23.29675	96379
23.30487	95799
23.31300	93874
23.32112	93023
23.32923	93215
23.33737	104038
23.34548	108219
23.35362	127311
23.36173	156039
23.36985	180716
23.37798	223804
23.38610	260306
23.39423	309370
23.40235	350773
23.41047	382710
23.41860	400280
23.42672	394771
23.43483	400479
23.44297	403420
23.45108	378690
23.45922	361503
23.46733	344744
23.47545	325941
23.48358	301334
23.49170	289392
23.49983	264403
23.50795	240619
23.51607	223557
23.52420	218126
23.53232	209463
23.54043	194915
23.54857	189513
23.55668	190214
23.56482	188052
23.57293	192009
23.58105	206773
23.58918	224670
23.59730	260173
23.60543	278253
23.61355	293401
23.62167	267304
23.62980	240442
23.63792	213222
23.64605	198507
23.65417	189459
23.66228	188365
23.67042	181194
23.67853	168097
23.68665	165239
23.69478	151446
23.70290	136420
23.71103	126929
23.71915	121518
23.72727	119550
23.73540	116029
23.74352	121074
23.75165	156942
23.75977	248193
23.76788	448156
23.77602	820864
23.78413	1379225
23.79227	1922279
23.80038	2240991
23.80850	2304659
23.81663	2051621
23.82475	1641289
23.83287	1270805
23.84100	988906
23.84912	766848
23.85725	615965
23.86537	509303
23.87348	435314
23.88162	374926
23.88973	335790
23.89787	302463
23.90598	289177
23.91410	276438
23.92223	261892
23.93035	244868
23.93847	229127
23.94660	216232
23.95472	197453
23.96285	187044
23.97097	175858
23.97908	173169
23.98722	159977
23.99533	149153
24.00347	161229
24.01158	174062
24.01970	220545
24.02783	281894
24.03595	332653
24.04408	352822
24.05220	316446
24.06032	261442
24.06845	205317
24.07657	159772
24.08468	136370
24.09282	120570
24.10093	115666
24.10907	112376
24.11718	109848
24.12530	109073
24.13343	121027
24.14155	120137
24.14968	127921
24.15780	126361
24.16592	124815
24.17405	120006
24.18217	114020
24.19028	110515
24.19842	105820
24.20653	103379
24.21467	103572
24.22278	107285
24.23090	103529
24.23903	101385
24.24715	96475
24.25528	93583
24.26340	83320
24.27152	84519
24.27965	81659
24.28777	82350
24.29590	84197
24.30402	81179
24.31213	80152
24.32027	79178
24.32838	86510
24.33650	92713
24.34463	113397
24.35275	133972
24.36088	157096
24.36900	173660
24.37712	181855
24.38525	199223
24.39337	211731
24.40150	234430
24.40962	257320
24.41773	240452
24.42587	236518
24.43398	233908
24.44212	224851
24.45023	213910
24.45835	223388
24.46648	205296
24.47460	204022
24.48272	209913
24.49085	216462
24.49897	219318
24.50710	221408
24.51522	240125
24.52333	232383
24.53147	231287
24.53958	233931
24.54772	222430
24.55583	226927
24.56395	227737
24.57208	214500
24.58020	211914
24.58833	200978
24.59645	203964
24.60457	197131
24.61270	193500
24.62082	191393
24.62893	195866
24.63707	188839
24.64518	192066
24.65332	188940
24.66143	192237
24.66955	190614
24.67768	190517
24.68580	190037
24.69393	180902
24.70205	181724
24.71017	179085
24.71830	182305
24.72642	179220
24.73453	181419
24.74267	171193
24.75078	170573
24.75892	172728
24.76703	173274
24.77515	174675
24.78328	173104
24.79140	182340
24.79953	181516
24.80765	173048
24.81577	185853
24.82390	180574
24.83202	190192
24.84015	206442
24.84827	223323
24.85638	252775
24.86452	295667
24.87263	352796
24.88075	440713
24.88888	508875
24.89700	558777
24.90513	539775
24.91325	498993
24.92137	415001
24.92950	325532
24.93762	270633
24.94575	234902
24.95387	207610
24.96198	187330
24.97012	178410
24.97823	173434
24.98635	168498
24.99448	172321
25.00260	166948
25.01073	173979
25.01885	162721
25.02697	161126
25.03510	161063
25.04322	156692
25.05135	150937
25.05947	155745
25.06758	154343
25.07572	151025
25.08383	148455
25.09197	158253
25.10008	189577
25.10820	262265
25.11633	407298
25.12445	734867
25.13257	1219070
25.14070	1747374
25.14882	2108204
25.15695	2160314
25.16507	1894837
25.17318	1449972
25.18132	1026694
25.18943	682016
25.19757	430970
25.20568	296680
25.21380	218180
25.22193	181910
25.23005	151487
25.23818	164313
25.24630	191982
25.25442	240741
25.26255	321557
25.27067	397405
25.27878	449604
25.28692	455095
25.29503	397329
25.30317	318960
25.31128	237305
25.31940	180668
25.32753	141254
25.33565	112473
25.34378	100349
25.35190	93716
25.36002	87121
25.36815	78930
25.37627	76942
25.38438	68875
25.39252	72847
25.40063	72346
25.40877	69077
25.41688	68901
25.42500	66892
25.43313	64767
25.44125	64882
25.44938	64459
25.45750	68044
25.46562	67215
25.47375	65534
25.48187	68066
25.49000	64521
25.49812	68440
25.50623	63543
25.51437	62960
25.52248	63257
25.53060	62665
25.53873	64828
25.54685	62364
25.55498	63465
25.56310	55755
25.57122	57846
25.57935	56645
25.58747	52628
25.59560	56510
25.60372	63366
25.61183	76457
25.61997	102119
25.62808	130646
25.63622	150602
25.64433	183944
25.65245	198005
25.66058	214064
25.66870	210182
25.67682	203035
25.68495	200888
25.69307	203610
25.70120	203693
25.70932	200161
25.71743	204448
25.72557	198665
25.73368	203499
25.74182	205758
25.74993	202452
25.75805	206897
25.76618	201343
25.77430	203269
25.78242	200015
25.79055	199874
25.79867	208343
25.80680	206102
25.81492	204231
25.82303	199041
25.83117	196689
25.83928	196426
25.84742	196565
25.85553	198465
25.86365	190335
25.87178	192709
25.87990	186863
25.88803	184077
25.89615	190160
25.90427	174908
25.91240	178362
25.92052	175308
25.92863	173583
25.93677	174083
25.94488	171222
25.95302	170890
25.96113	160980
25.96925	168032
25.97738	167024
25.98550	160011
25.99363	156134
26.00175	159139
26.00987	155565
26.01800	156328
26.02612	145407
26.03423	149994
26.04237	149674
26.05048	152909
26.05862	150874
26.06673	147252
26.07485	149568
26.08298	144935
26.09110	145235
26.09923	142628
26.10735	141873
26.11547	147032
26.12360	148730
26.13172	149921
26.13985	146185
26.14797	146029
26.15608	147485
26.16422	147780
26.17233	143768
26.18045	145302
26.18858	142510
26.19670	136100
26.20483	133427
26.21295	133140
26.22107	131697
26.22920	133084
26.23732	127703
26.24545	121706
26.25357	125758
26.26168	125807
26.26982	122977
26.27793	124167
26.28607	124376
26.29418	120776
26.30230	120331
26.31043	119129
26.31855	121276
26.32667	112081
26.33480	115250
26.34292	110071
26.35105	113180
26.35917	109430
26.36728	111471
26.37542	115550
26.38353	117352
26.39167	122537
26.39978	132324
26.40790	132467
26.41603	125171
26.42415	128395
26.43227	125864
26.44040	112357
26.44852	113524
26.45665	109020
26.46477	103808
26.47288	102028
26.48102	103636
26.48913	103607
26.49727	106410
26.50538	102630
26.51350	99000
26.52163	99490
26.52975	100700
26.53788	93219
26.54600	87876
26.55412	90750
26.56225	89831
26.57037	87142
26.57848	90237
26.58662	89506
26.59473	90138
26.60287	81983
26.61098	87913
26.61910	81264
26.62723	81627
26.63535	87392
26.64348	84505
26.65160	85161
26.65972	84618
26.66785	87953
26.67597	87219
26.68410	88294
26.69222	78596
26.70033	79124
26.70847	78763
26.71658	74761
26.72470	74827
26.73283	70177
26.74095	74276
26.74908	71972
26.75720	69835
26.76532	70009
26.77345	68576
26.78157	70652
26.78970	69951
26.79782	67378
26.80593	74483
26.81407	71477
26.82218	77344
26.83030	68434
26.83843	69400
26.84655	64339
26.85468	64718
26.86280	66184
26.87092	67637
26.87905	64958
26.88717	63771
26.89530	63301
26.90342	58910
26.91153	59012
26.91967	59385
26.92778	59861
26.93592	54971
26.94403	57920
26.95215	60544
26.96028	63858
26.96840	70882
26.97652	79730
26.98465	102350
26.99277	131873
27.00090	188866
27.00902	264089
27.01713	343657
27.02527	421456
27.03338	462680
27.04152	455526
27.04963	432855
27.05775	393392
27.06588	333634
27.07400	274280
27.08213	239137
27.09025	208449
27.09837	180953
27.10650	161596
27.11462	147511
27.12273	141069
27.13087	135124
27.13898	128611
27.14712	122770
27.15523	117164
27.16335	119320
27.17148	116414
27.17960	113183
27.18773	116101
27.19585	111582
27.20397	111782
27.21210	107706
27.22022	100967
27.22833	101711
27.23647	91762
27.24458	91165
27.25272	86935
27.26083	84201
27.26895	81996
27.27708	79362
27.28520	76162
27.29333	72234
27.30145	74526
27.30957	67166
27.31770	75144
27.32582	74054
27.33395	70937
27.34207	70441
27.35018	65600
27.35832	77224
27.36643	67551
27.37455	69444
27.38268	71756
27.39080	69075
27.39893	70322
27.40705	65034
27.41517	64157
27.42330	64074
27.43142	58407
27.43955	59457
27.44767	65555
27.45578	59132
27.46392	62348
27.47203	59907
27.48015	57143
27.48828	57874
27.49640	62058
27.50453	58665
27.51265	60714
27.52077	59048
27.52890	59627
27.53702	58353
27.54515	60083
27.55327	58055
27.56138	61171
27.56952	58160
27.57763	64064
27.58577	66263
27.59388	72137
27.60200	73430
27.61013	78130
27.61825	70638
27.62637	72675
27.63450	65030
27.64262	59575
27.65075	55920
27.65887	53234
27.66698	53601
27.67512	51475
27.68323	53756
27.69137	47207
27.69948	48559
27.70760	53826
27.71573	49589
27.72385	52609
27.73198	54233
27.74010	47996
27.74822	54312
27.75635	50078
27.76447	58904
27.77258	67086
27.78072	75425
27.78883	82170
27.79697	93810
27.80508	87469
27.81320	76857
27.82133	72011
27.82945	66038
27.83758	58902
27.84570	53906
27.85382	53216
27.86195	55790
27.87007	52692
27.87818	50675
27.88632	53330
27.89443	49840
27.90257	49344
27.91068	53189
27.91880	52786
27.92693	48768
27.93505	48543
27.94318	46490
27.95130	47294
27.95942	47512
27.96755	47805
27.97567	48311
27.98380	50002
27.99192	49872
28.00003	53614
28.00817	51233
28.01628	47166
28.02440	52078
28.03253	50410
28.04065	55292
28.04878	56644
28.05690	55062
28.06502	54608
28.07315	52784
28.08127	57299
28.08940	56373
28.09752	58088
28.10563	51820
28.11377	48289
28.12188	48069
28.13002	49380
28.13813	44339
28.14625	44883
28.15438	45913
28.16250	44055
28.17062	48933
28.17875	46810
28.18687	51206
28.19500	61991
28.20312	68530
28.21123	78746
28.21937	76983
28.22748	82365
28.23562	76017
28.24373	71293
28.25185	70008
28.25998	61572
28.26810	57955
28.27622	51113
28.28435	50579
28.29247	47859
28.30060	47224
28.30872	51560
28.31683	58032
28.32497	63157
28.33308	66121
28.34122	80309
28.34933	95747
28.35745	109491
28.36558	116600
28.37370	133539
28.38183	144782
28.38995	156733
28.39807	162331
28.40620	162250
28.41432	159935
28.42243	152138
28.43057	144375
28.43868	140225
28.44682	134732
28.45493	120194
28.46305	113022
28.47118	106400
28.47930	102457
28.48743	94848
28.49555	90428
28.50367	89544
28.51180	89012
28.51992	82139
28.52803	80468
28.53617	76120
28.54428	75596
28.55242	68328
28.56053	75099
28.56865	74693
28.57678	67100
28.58490	67475
28.59303	64724
28.60115	64755
28.60927	60414
28.61740	64224
28.62552	64363
28.63365	65037
28.64177	65327
28.64988	70098
28.65802	71662
28.66613	74045
28.67425	70459
28.68238	69434
28.69050	68563
28.69863	66464
28.70675	59386
28.71487	60945
28.72300	55369
28.73112	56678
28.73925	58730
28.74737	58627
28.75548	57196
28.76362	62619
28.77173	71255
28.77987	74545
28.78798	76579
28.79610	75359
28.80423	68536
28.81235	71366
28.82047	70193
28.82860	60988
28.83672	59473
28.84485	58612
28.85297	56422
28.86108	55402
28.86922	60131
28.87733	57771
28.88547	60554
28.89358	61671
28.90170	65120
28.90983	64729
28.91795	63037
28.92607	62612
28.93420	62569
28.94232	58238
28.95045	58419
28.95857	58343
28.96668	61109
28.97482	59488
28.98293	57879
28.99107	58598
28.99918	54076
29.00730	53786
29.01543	50142
29.02355	50864
29.03168	49855
29.03980	46968
29.04792	53633
29.05605	56869
29.06417	55193
29.07228	58281
29.08042	59298
29.08853	61872
29.09667	68319
29.10478	58415
29.11290	56779
29.12103	51195
29.12915	49044
29.13728	48400
29.14540	50518
29.15352	51705
29.16165	48975
29.16977	50032
29.17790	51223
29.18602	60652
29.19413	63298
29.20227	73106
29.21038	80227
29.21850	87736
29.22663	89755
29.23475	86098
29.24288	76365
29.25100	76052
29.25912	69939
29.26725	68887
29.27537	73943
29.28350	65626
29.29162	63969
29.29973	60170
29.30787	52644
29.31598	53270
29.32410	49044
29.33223	51790
29.34035	49496
29.34848	48750
29.35660	48738
29.36472	47497
29.37285	47188
29.38097	43878
29.38910	43803
29.39722	42896
29.40533	48641
29.41347	46621
29.42158	49390
29.42972	53669
29.43783	51211
29.44595	48876
29.45408	46405
29.46220	47898
29.47032	43829
29.47845	47286
29.48657	47662
29.49470	53814
29.50282	54766
29.51093	52274
29.51907	56425
29.52718	53034
29.53532	51058
29.54343	48143
29.55155	48618
29.55968	47319
29.56780	43025
29.57592	47000
29.58405	45425
29.59217	41100
29.60030	42893
29.60842	44100
29.61653	46300
29.62467	47527
29.63278	43084
29.64092	43000
29.64903	42533
29.65715	44555
29.66528	42907
29.67340	48862
29.68153	45815
29.68965	48959
29.69777	47339
29.70590	48867
29.71402	48701
29.72213	48072
29.73027	47425
29.73838	46547
29.74652	45511
29.75463	42946
29.76275	42662
29.77088	38505
29.77900	39001
29.78713	39648
29.79525	42002
29.80337	41215
29.81150	38985
29.81962	41136
29.82775	42933
29.83587	41749
29.84398	43838
29.85212	43432
29.86023	47257
29.86835	50534
29.87648	69811
29.88460	92661
29.89273	121717
29.90085	147490
29.90897	159988
29.91710	146789
29.92522	119534
29.93335	100220
29.94147	71243
29.94958	64251
29.95772	57026
29.96583	56145
29.97397	61059
29.98208	64761
29.99020	68672
29.99833	74000
30.00645	79226
30.01457	87678
30.02270	90508
30.03082	97282
30.03895	95652
30.04707	100169
30.05518	99239
30.06332	99768
30.07143	109651
30.07957	102793
30.08768	101316
30.09580	101448
30.10393	95212
30.11205	91417
30.12017	82992
30.12830	85431
30.13642	83065
30.14455	80232
30.15267	81296
30.16078	77188
30.16892	73043
30.17703	71099
30.18517	68228
30.19328	65306
30.20140	66664
30.20953	61855
30.21765	72998
30.22578	64906
30.23390	65126
30.24202	59047
30.25015	59846
30.25827	52899
30.26638	56251
30.27452	56889
30.28263	54246
30.29077	51141
30.29888	50985
30.30700	52132
30.31513	52859
30.32325	47859
30.33138	48666
30.33950	46586
30.34762	49010
30.35575	51778
30.36387	49821
30.37198	45753
30.38012	46128
30.38823	47562
30.39637	48178
30.40448	51313
30.41260	47466
30.42073	49445
30.42885	50446
30.43698	45117
30.44510	46091
30.45322	43716
30.46135	46220
30.46947	44256
30.47760	46335
30.48572	46759
30.49383	47130
30.50197	47887
30.51008	47066
30.51820	47492
30.52633	45761
30.53445	46686
30.54258	42532
30.55070	46179
30.55882	43763
30.56695	42161
30.57507	43270
30.58320	46504
30.59132	41244
30.59943	44925
30.60757	46188
30.61568	44229
30.62382	42313
30.63193	41127
30.64005	44943
30.64818	43389
30.65630	42114
30.66442	38014
30.67255	41087
30.68067	41920
30.68880	41219
30.69692	38653
30.70503	41372
30.71317	38197
30.72128	45539
30.72942	39662
30.73753	43076
30.74565	39932
30.75378	39738
30.76190	44455
30.77002	56299
30.77815	70126
30.78627	99169
30.79440	147756
30.80252	205313
30.81063	259098
30.81877	275801
30.82688	256846
30.83502	209641
30.84313	147054
30.85125	110310
30.85938	81866
30.86750	65984
30.87563	58258
30.88375	54956
30.89187	48240
30.90000	47232
30.90812	49447
30.91623	46714
30.92437	46112
30.93248	45835
30.94062	44805
30.94873	43192
30.95685	44771
30.96498	46759
30.97310	47673
30.98123	46458
30.98935	42288
30.99747	45567
31.00560	46659
31.01372	44420
31.02185	50478
31.02997	50404
31.03808	53363
31.04622	60730
31.05433	59767
31.06245	59243
31.07058	59358
31.07870	63357
31.08683	66571
31.09495	72050
31.10307	78462
31.11120	82820
31.11932	82140
31.12745	79416
31.13557	73995
31.14368	70862
31.15182	74250
31.15993	68389
31.16805	72971
31.17618	79901
31.18430	80929
31.19243	99196
31.20055	117751
31.20867	149094
31.21680	173457
31.22492	199488
31.23305	211279
31.24117	202925
31.24928	169597
31.25742	133712
31.26553	112752
31.27367	88212
31.28178	83055
31.28990	68236
31.29803	71083
31.30615	66108
31.31427	64281
31.32240	64648
31.33052	63971
31.33865	59239
31.34677	62451
31.35488	63676
31.36302	61817
31.37113	61452
31.37927	60149
31.38738	65343
31.39550	59503
31.40363	58398
31.41175	61946
31.41987	61827
31.42800	60346
31.43612	59565
31.44425	60460
31.45237	60488
31.46048	58476
31.46862	60368
31.47673	64900
31.48487	60284
31.49298	66645
31.50110	65143
31.50923	62785
31.51735	64860
31.52548	61242
31.53360	56211
31.54172	58917
31.54985	55267
31.55797	62910
31.56608	66265
31.57422	64048
31.58233	67972
31.59047	62721
31.59858	58495
31.60670	60291
31.61483	54597
31.62295	53722
31.63108	55095
31.63920	52078
31.64732	53420
31.65545	56107
31.66357	55649
31.67170	59626
31.67982	60422
31.68793	54358
31.69607	55725
31.70418	56210
31.71230	50829
31.72043	49640
31.72855	50927
31.73668	49582
31.74480	46510
31.75292	47741
31.76105	46122
31.76917	44108
31.77730	49723
31.78542	47241
31.79353	51567
31.80167	46437
31.80978	47196
31.81790	51412
31.82603	54366
31.83415	49720
31.84228	48866
31.85040	51636
31.85852	53495
31.86665	57364
31.87477	56932
31.88290	57799
31.89102	57748
31.89913	58533
31.90727	62545
31.91538	61531
31.92352	62518
31.93163	65259
31.93975	71483
31.94788	75039
31.95600	81960
31.96412	84219
31.97225	91181
31.98037	98304
31.98850	88198
31.99662	96874
32.00473	98944
32.01287	94689
32.02098	89441
32.02912	93855
32.03723	90415
32.04535	88997
32.05348	84336
32.06160	78517
32.06973	84914
32.07785	83026
32.08597	73389
32.09410	76574
32.10222	71978
32.11033	70920
32.11847	67457
32.12658	66687
32.13472	59943
32.14283	60226
32.15095	60610
32.15908	53949
32.16720	53350
32.17533	53144
32.18345	51462
32.19157	52736
32.19970	58584
32.20782	53572
32.21593	54049
32.22407	52183
32.23218	52098
32.24032	49522
32.24843	54853
32.25655	56341
32.26468	53027
32.27280	54155
32.28093	56828
32.28905	57733
32.29717	54119
32.30530	50639
32.31342	55197
32.32155	52427
32.32967	48821
32.33778	49804
32.34592	48935
32.35403	46509
32.36215	49609
32.37028	50209
32.37840	51752
32.38653	47345
32.39465	49188
32.40277	49384
32.41090	48521
32.41902	46031
32.42715	49193
32.43527	46194
32.44338	46616
32.45152	47613
32.45963	44196
32.46777	42610
32.47588	47852
32.48400	43036
32.49213	48396
32.50025	46907
32.50837	46273
32.51650	44280
32.52462	45305
32.53275	43773
32.54087	43386
32.54898	46298
32.55712	44884
32.56523	50882
32.57337	48318
32.58148	44998
32.58960	46609
32.59773	41673
32.60585	40756
32.61397	43077
32.62210	43807
32.63022	44685
32.63835	43839
32.64647	44778
32.65458	50109
32.66272	48001
32.67083	54070
32.67897	56165
32.68708	56437
32.69520	54635
32.70333	52328
32.71145	52063
32.71958	49211
32.72770	50165
32.73582	50261
32.74395	48344
32.75207	48216
32.76018	44116
32.76832	45017
32.77643	41976
32.78457	45480
32.79268	41383
32.80080	41501
32.80893	42150
32.81705	46520
32.82518	40399
32.83330	45882
32.84142	39297
32.84955	42753
32.85767	40638
32.86578	40089
32.87392	40238
32.88203	38950
32.89017	42443
32.89828	43954
32.90640	43156
32.91453	43014
32.92265	44593
32.93078	43941
32.93890	40042
32.94702	38840
32.95515	42875
32.96327	49468
32.97140	51460
32.97952	60313
32.98763	72564
32.99577	86419
33.00388	105061
33.01200	109866
33.02013	105835
33.02825	96362
33.03638	79208
33.04450	64860
33.05262	62488
33.06075	58271
33.06887	58430
33.07700	53663
33.08512	59805
33.09323	57649
33.10137	69976
33.10948	69848
33.11762	73996
33.12573	75178
33.13385	77390
33.14198	73230
33.15010	65763
33.15822	56434
33.16635	55708
33.17447	52699
33.18260	53173
33.19072	47470
33.19883	45848
33.20697	46072
33.21508	49546
33.22322	47459
33.23133	49107
33.23945	46393
33.24758	47129
33.25570	49126
33.26382	47323
33.27195	43886
33.28007	41996
33.28820	46623
33.29632	52007
33.30443	46273
33.31257	43422
33.32068	45475
33.32882	43636
33.33693	45193
33.34505	46446
33.35318	50135
33.36130	44386
33.36943	46101
33.37755	53027
33.38567	46477
33.39380	43917
33.40192	45659
33.41003	44190
33.41817	41141
33.42628	41750
33.43442	40831
33.44253	42412
33.45065	40536
33.45878	41775
33.46690	43238
33.47503	41486
33.48315	43391
33.49127	45474
33.49940	45929
33.50752	49487
33.51565	46415
33.52377	46945
33.53188	46662
33.54002	43239
33.54813	51035
33.55625	52365
33.56438	50312
33.57250	48888
33.58063	48419
33.58875	49242
33.59687	44207
33.60500	46503
33.61312	42715
33.62125	44144
33.62937	44149
33.63748	43563
33.64562	42737
33.65373	45716
33.66185	46332
33.66998	46753
33.67810	43670
33.68623	44755
33.69435	46329
33.70247	44606
33.71060	43970
33.71872	43300
33.72685	43855
33.73497	44822
33.74308	44887
33.75122	41084
33.75933	43231
33.76747	38701
33.77558	41838
33.78370	41266
33.79183	47706
33.79995	39969
33.80807	44592
33.81620	41543
33.82432	41678
33.83245	44458
33.84057	48769
33.84868	42920
33.85682	48128
33.86493	42071
33.87307	48294
33.88118	43952
33.88930	50574
33.89743	46355
33.90555	44713
33.91367	43665
33.92180	42445
33.92992	44961
33.93805	43726
33.94617	45661
33.95428	47674
33.96242	45100
33.97053	47522
33.97867	42713
33.98678	42157
33.99490	43911
34.00303	42360
34.01115	45891
34.01928	44687
34.02740	45459
34.03552	44097
34.04365	40980
34.05177	42483
34.05988	40017
34.06802	45253
34.07613	44210
34.08427	43177
34.09238	40772
34.10050	45222
34.10863	46646
34.11675	44950
34.12488	43755
34.13300	46183
34.14112	41990
34.14925	44249
34.15737	44898
34.16550	40798
34.17362	42084
34.18173	44788
34.18987	39540
34.19798	42172
34.20610	42772
34.21423	43005
34.22235	46215
34.23048	44696
34.23860	43462
34.24672	40511
34.25485	44587
34.26297	46855
34.27110	43446
34.27922	40439
34.28733	44769
34.29547	43498
34.30358	42983
34.31170	41387
34.31983	40242
34.32795	44460
34.33608	44038
34.34420	45504
34.35232	43945
34.36045	43481
34.36857	45095
34.37670	44213
34.38482	44288
34.39293	41818
34.40107	46078
34.40918	41073
34.41732	44808
34.42543	43441
34.43355	43953
34.44168	40735
34.44980	40718
34.45792	42575
34.46605	40143
34.47417	41573
34.48230	40640
34.49042	42191
34.49853	42923
34.50667	46498
34.51478	47252
34.52292	52832
34.53103	57740
34.53915	68161
34.54728	76020
34.55540	78584
34.56353	84149
34.57165	82269
34.57977	81472
34.58790	79892
34.59602	72704
34.60413	71790
34.61227	69515
34.62038	65421
34.62852	63806
34.63663	62669
34.64475	65194
34.65288	59130
34.66100	55281
34.66913	57785
34.67725	58294
34.68537	58742
34.69350	54998
34.70162	49603
34.70973	52608
34.71787	56184
34.72598	46523
34.73412	48870
34.74223	48211
34.75035	54811
34.75848	52346
34.76660	45150
34.77473	47558
34.78285	49586
34.79097	51228
34.79910	51791
34.80722	44706
34.81535	46600
34.82347	46569
34.83158	49749
34.83972	47332
34.84783	46385
34.85595	46798
34.86408	49598
34.87220	45596
34.88033	46164
34.88845	45588
34.89657	45121
34.90470	46165
34.91282	47532
34.92095	45001
34.92907	49120
34.93718	49279
34.94532	50702
34.95343	54085
34.96155	53056
34.96968	55093
34.97780	54133
34.98593	55080
34.99405	54713
35.00217	50093
35.01030	53450
35.01842	47889
35.02655	46464
35.03467	48509
35.04278	44783
35.05092	46886
35.05903	48333
35.06717	47629
35.07528	49186
35.08340	51483
35.09153	42660
35.09965	51185
35.10777	42306
35.11590	49977
35.12402	47685
35.13215	51430
35.14027	48576
35.14838	47440
35.15652	48749
35.16463	51199
35.17277	49514
35.18088	52119
35.18900	53205
35.19713	46636
35.20525	43969
35.21338	45908
35.22150	44717
35.22962	44219
35.23775	48929
35.24587	45760
35.25398	43483
35.26212	46371
35.27023	49484
35.27837	47746
35.28648	48071
35.29460	49371
35.30273	46622
35.31085	47425
35.31898	45933
35.32710	48521
35.33522	48878
35.34335	43858
35.35147	46666
35.35960	43055
35.36772	48210
35.37583	52070
35.38397	46152
35.39208	45248
35.40020	46003
35.40833	46536
35.41645	48867
35.42458	47301
35.43270	45468
35.44082	48282
35.44895	46910
35.45707	49621
35.46520	52155
35.47332	54465
35.48143	49328
35.48957	54162
35.49768	53716
35.50580	51064
35.51393	48403
35.52205	48251
35.53018	46425
35.53830	44224
35.54642	45835
35.55455	48235
35.56267	46948
35.57080	46459
35.57892	47728
35.58703	46521
35.59517	47675
35.60328	46492
35.61142	46447
35.61953	49766
35.62765	47304
35.63578	47376
35.64390	47862
35.65202	47661
35.66015	47401
35.66827	44515
35.67640	48547
35.68452	54937
35.69263	58319
35.70077	49482
35.70888	52525
35.71702	47787
35.72513	47498
35.73325	50371
35.74138	53475
35.74950	51359
35.75762	54338
35.76575	50276
35.77387	54745
35.78200	55379
35.79012	50797
35.79823	48727
35.80637	47073
35.81448	47639
35.82262	46363
35.83073	45714
35.83885	46166
35.84698	50089
35.85510	44997
35.86323	46605
35.87135	51829
35.87947	46226
35.88760	47637
35.89572	45035
35.90383	46132
35.91197	48402
35.92008	48241
35.92822	42061
35.93633	44234
35.94445	44455
35.95258	44128
35.96070	48994
35.96883	45626
35.97695	46046
35.98507	48545
35.99320	49398
36.00132	50143
36.00945	55813
36.01757	53165
36.02568	54920
36.03382	54499
36.04193	50382
36.05005	50250
36.05818	54661
36.06630	50510
36.07443	50478
36.08255	45330
36.09067	51562
36.09880	49599
36.10692	48263
36.11505	49322
36.12317	54708
36.13128	47554
36.13942	48540
36.14753	49527
36.15565	50989
36.16378	50330
36.17190	53295
36.18003	53494
36.18815	46719
36.19627	52108
36.20440	51680
36.21252	48288
36.22065	45117
36.22877	46812
36.23688	46847
36.24502	48319
36.25313	46574
36.26127	48156
36.26938	43631
36.27750	50996
36.28563	47804
36.29375	49960
36.30187	58878
36.31000	53830
36.31812	55543
36.32625	57238
36.33437	54953
36.34248	54651
36.35062	49664
36.35873	52516
36.36687	49843
36.37498	49956
36.38310	49119
36.39123	51429
36.39935	51907
36.40748	47878
36.41560	49128
36.42372	58279
36.43185	51889
36.43997	49925
36.44808	52590
36.45622	54600
36.46433	52218
36.47247	46699
36.48058	50228
36.48870	49796
36.49683	48807
36.50495	49087
36.51308	49840
36.52120	48384
36.52932	49019
36.53745	47461
36.54557	48655
36.55368	48982
36.56182	49179
36.56993	45544
36.57807	49549
36.58618	49446
36.59430	48219
36.60243	48943
36.61055	53160
36.61868	52655
36.62680	49186
36.63492	52092
36.64305	51710
36.65117	51744
36.65930	50178
36.66742	50455
36.67553	51712
36.68367	56625
36.69178	49425
36.69990	52049
36.70803	52571
36.71615	55392
36.72428	51648
36.73240	54416
36.74052	51603
36.74865	52700
36.75677	54429
36.76490	52855
36.77302	57147
36.78113	53826
36.78927	47403
36.79738	55098
36.80550	54703
36.81363	57334
36.82175	55208
36.82988	56255
36.83800	55704
36.84612	52571
36.85425	58487
36.86237	53433
36.87050	52636
36.87862	49367
36.88673	52895
36.89487	51994
36.90298	52649
36.91112	54936
36.91923	54054
36.92735	52353
36.93548	53542
36.94360	57774
36.95172	67826
36.95985	74738
36.96797	81786
36.97610	80851
36.98422	79550
36.99233	72348
37.00047	67533
37.00858	64948
37.01672	59790
37.02483	64738
37.03295	57144
37.04108	57770
37.04920	58187
37.05733	59228
37.06545	57581
37.07357	51572
37.08170	58963
37.08982	52980
37.09793	56381
37.10607	57040
37.11418	61403
37.12232	57870
37.13043	56037
37.13855	52535
37.14668	56336
37.15480	53497
37.16293	51724
37.17105	57584
37.17917	59243
37.18730	54606
37.19542	55274
37.20353	58071
37.21167	56086
37.21978	56469
37.22792	55844
37.23603	58560
37.24415	55642
37.25228	59922
37.26040	53644
37.26853	51876
37.27665	55568
37.28477	57030
37.29290	53777
37.30102	56130
37.30915	56492
37.31727	58961
37.32538	58137
37.33352	61564
37.34163	69178
37.34975	75351
37.35788	78020
37.36600	79704
37.37413	82365
37.38225	84921
37.39037	77014
37.39850	75998
37.40662	74814
37.41475	79057
37.42287	73048
37.43098	65688
37.43912	70743
37.44723	68776
37.45537	69139
37.46348	64979
37.47160	67244
37.47973	68012
37.48785	66872
