Z:\data\JTB-E02\BACandBLUE\JTB-E02-200-16.D Thu Feb 28 14:59:08 2019
Start of data points
2.09537,73799
2.10350,67854
2.11162,68242
2.11973,69059
2.12787,67216
2.13598,69185
2.14412,67856
2.15223,65184
2.16035,66660
2.16848,67310
2.17660,64099
2.18473,62597
2.19285,64858
2.20097,66395
2.20910,60954
2.21722,58140
2.22535,60010
2.23347,57422
2.24158,61299
2.24972,59226
2.25783,64765
2.26595,272559
2.27408,982379
2.28220,1338882
2.29033,842490
2.29845,460939
2.30657,344874
2.31470,305927
2.32282,269636
2.33095,245505
2.33907,225938
2.34718,212273
2.35532,187407
2.36343,177382
2.37155,168517
2.37968,163357
2.38780,153121
2.39593,152242
2.40405,172736
2.41217,175514
2.42030,238938
2.42842,233166
2.43655,165612
2.44467,147696
2.45278,137583
2.46092,136749
2.46903,127539
2.47717,126522
2.48528,118882
2.49340,127658
2.50153,123842
2.50965,119374
2.51777,117318
2.52590,113830
2.53402,119214
2.54215,115395
2.55027,132754
2.55838,213687
2.56652,268397
2.57463,213850
2.58277,166311
2.59088,152390
2.59900,152145
2.60713,211398
2.61525,323337
2.62338,287243
2.63150,219588
2.63962,182005
2.64775,165971
2.65587,154789
2.66398,140553
2.67212,135681
2.68023,140005
2.68837,124575
2.69648,127158
2.70460,124262
2.71273,126267
2.72085,115259
2.72898,115844
2.73710,116042
2.74522,112682
2.75335,114345
2.76147,112734
2.76958,133122
2.77772,404130
2.78583,1143360
2.79397,1448544
2.80208,922833
2.81020,626699
2.81833,513518
2.82645,437140
2.83458,389437
2.84270,337673
2.85082,289727
2.85895,274631
2.86707,272096
2.87520,251878
2.88332,226877
2.89143,239366
2.89957,224187
2.90768,201264
2.91580,172634
2.92393,164860
2.93205,153477
2.94018,153340
2.94830,141283
2.95642,140969
2.96455,133231
2.97267,130741
2.98080,129237
2.98892,127386
2.99703,155300
3.00517,272856
3.01328,373048
3.02142,299735
3.02953,209998
3.03765,163227
3.04578,157497
3.05390,163738
3.06202,184204
3.07015,183742
3.07827,235213
3.08640,624906
3.09452,1590944
3.10263,3260786
3.11077,5664884
3.11888,5926287
3.12702,4108073
3.13513,2823928
3.14325,2194782
3.15138,1732065
3.15950,1453986
3.16762,1249943
3.17575,1141429
3.18387,1204170
3.19200,1703676
3.20012,2136942
3.20823,1787731
3.21637,1325383
3.22448,1066608
3.23262,927816
3.24073,808087
3.24885,723391
3.25698,645157
3.26510,595756
3.27323,546262
3.28135,537618
3.28947,732641
3.29760,1810101
3.30572,4443439
3.31383,6971076
3.32197,7035585
3.33008,5272938
3.33822,3678405
3.34633,2714439
3.35445,2168069
3.36258,1837264
3.37070,1598811
3.37883,1460767
3.38695,1372732
3.39507,1276002
3.40320,1241737
3.41132,1163097
3.41943,1089046
3.42757,1011531
3.43568,918809
3.44382,841179
3.45193,786563
3.46005,747870
3.46818,750617
3.47630,757793
3.48443,731881
3.49255,735760
3.50067,742120
3.50880,714977
3.51692,677420
3.52505,674451
3.53317,703931
3.54128,660793
3.54942,603454
3.55753,534429
3.56565,491498
3.57378,458182
3.58190,431264
3.59003,413905
3.59815,404913
3.60627,390423
3.61440,392884
3.62252,411620
3.63065,429043
3.63877,455523
3.64688,450280
3.65502,471608
3.66313,1315161
3.67127,5664273
3.67938,1.390324E+07
3.68750,1.789241E+07
3.69563,1.389542E+07
3.70375,8385128
3.71187,5705384
3.72000,4539157
3.72812,3761194
3.73625,3232200
3.74437,2868972
3.75248,2532679
3.76062,2278686
3.76873,2063328
3.77687,1884398
3.78498,1818184
3.79310,1836007
3.80123,2035099
3.80935,2901169
3.81747,4365983
3.82560,4832663
3.83372,3809619
3.84185,2772546
3.84997,2204197
3.85808,1907358
3.86622,1707548
3.87433,1556049
3.88247,1471834
3.89058,1330358
3.89870,1297232
3.90683,1229566
3.91495,1198273
3.92308,1276237
3.93120,1383451
3.93932,1397385
3.94745,1364247
3.95557,1731697
3.96368,2735128
3.97182,3478372
3.97993,3131924
3.98807,2219635
3.99618,1784747
4.00430,2267265
4.01243,3699651
4.02055,4732747
4.02868,4137733
4.03680,2788174
4.04492,1925848
4.05305,1483043
4.06117,1262471
4.06930,1112103
4.07742,988525
4.08553,893577
4.09367,856536
4.10178,799344
4.10990,792455
4.11803,782259
4.12615,771803
4.13428,787504
4.14240,951328
4.15052,1334106
4.15865,1613234
4.16677,1511214
4.17490,1282788
4.18302,1101456
4.19113,945309
4.19927,822596
4.20738,898706
4.21550,1913987
4.22363,5499533
4.23175,1.158431E+07
4.23988,1.626723E+07
4.24800,1.667069E+07
4.25612,1.275307E+07
4.26425,8323830
4.27237,5809653
4.28050,4437534
4.28862,3472705
4.29673,2794051
4.30487,2305219
4.31298,1965438
4.32112,1688059
4.32923,1475246
4.33735,1328590
4.34548,1205070
4.35360,1121183
4.36172,1117277
4.36985,1108364
4.37797,1047499
4.38610,963233
4.39422,869905
4.40233,786842
4.41047,757004
4.41858,723896
4.42672,670761
4.43483,656058
4.44295,624072
4.45108,613719
4.45920,578604
4.46732,581442
4.47545,548501
4.48357,549291
4.49170,544839
4.49982,552217
4.50793,556320
4.51607,557359
4.52418,540562
4.53232,529371
4.54043,517780
4.54855,501975
4.55668,510482
4.56480,500362
4.57293,469272
4.58105,447242
4.58917,442241
4.59730,426842
4.60542,421437
4.61353,421832
4.62167,447265
4.62978,544412
4.63792,720696
4.64603,915004
4.65415,901833
4.66228,775496
4.67040,640812
4.67853,564085
4.68665,510484
4.69477,476891
4.70290,438477
4.71102,391101
4.71915,378857
4.72727,364933
4.73538,352430
4.74352,339686
4.75163,339288
4.75975,327194
4.76788,336616
4.77600,326063
4.78413,337023
4.79225,449418
4.80037,701710
4.80850,1072083
4.81662,1189133
4.82475,1022128
4.83287,803806
4.84098,696588
4.84912,675739
4.85723,632310
4.86535,574334
4.87348,503353
4.88160,469194
4.88973,444691
4.89785,430913
4.90597,423227
4.91410,382182
4.92222,362096
4.93035,362189
4.93847,412441
4.94658,636895
4.95472,1206555
4.96283,2094771
4.97097,2810366
4.97908,2928061
4.98720,2489804
4.99533,1891283
5.00345,1457754
5.01157,1168855
5.01970,987387
5.02782,927384
5.03595,945468
5.04407,997207
5.05218,979296
5.06032,896494
5.06843,801860
5.07657,713159
5.08468,656621
5.09280,617642
5.10093,587164
5.10905,551124
5.11718,536966
5.12530,525305
5.13342,518004
5.14155,499032
5.14967,507388
5.15778,566125
5.16592,632028
5.17403,714260
5.18217,709336
5.19028,691770
5.19840,698912
5.20653,698149
5.21465,700718
5.22278,658513
5.23090,593829
5.23902,534376
5.24715,495621
5.25527,478133
5.26338,436801
5.27152,406194
5.27963,380815
5.28777,363623
5.29588,364793
5.30400,345449
5.31213,348670
5.32025,340981
5.32838,369861
5.33650,401325
5.34462,438064
5.35275,448819
5.36087,424202
5.36900,403464
5.37712,397201
5.38523,384108
5.39337,385387
5.40148,393155
5.40960,393445
5.41773,377511
5.42585,344705
5.43398,317629
5.44210,320961
5.45022,322039
5.45835,354110
5.46647,376897
5.47460,375218
5.48272,350030
5.49083,323610
5.49897,307052
5.50708,300987
5.51522,310765
5.52333,322504
5.53145,336944
5.53958,322585
5.54770,313301
5.55582,320167
5.56395,393859
5.57207,522053
5.58020,634325
5.58832,636235
5.59643,560374
5.60457,450968
5.61268,384225
5.62082,347729
5.62893,329169
5.63705,313387
5.64518,316319
5.65330,298078
5.66142,284989
5.66955,277925
5.67767,291632
5.68580,325466
5.69392,381011
5.70203,422511
5.71017,418481
5.71828,387722
5.72642,343101
5.73453,315653
5.74265,299003
5.75078,271298
5.75890,274952
5.76703,262285
5.77515,253169
5.78327,251951
5.79140,253761
5.79952,259916
5.80763,248313
5.81577,258800
5.82388,241703
5.83202,236068
5.84013,244049
5.84825,238343
5.85638,240568
5.86450,233731
5.87263,238493
5.88075,222057
5.88887,210564
5.89700,225018
5.90512,230062
5.91323,217863
5.92137,218812
5.92948,217544
5.93762,214642
5.94573,203362
5.95385,224941
5.96198,269437
5.97010,406192
5.97823,661927
5.98635,947910
5.99447,1091074
6.00260,1004445
6.01072,776758
6.01885,566644
6.02697,438995
6.03508,350372
6.04322,321561
6.05133,289590
6.05945,273408
6.06758,258880
6.07570,263504
6.08383,248357
6.09195,241158
6.10007,225160
6.10820,222064
6.11632,216296
6.12445,231125
6.13257,293643
6.14068,420151
6.14882,571535
6.15693,626624
6.16507,562925
6.17318,465803
6.18130,382854
6.18943,327921
6.19755,304445
6.20567,284064
6.21380,266778
6.22192,260808
6.23005,248867
6.23817,244303
6.24628,245301
6.25442,250756
6.26253,268861
6.27067,280265
6.27878,272481
6.28690,257931
6.29503,250374
6.30315,236618
6.31127,227598
6.31940,246243
6.32752,262842
6.33565,307503
6.34377,348348
6.35188,351877
6.36002,328015
6.36813,288167
6.37627,274824
6.38438,258974
6.39250,251945
6.40063,251789
6.40875,248984
6.41688,239996
6.42500,249364
6.43312,236880
6.44125,239099
6.44937,231467
6.45748,257104
6.46562,260223
6.47373,251648
6.48187,244483
6.48998,243162
6.49810,249748
6.50623,241197
6.51435,249702
6.52248,241306
6.53060,248224
6.53872,250399
6.54685,253175
6.55497,253404
6.56310,258057
6.57122,298082
6.57933,394432
6.58747,460416
6.59558,466759
6.60370,422769
6.61183,349479
6.61995,301335
6.62808,287116
6.63620,275887
6.64432,298509
6.65245,415139
6.66057,807065
6.66870,1512258
6.67682,2220994
6.68493,2304022
6.69307,1747636
6.70118,1143496
6.70930,778236
6.71743,618220
6.72555,537480
6.73368,478916
6.74180,440508
6.74992,410832
6.75805,375245
6.76617,367927
6.77430,364564
6.78242,335649
6.79053,302511
6.79867,282833
6.80678,266400
6.81492,258007
6.82303,248766
6.83115,237376
6.83928,233748
6.84740,233414
6.85552,226141
6.86365,225372
6.87177,215502
6.87990,194224
6.88802,178310
6.89613,170521
6.90427,159095
6.91238,156358
6.92052,154356
6.92863,152751
6.93675,144096
6.94488,145300
6.95300,148622
6.96112,156403
6.96925,176421
6.97737,208584
6.98550,234538
6.99362,233269
7.00173,215639
7.00987,188299
7.01798,164623
7.02612,148541
7.03423,138160
7.04235,147638
7.05048,158964
7.05860,174183
7.06673,177454
7.07485,188389
7.08297,168907
7.09110,166703
7.09922,158322
7.10733,161605
7.11547,168156
7.12358,170829
7.13172,169556
7.13983,168813
7.14795,172602
7.15608,205446
7.16420,257805
7.17233,282457
7.18045,292017
7.18857,243572
7.19670,201620
7.20482,169737
7.21295,166952
7.22107,207758
7.22918,421039
7.23732,991343
7.24543,1895988
7.25355,2698611
7.26168,2753330
7.26980,2066450
7.27793,1257484
7.28605,768946
7.29417,522463
7.30230,396436
7.31042,285956
7.31855,225015
7.32667,175720
7.33478,159443
7.34292,150465
7.35103,146861
7.35917,136993
7.36728,139349
7.37540,134067
7.38353,130355
7.39165,134710
7.39977,135688
7.40790,129041
7.41602,117839
7.42415,122705
7.43227,122785
7.44038,123427
7.44852,131080
7.45663,126574
7.46477,128029
7.47288,123935
7.48100,127982
7.48913,115319
7.49725,113015
7.50537,115291
7.51350,151010
7.52162,236407
7.52975,397343
7.53787,664092
7.54598,974949
7.55412,1250162
7.56223,1346797
7.57037,1217444
7.57848,934173
7.58660,688645
7.59473,461400
7.60285,327528
7.61098,252741
7.61910,216371
7.62722,179539
7.63535,166756
7.64347,151480
7.65158,140352
7.65972,135342
7.66783,124972
7.67597,117370
7.68408,129048
7.69220,120337
7.70033,115637
7.70845,115597
7.71658,122310
7.72470,113318
7.73282,107488
7.74095,103929
7.74907,96036
7.75718,101831
7.76532,93419
7.77343,99664
7.78157,100450
7.78968,110411
7.79780,125871
7.80593,136953
7.81405,153331
7.82218,154797
7.83030,141369
7.83842,135225
7.84655,119464
7.85467,115720
7.86280,127360
7.87092,127598
7.87903,140634
7.88717,152027
7.89528,148431
7.90340,142535
7.91153,130617
7.91965,122564
7.92778,143406
7.93590,210808
7.94402,311623
7.95215,398024
7.96027,420446
7.96840,372095
7.97652,286449
7.98463,209646
7.99277,154330
8.00088,133131
8.00902,119899
8.01713,114349
8.02525,106539
8.03338,99538
8.04150,99575
8.04962,99441
8.05775,99050
8.06587,105594
8.07400,95104
8.08212,90700
8.09023,88630
8.09837,95741
8.10648,86758
8.11462,96688
8.12273,104436
8.13085,105513
8.13898,119237
8.14710,129209
8.15522,143712
8.16335,150282
8.17147,138609
8.17960,119340
8.18772,105634
8.19583,100709
8.20397,90755
8.21208,86936
8.22022,83158
8.22833,89617
8.23645,87798
8.24458,86165
8.25270,82719
8.26083,78357
8.26895,82144
8.27707,77055
8.28520,84275
8.29332,82508
8.30143,91449
8.30957,103508
8.31768,121849
8.32582,126068
8.33393,122372
8.34205,104278
8.35018,90243
8.35830,81790
8.36643,81871
8.37455,75588
8.38267,88256
8.39080,93068
8.39892,90931
8.40705,86575
8.41517,79624
8.42328,78320
8.43142,76016
8.43953,74654
8.44765,72499
8.45578,74304
8.46390,73144
8.47203,75529
8.48015,76144
8.48827,72564
8.49640,73172
8.50452,86310
8.51265,69905
8.52077,79831
8.52888,85013
8.53702,132673
8.54513,264297
8.55325,479011
8.56138,694251
8.56950,789163
8.57763,709804
8.58575,488864
8.59387,307717
8.60200,195582
8.61012,142818
8.61825,121913
8.62637,108515
8.63448,110243
8.64262,102687
8.65073,93569
8.65887,92610
8.66698,92717
8.67510,97221
8.68323,95631
8.69135,104092
8.69947,101813
8.70760,98642
8.71572,92882
8.72385,90042
8.73197,85945
8.74008,78958
8.74822,75434
8.75633,88344
8.76447,110553
8.77258,167725
8.78070,295783
8.78883,467428
8.79695,617914
8.80507,654958
8.81320,581455
8.82132,453343
8.82945,343837
8.83757,263116
8.84568,216493
8.85382,211320
8.86193,217308
8.87007,207471
8.87818,210846
8.88630,197778
8.89443,190703
8.90255,183542
8.91068,183173
8.91880,165982
8.92692,174125
8.93505,167163
8.94317,180182
8.95128,193315
8.95942,214835
8.96753,214946
8.97567,206996
8.98378,190264
8.99190,191513
9.00003,184353
9.00815,170900
9.01628,155009
9.02440,145279
9.03252,134267
9.04065,127818
9.04877,131101
9.05690,120798
9.06502,122632
9.07313,121060
9.08127,123661
9.08938,124625
9.09750,134049
9.10563,147403
9.11375,177365
9.12188,194435
9.13000,193673
9.13812,177536
9.14625,159863
9.15437,142480
9.16250,129554
9.17062,124868
9.17873,122777
9.18687,110318
9.19498,110060
9.20310,107849
9.21123,108069
9.21935,101961
9.22748,108618
9.23560,110382
9.24372,114626
9.25185,113459
9.25997,110467
9.26810,106142
9.27622,101435
9.28433,105717
9.29247,96231
9.30058,96517
9.30872,98549
9.31683,93944
9.32495,95725
9.33308,97791
9.34120,95362
9.34932,89032
9.35745,91277
9.36557,94675
9.37370,90466
9.38182,98347
9.38993,98110
9.39807,107129
9.40618,109345
9.41432,117041
9.42243,125589
9.43055,152835
9.43868,169038
9.44680,177577
9.45493,165664
9.46305,134938
9.47117,125824
9.47930,103127
9.48742,96049
9.49553,92938
9.50367,97410
9.51178,116847
9.51992,148421
9.52803,174230
9.53615,182227
9.54428,164793
9.55240,142165
9.56053,122259
9.56865,108993
9.57677,101659
9.58490,89938
9.59302,80863
9.60113,75799
9.60927,71668
9.61738,67538
9.62552,66004
9.63363,62078
9.64175,74668
9.64988,65307
9.65800,65035
9.66613,59789
9.67425,61502
9.68237,60495
9.69050,61725
9.69862,59053
9.70675,62236
9.71487,58690
9.72298,58120
9.73112,58354
9.73923,55702
9.74735,62757
9.75548,58382
9.76360,57703
9.77173,54370
9.77985,54228
9.78797,52724
9.79610,51356
9.80422,53485
9.81235,50949
9.82047,61927
9.82858,57647
9.83672,52409
9.84483,59746
9.85295,58027
9.86108,60503
9.86920,62574
9.87733,67541
9.88545,67360
9.89357,66181
9.90170,59375
9.90982,61456
9.91795,59303
9.92607,67859
9.93418,84979
9.94232,109130
9.95043,134211
9.95857,162239
9.96668,161669
9.97480,165414
9.98293,131059
9.99105,116442
9.99917,94653
10.00730,87608
10.01542,90621
10.02355,82710
10.03167,82925
10.03978,74179
10.04792,68645
10.05603,69833
10.06417,66840
10.07228,68443
10.08040,70486
10.08853,72161
10.09665,79944
10.10478,78476
10.11290,81733
10.12102,76564
10.12915,72629
10.13727,66615
10.14538,63070
10.15352,58746
10.16163,59999
10.16977,63573
10.17788,58824
10.18600,59457
10.19413,58392
10.20225,59267
10.21038,59304
10.21850,59265
10.22662,63514
10.23475,65320
10.24287,63678
10.25098,75449
10.25912,76713
10.26723,117016
10.27537,215843
10.28348,510639
10.29160,1152735
10.29973,2183958
10.30785,3471803
10.31598,4945592
10.32410,7260499
10.33222,1.107052E+07
10.34035,1.588197E+07
10.34847,2.046302E+07
10.35660,2.164175E+07
10.36472,1.83289E+07
10.37283,1.183863E+07
10.38097,6105474
10.38908,2987007
10.39720,1663621
10.40533,1081368
10.41345,761162
10.42158,611454
10.42970,509298
10.43782,438897
10.44595,397734
10.45407,373390
10.46220,370280
10.47032,357479
10.47843,322331
10.48657,311859
10.49468,289365
10.50282,274847
10.51093,256139
10.51905,241420
10.52718,231118
10.53530,211817
10.54342,223803
10.55155,205145
10.55967,194915
10.56780,192832
10.57592,186856
10.58403,180473
10.59217,173835
10.60028,171377
10.60842,159560
10.61653,149795
10.62465,150060
10.63278,145253
10.64090,144643
10.64902,137546
10.65715,131682
10.66527,123054
10.67340,136082
10.68152,141630
10.68963,138888
10.69777,132704
10.70588,141142
10.71402,129613
10.72213,125979
10.73025,136566
10.73838,126401
10.74650,120313
10.75463,115895
10.76275,110890
10.77087,113362
10.77900,106144
10.78712,108299
10.79523,99815
10.80337,104132
10.81148,106083
10.81962,110682
10.82773,107674
10.83585,100512
10.84398,99593
10.85210,93455
10.86023,92486
10.86835,87346
10.87647,82976
10.88460,82870
10.89272,81865
10.90085,81649
10.90897,86913
10.91708,77438
10.92522,76995
10.93333,79253
10.94145,78793
10.94958,74539
10.95770,76198
10.96583,80443
10.97395,77166
10.98207,79249
10.99020,78966
10.99832,75775
11.00645,79800
11.01457,79733
11.02268,74408
11.03082,71546
11.03893,69942
11.04705,68891
11.05518,66526
11.06330,75008
11.07143,73557
11.07955,81171
11.08767,76005
11.09580,88940
11.10392,80372
11.11205,74332
11.12017,71301
11.12828,69513
11.13642,60990
11.14453,64948
11.15267,59923
11.16078,60935
11.16890,59636
11.17703,62174
11.18515,75898
11.19327,70582
11.20140,69692
11.20952,69087
11.21765,68330
11.22577,55326
11.23388,55881
11.24202,56343
11.25013,52164
11.25827,51075
11.26638,59400
11.27450,59000
11.28263,56066
11.29075,57542
11.29887,66285
11.30700,96537
11.31512,160266
11.32325,288914
11.33137,461644
11.33948,681944
11.34762,819688
11.35573,814451
11.36387,700914
11.37198,505237
11.38010,347156
11.38823,236914
11.39635,176233
11.40448,146315
11.41260,147791
11.42072,145141
11.42885,135151
11.43697,135467
11.44508,129747
11.45322,110108
11.46133,115164
11.46947,104512
11.47758,106317
11.48570,125395
11.49383,154878
11.50195,180995
11.51008,201127
11.51820,205408
11.52632,183018
11.53445,149991
11.54257,141682
11.55070,123849
11.55882,129920
11.56693,126543
11.57507,113179
11.58318,103378
11.59130,100423
11.59943,95372
11.60755,111500
11.61568,143654
11.62380,178821
11.63192,200185
11.64005,214110
11.64817,183231
11.65630,147848
11.66442,115557
11.67253,96568
11.68067,90039
11.68878,86606
11.69690,84929
11.70503,92625
11.71315,92134
11.72128,81934
11.72940,79404
11.73752,82076
11.74565,72719
11.75377,76006
11.76190,75724
11.77002,68433
11.77813,70110
11.78627,71139
11.79438,69557
11.80252,60867
11.81063,62316
11.81875,60664
11.82688,62310
11.83500,62618
11.84312,64225
11.85125,64859
11.85937,62776
11.86750,62951
11.87562,55614
11.88373,54420
11.89187,52084
11.89998,56899
11.90812,56496
11.91623,54051
11.92435,57719
11.93248,59791
11.94060,63126
11.94873,67057
11.95685,61893
11.96497,58460
11.97310,55807
11.98122,51953
11.98933,57312
11.99747,57536
12.00558,66709
12.01372,78299
12.02183,86730
12.02995,99614
12.03808,86940
12.04620,82403
12.05433,67752
12.06245,60790
12.07057,60728
12.07870,60958
12.08682,58669
12.09493,61535
12.10307,72854
12.11118,100823
12.11932,138398
12.12743,189196
12.13555,232252
12.14368,233226
12.15180,220447
12.15993,174863
12.16805,125566
12.17617,88814
12.18430,74425
12.19242,72048
12.20055,67570
12.20867,73765
12.21678,70633
12.22492,81098
12.23303,72097
12.24115,70984
12.24928,69966
12.25740,73786
12.26553,69252
12.27365,71430
12.28177,64402
12.28990,68564
12.29802,63912
12.30615,65875
12.31427,58985
12.32238,60182
12.33052,58739
12.33863,60541
12.34675,59490
12.35488,65317
12.36300,57252
12.37113,63037
12.37925,59787
12.38737,58824
12.39550,57531
12.40362,63348
12.41175,66943
12.41987,81298
12.42798,115962
12.43612,131045
12.44423,137166
12.45237,125524
12.46048,117711
12.46860,104285
12.47673,96217
12.48485,81210
12.49297,72874
12.50110,67957
12.50922,68972
12.51735,68169
12.52547,66565
12.53358,64196
12.54172,70829
12.54983,77825
12.55797,80903
12.56608,100069
12.57420,105598
12.58233,116132
12.59045,116815
12.59858,98729
12.60670,84849
12.61482,80270
12.62295,75162
12.63107,72899
12.63918,68175
12.64732,65021
12.65543,69449
12.66357,60285
12.67168,58290
12.67980,56896
12.68793,64062
12.69605,55315
12.70418,54000
12.71230,54929
12.72042,60313
12.72855,57671
12.73667,62474
12.74478,62282
12.75292,60161
12.76103,56771
12.76917,55349
12.77728,54450
12.78540,50670
12.79353,51329
12.80165,53265
12.80978,49769
12.81790,48373
12.82602,47818
12.83415,46099
12.84227,45231
12.85040,49982
12.85852,47469
12.86663,41852
12.87477,43395
12.88288,42656
12.89100,46308
12.89913,43983
12.90725,43251
12.91538,44048
12.92350,43399
12.93162,48758
12.93975,41298
12.94787,42328
12.95600,44157
12.96412,42232
12.97223,41911
12.98037,49618
12.98848,52041
12.99662,55804
13.00473,51039
13.01285,54556
13.02098,51661
13.02910,50066
13.03722,46315
13.04535,38918
13.05347,39659
13.06160,46745
13.06972,44844
13.07783,45938
13.08597,45834
13.09408,43874
13.10222,48221
13.11033,45278
13.11845,45555
13.12658,45079
13.13470,40374
13.14282,50871
13.15095,43598
13.15907,45152
13.16720,50996
13.17532,46037
13.18343,50746
13.19157,51801
13.19968,48565
13.20782,49996
13.21593,52414
13.22405,55926
13.23218,54961
13.24030,52849
13.24843,55887
13.25655,49354
13.26467,48798
13.27280,49323
13.28092,42555
13.28903,44973
13.29717,43215
13.30528,43356
13.31342,42186
13.32153,42530
13.32965,40956
13.33778,38871
13.34590,43006
13.35403,42492
13.36215,41780
13.37027,39770
13.37840,39158
13.38652,40514
13.39465,42954
13.40277,41733
13.41088,42895
13.41902,44613
13.42713,42041
13.43525,41571
13.44338,43292
13.45150,38753
13.45963,41087
13.46775,41883
13.47587,39472
13.48400,47056
13.49212,42822
13.50025,43987
13.50837,42896
13.51648,43787
13.52462,40530
13.53273,45511
13.54085,45151
13.54898,43207
13.55710,49722
13.56523,47217
13.57335,50036
13.58147,48586
13.58960,46594
13.59772,51827
13.60585,51122
13.61397,55929
13.62208,52765
13.63022,58386
13.63833,64359
13.64647,61881
13.65458,60793
13.66270,51474
13.67083,42939
13.67895,44159
13.68707,38818
13.69520,40800
13.70332,37860
13.71145,38872
13.71957,40255
13.72768,47734
13.73582,48217
13.74393,49637
13.75207,48857
13.76018,61524
13.76830,82412
13.77643,123900
13.78455,173460
13.79268,224155
13.80080,267245
13.80892,303822
13.81705,320174
13.82517,315794
13.83328,333258
13.84142,331766
13.84953,309262
13.85767,274703
13.86578,233795
13.87390,194227
13.88203,144769
13.89015,128970
13.89828,104652
13.90640,95378
13.91452,87313
13.92265,80650
13.93077,75329
13.93888,68859
13.94702,69749
13.95513,73954
13.96327,78717
13.97138,91915
13.97950,114498
13.98763,141731
13.99575,160267
14.00388,173267
14.01200,150879
14.02012,130337
14.02825,111608
14.03637,93949
14.04450,83087
14.05262,72142
14.06073,73576
14.06887,70929
14.07698,70046
14.08510,62450
14.09323,65200
14.10135,66629
14.10948,60977
14.11760,56574
14.12572,53701
14.13385,52388
14.14197,61512
14.15010,61862
14.15822,72894
14.16633,66203
14.17447,73955
14.18258,71563
14.19070,77798
14.19883,91176
14.20695,113349
14.21508,162672
14.22320,207027
14.23132,237894
14.23945,242477
14.24757,234136
14.25570,222561
14.26382,206321
14.27193,193468
14.28007,170139
14.28818,138729
14.29632,134541
14.30443,113077
14.31255,116117
14.32068,104137
14.32880,101891
14.33692,94432
14.34505,95946
14.35317,94402
14.36130,93952
14.36942,87716
14.37753,81507
14.38567,76260
14.39378,66138
14.40192,63846
14.41003,60250
14.41815,67184
14.42628,72135
14.43440,81486
14.44253,83964
14.45065,81109
14.45877,69934
14.46690,62197
14.47502,55315
14.48313,56413
14.49127,52735
14.49938,53305
14.50752,50167
14.51563,53865
14.52375,53840
14.53188,48275
14.54000,59030
14.54813,54145
14.55625,51682
14.56437,55096
14.57250,49048
14.58062,44810
14.58873,46599
14.59687,48377
14.60498,44107
14.61312,44189
14.62123,46692
14.62935,41018
14.63748,40471
14.64560,41933
14.65373,42355
14.66185,37745
14.66997,41236
14.67810,43822
14.68622,43961
14.69435,43673
14.70247,36944
14.71058,41358
14.71872,42581
14.72683,45752
14.73495,44356
14.74308,49727
14.75120,46920
14.75933,45558
14.76745,45486
14.77557,46231
14.78370,50114
14.79182,59196
14.79995,106489
14.80807,255286
14.81618,670473
14.82432,1583979
14.83243,2973240
14.84057,4525051
14.84868,5264602
14.85680,4974273
14.86493,3869196
14.87305,2510504
14.88117,1477390
14.88930,917127
14.89742,627634
14.90555,470899
14.91367,395095
14.92178,347332
14.92992,308755
14.93803,270606
14.94617,258039
14.95428,236134
14.96240,223224
14.97053,199356
14.97865,196687
14.98677,185668
14.99490,168200
15.00302,164009
15.01115,160443
15.01927,153242
15.02738,148105
15.03552,139892
15.04363,140017
15.05177,128930
15.05988,127462
15.06800,122407
15.07613,120548
15.08425,112877
15.09238,118046
15.10050,102050
15.10862,102581
15.11675,98157
15.12487,106226
15.13298,108022
15.14112,110652
15.14923,122341
15.15737,131992
15.16548,134491
15.17360,118971
15.18173,107209
15.18985,88859
15.19798,76271
15.20610,68499
15.21422,66405
15.22235,62101
15.23047,63633
15.23858,61077
15.24672,62162
15.25483,56897
15.26297,52246
15.27108,54172
15.27920,51313
15.28733,52662
15.29545,57296
15.30358,53042
15.31170,50273
15.31982,54712
15.32795,51614
15.33607,54209
15.34420,51299
15.35232,50979
15.36043,52057
15.36857,48443
15.37668,48643
15.38480,48914
15.39293,47269
15.40105,51403
15.40918,45741
15.41730,49564
15.42542,48029
15.43355,49582
15.44167,51844
15.44980,53839
15.45792,50043
15.46603,51679
15.47417,60165
15.48228,72385
15.49042,91907
15.49853,108984
15.50665,128418
15.51478,143827
15.52290,146553
15.53102,143131
15.53915,159349
15.54727,157375
15.55540,162855
15.56352,148884
15.57163,127952
15.57977,106120
15.58788,82340
15.59602,69814
15.60413,63085
15.61225,62788
15.62038,61174
15.62850,58632
15.63662,59945
15.64475,58717
15.65287,53364
15.66100,54254
15.66912,48445
15.67723,48504
15.68537,51786
15.69348,52921
15.70162,52561
15.70973,48502
15.71785,47397
15.72598,50175
15.73410,46960
15.74223,47042
15.75035,56953
15.75847,58006
15.76660,83925
15.77472,131534
15.78283,219172
15.79097,344098
15.79908,457821
15.80722,487262
15.81533,442614
15.82345,342623
15.83158,241026
15.83970,162016
15.84783,127753
15.85595,102198
15.86407,92762
15.87220,96196
15.88032,99308
15.88845,110332
15.89657,108931
15.90468,114849
15.91282,122251
15.92093,108673
15.92905,92122
15.93718,86747
15.94530,80171
15.95343,75971
15.96155,73574
15.96967,76971
15.97780,85138
15.98592,84794
15.99405,86563
16.00217,92415
16.01028,92179
16.01842,88805
16.02653,86476
16.03465,87340
16.04278,81470
16.05090,76182
16.05903,77423
16.06715,63187
16.07527,62442
16.08340,58169
16.09152,56028
16.09965,61383
16.10777,62717
16.11588,57332
16.12402,57959
16.13213,58192
16.14027,57132
16.14838,63959
16.15650,67299
16.16463,65189
16.17275,62482
16.18087,60774
16.18900,53942
16.19712,55084
16.20525,56641
16.21337,50538
16.22148,57478
16.22962,53110
16.23773,53917
16.24587,55779
16.25398,47616
16.26210,48356
16.27023,50608
16.27835,52876
16.28648,54216
16.29460,64929
16.30272,57616
16.31085,59053
16.31897,63558
16.32708,61890
16.33522,60929
16.34333,59426
16.35147,55208
16.35958,63072
16.36770,68065
16.37583,83506
16.38395,93347
16.39208,100479
16.40020,104240
16.40832,90019
16.41645,78039
16.42457,77493
16.43268,66759
16.44082,64117
16.44893,68914
16.45707,95359
16.46518,175848
16.47330,344606
16.48143,615694
16.48955,905570
16.49768,1065657
16.50580,1021613
16.51392,797287
16.52205,523676
16.53017,339050
16.53830,224792
16.54642,160172
16.55453,126486
16.56267,113731
16.57078,108830
16.57890,99606
16.58703,99204
16.59515,92217
16.60328,92425
16.61140,95261
16.61952,96329
16.62765,93054
16.63577,98828
16.64390,90177
16.65202,78863
16.66013,76193
16.66827,74440
16.67638,68215
16.68450,67396
16.69263,66743
16.70075,59992
16.70888,58331
16.71700,58102
16.72512,55953
16.73325,55351
16.74137,54533
16.74950,57370
16.75762,58758
16.76573,62998
16.77387,66125
16.78198,69383
16.79012,65990
16.79823,67679
16.80635,58302
16.81448,57449
16.82260,50546
16.83072,47525
16.83885,45522
16.84697,46812
16.85510,49247
16.86322,45699
16.87133,44697
16.87947,46303
16.88758,46545
16.89572,42135
16.90383,47018
16.91195,44085
16.92008,45780
16.92820,52400
16.93633,49278
16.94445,46792
16.95257,44110
16.96070,44093
16.96882,44322
16.97693,43984
16.98507,45118
16.99318,45064
17.00132,44245
17.00943,47401
17.01755,47929
17.02568,46099
17.03380,42619
17.04193,50318
17.05005,50493
17.05817,52963
17.06630,57993
17.07442,60507
17.08253,66255
17.09067,66515
17.09878,80608
17.10692,86503
17.11503,104358
17.12315,109364
17.13128,102287
17.13940,105271
17.14753,100728
17.15565,90960
17.16377,85921
17.17190,73667
17.18002,68688
17.18815,69935
17.19627,56342
17.20438,52444
17.21252,54692
17.22063,54781
17.22875,52207
17.23688,52502
17.24500,52953
17.25313,53753
17.26125,55231
17.26937,52898
17.27750,56673
17.28562,51904
17.29375,49225
17.30187,44900
17.30998,47098
17.31812,47706
17.32623,47798
17.33437,53074
17.34248,60414
17.35060,62674
17.35873,67131
17.36685,70937
17.37497,65576
17.38310,65412
17.39122,65801
17.39935,65028
17.40747,64145
17.41558,59270
17.42372,61676
17.43183,63053
17.43997,67169
17.44808,59064
17.45620,58565
17.46433,54358
17.47245,53045
17.48057,49844
17.48870,49961
17.49682,58234
17.50495,50735
17.51307,50335
17.52118,53449
17.52932,53243
17.53743,49894
17.54557,50926
17.55368,49199
17.56180,54663
17.56993,68619
17.57805,108018
17.58618,172502
17.59430,291619
17.60242,471432
17.61055,662657
17.61867,826874
17.62678,848918
17.63492,760606
17.64303,596120
17.65117,453956
17.65928,362626
17.66740,325460
17.67553,329365
17.68365,321565
17.69178,297017
17.69990,259088
17.70802,210868
17.71615,164714
17.72427,140850
17.73238,119627
17.74052,107859
17.74863,100179
17.75677,94554
17.76488,81019
17.77300,88192
17.78113,79325
17.78925,77299
17.79738,74363
17.80550,71911
17.81362,71903
17.82175,75068
17.82987,75176
17.83800,71896
17.84612,76462
17.85423,82360
17.86237,90057
17.87048,98768
17.87860,99735
17.88673,104800
17.89485,96409
17.90298,82870
17.91110,68257
17.91922,63988
17.92735,55251
17.93547,58197
17.94360,57292
17.95172,58211
17.95983,57041
17.96797,52533
17.97608,51898
17.98422,53103
17.99233,52132
18.00045,54528
18.00858,49854
18.01670,52166
18.02482,58832
18.03295,79141
18.04107,95463
18.04920,112784
18.05732,117002
18.06543,135381
18.07357,190549
18.08168,303163
18.08982,515436
18.09793,770870
18.10605,920725
18.11418,945311
18.12230,851125
18.13042,654205
18.13855,494401
18.14667,375286
18.15480,318251
18.16292,262732
18.17103,229301
18.17917,228655
18.18728,205698
18.19542,190285
18.20353,172945
18.21165,170723
18.21978,147732
18.22790,137101
18.23603,136385
18.24415,125810
18.25227,127321
18.26040,118487
18.26852,121826
18.27663,108091
18.28477,96657
18.29288,90569
18.30102,79408
18.30913,67178
18.31725,61113
18.32538,58929
18.33350,58351
18.34163,54344
18.34975,57234
18.35787,51265
18.36600,52050
18.37412,53990
18.38225,54461
18.39037,55013
18.39848,53959
18.40662,55485
18.41473,53479
18.42285,52230
18.43098,58984
18.43910,63609
18.44723,71635
18.45535,93128
18.46347,114087
18.47160,160201
18.47972,213182
18.48785,283540
18.49597,306350
18.50408,323477
18.51222,288379
18.52033,226845
18.52845,173884
18.53658,125622
18.54470,102272
18.55283,88231
18.56095,74833
18.56907,74818
18.57720,69814
18.58532,73290
18.59345,74280
18.60157,67778
18.60968,71691
18.61782,68477
18.62593,70743
18.63407,65119
18.64218,72908
18.65030,74079
18.65843,61704
18.66655,54815
18.67467,58427
18.68280,58801
18.69092,55750
18.69905,56887
18.70717,47344
18.71528,47664
18.72342,51611
18.73153,46473
18.73967,47680
18.74778,45532
18.75590,54102
18.76403,47025
18.77215,45827
18.78027,48643
18.78840,46632
18.79652,49573
18.80465,47246
18.81277,44865
18.82088,45771
18.82902,43232
18.83713,46190
18.84527,51633
18.85338,61730
18.86150,94352
18.86963,127886
18.87775,161878
18.88588,179078
18.89400,189531
18.90212,193105
18.91025,210097
18.91837,205014
18.92648,197017
18.93462,209752
18.94273,216801
18.95087,224671
18.95898,235631
18.96710,228010
18.97523,233569
18.98335,229424
18.99148,236311
18.99960,222209
19.00772,221321
19.01585,215796
19.02397,219440
19.03210,208993
19.04022,209809
19.04833,200648
19.05647,207815
19.06458,199992
19.07270,200688
19.08083,216046
19.08895,219526
19.09708,227629
19.10520,250507
19.11332,269514
19.12145,264009
19.12957,268784
19.13770,255998
19.14582,241877
19.15393,222997
19.16207,210514
19.17018,214911
19.17832,215136
19.18643,208122
19.19455,217194
19.20268,214403
19.21080,211433
19.21892,219095
19.22705,195143
19.23517,201754
19.24330,204353
19.25142,195113
19.25953,176271
19.26767,189198
19.27578,192405
19.28392,184089
19.29203,193640
19.30015,198264
19.30828,195859
19.31640,198244
19.32452,194548
19.33265,182533
19.34077,184202
19.34890,181913
19.35702,191438
19.36513,193377
19.37327,216739
19.38138,227455
19.38952,239174
19.39763,242838
19.40575,230508
19.41388,213196
19.42200,195174
19.43013,184893
19.43825,171030
19.44637,171551
19.45450,167811
19.46262,169593
19.47073,165301
19.47887,169391
19.48698,171437
19.49512,175149
19.50323,187854
19.51135,207694
19.51948,243518
19.52760,286087
19.53573,318672
19.54385,299138
19.55197,287317
19.56010,233783
19.56822,204229
19.57633,180671
19.58447,172724
19.59258,167606
19.60072,157696
19.60883,157070
19.61695,155607
19.62508,147512
19.63320,154708
19.64133,167507
19.64945,190049
19.65757,250233
19.66570,342295
19.67382,456748
19.68195,584055
19.69007,630381
19.69818,633526
19.70632,576986
19.71443,479318
19.72255,416359
19.73068,352718
19.73880,296538
19.74693,267112
19.75505,232726
19.76317,212956
19.77130,200084
19.77942,197293
19.78755,197695
19.79567,192977
19.80378,202586
19.81192,199134
19.82003,193520
19.82817,194170
19.83628,185211
19.84440,181338
19.85253,201674
19.86065,299995
19.86877,668209
19.87690,1657579
19.88502,3707809
19.89315,7094860
19.90127,1.106584E+07
19.90938,1.461831E+07
19.91752,1.616279E+07
19.92563,1.492496E+07
19.93377,1.253301E+07
19.94188,9114954
19.95000,6638946
19.95813,4906600
19.96625,3999166
19.97437,3336983
19.98250,2985155
19.99062,2738291
19.99875,2529392
20.00687,2356168
20.01498,2219531
20.02312,2084511
20.03123,1969135
20.03937,1779448
20.04748,1600376
20.05560,1454107
20.06373,1181636
20.07185,936933
20.07998,737654
20.08810,588097
20.09622,493110
20.10435,443104
20.11247,412376
20.12058,383402
20.12872,367931
20.13683,341966
20.14497,342053
20.15308,347768
20.16120,333744
20.16933,347262
20.17745,368828
20.18558,399582
20.19370,410846
20.20182,424370
20.20995,411411
20.21807,388424
20.22620,362429
20.23432,341395
20.24243,325187
20.25057,312711
20.25868,338767
20.26680,376173
20.27493,443096
20.28305,523769
20.29118,605384
20.29930,642607
20.30742,636520
20.31555,597782
20.32367,509776
20.33180,415091
20.33992,362547
20.34803,285292
20.35617,246884
20.36428,202672
20.37240,175567
20.38053,150914
20.38865,149775
20.39678,140763
20.40490,138126
20.41302,135186
20.42115,132576
20.42927,133908
20.43740,141131
20.44552,162548
20.45363,176956
20.46177,181343
20.46988,186762
20.47802,179123
20.48613,166425
20.49425,149107
20.50238,138595
20.51050,133127
20.51862,122956
20.52675,117249
20.53487,114215
20.54300,110683
20.55112,105566
20.55923,104839
20.56737,107730
20.57548,105293
20.58362,110496
20.59173,102375
20.59985,99201
20.60798,98940
20.61610,102063
20.62422,104110
20.63235,95235
20.64047,98463
20.64860,96881
20.65672,93057
20.66483,97634
20.67297,92847
20.68108,98328
20.68922,98547
20.69733,87768
20.70545,89613
20.71358,92038
20.72170,92575
20.72983,95030
20.73795,91027
20.74607,95127
20.75420,96432
20.76232,91319
20.77043,93247
20.77857,94995
20.78668,100353
20.79482,120360
20.80293,150288
20.81105,198743
20.81918,267251
20.82730,332273
20.83543,352186
20.84355,333694
20.85167,272844
20.85980,213618
20.86792,157359
20.87605,133135
20.88417,109885
20.89228,107239
20.90042,97649
20.90853,98157
20.91665,95985
20.92478,95668
20.93290,97332
20.94103,94178
20.94915,91246
20.95727,95449
20.96540,87284
20.97352,85232
20.98165,86451
20.98977,83570
20.99788,80455
21.00602,83291
21.01413,77343
21.02225,81734
21.03038,81784
21.03850,79552
21.04663,79581
21.05475,77399
21.06287,85018
21.07100,79744
21.07912,80153
21.08725,87562
21.09537,85328
21.10348,77629
21.11162,81739
21.11973,78021
21.12787,85104
21.13598,90009
21.14410,100751
21.15223,122284
21.16035,164632
21.16847,193403
21.17660,213469
21.18472,209987
21.19285,199218
21.20097,176981
21.20908,139361
21.21722,122259
21.22533,106770
21.23347,110613
21.24158,99741
21.24970,89717
21.25783,92890
21.26595,86656
21.27408,82868
21.28220,84982
21.29032,87832
21.29845,90239
21.30657,82488
21.31468,81550
21.32282,82938
21.33093,82620
21.33907,85245
21.34718,81628
21.35530,81252
21.36343,82910
21.37155,76876
21.37968,80300
21.38780,77329
21.39592,91036
21.40405,90834
21.41217,99804
21.42028,106961
21.42842,112038
21.43653,110285
21.44467,121504
21.45278,110249
21.46090,102826
21.46903,99416
21.47715,85527
21.48528,86397
21.49340,85791
21.50152,79865
21.50965,75784
21.51777,79464
21.52590,76090
21.53402,72581
21.54213,73318
21.55027,74202
21.55838,73522
21.56650,74870
21.57463,71650
21.58275,78506
21.59088,81324
21.59900,82443
21.60712,90208
21.61525,87555
21.62337,93031
21.63150,87199
21.63962,99780
21.64773,105645
21.65587,125271
21.66398,141695
21.67212,143052
21.68023,146518
21.68835,130117
21.69648,124774
21.70460,113202
21.71272,100674
21.72085,97659
21.72897,83417
21.73710,83858
21.74522,80823
21.75333,76387
21.76147,71363
21.76958,76298
21.77772,67891
21.78583,67494
21.79395,69204
21.80208,65512
21.81020,65925
21.81832,71062
21.82645,69122
21.83457,78040
21.84270,90276
21.85082,105652
21.85893,109588
21.86707,116715
21.87518,116371
21.88332,98955
21.89143,91014
21.89955,84758
21.90768,78104
21.91580,65014
21.92393,66101
21.93205,66129
21.94017,59890
21.94830,59294
21.95642,60472
21.96453,53953
21.97267,54819
21.98078,50620
21.98892,52613
21.99703,49538
22.00515,52071
22.01328,51198
22.02140,52967
22.02953,52670
22.03765,54846
22.04577,55647
22.05390,55476
22.06202,57302
22.07013,55154
22.07827,56151
22.08638,56563
22.09452,50820
22.10263,50926
22.11075,52320
22.11888,48649
22.12700,53967
22.13513,48873
22.14325,47711
22.15137,49499
22.15950,56063
22.16762,50975
22.17575,52384
22.18387,47754
22.19198,54196
22.20012,48327
22.20823,49472
22.21635,48396
22.22448,48314
22.23260,53219
22.24073,59149
22.24885,59244
22.25697,58474
22.26510,59213
22.27322,61381
22.28135,58577
22.28947,62106
22.29758,68661
22.30572,66896
22.31383,80219
22.32197,97581
22.33008,110063
22.33820,131069
22.34633,148426
22.35445,154936
22.36257,140840
22.37070,126283
22.37882,109575
22.38695,99032
22.39507,89032
22.40318,91604
22.41132,112777
22.41943,128570
22.42757,129182
22.43568,140586
22.44380,133664
22.45193,118425
22.46005,104349
22.46817,89184
22.47630,80253
22.48442,76601
22.49255,78573
22.50067,88562
22.50878,106662
22.51692,108574
22.52503,119203
22.53317,120847
22.54128,118184
22.54940,119327
22.55753,115513
22.56565,114887
22.57378,113103
22.58190,111149
22.59002,110201
22.59815,103986
22.60627,99970
22.61438,105091
22.62252,109444
22.63063,99366
22.63877,101734
22.64688,96490
22.65500,97597
22.66313,101320
22.67125,108469
22.67938,110656
22.68750,120898
22.69562,124232
22.70375,140082
22.71187,159030
22.72000,173652
22.72812,168645
22.73623,173874
22.74437,155734
22.75248,156230
22.76060,138310
22.76873,124969
22.77685,119475
22.78498,115291
22.79310,127336
22.80122,127809
22.80935,137930
22.81747,154345
22.82560,156766
22.83372,156816
22.84183,148418
22.84997,128684
22.85808,126447
22.86620,125153
22.87433,117182
22.88245,121764
22.89058,123712
22.89870,138714
22.90682,132290
22.91495,138533
22.92307,137313
22.93120,157329
22.93932,182031
22.94743,179806
22.95557,169327
22.96368,156170
22.97182,141030
22.97993,135814
22.98805,121840
22.99618,103813
23.00430,97837
23.01242,93050
23.02055,84443
23.02867,78755
23.03680,75650
23.04492,70318
23.05303,68335
23.06117,71073
23.06928,68251
23.07742,71064
23.08553,66479
23.09365,69360
23.10178,67867
23.10990,62585
23.11802,60679
23.12615,58851
23.13427,57829
23.14240,56704
23.15052,61339
23.15863,60845
23.16677,59453
23.17488,54124
23.18302,49555
23.19113,55652
23.19925,53588
23.20738,52555
23.21550,55580
23.22363,54093
23.23175,58360
23.23987,61383
23.24800,66680
23.25612,82624
23.26423,108115
23.27237,134237
23.28048,142043
23.28862,146734
23.29673,141081
23.30485,137059
23.31298,134711
23.32110,133363
23.32923,127232
23.33735,136575
23.34547,137779
23.35360,155819
23.36172,170311
23.36985,176148
23.37797,202203
23.38608,197978
23.39422,202168
23.40233,193820
23.41045,187607
23.41858,176537
23.42670,175770
23.43483,174049
23.44295,157421
23.45107,161341
23.45920,160785
23.46732,148756
23.47545,152458
23.48357,156368
23.49168,150128
23.49982,142880
23.50793,144500
23.51605,150961
23.52418,139861
23.53230,136891
23.54043,143206
23.54855,140284
23.55667,144492
23.56480,141532
23.57292,152801
23.58105,150471
23.58917,168676
23.59728,180771
23.60542,197307
23.61353,211670
23.62167,211083
23.62978,213983
23.63790,211074
23.64603,243692
23.65415,311415
23.66227,424162
23.67040,554969
23.67852,625722
23.68665,638214
23.69477,570041
23.70288,475570
23.71102,376505
23.71913,290517
23.72727,226492
23.73538,192430
23.74350,177397
23.75163,168155
23.75975,196145
23.76788,346862
23.77600,668445
23.78412,1358899
23.79225,2239710
23.80037,3196653
23.80848,3805612
23.81662,3702027
23.82473,3142898
23.83287,2479359
23.84098,1846538
23.84910,1345726
23.85723,1011988
23.86535,773800
23.87348,653343
23.88160,561875
23.88972,477933
23.89785,420218
23.90597,397200
23.91408,371707
23.92222,354797
23.93033,350612
23.93847,330769
23.94658,311210
23.95470,287055
23.96283,280856
23.97095,272423
23.97908,243305
23.98720,240424
23.99532,228345
24.00345,220203
24.01157,212480
24.01970,218961
24.02782,241282
24.03593,280352
24.04407,326135
24.05218,340747
24.06030,333891
24.06843,293237
24.07655,259774
24.08468,218627
24.09280,191717
24.10092,180144
24.10905,172398
24.11717,158648
24.12530,156935
24.13342,161778
24.14153,174730
24.14967,181690
24.15778,205033
24.16590,203038
24.17403,203241
24.18215,191749
24.19028,185095
24.19840,182708
24.20652,168728
24.21465,167405
24.22277,159028
24.23090,158300
24.23902,157668
24.24713,158520
24.25527,148206
24.26338,142092
24.27152,139733
24.27963,132512
24.28775,134072
24.29588,131252
24.30400,128636
24.31212,127911
24.32025,125054
24.32837,122378
24.33650,123487
24.34462,122622
24.35273,119370
24.36087,113222
24.36898,110852
24.37712,109588
24.38523,111525
24.39335,121621
24.40148,129642
24.40960,152019
24.41773,175356
24.42585,182672
24.43397,173014
24.44210,154739
24.45022,125209
24.45833,110090
24.46647,103854
24.47458,92491
24.48272,99716
24.49083,101391
24.49895,105919
24.50708,104813
24.51520,113881
24.52333,117632
24.53145,130470
24.53957,143669
24.54770,167387
24.55582,184993
24.56395,181470
24.57207,182221
24.58018,176599
24.58832,154659
24.59643,141669
24.60455,136402
24.61268,126104
24.62080,110655
24.62893,108189
24.63705,100692
24.64517,95230
24.65330,88729
24.66142,92458
24.66955,86901
24.67767,93468
24.68578,87423
24.69392,78635
24.70203,83449
24.71015,73890
24.71828,76735
24.72640,79994
24.73453,73047
24.74265,71086
24.75077,76544
24.75890,74742
24.76702,74895
24.77515,77945
24.78327,80355
24.79138,84172
24.79952,92117
24.80763,95608
24.81577,88891
24.82388,79496
24.83200,82400
24.84013,89461
24.84825,98209
24.85637,125301
24.86450,155127
24.87262,196561
24.88075,265923
24.88887,337000
24.89698,425284
24.90512,468168
24.91323,471288
24.92137,420418
24.92948,351320
24.93760,247798
24.94573,184897
24.95385,168027
24.96197,176503
24.97010,178507
24.97822,180927
24.98635,191417
24.99447,195183
25.00258,195219
25.01072,211752
25.01883,207301
25.02697,204294
25.03508,212089
25.04320,222490
25.05133,229114
25.05945,219325
25.06758,220356
25.07570,226660
25.08382,229215
25.09195,231959
25.10007,249503
25.10818,266265
25.11632,359891
25.12443,561880
25.13257,942055
25.14068,1587604
25.14880,2287135
25.15693,2850573
25.16505,3050299
25.17318,2773348
25.18130,2199576
25.18942,1541079
25.19755,1032742
25.20567,718800
25.21380,511464
25.22192,401161
25.23003,330747
25.23817,305337
25.24628,339220
25.25440,394159
25.26253,522514
25.27065,679331
25.27878,851786
25.28690,968918
25.29502,989198
25.30315,883942
25.31127,687382
25.31940,537035
25.32752,398213
25.33563,312769
25.34377,262262
25.35188,239959
25.36000,215663
25.36813,208157
25.37625,196091
25.38438,190343
25.39250,187540
25.40062,194255
25.40875,180913
25.41687,176808
25.42500,175109
25.43312,177253
25.44123,172591
25.44937,172801
25.45748,157788
25.46562,165552
25.47373,164255
25.48185,166781
25.48998,175032
25.49810,162342
25.50622,161196
25.51435,160395
25.52247,159428
25.53060,146561
25.53872,134100
25.54683,134522
25.55497,116500
25.56308,96018
25.57122,91240
25.57933,90124
25.58745,81882
25.59558,83523
25.60370,89168
25.61183,80616
25.61995,79116
25.62807,84108
25.63620,80268
25.64432,87915
25.65243,95252
25.66057,98276
25.66868,104044
25.67682,93788
25.68493,90742
25.69305,88263
25.70118,87702
25.70930,82663
25.71743,76904
25.72555,79117
25.73367,74491
25.74180,76184
25.74992,75721
25.75803,80056
25.76617,71354
25.77428,73092
25.78242,70025
25.79053,68880
25.79865,73268
25.80678,68058
25.81490,67125
25.82303,72606
25.83115,76374
25.83927,77014
25.84740,78937
25.85552,78734
25.86365,76358
25.87177,78535
25.87988,71719
25.88802,67444
25.89613,63408
25.90425,58570
25.91238,62133
25.92050,67980
25.92863,80418
25.93675,99634
25.94487,145305
25.95300,197666
25.96112,214696
25.96925,240104
25.97737,238773
25.98548,259272
25.99362,249570
26.00173,251540
26.00985,253357
26.01798,258967
26.02610,254228
26.03423,247674
26.04235,258971
26.05047,245571
26.05860,254529
26.06672,259403
26.07485,250512
26.08297,262890
26.09108,258410
26.09922,257379
26.10733,255014
26.11547,261268
26.12358,258364
26.13170,257811
26.13983,255099
26.14795,251092
26.15607,256664
26.16420,255908
26.17232,259599
26.18045,250480
26.18857,256209
26.19668,247325
26.20482,241863
26.21293,246182
26.22107,236838
26.22918,240964
26.23730,232138
26.24543,232512
26.25355,228712
26.26168,221361
26.26980,226968
26.27792,227539
26.28605,226733
26.29417,229132
26.30228,226193
26.31042,223293
26.31853,220872
26.32667,226969
26.33478,228793
26.34290,211568
26.35103,218910
26.35915,216835
26.36728,222519
26.37540,232954
26.38352,250663
26.39165,274712
26.39977,303531
26.40788,316442
26.41602,320383
26.42413,301205
26.43227,295318
26.44038,261735
26.44850,236355
26.45663,227262
26.46475,209597
26.47288,207541
26.48100,201679
26.48912,192005
26.49725,186994
26.50537,199327
26.51350,192837
26.52162,198710
26.52973,181952
26.53787,183312
26.54598,182125
26.55410,181543
26.56223,188728
26.57035,177390
26.57848,178638
26.58660,172790
26.59472,181161
26.60285,179065
26.61097,174393
26.61910,171775
26.62722,173967
26.63533,165260
26.64347,176945
26.65158,173184
26.65972,171397
26.66783,171602
26.67595,170827
26.68408,167187
26.69220,171383
26.70032,167473
26.70845,167804
26.71657,151722
26.72470,154442
26.73282,151455
26.74093,142706
26.74907,146096
26.75718,146327
26.76532,139179
26.77343,133754
26.78155,142460
26.78968,135986
26.79780,136270
26.80592,140493
26.81405,137821
26.82217,140561
26.83030,137857
26.83842,143540
26.84653,136983
26.85467,139508
26.86278,135863
26.87092,127794
26.87903,126647
26.88715,131011
26.89528,124709
26.90340,117797
26.91153,119924
26.91965,118426
26.92777,112459
26.93590,120160
26.94402,109435
26.95213,111389
26.96027,118235
26.96838,115917
26.97652,129520
26.98463,164539
26.99275,232096
27.00088,379086
27.00900,595258
27.01713,928925
27.02525,1285552
27.03337,1596762
27.04150,1613758
27.04962,1481128
27.05775,1272493
27.06587,1008357
27.07398,785641
27.08212,596778
27.09023,479137
27.09835,400244
27.10648,349707
27.11460,301397
27.12273,285794
27.13085,259958
27.13897,243204
27.14710,232720
27.15522,223799
27.16335,207958
27.17147,222553
27.17958,225501
27.18772,238508
27.19583,237016
27.20395,240201
27.21208,232299
27.22020,209443
27.22833,197777
27.23645,177735
27.24457,160656
27.25270,158540
27.26082,147190
27.26895,142427
27.27707,131871
27.28518,129760
27.29332,128789
27.30143,124209
27.30957,124685
27.31768,119556
27.32580,119175
27.33393,114923
27.34205,110060
27.35017,109502
27.35830,115134
27.36642,112668
27.37455,118219
27.38267,115439
27.39078,111799
27.39892,109760
27.40703,113202
27.41517,106859
27.42328,104891
27.43140,100667
27.43953,104246
27.44765,98354
27.45577,95365
27.46390,102871
27.47202,98026
27.48015,91069
27.48827,93923
27.49638,95821
27.50452,97697
27.51263,99116
27.52077,90467
27.52888,89657
27.53700,92658
27.54513,92248
27.55325,92214
27.56138,92752
27.56950,86945
27.57762,92427
27.58575,95241
27.59387,97895
27.60198,107005
27.61012,111581
27.61823,112581
27.62637,110080
27.63448,110988
27.64260,99238
27.65073,97162
27.65885,92078
27.66698,84372
27.67510,89433
27.68322,81569
27.69135,83286
27.69947,86044
27.70760,76883
27.71572,80370
27.72383,80543
27.73197,73098
27.74008,73386
27.74820,71866
27.75633,82588
27.76445,80188
27.77258,84046
27.78070,102226
27.78882,121311
27.79695,137717
27.80507,140457
27.81320,146705
27.82132,123464
27.82943,112506
27.83757,97318
27.84568,90705
27.85380,82482
27.86193,81809
27.87005,75113
27.87818,71177
27.88630,75026
27.89442,69086
27.90255,73516
27.91067,66460
27.91880,66771
27.92692,65595
27.93503,70101
27.94317,64527
27.95128,65823
27.95942,66269
27.96753,68822
27.97565,70061
27.98378,66075
27.99190,75325
28.00002,80761
28.00815,78066
28.01627,80249
28.02440,78830
28.03252,85560
28.04063,80827
28.04877,79926
28.05688,81457
28.06502,80644
28.07313,83274
28.08125,79502
28.08938,75930
28.09750,70191
28.10563,69528
28.11375,69579
28.12187,68267
28.13000,69903
28.13812,66180
28.14623,64928
28.15437,57114
28.16248,62881
28.17062,64339
28.17873,58116
28.18685,64827
28.19498,64860
28.20310,75219
28.21123,76310
28.21935,90353
28.22747,94452
28.23560,102601
28.24372,102692
28.25183,94882
28.25997,92371
28.26808,89168
28.27622,75047
28.28433,72748
28.29245,69545
28.30058,66025
28.30870,74209
28.31683,79934
28.32495,91030
28.33307,106782
28.34120,123075
28.34932,149635
28.35745,179442
28.36557,193497
28.37368,227336
28.38182,239754
28.38993,249568
28.39805,255401
28.40618,252291
28.41430,243723
28.42243,219736
28.43055,194962
28.43867,179851
28.44680,171304
28.45492,144315
28.46305,144720
28.47117,129025
28.47928,119472
28.48742,116864
28.49553,114490
28.50365,103889
28.51178,111893
28.51990,103178
28.52803,105317
28.53615,98641
28.54427,94673
28.55240,98492
28.56052,86903
28.56865,85136
28.57677,76768
28.58488,86551
28.59302,81392
28.60113,77911
28.60927,77451
28.61738,78214
28.62550,79393
28.63363,79662
28.64175,80018
28.64987,78537
28.65800,86505
28.66612,80134
28.67425,84272
28.68237,78592
28.69048,79926
28.69862,81569
28.70673,77410
28.71487,74132
28.72298,71664
28.73110,71340
28.73923,70255
28.74735,69331
28.75548,70705
28.76360,69531
28.77172,80907
28.77985,81976
28.78797,95330
28.79608,97372
28.80422,103680
28.81233,99866
28.82047,96122
28.82858,83317
28.83670,79106
28.84483,74108
28.85295,73764
28.86108,71504
28.86920,71784
28.87732,75105
28.88545,73851
28.89357,71312
28.90168,81253
28.90982,78307
28.91793,75472
28.92607,81319
28.93418,78698
28.94230,73346
28.95043,75252
28.95855,78130
28.96668,78760
28.97480,84755
28.98292,87252
28.99105,82045
28.99917,70142
29.00730,71272
29.01542,67580
29.02353,64086
29.03167,68502
29.03978,57572
29.04790,62084
29.05603,72101
29.06415,72578
29.07228,75548
29.08040,81262
29.08852,84424
29.09665,81622
29.10477,82301
29.11290,80779
29.12102,74897
29.12913,71576
29.13727,78710
29.14538,70054
29.15352,67753
29.16163,64697
29.16975,72147
29.17788,66682
29.18600,67755
29.19412,73911
29.20225,74233
29.21037,92689
29.21850,104137
29.22662,101551
29.23473,111202
29.24287,104324
29.25098,104514
29.25912,98729
29.26723,92587
29.27535,94787
29.28348,86493
29.29160,79094
29.29972,73582
29.30785,73135
29.31597,67939
29.32410,61245
29.33222,60889
29.34033,65065
29.34847,62489
29.35658,63640
29.36472,63001
29.37283,60912
29.38095,57896
29.38908,58553
29.39720,55898
29.40533,56119
29.41345,61318
29.42157,62609
29.42970,58330
29.43782,60673
29.44593,59997
29.45407,62970
29.46218,53922
29.47032,55919
29.47843,58048
29.48655,58413
29.49468,60901
29.50280,61637
29.51093,63716
29.51905,61452
29.52717,72621
29.53530,67239
29.54342,61986
29.55153,65342
29.55967,58131
29.56778,59595
29.57592,57236
29.58403,55096
29.59215,51542
29.60028,57074
29.60840,52174
29.61653,55490
29.62465,56960
29.63277,60797
29.64090,59874
29.64902,59414
29.65715,55130
29.66527,57930
29.67338,58387
29.68152,53607
29.68963,57083
29.69775,60864
29.70588,55652
29.71400,69200
29.72213,55247
29.73025,54504
29.73837,52580
29.74650,57007
29.75462,55524
29.76275,57502
29.77087,58844
29.77898,53444
29.78712,51089
29.79523,52768
29.80337,52479
29.81148,51498
29.81960,53483
29.82773,49222
29.83585,51227
29.84397,54488
29.85210,55808
29.86022,60700
29.86835,80193
29.87647,103716
29.88458,194888
29.89272,353194
29.90083,575888
29.90897,761323
29.91708,855413
29.92520,805223
29.93333,633716
29.94145,425374
29.94958,252438
29.95770,161802
29.96582,117967
29.97395,95611
29.98207,93809
29.99018,98140
29.99832,109371
30.00643,115828
30.01457,122187
30.02268,129314
30.03080,143561
30.03893,142237
30.04705,147620
30.05518,141715
30.06330,144976
30.07142,143835
30.07955,136858
30.08767,130698
30.09578,129963
30.10392,118545
30.11203,107491
30.12017,107011
30.12828,106991
30.13640,100090
30.14453,94622
30.15265,89923
30.16078,83412
30.16890,85634
30.17702,80762
30.18515,79442
30.19327,84223
30.20140,80343
30.20952,74354
30.21763,73048
30.22577,72669
30.23388,70227
30.24200,72632
30.25013,66085
30.25825,73163
30.26638,66889
30.27450,66384
30.28262,67983
30.29075,66806
30.29887,61513
30.30700,62604
30.31512,59631
30.32323,63942
30.33137,63737
30.33948,65979
30.34760,60721
30.35573,63036
30.36385,65141
30.37198,59540
30.38010,63400
30.38822,64806
30.39635,64563
30.40447,62671
30.41260,65438
30.42072,62912
30.42883,59393
30.43697,58810
30.44508,59874
30.45322,54802
30.46133,60473
30.46945,58636
30.47758,60129
30.48570,58864
30.49382,61359
30.50195,62322
30.51007,62259
30.51820,64715
30.52632,63997
30.53443,57046
30.54257,59199
30.55068,61142
30.55882,54659
30.56693,57724
30.57505,54278
30.58318,56236
30.59130,56409
30.59943,50439
30.60755,53218
30.61567,60176
30.62380,55233
30.63192,52688
30.64003,57464
30.64817,55502
30.65628,53291
30.66442,53743
30.67253,54355
30.68065,56249
30.68878,55218
30.69690,51144
30.70503,59252
30.71315,47117
30.72127,56513
30.72940,55622
30.73752,57215
30.74563,58453
30.75377,54220
30.76188,60509
30.77002,62466
30.77813,66108
30.78625,79007
30.79438,109454
30.80250,151774
30.81063,212151
30.81875,264922
30.82687,286805
30.83500,280482
30.84312,221359
30.85125,171261
30.85937,124089
30.86748,98566
30.87562,82929
30.88373,77126
30.89185,75369
30.89998,68116
30.90810,62473
30.91623,68732
30.92435,70085
30.93247,67588
30.94060,64649
30.94872,66096
30.95685,65980
30.96497,69855
30.97308,68153
30.98122,63475
30.98933,63624
30.99747,65532
31.00558,64059
31.01370,70787
31.02183,68704
31.02995,67057
31.03807,67896
31.04620,68280
31.05432,69876
31.06245,73407
31.07057,67987
31.07868,75885
31.08682,80899
31.09493,96841
31.10307,127663
31.11118,167901
31.11930,185447
31.12743,201716
31.13555,174564
31.14367,157355
31.15180,116634
31.15992,94271
31.16805,78840
31.17617,70535
31.18428,70165
31.19242,70868
31.20053,87517
31.20867,100662
31.21678,120226
31.22490,125411
31.23303,148689
31.24115,139039
31.24928,139764
31.25740,116208
31.26552,100041
31.27365,86314
31.28177,76618
31.28988,74463
31.29802,63774
31.30613,58484
31.31427,56742
31.32238,58321
31.33050,57444
31.33863,62201
31.34675,56024
31.35488,63740
31.36300,62654
31.37112,62718
31.37925,64313
31.38737,70072
31.39548,73572
31.40362,77512
31.41173,80403
31.41987,73798
31.42798,66397
31.43610,61544
31.44423,61379
31.45235,63939
31.46048,63676
31.46860,62935
31.47672,68299
31.48485,72052
31.49297,78979
31.50110,87683
31.50922,85304
31.51733,82034
31.52547,76189
31.53358,75102
31.54170,68202
31.54983,65161
31.55795,70823
31.56608,72039
31.57420,76977
31.58232,83098
31.59045,86617
31.59857,81782
31.60670,79282
31.61482,70765
31.62293,70129
31.63107,74269
31.63918,76156
31.64732,72756
31.65543,78335
31.66355,77893
31.67168,79664
31.67980,86645
31.68792,82773
31.69605,88376
31.70417,82340
31.71230,83745
31.72042,82023
31.72853,81523
31.73667,81406
31.74478,77151
31.75292,76967
31.76103,86426
31.76915,75270
31.77728,72242
31.78540,76838
31.79352,81497
31.80165,78830
31.80977,79354
31.81790,76269
31.82602,82097
31.83413,80882
31.84227,76973
31.85038,77528
31.85852,80512
31.86663,85683
31.87475,79240
31.88288,77718
31.89100,87398
31.89913,85121
31.90725,83603
31.91537,92664
31.92350,103539
31.93162,104409
31.93973,111260
31.94787,107260
31.95598,110016
31.96412,122893
31.97223,123337
31.98035,125434
31.98848,123975
31.99660,128024
32.00473,124375
32.01285,124705
32.02097,125322
32.02910,124294
32.03722,126776
32.04535,109222
32.05347,109915
32.06158,105871
32.06972,98581
32.07783,100016
32.08595,98838
32.09408,92434
32.10220,83703
32.11033,87149
32.11845,90371
32.12657,79878
32.13470,88480
32.14282,75660
32.15095,76492
32.15907,76019
32.16718,72681
32.17532,68620
32.18343,65149
32.19155,72402
32.19968,71421
32.20780,60925
32.21593,62715
32.22405,63783
32.23217,68333
32.24030,62938
32.24842,59846
32.25655,65476
32.26467,74559
32.27278,70613
32.28092,79737
32.28903,75649
32.29717,70185
32.30528,69667
32.31340,67111
32.32153,60841
32.32965,71670
32.33777,66788
32.34590,65405
32.35402,60496
32.36215,64133
32.37027,67876
32.37838,62698
32.38652,65136
32.39463,62288
32.40277,64455
32.41088,56403
32.41900,60678
32.42713,62852
32.43525,60826
32.44338,58613
32.45150,57071
32.45962,56742
32.46775,56579
32.47587,59406
32.48398,64449
32.49212,56308
32.50023,59340
32.50837,53708
32.51648,56512
32.52460,57057
32.53273,57491
32.54085,57125
32.54898,56195
32.55710,56945
32.56522,58164
32.57335,57932
32.58147,55629
32.58958,61501
32.59772,51286
32.60583,54975
32.61397,53493
32.62208,51778
32.63020,55333
32.63833,53790
32.64645,50170
32.65458,54983
32.66270,57995
32.67082,59517
32.67895,66067
32.68707,74578
32.69520,74508
32.70332,75997
32.71143,73453
32.71957,63865
32.72768,58117
32.73580,62324
32.74393,60200
32.75205,59845
32.76018,50499
32.76830,55332
32.77642,55387
32.78455,54082
32.79267,51569
32.80080,51094
32.80892,50956
32.81703,52220
32.82517,47923
32.83328,52709
32.84140,52721
32.84953,51581
32.85765,46405
32.86578,47764
32.87390,53838
32.88202,51302
32.89015,54094
32.89827,57980
32.90640,64228
32.91452,53530
32.92263,56911
32.93077,52989
32.93888,52052
32.94702,58558
32.95513,53230
32.96325,58461
32.97138,61248
32.97950,63891
32.98762,80068
32.99575,94648
33.00387,115440
33.01200,145061
33.02012,164214
33.02823,156238
33.03637,129471
33.04448,107415
33.05262,88578
33.06073,80139
33.06885,71031
33.07698,66818
33.08510,70891
33.09323,73010
33.10135,79643
33.10947,95485
33.11760,92788
33.12572,106670
33.13383,106334
33.14197,98524
33.15008,94827
33.15822,87620
33.16633,79055
33.17445,70669
33.18258,69818
33.19070,61362
33.19883,62151
33.20695,61754
33.21507,58886
33.22320,61958
33.23132,58614
33.23943,59541
33.24757,59190
33.25568,54091
33.26382,56575
33.27193,59362
33.28005,56282
33.28818,54718
33.29630,52952
33.30443,56558
33.31255,56579
33.32067,57689
33.32880,58951
33.33692,50104
33.34505,56081
33.35317,53219
33.36128,61296
33.36942,61394
33.37753,55652
33.38565,60534
33.39378,61865
33.40190,53384
33.41003,55831
33.41815,46075
33.42627,54479
33.43440,50403
33.44252,46267
33.45065,52091
33.45877,48497
33.46688,58765
33.47502,49995
33.48313,50065
33.49127,51988
33.49938,51321
33.50750,55302
33.51563,59168
33.52375,60940
33.53187,58032
33.54000,59747
33.54812,63998
33.55625,62698
33.56437,62846
33.57248,76020
33.58062,63606
33.58873,62966
33.59687,60420
33.60498,54436
33.61310,53460
33.62123,50691
33.62935,55437
33.63747,52694
33.64560,51950
33.65372,54250
33.66185,59692
33.66997,58058
33.67808,57765
33.68622,57129
33.69433,56956
33.70247,57918
33.71058,61145
33.71870,53853
33.72683,53977
33.73495,52564
33.74308,53807
33.75120,53408
33.75932,50768
33.76745,53393
33.77557,49974
33.78368,56496
33.79182,53207
33.79993,54130
33.80807,53315
33.81618,49790
33.82430,54743
33.83243,51902
33.84055,52133
33.84868,54543
33.85680,55791
33.86492,53839
33.87305,54912
33.88117,56672
33.88928,60678
33.89742,54492
33.90553,55573
33.91367,54010
33.92178,53285
33.92990,56470
33.93803,49892
33.94615,54218
33.95428,58294
33.96240,55792
33.97052,54479
33.97865,54644
33.98677,56148
33.99490,52171
34.00302,56334
34.01113,53285
34.01927,53711
34.02738,57228
34.03550,55655
34.04363,54011
34.05175,54524
34.05988,56700
34.06800,49716
34.07612,52644
34.08425,56613
34.09237,57226
34.10050,52494
34.10862,56584
34.11673,50456
34.12487,58253
34.13298,55021
34.14112,54370
34.14923,54458
34.15735,47799
34.16548,56829
34.17360,50011
34.18172,51752
34.18985,54279
34.19797,54232
34.20610,55100
34.21422,51271
34.22233,53980
34.23047,53166
34.23858,52268
34.24672,48440
34.25483,48983
34.26295,52349
34.27108,55751
34.27920,53972
34.28733,55958
34.29545,50006
34.30357,53307
34.31170,50849
34.31982,53407
34.32793,53340
34.33607,48432
34.34418,52686
34.35232,50772
34.36043,54136
34.36855,54630
34.37668,52365
34.38480,51529
34.39293,55067
34.40105,55452
34.40917,46706
34.41730,55290
34.42542,54241
34.43353,57622
34.44167,51711
34.44978,56160
34.45792,55042
34.46603,49946
34.47415,49307
34.48228,50751
34.49040,48438
34.49853,53664
34.50665,50510
34.51477,51074
34.52290,57221
34.53102,59628
34.53915,58188
34.54727,71747
34.55538,74917
34.56352,81868
34.57163,88860
34.57975,92953
34.58788,79544
34.59600,83013
34.60413,77828
34.61225,79155
34.62037,74698
34.62850,69475
34.63662,69281
34.64475,64787
34.65287,65024
34.66098,64924
34.66912,59889
34.67723,62680
34.68535,60547
34.69348,62174
34.70160,56707
34.70973,63238
34.71785,60634
34.72597,55803
34.73410,61132
34.74222,57721
34.75035,52338
34.75847,57965
34.76658,59539
34.77472,62041
34.78283,57094
34.79097,61160
34.79908,59057
34.80720,57301
34.81533,54501
34.82345,61034
34.83157,62528
34.83970,62076
34.84782,62957
34.85595,57154
34.86407,53896
34.87218,59229
34.88032,59051
34.88843,53671
34.89657,53013
34.90468,57479
34.91280,57583
34.92093,56022
34.92905,55087
34.93718,60675
34.94530,68822
34.95342,81606
34.96155,106844
34.96967,150902
34.97778,213528
34.98592,280707
34.99403,322189
35.00217,297334
35.01028,251180
35.01840,175378
35.02653,117385
35.03465,89231
35.04278,75264
35.05090,68880
35.05902,65794
35.06715,62697
35.07527,69283
35.08338,65838
35.09152,63988
35.09963,61641
35.10777,64109
35.11588,69282
35.12400,66600
35.13213,63375
35.14025,64600
35.14838,61499
35.15650,63035
35.16462,61697
35.17275,59677
35.18087,61022
35.18900,62491
35.19712,66367
35.20523,63015
35.21337,65233
35.22148,62382
35.22960,62714
35.23773,58623
35.24585,55628
35.25398,60362
35.26210,57497
35.27022,62778
35.27835,57195
35.28647,55328
35.29460,55752
35.30272,59140
35.31083,58955
35.31897,57201
35.32708,55003
35.33522,58119
35.34333,64267
35.35145,58498
35.35958,51536
35.36770,52740
35.37582,57413
35.38395,57212
35.39207,55311
35.40020,54624
35.40832,56150
35.41643,57791
35.42457,57926
35.43268,58907
35.44082,60649
35.44893,62300
35.45705,58630
35.46518,62667
35.47330,62063
35.48142,62236
35.48955,60537
35.49767,63173
35.50580,66737
35.51392,60556
35.52203,62431
35.53017,60041
35.53828,62932
35.54642,58537
35.55453,55242
35.56265,59561
35.57078,58140
35.57890,65817
35.58703,63176
35.59515,52918
35.60327,58453
35.61140,58193
35.61952,58087
35.62763,60582
35.63577,57029
35.64388,58911
35.65202,57520
35.66013,57173
35.66825,58500
35.67638,59348
35.68450,59811
35.69263,58778
35.70075,60589
35.70887,67855
35.71700,64740
35.72512,71960
35.73323,65796
35.74137,62328
35.74948,64610
35.75762,62144
35.76573,69525
35.77385,72048
35.78198,66915
35.79010,72528
35.79823,66009
35.80635,65776
35.81447,67980
35.82260,61772
35.83072,59448
35.83885,61658
35.84697,61030
35.85508,63038
35.86322,60899
35.87133,64440
35.87945,62588
35.88758,60395
35.89570,56969
35.90383,57557
35.91195,59657
35.92007,62162
35.92820,58948
35.93632,56430
35.94445,59488
35.95257,56045
35.96068,59570
35.96882,54823
35.97693,56412
35.98507,62762
35.99318,56023
36.00130,56199
36.00943,58370
36.01755,58098
36.02567,59660
36.03380,61263
36.04192,61309
36.05005,64398
36.05817,68652
36.06628,63534
36.07442,62786
36.08253,67462
36.09067,58963
36.09878,58975
36.10690,58884
36.11503,62854
36.12315,57612
36.13127,60962
36.13940,64883
36.14752,66484
36.15565,63613
36.16377,64130
36.17188,59778
36.18002,61656
36.18813,65783
36.19627,64538
36.20438,58117
36.21250,58423
36.22063,59444
36.22875,62026
36.23688,62602
36.24500,62110
36.25312,59368
36.26125,57155
36.26937,58537
36.27748,56491
36.28562,64478
36.29373,60943
36.30187,59021
36.30998,67275
36.31810,73818
36.32623,71760
36.33435,80297
36.34248,81542
36.35060,79913
36.35872,71113
36.36685,68948
36.37497,67898
36.38310,62201
36.39122,67754
36.39933,63165
36.40747,63483
36.41558,67478
36.42370,64631
36.43183,66710
36.43995,60758
36.44808,60996
36.45620,61970
36.46432,60313
36.47245,61127
36.48057,62614
36.48870,62105
36.49682,61733
36.50493,59929
36.51307,60714
36.52118,56986
36.52930,60924
36.53743,58012
36.54555,57446
36.55368,58516
36.56180,53618
36.56992,59165
36.57805,56505
36.58617,62661
36.59430,60020
36.60242,66484
36.61053,60464
36.61867,57814
36.62678,59611
36.63492,66159
36.64303,61126
36.65115,60645
36.65928,62925
36.66740,61376
36.67552,63311
36.68365,67060
36.69177,60212
36.69990,66632
36.70802,63506
36.71613,65157
36.72427,60889
36.73238,68171
36.74052,64397
36.74863,59725
36.75675,60836
36.76488,66684
36.77300,65927
36.78112,66476
36.78925,60724
36.79737,66789
36.80550,63720
36.81362,62764
36.82173,62761
36.82987,60521
36.83798,59617
36.84612,61198
36.85423,62812
36.86235,59859
36.87048,59063
36.87860,60683
36.88673,59072
36.89485,61327
36.90297,68775
36.91110,63946
36.91922,63841
36.92733,60762
36.93547,63787
36.94358,70604
36.95172,82439
36.95983,96294
36.96795,114331
36.97608,130055
36.98420,128353
36.99233,133614
37.00045,123332
37.00857,111711
37.01670,91510
37.02482,82425
37.03295,73916
37.04107,77286
37.04918,77342
37.05732,79864
37.06543,84350
37.07355,80186
37.08168,87520
37.08980,87800
37.09793,85042
37.10605,80012
37.11417,85919
37.12230,85869
37.13042,88091
37.13855,85976
37.14667,82382
37.15478,82957
37.16292,84836
37.17103,78130
37.17915,84907
37.18728,93646
37.19540,91899
37.20353,85400
37.21165,84120
37.21977,86729
37.22790,83819
37.23602,82683
37.24415,83663
37.25227,89018
37.26038,84213
37.26852,85256
37.27663,83335
37.28477,86928
37.29288,87112
37.30100,80978
37.30913,78311
37.31725,82864
37.32537,79918
37.33350,84361
37.34162,85678
37.34975,86073
37.35787,89881
37.36598,98643
37.37412,97308
37.38223,101293
37.39037,96336
37.39848,93514
37.40660,98655
37.41473,96355
37.42285,93576
37.43098,93870
37.43910,95494
37.44722,89375
37.45535,91724
37.46347,91223
37.47158,88009
37.47972,86270
37.48783,87850
