C:\MassHunter\GCMS\1\data\JTB-E02\BACandBLUE\JTB-E18-018-08.D Thu Jul 04 10:29:02 2019
Start of data points
2.09523	71193
2.10335	70852
2.11147	71416
2.11960	71179
2.12772	71289
2.13583	64813
2.14397	72851
2.15208	72094
2.16022	71468
2.16833	70623
2.17645	68716
2.18458	74384
2.19270	66190
2.20083	65375
2.20895	65588
2.21707	63174
2.22520	64541
2.23332	64524
2.24143	67226
2.24957	60786
2.25768	59253
2.26582	69122
2.27393	244474
2.28205	1016354
2.29018	1034652
2.29830	468310
2.30643	285012
2.31455	233855
2.32267	208169
2.33080	185650
2.33892	169037
2.34705	162285
2.35517	143990
2.36328	135272
2.37142	134778
2.37953	128706
2.38765	119994
2.39578	124157
2.40390	116346
2.41203	119271
2.42015	110336
2.42827	117758
2.43640	114833
2.44452	110895
2.45265	113976
2.46077	116114
2.46888	114065
2.47702	111194
2.48513	107335
2.49325	112268
2.50138	115624
2.50950	114006
2.51763	113052
2.52575	114587
2.53387	107241
2.54200	103074
2.55012	107408
2.55825	141998
2.56637	214886
2.57448	196873
2.58262	144736
2.59073	134948
2.59887	132358
2.60698	283930
2.61510	1046807
2.62323	1290357
2.63135	735095
2.63947	424891
2.64760	304561
2.65572	255567
2.66385	214794
2.67197	192323
2.68008	176200
2.68822	160748
2.69633	152907
2.70447	141114
2.71258	146166
2.72070	135553
2.72883	133466
2.73695	127833
2.74508	128559
2.75320	123678
2.76132	119065
2.76945	122246
2.77757	124758
2.78568	176557
2.79382	254586
2.80193	225173
2.81007	172751
2.81818	169865
2.82630	182735
2.83443	158330
2.84255	140515
2.85068	135881
2.85880	123648
2.86692	122668
2.87505	126510
2.88317	118491
2.89128	118789
2.89942	119936
2.90753	109324
2.91567	104868
2.92378	109886
2.93190	101492
2.94003	105764
2.94815	106087
2.95628	107005
2.96440	121714
2.97252	135778
2.98065	121988
2.98877	115664
2.99690	112034
3.00502	106912
3.01313	105084
3.02127	114567
3.02938	107018
3.03750	104262
3.04563	103797
3.05375	102414
3.06188	96131
3.07000	103059
3.07812	140034
3.08625	686971
3.09437	2892618
3.10250	5202502
3.11062	6229436
3.11873	6270892
3.12687	4291185
3.13498	2668130
3.14312	1947581
3.15123	1499584
3.15935	1225194
3.16748	1025725
3.17560	920655
3.18372	896924
3.19185	1181217
3.19997	1786853
3.20810	1692039
3.21622	1202823
3.22433	926461
3.23247	772495
3.24058	682941
3.24872	599749
3.25683	545831
3.26495	494977
3.27308	450615
3.28120	422134
3.28932	497179
3.29745	1064835
3.30557	2659581
3.31370	4494538
3.32182	4723905
3.32993	3517752
3.33807	2398085
3.34618	1750615
3.35432	1384968
3.36243	1175650
3.37055	1022169
3.37868	899435
3.38680	800243
3.39493	742784
3.40305	692484
3.41117	641957
3.41930	610964
3.42742	591252
3.43553	558718
3.44367	545986
3.45178	522389
3.45992	504955
3.46803	505064
3.47615	507448
3.48428	514344
3.49240	474254
3.50053	449135
3.50865	426644
3.51677	409096
3.52490	402043
3.53302	399990
3.54113	415688
3.54927	410203
3.55738	393653
3.56552	397819
3.57363	434224
3.58175	508243
3.58988	505745
3.59800	441231
3.60613	400189
3.61425	383613
3.62237	385782
3.63050	376095
3.63862	370053
3.64675	356542
3.65487	355164
3.66298	445428
3.67112	1319392
3.67923	4072981
3.68735	6498359
3.69548	5533526
3.70360	3277351
3.71173	2105981
3.71985	1662489
3.72797	1384058
3.73610	1192611
3.74422	1060876
3.75235	956107
3.76047	884518
3.76858	825318
3.77672	795098
3.78483	729955
3.79297	699608
3.80108	729615
3.80920	1054829
3.81733	1837143
3.82545	2327916
3.83357	1883393
3.84170	1324605
3.84982	1039083
3.85795	891520
3.86607	801751
3.87418	731337
3.88232	683118
3.89043	649717
3.89857	620548
3.90668	586851
3.91480	579131
3.92293	652126
3.93105	784582
3.93917	882398
3.94730	1027610
3.95542	2393842
3.96355	6551144
3.97167	1.114634E+07
3.97978	1.133985E+07
3.98792	7646406
3.99603	5350666
4.00417	9642246
4.01228	2.38713E+07
4.02040	3.872543E+07
4.02853	4.004564E+07
4.03665	2.815533E+07
4.04478	1.46858E+07
4.05290	8403924
4.06102	5753541
4.06915	4371812
4.07727	3525032
4.08538	2911790
4.09352	2521210
4.10163	2135907
4.10977	1920769
4.11788	1720667
4.12600	1576495
4.13413	1464150
4.14225	1415148
4.15038	1451031
4.15850	1506059
4.16662	1414337
4.17475	1273954
4.18287	1174649
4.19100	1082701
4.19912	1024634
4.20723	1048198
4.21537	1864568
4.22348	5194300
4.23160	1.101596E+07
4.23973	1.561693E+07
4.24785	1.51753E+07
4.25598	1.066817E+07
4.26410	6658815
4.27222	4645887
4.28035	3511313
4.28847	2802912
4.29660	2330318
4.30472	1996254
4.31283	1770348
4.32097	1563481
4.32908	1411124
4.33720	1308079
4.34533	1238051
4.35345	1194159
4.36158	1177386
4.36970	1140219
4.37782	1096898
4.38595	1011954
4.39407	947849
4.40220	906882
4.41032	851836
4.41843	822074
4.42657	787975
4.43468	761884
4.44282	739676
4.45093	711631
4.45905	701118
4.46718	666977
4.47530	652479
4.48342	656423
4.49155	627000
4.49967	615551
4.50780	596779
4.51592	584792
4.52403	569923
4.53217	553365
4.54028	550767
4.54842	538597
4.55653	536134
4.56465	520846
4.57278	498363
4.58090	488765
4.58903	490016
4.59715	486529
4.60527	474956
4.61340	476591
4.62152	485461
4.62963	562816
4.63777	757529
4.64588	969349
4.65402	1018747
4.66213	856077
4.67025	664887
4.67838	573792
4.68650	529290
4.69463	509567
4.70275	474671
4.71087	454630
4.71900	433082
4.72712	429518
4.73523	417996
4.74337	387486
4.75148	398249
4.75962	388728
4.76773	380345
4.77585	378075
4.78398	377351
4.79210	404128
4.80023	506613
4.80835	683637
4.81647	763577
4.82460	682756
4.83272	571113
4.84085	509120
4.84897	489811
4.85708	491392
4.86522	467966
4.87333	462519
4.88145	432473
4.88958	404735
4.89770	393933
4.90583	375823
4.91395	359078
4.92207	362028
4.93020	393974
4.93832	523255
4.94645	942442
4.95457	1732284
4.96268	2603349
4.97082	2936260
4.97893	2605485
4.98705	2001584
4.99518	1453409
5.00330	1105752
5.01143	917443
5.01955	808897
5.02767	830993
5.03580	1054122
5.04392	1364133
5.05205	1436522
5.06017	1268714
5.06828	1015162
5.07642	860028
5.08453	750040
5.09267	705056
5.10078	649731
5.10890	609842
5.11703	572230
5.12515	558418
5.13327	545310
5.14140	523690
5.14952	522344
5.15765	523905
5.16577	558747
5.17388	604943
5.18202	592966
5.19013	542209
5.19827	523905
5.20638	549898
5.21450	562504
5.22263	564236
5.23075	538685
5.23888	499444
5.24700	486742
5.25512	450082
5.26325	427177
5.27137	402426
5.27948	381551
5.28762	373829
5.29573	360598
5.30387	365239
5.31198	350120
5.32010	361536
5.32823	361524
5.33635	393813
5.34448	424805
5.35260	424456
5.36072	402572
5.36885	372414
5.37697	351171
5.38508	346875
5.39322	362692
5.40133	367820
5.40947	361950
5.41758	336507
5.42570	332150
5.43383	331736
5.44195	323976
5.45008	320109
5.45820	322053
5.46632	330894
5.47445	318065
5.48257	304478
5.49070	297281
5.49882	291034
5.50693	297697
5.51507	294580
5.52318	296911
5.53130	287590
5.53943	298183
5.54755	288177
5.55568	297819
5.56380	301598
5.57192	329516
5.58005	363219
5.58817	354302
5.59630	330952
5.60442	310440
5.61253	291615
5.62067	281685
5.62878	280796
5.63692	306012
5.64503	311173
5.65315	309463
5.66128	305286
5.66940	290382
5.67752	289390
5.68565	312594
5.69377	349963
5.70190	354131
5.71002	344894
5.71813	315376
5.72627	293436
5.73438	272915
5.74252	269773
5.75063	250742
5.75875	249996
5.76688	255539
5.77500	246682
5.78312	248304
5.79125	254465
5.79937	238359
5.80750	246224
5.81562	242229
5.82373	228900
5.83187	238073
5.83998	239083
5.84812	240355
5.85623	233430
5.86435	234159
5.87248	227814
5.88060	230425
5.88873	228714
5.89685	227760
5.90497	218589
5.91310	190585
5.92122	171841
5.92933	171472
5.93747	160535
5.94558	180541
5.95372	189374
5.96183	214114
5.96995	236367
5.97808	265096
5.98620	309869
5.99433	334466
6.00245	321499
6.01057	286491
6.01870	253912
6.02682	237454
6.03493	213676
6.04307	198733
6.05118	188123
6.05932	176662
6.06743	168246
6.07555	165509
6.08368	159730
6.09180	166636
6.09993	157274
6.10805	158860
6.11617	157008
6.12430	181397
6.13242	253195
6.14055	370467
6.14867	518318
6.15678	565335
6.16492	503813
6.17303	380013
6.18115	300808
6.18928	262197
6.19740	232763
6.20553	212769
6.21365	218216
6.22177	208220
6.22990	199528
6.23802	209177
6.24615	199543
6.25427	207304
6.26238	213358
6.27052	209586
6.27863	203447
6.28677	207817
6.29488	196675
6.30300	199184
6.31113	204356
6.31925	207458
6.32737	208349
6.33550	215630
6.34362	229820
6.35175	234831
6.35987	228282
6.36798	216755
6.37612	208115
6.38423	202398
6.39237	205337
6.40048	196419
6.40860	199574
6.41673	211412
6.42485	202988
6.43298	197368
6.44110	197656
6.44922	199700
6.45735	196235
6.46547	193479
6.47358	193911
6.48172	201407
6.48983	205404
6.49797	203456
6.50608	203557
6.51420	202262
6.52233	204287
6.53045	210284
6.53858	208649
6.54670	208480
6.55482	207267
6.56295	210584
6.57107	221940
6.57918	250759
6.58732	255413
6.59543	264718
6.60357	246635
6.61168	225717
6.61980	222450
6.62793	222508
6.63605	217990
6.64418	219488
6.65230	244354
6.66042	317630
6.66855	464824
6.67667	588037
6.68480	593481
6.69292	497193
6.70103	379857
6.70917	312043
6.71728	287757
6.72540	258414
6.73353	257840
6.74165	261624
6.74978	248656
6.75790	250754
6.76602	241011
6.77415	244040
6.78227	237149
6.79040	232245
6.79852	211810
6.80663	193330
6.81477	178233
6.82288	171773
6.83100	166367
6.83913	174624
6.84725	194366
6.85538	239397
6.86350	291242
6.87162	291486
6.87975	262393
6.88787	196178
6.89600	155510
6.90412	126646
6.91223	121249
6.92037	111924
6.92848	104982
6.93662	106479
6.94473	103282
6.95285	102684
6.96098	102387
6.96910	114324
6.97722	137781
6.98535	147421
6.99347	146923
7.00160	131726
7.00972	119684
7.01783	106612
7.02597	101595
7.03408	97077
7.04222	95579
7.05033	95313
7.05845	97850
7.06658	92888
7.07470	92738
7.08283	93877
7.09095	87737
7.09907	93342
7.10720	88207
7.11532	85921
7.12343	88065
7.13157	89916
7.13968	101472
7.14782	140701
7.15593	225985
7.16405	325453
7.17218	369047
7.18030	340985
7.18843	262401
7.19655	190726
7.20467	158108
7.21280	143428
7.22092	139195
7.22903	213870
7.23717	444127
7.24528	874995
7.25342	1296160
7.26153	1420253
7.26965	1128291
7.27778	711403
7.28590	449494
7.29403	318579
7.30215	279764
7.31027	245821
7.31840	192304
7.32652	168222
7.33465	131290
7.34277	120866
7.35088	106189
7.35902	106599
7.36713	106582
7.37525	108752
7.38338	109720
7.39150	113468
7.39963	114145
7.40775	105228
7.41587	99463
7.42400	93885
7.43212	88142
7.44025	88096
7.44837	89149
7.45648	92695
7.46462	94876
7.47273	93754
7.48087	86902
7.48898	83018
7.49710	84010
7.50523	96072
7.51335	111424
7.52147	151948
7.52960	213519
7.53772	308507
7.54585	386816
7.55397	447243
7.56208	431701
7.57022	361353
7.57833	285337
7.58647	205402
7.59458	153257
7.60270	128095
7.61083	106899
7.61895	105894
7.62707	100225
7.63520	92762
7.64332	89489
7.65145	84139
7.65957	79369
7.66768	81290
7.67582	79388
7.68393	78325
7.69207	75475
7.70018	78151
7.70830	76236
7.71643	78726
7.72455	79457
7.73268	78550
7.74080	76906
7.74892	74873
7.75705	80701
7.76517	77058
7.77328	76546
7.78142	79043
7.78953	82988
7.79767	94122
7.80578	106467
7.81390	103945
7.82203	101425
7.83015	92403
7.83828	80316
7.84640	80846
7.85452	77875
7.86265	84254
7.87077	88062
7.87888	86007
7.88702	99320
7.89513	96107
7.90327	86589
7.91138	84344
7.91950	81922
7.92763	87735
7.93575	102334
7.94388	130561
7.95200	144793
7.96012	140778
7.96825	125946
7.97637	114404
7.98450	99019
7.99262	88742
8.00073	74791
8.00887	73465
8.01698	69733
8.02510	74109
8.03323	73568
8.04135	77177
8.04948	75813
8.05760	72576
8.06572	69279
8.07385	74073
8.08197	67847
8.09010	70544
8.09822	65710
8.10633	69726
8.11447	65183
8.12258	70324
8.13072	81038
8.13883	83785
8.14695	100732
8.15508	113305
8.16320	111850
8.17132	103271
8.17945	89269
8.18757	81829
8.19570	75022
8.20382	74196
8.21193	68633
8.22007	65306
8.22818	69124
8.23632	68391
8.24443	64954
8.25255	65887
8.26068	62270
8.26880	67179
8.27692	64949
8.28505	65799
8.29317	70347
8.30130	70928
8.30942	76792
8.31753	80835
8.32567	78967
8.33378	73513
8.34192	74673
8.35003	70216
8.35815	70764
8.36628	68883
8.37440	68414
8.38253	75731
8.39065	78893
8.39877	77239
8.40690	75750
8.41502	68766
8.42313	66233
8.43127	63838
8.43938	67249
8.44752	64561
8.45563	62522
8.46375	64226
8.47188	60576
8.48000	66896
8.48813	63372
8.49625	64446
8.50437	62735
8.51250	65815
8.52062	65676
8.52875	69404
8.53687	100719
8.54498	184472
8.55312	292453
8.56123	394330
8.56935	422972
8.57748	350478
8.58560	255217
8.59373	169694
8.60185	132398
8.60997	118780
8.61810	106478
8.62622	92582
8.63435	88153
8.64247	79440
8.65058	76061
8.65872	78184
8.66683	75345
8.67495	69496
8.68308	79979
8.69120	81173
8.69933	78015
8.70745	77936
8.71557	77714
8.72370	75526
8.73182	74848
8.73995	76754
8.74807	110259
8.75618	196365
8.76432	370602
8.77243	592139
8.78057	775685
8.78868	804667
8.79680	683964
8.80493	485755
8.81305	340701
8.82117	238870
8.82930	181547
8.83742	157171
8.84555	158092
8.85367	166683
8.86178	169295
8.86992	168745
8.87803	159947
8.88617	151567
8.89428	144722
8.90240	139421
8.91053	135758
8.91865	134695
8.92678	130017
8.93490	131755
8.94302	139033
8.95115	149268
8.95927	167891
8.96738	169390
8.97552	156400
8.98363	148635
8.99177	148466
8.99988	143512
9.00800	133786
9.01613	124745
9.02425	117053
9.03238	108668
9.04050	109518
9.04862	107734
9.05675	103267
9.06487	98660
9.07298	111684
9.08112	106615
9.08923	110171
9.09737	124160
9.10548	127978
9.11360	141051
9.12173	150568
9.12985	150505
9.13798	136599
9.14610	122859
9.15422	111561
9.16235	105754
9.17047	100032
9.17860	101777
9.18672	96393
9.19483	96451
9.20297	89515
9.21108	91745
9.21920	92238
9.22733	90082
9.23545	90741
9.24358	88125
9.25170	88787
9.25982	90585
9.26795	85535
9.27607	84636
9.28420	89886
9.29232	85573
9.30043	85944
9.30857	84059
9.31668	83621
9.32480	87555
9.33293	83208
9.34105	80874
9.34918	84840
9.35730	81650
9.36542	80544
9.37355	83430
9.38167	80334
9.38980	81407
9.39792	83454
9.40603	96006
9.41417	101875
9.42228	114970
9.43042	140924
9.43853	150606
9.44665	143645
9.45478	135571
9.46290	121274
9.47102	104285
9.47915	92924
9.48727	86894
9.49540	85695
9.50352	91439
9.51163	100938
9.51977	110446
9.52788	118919
9.53602	107913
9.54413	104782
9.55225	93438
9.56038	81361
9.56850	75079
9.57663	79454
9.58475	86067
9.59287	89781
9.60100	90708
9.60912	80076
9.61723	69039
9.62537	62269
9.63348	53726
9.64162	51466
9.64973	53086
9.65785	55516
9.66598	56125
9.67410	55293
9.68223	53341
9.69035	52514
9.69847	52917
9.70660	51298
9.71472	48664
9.72283	51307
9.73097	49445
9.73908	48738
9.74722	47755
9.75533	47560
9.76345	50030
9.77158	48013
9.77970	51945
9.78783	45691
9.79595	46988
9.80407	53490
9.81220	45480
9.82032	45545
9.82845	47534
9.83657	46098
9.84468	46387
9.85282	47494
9.86093	46392
9.86905	54631
9.87718	50684
9.88530	51674
9.89343	51429
9.90155	53849
9.90967	59696
9.91780	60607
9.92592	72788
9.93405	93146
9.94217	123322
9.95028	171329
9.95842	218640
9.96653	224966
9.97467	216518
9.98278	170879
9.99090	137639
9.99903	106265
10.00715	93510
10.01527	83033
10.02340	72257
10.03152	66433
10.03965	65901
10.04777	65500
10.05588	62822
10.06402	60394
10.07213	59381
10.08027	57512
10.08838	62607
10.09650	58152
10.10463	64730
10.11275	67580
10.12087	68724
10.12900	65547
10.13712	62005
10.14525	62857
10.15337	65079
10.16148	61679
10.16962	58721
10.17773	56859
10.18587	57828
10.19398	54963
10.20210	52748
10.21023	58110
10.21835	51869
10.22648	56755
10.23460	56716
10.24272	59737
10.25085	64720
10.25897	74113
10.26708	111147
10.27522	222325
10.28333	505185
10.29147	992052
10.29958	1613987
10.30770	2299140
10.31583	3167894
10.32395	4521056
10.33208	6405950
10.34020	8043952
10.34832	8579024
10.35645	7377504
10.36457	5478545
10.37268	3945887
10.38082	2851303
10.38893	2047214
10.39707	1467484
10.40518	1012402
10.41330	724604
10.42143	553413
10.42955	454986
10.43768	398642
10.44580	373733
10.45392	357908
10.46205	337566
10.47017	316979
10.47830	293691
10.48642	276888
10.49453	258323
10.50267	242755
10.51078	229044
10.51890	222396
10.52703	207860
10.53515	201536
10.54328	194812
10.55140	194790
10.55952	188636
10.56765	186538
10.57577	172428
10.58390	180534
10.59202	167986
10.60013	167294
10.60827	156197
10.61638	150629
10.62452	140415
10.63263	144400
10.64075	137668
10.64888	129464
10.65700	127713
10.66512	129906
10.67325	122812
10.68137	132580
10.68950	128502
10.69762	118120
10.70573	120313
10.71387	115188
10.72198	114020
10.73012	118395
10.73823	117113
10.74635	114614
10.75448	117211
10.76260	111315
10.77073	104357
10.77885	106886
10.78697	99561
10.79510	96177
10.80322	100761
10.81133	92267
10.81947	97401
10.82758	96377
10.83572	89625
10.84383	89338
10.85195	81406
10.86008	83602
10.86820	84224
10.87633	87979
10.88445	84704
10.89257	85044
10.90070	84440
10.90882	82195
10.91693	78091
10.92507	73571
10.93318	79580
10.94132	78317
10.94943	79171
10.95755	77014
10.96568	79506
10.97380	78598
10.98193	89521
10.99005	80587
10.99817	77589
11.00630	72384
11.01442	77926
11.02255	79099
11.03067	70545
11.03878	70496
11.04692	70197
11.05503	69087
11.06315	70981
11.07128	75872
11.07940	69441
11.08753	77818
11.09565	72435
11.10377	73430
11.11190	71209
11.12002	67999
11.12815	63577
11.13627	62497
11.14438	61629
11.15252	61276
11.16063	62661
11.16875	64229
11.17688	62021
11.18500	66940
11.19313	68609
11.20125	66802
11.20937	66339
11.21750	65565
11.22562	66506
11.23375	63826
11.24187	62157
11.24998	60323
11.25812	60594
11.26623	52854
11.27437	51412
11.28248	54853
11.29060	57819
11.29873	69883
11.30685	108266
11.31497	176466
11.32310	294471
11.33122	460069
11.33935	574971
11.34747	657854
11.35558	607015
11.36372	468710
11.37183	335016
11.37997	220627
11.38808	158171
11.39620	125576
11.40433	113243
11.41245	108255
11.42058	118651
11.42870	111795
11.43682	113625
11.44495	103903
11.45307	103069
11.46118	88530
11.46932	90725
11.47743	92173
11.48557	101378
11.49368	120017
11.50180	133558
11.50993	140308
11.51805	134919
11.52618	125959
11.53430	108871
11.54242	98005
11.55055	92314
11.55867	91976
11.56678	85716
11.57492	88753
11.58303	81682
11.59117	86440
11.59928	97048
11.60740	108184
11.61553	132430
11.62365	147407
11.63178	148845
11.63990	135140
11.64802	115084
11.65615	102303
11.66427	92951
11.67240	80897
11.68052	81649
11.68863	89382
11.69677	86573
11.70488	84292
11.71300	89307
11.72113	83814
11.72925	79296
11.73738	69288
11.74550	69575
11.75362	72650
11.76175	60666
11.76987	61690
11.77800	60052
11.78612	64787
11.79423	65751
11.80237	66402
11.81048	68812
11.81862	69238
11.82673	65302
11.83485	66085
11.84298	68984
11.85110	69099
11.85922	67043
11.86735	67724
11.87547	62228
11.88360	61517
11.89172	59106
11.89983	56586
11.90797	63369
11.91608	57845
11.92422	65607
11.93233	70336
11.94045	74100
11.94858	68797
11.95670	62307
11.96482	63582
11.97295	73881
11.98107	110867
11.98920	211096
11.99732	399507
12.00543	687963
12.01357	942609
12.02168	1045387
12.02982	894821
12.03793	667048
12.04605	449653
12.05418	298088
12.06230	203668
12.07043	177004
12.07855	152490
12.08667	147680
12.09480	128599
12.10292	126779
12.11103	127860
12.11917	126149
12.12728	117684
12.13542	112874
12.14353	119914
12.15165	115112
12.15978	107573
12.16790	98356
12.17603	89685
12.18415	89950
12.19227	90699
12.20040	82817
12.20852	87780
12.21663	89190
12.22477	88297
12.23288	84943
12.24102	83349
12.24913	85525
12.25725	82121
12.26538	78471
12.27350	73690
12.28163	73203
12.28975	70014
12.29787	73248
12.30600	70980
12.31412	77614
12.32225	75477
12.33037	68772
12.33848	70752
12.34662	71650
12.35473	69168
12.36285	66772
12.37098	63804
12.37910	68590
12.38723	69774
12.39535	71281
12.40347	75039
12.41160	79438
12.41972	89741
12.42785	98065
12.43597	104382
12.44408	105830
12.45222	103057
12.46033	90241
12.46847	80364
12.47658	83234
12.48470	70767
12.49283	69623
12.50095	70505
12.50907	67263
12.51720	70261
12.52532	64636
12.53345	71672
12.54157	83457
12.54968	95046
12.55782	118057
12.56593	137700
12.57407	153944
12.58218	150910
12.59030	131197
12.59843	113929
12.60655	98159
12.61467	91508
12.62280	80328
12.63092	82068
12.63905	76583
12.64717	73873
12.65528	72416
12.66342	66393
12.67153	61952
12.67967	61046
12.68778	57205
12.69590	54024
12.70403	55622
12.71215	56832
12.72028	65571
12.72840	73354
12.73652	75395
12.74465	83742
12.75277	77814
12.76088	74198
12.76902	67509
12.77713	60525
12.78527	60928
12.79338	58255
12.80150	56296
12.80963	51081
12.81775	53436
12.82588	57620
12.83400	50358
12.84212	48772
12.85025	46078
12.85837	49286
12.86650	50528
12.87462	54034
12.88273	52307
12.89087	53311
12.89898	52547
12.90710	50000
12.91523	52847
12.92335	52732
12.93148	49452
12.93960	48987
12.94772	48686
12.95585	63411
12.96397	93076
12.97210	156363
12.98022	237843
12.98833	313290
12.99647	345347
13.00458	297247
13.01270	224010
13.02083	161504
13.02895	116707
13.03708	93443
13.04520	94722
13.05332	90138
13.06145	95309
13.06957	100108
13.07770	95656
13.08582	94636
13.09393	82415
13.10207	73713
13.11018	68234
13.11832	64446
13.12643	62623
13.13455	61908
13.14268	59585
13.15080	61268
13.15892	55766
13.16705	62672
13.17517	59311
13.18330	58986
13.19142	60524
13.19953	58451
13.20767	64737
13.21578	58162
13.22392	60484
13.23203	61295
13.24015	61521
13.24828	57684
13.25640	58382
13.26452	52683
13.27265	53858
13.28077	50014
13.28890	53671
13.29702	49567
13.30513	44387
13.31327	50366
13.32138	45114
13.32952	50949
13.33763	52493
13.34575	49275
13.35388	49076
13.36200	49066
13.37013	48578
13.37825	48441
13.38637	43528
13.39450	46882
13.40262	50233
13.41073	45876
13.41887	43574
13.42698	43537
13.43512	44516
13.44323	39523
13.45135	43699
13.45948	43957
13.46760	48129
13.47573	52434
13.48385	44535
13.49197	51838
13.50010	48236
13.50822	50933
13.51635	47992
13.52447	46777
13.53258	53565
13.54072	52952
13.54883	50737
13.55695	51284
13.56508	50161
13.57320	49159
13.58133	52473
13.58945	50436
13.59757	61909
13.60570	71822
13.61382	102228
13.62195	138112
13.63007	148924
13.63818	149180
13.64632	128053
13.65443	99633
13.66255	77366
13.67068	66155
13.67880	62701
13.68693	58107
13.69505	54512
13.70317	51988
13.71130	51674
13.71942	55386
13.72755	63157
13.73567	102597
13.74378	236215
13.75192	610177
13.76003	1417781
13.76817	2773965
13.77628	4085948
13.78440	4957047
13.79253	4701567
13.80065	3854393
13.80877	2571857
13.81690	1664958
13.82502	1137839
13.83315	907108
13.84127	819541
13.84938	720705
13.85752	609685
13.86563	521286
13.87377	434243
13.88188	393241
13.89000	339845
13.89813	324164
13.90625	299502
13.91438	275511
13.92250	255580
13.93062	241706
13.93875	235340
13.94687	231562
13.95498	241607
13.96312	284478
13.97123	298713
13.97937	354629
13.98748	372996
13.99560	377618
14.00373	335079
14.01185	291870
14.01998	244360
14.02810	218885
14.03622	191681
14.04435	184254
14.05247	177772
14.06058	179270
14.06872	174875
14.07683	169493
14.08497	159878
14.09308	155507
14.10120	160090
14.10933	152407
14.11745	152755
14.12558	161273
14.13370	167508
14.14182	190781
14.14995	225487
14.15807	241448
14.16620	259324
14.17432	267371
14.18243	302393
14.19057	359579
14.19868	422681
14.20680	457127
14.21493	423163
14.22305	361854
14.23118	305706
14.23930	260480
14.24742	222408
14.25555	214740
14.26367	192022
14.27180	174766
14.27992	156396
14.28803	143112
14.29617	127428
14.30428	122280
14.31242	124960
14.32053	117564
14.32865	111698
14.33678	115624
14.34490	105121
14.35302	97121
14.36115	88758
14.36927	83461
14.37740	78333
14.38552	80133
14.39363	95322
14.40177	134660
14.40988	207223
14.41802	322391
14.42613	417469
14.43425	430962
14.44238	375314
14.45050	287729
14.45862	202351
14.46675	151311
14.47487	119273
14.48300	104634
14.49112	97416
14.49923	96105
14.50737	99113
14.51548	100188
14.52362	107047
14.53173	110246
14.53985	111094
14.54798	99240
14.55610	86280
14.56423	78677
14.57235	75131
14.58047	68104
14.58860	64813
14.59672	66183
14.60483	66290
14.61297	62868
14.62108	59389
14.62922	65282
14.63733	64215
14.64545	62973
14.65358	59641
14.66170	60004
14.66983	61639
14.67795	55219
14.68607	54968
14.69420	54853
14.70232	55810
14.71043	57912
14.71857	55827
14.72668	60715
14.73482	66061
14.74293	60288
14.75105	67471
14.75918	70498
14.76730	67758
14.77543	72813
14.78355	73314
14.79167	97386
14.79980	183900
14.80792	420165
14.81605	909271
14.82417	1612166
14.83228	2335940
14.84042	2679410
14.84853	2457351
14.85665	1889757
14.86478	1223940
14.87290	750732
14.88103	480069
14.88915	339060
14.89727	260048
14.90540	215183
14.91352	190881
14.92165	174624
14.92977	156404
14.93788	152002
14.94602	145945
14.95413	123787
14.96227	120713
14.97038	122075
14.97850	110047
14.98663	106574
14.99475	110303
15.00287	108519
15.01100	103723
15.01912	96682
15.02725	96218
15.03537	92051
15.04348	91136
15.05162	86817
15.05973	85966
15.06787	84632
15.07598	83119
15.08410	82202
15.09223	77768
15.10035	76946
15.10847	75419
15.11660	73866
15.12472	79283
15.13285	81158
15.14097	88231
15.14908	88894
15.15722	85770
15.16533	84139
15.17347	76416
15.18158	74071
15.18970	65754
15.19783	63126
15.20595	64373
15.21408	57767
15.22220	62132
15.23032	61211
15.23845	55861
15.24657	58057
15.25468	54674
15.26282	55135
15.27093	51766
15.27907	52940
15.28718	51627
15.29530	47510
15.30343	50175
15.31155	46062
15.31968	50453
15.32780	44936
15.33592	45425
15.34405	46647
15.35217	43956
15.36030	46912
15.36842	50277
15.37653	48181
15.38467	47488
15.39278	50414
15.40090	47617
15.40903	46406
15.41715	48900
15.42528	49766
15.43340	46162
15.44152	49418
15.44965	44366
15.45777	48179
15.46590	60676
15.47402	63829
15.48213	84362
15.49027	105567
15.49838	130840
15.50650	147448
15.51463	145337
15.52275	126507
15.53088	121093
15.53900	108699
15.54712	102404
15.55525	100082
15.56337	93296
15.57150	77761
15.57962	71348
15.58773	62442
15.59587	55717
15.60398	53981
15.61212	55645
15.62023	51071
15.62835	46299
15.63648	49553
15.64460	47926
15.65272	49833
15.66085	45050
15.66897	47411
15.67710	47316
15.68522	42140
15.69333	45284
15.70147	43080
15.70958	42904
15.71772	42892
15.72583	50984
15.73395	48953
15.74208	50862
15.75020	55216
15.75832	69440
15.76645	100544
15.77457	152332
15.78270	210317
15.79082	275930
15.79893	292100
15.80707	262328
15.81518	216508
15.82332	149869
15.83143	117166
15.83955	91535
15.84768	81082
15.85580	68177
15.86393	69609
15.87205	62801
15.88017	61188
15.88830	56402
15.89642	63424
15.90453	63395
15.91267	57571
15.92078	55571
15.92892	53162
15.93703	62962
15.94515	73813
15.95328	99157
15.96140	142774
15.96953	204636
15.97765	253409
15.98577	278364
15.99390	268467
16.00202	236352
16.01015	182205
16.01827	147211
16.02638	124682
16.03452	118428
16.04263	106985
16.05075	98076
16.05888	84792
16.06700	76173
16.07513	69974
16.08325	68003
16.09137	65479
16.09950	63188
16.10762	65044
16.11575	65392
16.12387	65894
16.13198	65424
16.14012	68337
16.14823	65679
16.15637	72446
16.16448	68226
16.17260	64060
16.18073	65089
16.18885	61533
16.19697	60042
16.20510	55992
16.21322	63219
16.22135	56281
16.22947	60139
16.23758	54667
16.24572	52688
16.25383	51963
16.26197	53642
16.27008	53706
16.27820	52365
16.28633	59538
16.29445	62570
16.30257	62482
16.31070	63468
16.31882	58954
16.32695	55192
16.33507	58043
16.34318	67743
16.35132	88919
16.35943	127181
16.36757	185317
16.37568	246593
16.38380	269495
16.39193	259439
16.40005	224602
16.40818	175755
16.41630	129236
16.42442	101920
16.43255	87109
16.44067	77869
16.44878	87451
16.45692	117004
16.46503	169783
16.47317	266171
16.48128	366193
16.48940	413866
16.49753	384619
16.50565	305777
16.51378	223062
16.52190	150624
16.53002	109197
16.53815	88689
16.54627	80737
16.55438	76830
16.56252	71093
16.57063	73048
16.57877	75073
16.58688	81784
16.59500	94749
16.60313	113786
16.61125	124560
16.61938	143251
16.62750	145561
16.63562	129754
16.64375	110362
16.65187	93053
16.66000	81809
16.66812	73070
16.67623	69139
16.68437	68137
16.69248	61707
16.70060	59958
16.70873	60718
16.71685	55510
16.72498	55130
16.73310	54515
16.74122	53748
16.74935	51680
16.75747	57194
16.76560	52661
16.77372	52186
16.78183	50366
16.78997	54350
16.79808	49582
16.80622	53206
16.81433	48631
16.82245	49217
16.83058	47422
16.83870	51015
16.84682	43927
16.85495	46801
16.86307	46483
16.87120	46467
16.87932	44894
16.88743	45253
16.89557	42444
16.90368	49027
16.91182	44018
16.91993	45016
16.92805	39726
16.93618	46347
16.94430	42176
16.95242	42557
16.96055	43187
16.96867	44852
16.97680	42471
16.98492	39633
16.99303	41942
17.00117	46104
17.00928	45692
17.01742	44694
17.02553	45354
17.03365	50529
17.04178	53421
17.04990	52950
17.05803	57029
17.06615	55841
17.07427	53908
17.08240	50765
17.09052	52704
17.09863	50696
17.10677	46339
17.11488	47162
17.12302	47075
17.13113	48375
17.13925	50624
17.14738	47831
17.15550	45270
17.16363	48468
17.17175	48118
17.17987	44076
17.18800	48470
17.19612	45207
17.20425	40219
17.21237	44940
17.22048	41747
17.22862	42844
17.23673	40550
17.24485	47389
17.25298	45073
17.26110	45005
17.26923	47081
17.27735	42527
17.28547	41246
17.29360	42093
17.30172	43106
17.30985	43964
17.31797	50444
17.32608	60762
17.33422	63790
17.34233	66555
17.35045	72646
17.35858	72939
17.36670	66757
17.37483	63725
17.38295	57479
17.39107	56948
17.39920	51528
17.40732	56160
17.41545	54271
17.42357	56397
17.43168	57250
17.43982	55965
17.44793	53199
17.45607	53614
17.46418	50554
17.47230	51444
17.48043	47351
17.48855	44735
17.49667	44974
17.50480	47149
17.51292	50594
17.52105	46747
17.52917	48414
17.53728	45306
17.54542	42694
17.55353	56031
17.56167	68412
17.56978	101260
17.57790	176479
17.58603	291993
17.59415	476762
17.60227	709162
17.61040	898208
17.61852	950343
17.62665	844165
17.63477	661956
17.64288	500080
17.65102	391047
17.65913	362123
17.66727	349976
17.67538	333864
17.68350	297243
17.69163	257026
17.69975	202983
17.70788	166147
17.71600	142103
17.72412	123125
17.73225	108013
17.74037	99779
17.74848	91409
17.75662	86543
17.76473	81845
17.77287	86838
17.78098	83107
17.78910	101105
17.79723	141544
17.80535	232293
17.81348	398834
17.82160	608513
17.82972	802089
17.83785	848661
17.84597	751919
17.85410	598642
17.86222	439711
17.87033	320672
17.87847	240315
17.88658	195125
17.89470	166191
17.90283	147448
17.91095	123072
17.91908	115990
17.92720	111005
17.93532	105102
17.94345	99279
17.95157	93724
17.95970	89979
17.96782	88642
17.97593	86338
17.98407	87541
17.99218	79327
18.00030	80130
18.00843	76069
18.01655	78878
18.02468	88935
18.03280	101284
18.04092	112384
18.04905	127041
18.05717	180923
18.06530	340005
18.07342	655864
18.08153	1217500
18.08967	1832230
18.09778	2279532
18.10592	2304347
18.11403	1916608
18.12215	1453651
18.13028	1033764
18.13840	736169
18.14652	556533
18.15465	461112
18.16277	391604
18.17090	347218
18.17902	317069
18.18713	289772
18.19527	271406
18.20338	259612
18.21152	248825
18.21963	280744
18.22775	355272
18.23588	428689
18.24400	480033
18.25213	508014
18.26025	515913
18.26837	526387
18.27650	510654
18.28462	490027
18.29273	470133
18.30087	460550
18.30898	447447
18.31712	444793
18.32523	442831
18.33335	428220
18.34148	418255
18.34960	428407
18.35773	419399
18.36585	409333
18.37397	403215
18.38210	404593
18.39022	397143
18.39833	396245
18.40647	389759
18.41458	383455
18.42272	382919
18.43083	387323
18.43895	397658
18.44708	403007
18.45520	425208
18.46333	487243
18.47145	567379
18.47957	617712
18.48770	641271
18.49582	647758
18.50395	593937
18.51207	527116
18.52018	464830
18.52832	416352
18.53643	391587
18.54455	360341
18.55268	352952
18.56080	341058
18.56893	326882
18.57705	325223
18.58517	309937
18.59330	322877
18.60142	320855
18.60955	310531
18.61767	308897
18.62578	315189
18.63392	305314
18.64203	306340
18.65015	304230
18.65828	289719
18.66640	282088
18.67453	277804
18.68265	264379
18.69077	261820
18.69890	268433
18.70702	256341
18.71515	258137
18.72327	250285
18.73138	244775
18.73952	243873
18.74763	240723
18.75577	235960
18.76388	238417
18.77200	229747
18.78013	234289
18.78825	226778
18.79637	225140
18.80450	226257
18.81262	222083
18.82075	226437
18.82887	223859
18.83698	220521
18.84512	215394
18.85323	210840
18.86137	210330
18.86948	212239
18.87760	210374
18.88573	201173
18.89385	201903
18.90198	208578
18.91010	202114
18.91822	198821
18.92635	201706
18.93447	192677
18.94258	206038
18.95072	208163
18.95883	204828
18.96697	199518
18.97508	196291
18.98320	189917
18.99133	185798
18.99945	189682
19.00758	182791
19.01570	178816
19.02382	175710
19.03195	174484
19.04007	174635
19.04818	172249
19.05632	166759
19.06443	178017
19.07257	178062
19.08068	199362
19.08880	238763
19.09693	287578
19.10505	312005
19.11318	330215
19.12130	316440
19.12942	291983
19.13755	248805
19.14567	235054
19.15380	210023
19.16192	198871
19.17003	187341
19.17817	178894
19.18628	174014
19.19440	172052
19.20253	171882
19.21065	158533
19.21878	159014
19.22690	149976
19.23502	149555
19.24315	153541
19.25127	146162
19.25940	146061
19.26752	148942
19.27563	142599
19.28377	143405
19.29188	147272
19.30002	150394
19.30813	149948
19.31625	152758
19.32438	141361
19.33250	143344
19.34062	150238
19.34875	150839
19.35687	171424
19.36500	193270
19.37312	232360
19.38123	238505
19.38937	238659
19.39748	211570
19.40562	180309
19.41373	166729
19.42185	149560
19.42998	140225
19.43810	135988
19.44622	130844
19.45435	128760
19.46247	135217
19.47060	145580
19.47872	161283
19.48683	196678
19.49497	235637
19.50308	282336
19.51122	304761
19.51933	270109
19.52745	240900
19.53558	194620
19.54370	170986
19.55183	146283
19.55995	134508
19.56807	131096
19.57620	126069
19.58432	123408
19.59243	122301
19.60057	113309
19.60868	112941
19.61682	108896
19.62493	113564
19.63305	118327
19.64118	130809
19.64930	149017
19.65743	176402
19.66555	212292
19.67367	245204
19.68180	266247
19.68992	283850
19.69805	265403
19.70617	251441
19.71428	231002
19.72242	211609
19.73053	185894
19.73865	170970
19.74678	152576
19.75490	145736
19.76303	140680
19.77115	136328
19.77927	139440
19.78740	145694
19.79552	151924
19.80365	158630
19.81177	154490
19.81988	157894
19.82802	137044
19.83613	132146
19.84425	132751
19.85238	198767
19.86050	396747
19.86863	919696
19.87675	2042768
19.88487	3867049
19.89300	6150458
19.90112	7815746
19.90925	8411276
19.91737	7737624
19.92548	6097051
19.93362	4237730
19.94173	2709770
19.94987	1839917
19.95798	1369950
19.96610	1116973
19.97423	989407
19.98235	881180
19.99047	792599
19.99860	734186
20.00672	705931
20.01485	634810
20.02297	593059
20.03108	570843
20.03922	495189
20.04733	446293
20.05547	391552
20.06358	321661
20.07170	278428
20.07983	243121
20.08795	208154
20.09607	206744
20.10420	194034
20.11232	185197
20.12045	170596
20.12857	152293
20.13668	149094
20.14482	153516
20.15293	145237
20.16107	153466
20.16918	156959
20.17730	172726
20.18543	187533
20.19355	192149
20.20168	197853
20.20980	192535
20.21792	177851
20.22605	162823
20.23417	163761
20.24228	155208
20.25042	162539
20.25853	188455
20.26667	207299
20.27478	231917
20.28290	262554
20.29103	244647
20.29915	238936
20.30728	236047
20.31540	204350
20.32352	173290
20.33165	158205
20.33977	138993
20.34790	128246
20.35602	121902
20.36413	114431
20.37227	109057
20.38038	107633
20.38850	101710
20.39663	98086
20.40475	96568
20.41288	94713
20.42100	90484
20.42912	93558
20.43725	98971
20.44537	106578
20.45350	113731
20.46162	112667
20.46973	118363
20.47787	124397
20.48598	120143
20.49410	116578
20.50223	102958
20.51035	93078
20.51848	85457
20.52660	79181
20.53472	79316
20.54285	81442
20.55097	81905
20.55910	79452
20.56722	80734
20.57533	80088
20.58347	69344
20.59158	77534
20.59972	70688
20.60783	69442
20.61595	73620
20.62408	69468
20.63220	69272
20.64032	71392
20.64845	75920
20.65657	75102
20.66470	73408
20.67282	77598
20.68093	75589
20.68907	71385
20.69718	71525
20.70532	75066
20.71343	70785
20.72155	70679
20.72968	68144
20.73780	72041
20.74593	69050
20.75405	69886
20.76217	71435
20.77030	76367
20.77842	86036
20.78653	105225
20.79467	144293
20.80278	212005
20.81092	285463
20.81903	355871
20.82715	396889
20.83528	355918
20.84340	284289
20.85153	209496
20.85965	147894
20.86777	125907
20.87590	103641
20.88402	88172
20.89213	84548
20.90027	84306
20.90838	79926
20.91652	75513
20.92463	75642
20.93275	72813
20.94088	75936
20.94900	75726
20.95713	74308
20.96525	68235
20.97337	67597
20.98150	67458
20.98962	63851
20.99775	64591
21.00587	68400
21.01398	70607
21.02212	68006
21.03023	65751
21.03835	74875
21.04648	70535
21.05460	67584
21.06273	71189
21.07085	66323
21.07897	70143
21.08710	69806
21.09522	64566
21.10335	64791
21.11147	61897
21.11958	62713
21.12772	64376
21.13583	70542
21.14395	78815
21.15208	91514
21.16020	103828
21.16833	105037
21.17645	104298
21.18457	98274
21.19270	87891
21.20082	85670
21.20895	77000
21.21707	69250
21.22518	71659
21.23332	71455
21.24143	67259
21.24957	67228
21.25768	66465
21.26580	63410
21.27393	60663
21.28205	61893
21.29017	64430
21.29830	61977
21.30642	57696
21.31455	60362
21.32267	57227
21.33078	59555
21.33892	58711
21.34703	62447
21.35517	58785
21.36328	60558
21.37140	66917
21.37953	66683
21.38765	73751
21.39578	78424
21.40390	95828
21.41202	103396
21.42015	103732
21.42827	102764
21.43638	93119
21.44452	84669
21.45263	78963
21.46077	68096
21.46888	67425
21.47700	65490
21.48513	63878
21.49325	63159
21.50138	57556
21.50950	60500
21.51762	61176
21.52575	59137
21.53387	59410
21.54200	58880
21.55012	57658
21.55823	61558
21.56637	60673
21.57448	63574
21.58260	70978
21.59073	73079
21.59885	83595
21.60698	82875
21.61510	85872
21.62322	83282
21.63135	84440
21.63947	91933
21.64760	90556
21.65572	92379
21.66383	96247
21.67197	97952
21.68008	100521
21.68820	96564
21.69633	94043
21.70445	83363
21.71258	80272
21.72070	71510
21.72882	72815
21.73695	68692
21.74507	70914
21.75320	68115
21.76132	69251
21.76943	65453
21.77757	70199
21.78568	66971
21.79382	72237
21.80193	69661
21.81005	76437
21.81818	80811
21.82630	78373
21.83442	81691
21.84255	85813
21.85067	81145
21.85880	79572
21.86692	72482
21.87503	68989
21.88317	66809
21.89128	62560
21.89942	68726
21.90753	62415
21.91565	62029
21.92378	57300
21.93190	59592
21.94002	58973
21.94815	57960
21.95627	54654
21.96440	51687
21.97252	50577
21.98063	51145
21.98877	53007
21.99688	51442
22.00502	49238
22.01313	52067
22.02125	47506
22.02938	51113
22.03750	49598
22.04563	52605
22.05375	54688
22.06187	55351
22.07000	51082
22.07812	52723
22.08623	53402
22.09437	56181
22.10248	50269
22.11062	51690
22.11873	53403
22.12685	53730
22.13498	47773
22.14310	50451
22.15123	48430
22.15935	48785
22.16747	50058
22.17560	49765
22.18372	50962
22.19185	50829
22.19997	51139
22.20808	54670
22.21622	49055
22.22433	47065
22.23245	50878
22.24058	51043
22.24870	54736
22.25683	50234
22.26495	53325
22.27307	56340
22.28120	55470
22.28932	56374
22.29745	61840
22.30557	62618
22.31368	68331
22.32182	62843
22.32993	62526
22.33805	66694
22.34618	57709
22.35430	60216
22.36243	60338
22.37055	54667
22.37867	54040
22.38680	59567
22.39492	73614
22.40305	95929
22.41117	109568
22.41928	129853
22.42742	142490
22.43553	130357
22.44367	116582
22.45178	102435
22.45990	88872
22.46803	89921
22.47615	85511
22.48427	89980
22.49240	103978
22.50052	114908
22.50865	119594
22.51677	116326
22.52488	110658
22.53302	95287
22.54113	94614
22.54927	85770
22.55738	77667
22.56550	74007
22.57363	72063
22.58175	62772
22.58988	63275
22.59800	62492
22.60612	59647
22.61425	59794
22.62237	58749
22.63048	56705
22.63862	57441
22.64673	59910
22.65487	56666
22.66298	61413
22.67110	60075
22.67923	61678
22.68735	62725
22.69548	64300
22.70360	73117
22.71172	74137
22.71985	80284
22.72797	75209
22.73608	73881
22.74422	74014
22.75233	64251
22.76047	59117
22.76858	58258
22.77670	62842
22.78483	68517
22.79295	74004
22.80108	89314
22.80920	96493
22.81732	102528
22.82545	96833
22.83357	97906
22.84170	82166
22.84982	76173
22.85793	72059
22.86607	75621
22.87418	75551
22.88230	81989
22.89043	86396
22.89855	104079
22.90668	124839
22.91480	150339
22.92292	174098
22.93105	197536
22.93917	190988
22.94730	162952
22.95542	135907
22.96353	112508
22.97167	93619
22.97978	83522
22.98790	71324
22.99603	71475
23.00415	67762
23.01228	62319
23.02040	63806
23.02852	66291
23.03665	68136
23.04477	69911
23.05290	74288
23.06102	76331
23.06913	75846
23.07727	81482
23.08538	73188
23.09352	76446
23.10163	77795
23.10975	77464
23.11788	71774
23.12600	73413
23.13412	70842
23.14225	73909
23.15037	75156
23.15850	72196
23.16662	72861
23.17473	73521
23.18287	69220
23.19098	75490
23.19912	76644
23.20723	69969
23.21535	70039
23.22348	69805
23.23160	72592
23.23973	74806
23.24785	77607
23.25597	85108
23.26410	86888
23.27222	87012
23.28033	84529
23.28847	84087
23.29658	75060
23.30472	74071
23.31283	75294
23.32095	77638
23.32908	82599
23.33720	100261
23.34533	126427
23.35345	160703
23.36157	227487
23.36970	313549
23.37782	432110
23.38593	558525
23.39407	665983
23.40218	758994
23.41032	850612
23.41843	880960
23.42655	922560
23.43468	894677
23.44280	861151
23.45093	830483
23.45905	766271
23.46717	698365
23.47530	646292
23.48342	613044
23.49155	567824
23.49967	519984
23.50778	472303
23.51592	440889
23.52403	407472
23.53215	370013
23.54028	344604
23.54840	333688
23.55653	317150
23.56465	302598
23.57277	308023
23.58090	303728
23.58902	320785
23.59715	335273
23.60527	333389
23.61338	327240
23.62152	312388
23.62963	284751
23.63777	254312
23.64588	258468
23.65400	257885
23.66213	274832
23.67025	276476
23.67837	274851
23.68650	257270
23.69462	218957
23.70275	199998
23.71087	173606
23.71898	162298
23.72712	146120
23.73523	138917
23.74337	145774
23.75148	184277
23.75960	304447
23.76773	528356
23.77585	929982
23.78397	1445034
23.79210	1959056
23.80022	2184600
23.80835	2146136
23.81647	1949402
23.82458	1603521
23.83272	1227238
23.84083	962866
23.84897	760644
23.85708	600221
23.86520	515481
23.87333	437005
23.88145	389522
23.88958	346915
23.89770	326677
23.90582	304156
23.91395	284386
23.92207	266353
23.93018	263165
23.93832	241157
23.94643	225796
23.95457	206026
23.96268	199146
23.97080	185753
23.97893	178353
23.98705	176358
23.99518	179528
24.00330	215018
24.01142	323048
24.01955	526640
24.02767	764471
24.03578	980227
24.04392	1061978
24.05203	948309
24.06017	696976
24.06828	473870
24.07640	310879
24.08453	232720
24.09265	175839
24.10078	157184
24.10890	144017
24.11702	141412
24.12515	133125
24.13327	126722
24.14140	131585
24.14952	129027
24.15763	121002
24.16577	123229
24.17388	120418
24.18200	125005
24.19013	124477
24.19825	121313
24.20638	120962
24.21450	116719
24.22262	112748
24.23075	109332
24.23887	103772
24.24700	97642
24.25512	100729
24.26323	100362
24.27137	101628
24.27948	84335
24.28762	85594
24.29573	89996
24.30385	84256
24.31198	84848
24.32010	86488
24.32822	84044
24.33635	80506
24.34447	83724
24.35260	79663
24.36072	87119
24.36883	93158
24.37697	115948
24.38508	129178
24.39322	153436
24.40133	156682
24.40945	142792
24.41758	132249
24.42570	127459
24.43382	132686
24.44195	139553
24.45007	151913
24.45820	159101
24.46632	168411
24.47443	186908
24.48257	200652
24.49068	206048
24.49882	217200
24.50693	207762
24.51505	218236
24.52318	216022
24.53130	223045
24.53943	238195
24.54755	246065
24.55567	261659
24.56380	268179
24.57192	257999
24.58003	243667
24.58817	229717
24.59628	212016
24.60442	193963
24.61253	182322
24.62065	178813
24.62878	181283
24.63690	182363
24.64503	170947
24.65315	171103
24.66127	168387
24.66940	166526
24.67752	178712
24.68565	171652
24.69377	166682
24.70188	162659
24.71002	173269
24.71813	170127
24.72625	174603
24.73438	163589
24.74250	162568
24.75063	166508
24.75875	173775
24.76687	173599
24.77500	175678
24.78312	184336
24.79125	180565
24.79937	183142
24.80748	183065
24.81562	191030
24.82373	194172
24.83185	206301
24.83998	220337
24.84810	258679
24.85623	311476
24.86435	374323
24.87247	481251
24.88060	593446
24.88872	706589
24.89685	759943
24.90497	730924
24.91308	612646
24.92122	491826
24.92933	392727
24.93747	286258
24.94558	234957
24.95370	207331
24.96183	185877
24.96995	171070
24.97807	166499
24.98620	163693
24.99432	156984
25.00245	156174
25.01057	154243
25.01868	154081
25.02682	146647
25.03493	142631
25.04307	141588
25.05118	142560
25.05930	137136
25.06743	134778
25.07555	137018
25.08368	141423
25.09180	151835
25.09992	197245
25.10805	298154
25.11617	583580
25.12428	1071123
25.13242	1788443
25.14053	2521042
25.14867	2971319
25.15678	2948911
25.16490	2563516
25.17303	1874887
25.18115	1213418
25.18928	718800
25.19740	433674
25.20552	272091
25.21365	196512
25.22177	162297
25.22988	146133
25.23802	149173
25.24613	174820
25.25427	205020
25.26238	260351
25.27050	299307
25.27863	314029
25.28675	303323
25.29488	258209
25.30300	207988
25.31112	170458
25.31925	136057
25.32737	119249
25.33550	103035
25.34362	96313
25.35173	85614
25.35987	85853
25.36798	80085
25.37610	77953
25.38423	80731
25.39235	74739
25.40048	74219
25.40860	72007
25.41672	71615
25.42485	66626
25.43297	69873
25.44110	75953
25.44922	69093
25.45733	69127
25.46547	71962
25.47358	72664
25.48170	69315
25.48983	66038
25.49795	63748
25.50608	66505
25.51420	61827
25.52232	60731
25.53045	63842
25.53857	63473
25.54670	63650
25.55482	74026
25.56293	94453
25.57107	124726
25.57918	154450
25.58732	168685
25.59543	180358
25.60355	195183
25.61168	195388
25.61980	205197
25.62792	205203
25.63605	202773
25.64417	204664
25.65230	199456
25.66042	210179
25.66853	216067
25.67667	207937
25.68478	210668
25.69292	205806
25.70103	209991
25.70915	204026
25.71728	202380
25.72540	209249
25.73353	198594
25.74165	200607
25.74977	208316
25.75790	207185
25.76602	201805
25.77413	203398
25.78227	198437
25.79038	205501
25.79852	207193
25.80663	205325
25.81475	201643
25.82288	215822
25.83100	213753
25.83913	236881
25.84725	242369
25.85537	243252
25.86350	239728
25.87162	219828
25.87973	209858
25.88787	203762
25.89598	185302
25.90412	177899
25.91223	180466
25.92035	168773
25.92848	168733
25.93660	163671
25.94473	159308
25.95285	169541
25.96097	165843
25.96910	164261
25.97722	152411
25.98535	155424
25.99347	145527
26.00158	149328
26.00972	145188
26.01783	143825
26.02595	136522
26.03408	147155
26.04220	147675
26.05033	144935
26.05845	141247
26.06657	140123
26.07470	139897
26.08282	140638
26.09095	132833
26.09907	136563
26.10718	139740
26.11532	139482
26.12343	127109
26.13157	132724
26.13968	133233
26.14780	134807
26.15593	133575
26.16405	131089
26.17217	130155
26.18030	127017
26.18842	121025
26.19655	121676
26.20467	120298
26.21278	120805
26.22092	115956
26.22903	111219
26.23717	115143
26.24528	112622
26.25340	110520
26.26153	108680
26.26965	104761
26.27777	103286
26.28590	103829
26.29402	100193
26.30215	101892
26.31027	101246
26.31838	106787
26.32652	97541
26.33463	98356
26.34277	94658
26.35088	94053
26.35900	95930
26.36713	91866
26.37525	94595
26.38338	100604
26.39150	100885
26.39962	103496
26.40775	106389
26.41587	101463
26.42398	104438
26.43212	97752
26.44023	96654
26.44837	93864
26.45648	89778
26.46460	90760
26.47273	86541
26.48085	92931
26.48898	90863
26.49710	91210
26.50522	82476
26.51335	83204
26.52147	82968
26.52958	74740
26.53772	79439
26.54583	81439
26.55397	77637
26.56208	74770
26.57020	76936
26.57833	76376
26.58645	78836
26.59458	72978
26.60270	74028
26.61082	69433
26.61895	71868
26.62707	71313
26.63520	67490
26.64332	71695
26.65143	75914
26.65957	77529
26.66768	81804
26.67580	83236
26.68393	75581
26.69205	78719
26.70018	71769
26.70830	69700
26.71642	68503
26.72455	67680
26.73267	65256
26.74080	66126
26.74892	65657
26.75703	66134
26.76517	66433
26.77328	66736
26.78142	64686
26.78953	71985
26.79765	75914
26.80578	75967
26.81390	75055
26.82202	75171
26.83015	71078
26.83827	69142
26.84640	66744
26.85452	62531
26.86263	62505
26.87077	59860
26.87888	60412
26.88702	61454
26.89513	59500
26.90325	59438
26.91138	61434
26.91950	59801
26.92763	60247
26.93575	62158
26.94387	58302
26.95200	66232
26.96012	61977
26.96823	68842
26.97637	76962
26.98448	95073
26.99262	128439
27.00073	166299
27.00885	227990
27.01698	275478
27.02510	311565
27.03323	345454
27.04135	351984
27.04947	336035
27.05760	290671
27.06572	256330
27.07383	220912
27.08197	185665
27.09008	165981
27.09822	151247
27.10633	141238
27.11445	139867
27.12258	122768
27.13070	124495
27.13883	117576
27.14695	112712
27.15507	108392
27.16320	103887
27.17132	106221
27.17945	103958
27.18757	103980
27.19568	102163
27.20382	102192
27.21193	96474
27.22005	95882
27.22818	91699
27.23630	95145
27.24443	89261
27.25255	85639
27.26067	87566
27.26880	84448
27.27692	77317
27.28505	72517
27.29317	73165
27.30128	73141
27.30942	71259
27.31753	66748
27.32565	66240
27.33378	65532
27.34190	65762
27.35003	71384
27.35815	69903
27.36627	71763
27.37440	67300
27.38252	67438
27.39065	66075
27.39877	63511
27.40688	62375
27.41502	60812
27.42313	65721
27.43127	59042
27.43938	63490
27.44750	65810
27.45563	60632
27.46375	58074
27.47187	62054
27.48000	52789
27.48812	57238
27.49625	58853
27.50437	54529
27.51248	58619
27.52062	70866
27.52873	65107
27.53687	67036
27.54498	62913
27.55310	61683
27.56123	63140
27.56935	69183
27.57748	66362
27.58560	73094
27.59372	82529
27.60185	87458
27.60997	84855
27.61808	81507
27.62622	74050
27.63433	69432
27.64247	63123
27.65058	61244
27.65870	64014
27.66683	63532
27.67495	62188
27.68308	61800
27.69120	62705
27.69932	62351
27.70745	60876
27.71557	61972
27.72368	54407
27.73182	57094
27.73993	53774
27.74807	54090
27.75618	53330
27.76430	51148
27.77243	52538
27.78055	57122
27.78868	53586
27.79680	55796
27.80492	55920
27.81305	54660
27.82117	51727
27.82930	51789
27.83742	56622
27.84553	51182
27.85367	57854
27.86178	51651
27.86990	50867
27.87803	50044
27.88615	48578
27.89428	47431
27.90240	51522
27.91052	46375
27.91865	45687
27.92677	49831
27.93490	47733
27.94302	48580
27.95113	47293
27.95927	44291
27.96738	47612
27.97552	46859
27.98363	46522
27.99175	48579
27.99988	46219
28.00800	56032
28.01612	53131
28.02425	72140
28.03237	72040
28.04050	85689
28.04862	86584
28.05673	90074
28.06487	88937
28.07298	81783
28.08112	76960
28.08923	72918
28.09735	69424
28.10548	65812
28.11360	58622
28.12172	61082
28.12985	53953
28.13797	53233
28.14610	51128
28.15422	47551
28.16233	49761
28.17047	48225
28.17858	53585
28.18672	53969
28.19483	64895
28.20295	73881
28.21108	83287
28.21920	84104
28.22733	85551
28.23545	82522
28.24357	76626
28.25170	70689
28.25982	61920
28.26793	59716
28.27607	54418
28.28418	52018
28.29232	51464
28.30043	55194
28.30855	63191
28.31668	64772
28.32480	79176
28.33293	81166
28.34105	81335
28.34917	94777
28.35730	94817
28.36542	103019
28.37353	110911
28.38167	116161
28.38978	121595
28.39792	127110
28.40603	127140
28.41415	132989
28.42228	122509
28.43040	119236
28.43853	117243
28.44665	102405
28.45477	101570
28.46290	98607
28.47102	90975
28.47915	91393
28.48727	84958
28.49538	84846
28.50352	81446
28.51163	78641
28.51975	76369
28.52788	74348
28.53600	70507
28.54413	67444
28.55225	66729
28.56037	65241
28.56850	65260
28.57662	61468
28.58475	65038
28.59287	57776
28.60098	60552
28.60912	58700
28.61723	63861
28.62537	61668
28.63348	64090
28.64160	68367
28.64973	67963
28.65785	64309
28.66597	64083
28.67410	67405
28.68222	61997
28.69035	60888
28.69847	57011
28.70658	52477
28.71472	58786
28.72283	55864
28.73097	53222
28.73908	62746
28.74720	68722
28.75533	72265
28.76345	77337
28.77157	77355
28.77970	77835
28.78782	71150
28.79595	71678
28.80407	66835
28.81218	63907
28.82032	65399
28.82843	64562
28.83657	59742
28.84468	60779
28.85280	58264
28.86093	55509
28.86905	55664
28.87718	64596
28.88530	66948
28.89342	70095
28.90155	76958
28.90967	71868
28.91778	69793
28.92592	62990
28.93403	60998
28.94217	54828
28.95028	60230
28.95840	63072
28.96653	58681
28.97465	56178
28.98278	56659
28.99090	52927
28.99902	49298
29.00715	50342
29.01527	50900
29.02340	49527
29.03152	47613
29.03963	45954
29.04777	49279
29.05588	47912
29.06400	53888
29.07213	50115
29.08025	51822
29.08838	54571
29.09650	56609
29.10462	52705
29.11275	51624
29.12087	50929
29.12900	50628
29.13712	51588
29.14523	49630
29.15337	48867
29.16148	49627
29.16960	46325
29.17773	52797
29.18585	56885
29.19398	66791
29.20210	82851
29.21022	96787
29.21835	100317
29.22647	111944
29.23460	104477
29.24272	118874
29.25083	119962
29.25897	145548
29.26708	158190
29.27522	159578
29.28333	142562
29.29145	126808
29.29958	103058
29.30770	80045
29.31582	64824
29.32395	57759
29.33207	53891
29.34020	51818
29.34832	52879
29.35643	49960
29.36457	45392
29.37268	44931
29.38082	43697
29.38893	44847
29.39705	47510
29.40518	47850
29.41330	45017
29.42143	47720
29.42955	48779
29.43767	51124
29.44580	51910
29.45392	46476
29.46203	41280
29.47017	49063
29.47828	48285
29.48642	48600
29.49453	50382
29.50265	49803
29.51078	52184
29.51890	53229
29.52703	50642
29.53515	46381
29.54327	46680
29.55140	46651
29.55952	51146
29.56763	44311
29.57577	44007
29.58388	42583
29.59202	44000
29.60013	40195
29.60825	41537
29.61638	44566
29.62450	43217
29.63263	43390
29.64075	44661
29.64887	42387
29.65700	41318
29.66512	41858
29.67325	46414
29.68137	51742
29.68948	48280
29.69762	49954
29.70573	52438
29.71385	51929
29.72198	53019
29.73010	49370
29.73823	47823
29.74635	42210
29.75447	48455
29.76260	43616
29.77072	44333
29.77885	44214
29.78697	39567
29.79508	40411
29.80322	48030
29.81133	41479
29.81945	38510
29.82758	40605
29.83570	42308
29.84383	37769
29.85195	42169
29.86007	42909
29.86820	48432
29.87632	55539
29.88445	70505
29.89257	79639
29.90068	81851
29.90882	84495
29.91693	76578
29.92507	73575
29.93318	61182
29.94130	55288
29.94943	52952
29.95755	50902
29.96567	55004
29.97380	55781
29.98192	59728
29.99005	63710
29.99817	70104
30.00628	71167
30.01442	75832
30.02253	78052
30.03067	81948
30.03878	80183
30.04690	80171
30.05503	72619
30.06315	80729
30.07128	79834
30.07940	79121
30.08752	76546
30.09565	79918
30.10377	76015
30.11188	75403
30.12002	80243
30.12813	72256
30.13627	72527
30.14438	71549
30.15250	67765
30.16063	63561
30.16875	65261
30.17688	66523
30.18500	67950
30.19312	67710
30.20125	66159
30.20937	66941
30.21748	63819
30.22562	63171
30.23373	59644
30.24187	55237
30.24998	56361
30.25810	59373
30.26623	55423
30.27435	53330
30.28248	53905
30.29060	50730
30.29872	49020
30.30685	54426
30.31497	55378
30.32310	48857
30.33122	49393
30.33933	55217
30.34747	53989
30.35558	52713
30.36370	48689
30.37183	51410
30.37995	51977
30.38808	48285
30.39620	47787
30.40432	44506
30.41245	45160
30.42057	44442
30.42870	45266
30.43682	47095
30.44493	44755
30.45307	42370
30.46118	45897
30.46932	51353
30.47743	41848
30.48555	44321
30.49368	43879
30.50180	46030
30.50992	47088
30.51805	43994
30.52617	46843
30.53430	46887
30.54242	43113
30.55053	46255
30.55867	40885
30.56678	43849
30.57492	43555
30.58303	44233
30.59115	44714
30.59928	42865
30.60740	43747
30.61552	43328
30.62365	45321
30.63177	43815
30.63990	41772
30.64802	40585
30.65613	42045
30.66427	47985
30.67238	56497
30.68052	59636
30.68863	66130
30.69675	74033
30.70488	75527
30.71300	76933
30.72113	75208
30.72925	82838
30.73737	87440
30.74550	88396
30.75362	86086
30.76173	92616
30.76987	102294
30.77798	105724
30.78612	113821
30.79423	137230
30.80235	149678
30.81048	162422
30.81860	157758
30.82673	152362
30.83485	141219
30.84297	122078
30.85110	113226
30.85922	106012
30.86733	108162
30.87547	106582
30.88358	101934
30.89172	103056
30.89983	99849
30.90795	104602
30.91608	102953
30.92420	98811
30.93233	95979
30.94045	96565
30.94857	99394
30.95670	100172
30.96482	101823
30.97295	98018
30.98107	95685
30.98918	95638
30.99732	97853
31.00543	97265
31.01355	92933
31.02168	93670
31.02980	96286
31.03793	99364
31.04605	95939
31.05417	98160
31.06230	93100
31.07042	96082
31.07855	100084
31.08667	104906
31.09478	106602
31.10292	115201
31.11103	118348
31.11917	113296
31.12728	108623
31.13540	102496
31.14353	100470
31.15165	99980
31.15977	96899
31.16790	96253
31.17602	104929
31.18415	110715
31.19227	118964
31.20038	139142
31.20852	171547
31.21663	190928
31.22477	210307
31.23288	219678
31.24100	202989
31.24913	173549
31.25725	142694
31.26538	111824
31.27350	101823
31.28162	90085
31.28975	85201
31.29787	81842
31.30598	82386
31.31412	83130
31.32223	80778
31.33037	79112
31.33848	79186
31.34660	80414
31.35473	78021
31.36285	86583
31.37098	79781
31.37910	80162
31.38722	87097
31.39535	81764
31.40347	81267
31.41158	80408
31.41972	76984
31.42783	74053
31.43597	70466
31.44408	70946
31.45220	72445
31.46033	69365
31.46845	67433
31.47658	69080
31.48470	68199
31.49282	68727
31.50095	71230
31.50907	67141
31.51720	69483
31.52532	68606
31.53343	74378
31.54157	68392
31.54968	73264
31.55780	70993
31.56593	72470
31.57405	67267
31.58218	66311
31.59030	65575
31.59842	64754
31.60655	60557
31.61467	62949
31.62280	63064
31.63092	59784
31.63903	62988
31.64717	64593
31.65528	65989
31.66340	66478
31.67153	69731
31.67965	65312
31.68778	70570
31.69590	63941
31.70402	61664
31.71215	64129
31.72027	62470
31.72840	57867
31.73652	62252
31.74463	61428
31.75277	55423
31.76088	61100
31.76902	55115
31.77713	54542
31.78525	53905
31.79338	54182
31.80150	60127
31.80962	55895
31.81775	57880
31.82587	57813
31.83400	55965
31.84212	60253
31.85023	56146
31.85837	53855
31.86648	56926
31.87462	60284
31.88273	61051
31.89085	62889
31.89898	69129
31.90710	71236
31.91523	74716
31.92335	78277
31.93147	83800
31.93960	79670
31.94772	85317
31.95583	82206
31.96397	87093
31.97208	85209
31.98022	84522
31.98833	90625
31.99645	86912
32.00458	85924
32.01270	80666
32.02083	86105
32.02895	85242
32.03707	82208
32.04520	81979
32.05332	83331
32.06143	78065
32.06957	80040
32.07768	73277
32.08582	68954
32.09393	71082
32.10205	68742
32.11018	67111
32.11830	63047
32.12643	60225
32.13455	56670
32.14267	59169
32.15080	58692
32.15892	61316
32.16705	61440
32.17517	57159
32.18328	55963
32.19142	55963
32.19953	55689
32.20765	56641
32.21578	53814
32.22390	59744
32.23203	54765
32.24015	54831
32.24827	54103
32.25640	62423
32.26452	56616
32.27265	60644
32.28077	55903
32.28888	56257
32.29702	51278
32.30513	55313
32.31327	56682
32.32138	55338
32.32950	55549
32.33763	54601
32.34575	54071
32.35387	55516
32.36200	52836
32.37012	50675
32.37825	52959
32.38637	51116
32.39448	51213
32.40262	50173
32.41073	50950
32.41887	51969
32.42698	53174
32.43510	48672
32.44323	47532
32.45135	51639
32.45947	46383
32.46760	49984
32.47572	47421
32.48385	48215
32.49197	46986
32.50008	46573
32.50822	48978
32.51633	47425
32.52447	44487
32.53258	49656
32.54070	48125
32.54883	47470
32.55695	53517
32.56508	45094
32.57320	47451
32.58132	48671
32.58945	47616
32.59757	49660
32.60568	46949
32.61382	48190
32.62193	43898
32.63007	48622
32.63818	52492
32.64630	56846
32.65443	61698
32.66255	65536
32.67068	63740
32.67880	58529
32.68692	55074
32.69505	49258
32.70317	56982
32.71128	53498
32.71942	49007
32.72753	50078
32.73567	52395
32.74378	48892
32.75190	47556
32.76003	53353
32.76815	47605
32.77628	46287
32.78440	44355
32.79252	45860
32.80065	44865
32.80877	43548
32.81690	46613
32.82502	46963
32.83313	42706
32.84127	44400
32.84938	44886
32.85750	46482
32.86563	49489
32.87375	48575
32.88188	49317
32.89000	48430
32.89812	50298
32.90625	51263
32.91437	46677
32.92250	50488
32.93062	52011
32.93873	47591
32.94687	46242
32.95498	48364
32.96312	48981
32.97123	49335
32.97935	55690
32.98748	58721
32.99560	61705
33.00372	73736
33.01185	70625
33.01997	72646
33.02810	63518
33.03622	58117
33.04433	56761
33.05247	55122
33.06058	58110
33.06872	57078
33.07683	57152
33.08495	57548
33.09308	65702
33.10120	68963
33.10932	73971
33.11745	71631
33.12557	72123
33.13370	76762
33.14182	65769
33.14993	59429
33.15807	55539
33.16618	55388
33.17432	54007
33.18243	48289
33.19055	50558
33.19868	50410
33.20680	51505
33.21493	50134
33.22305	50123
33.23117	47187
33.23930	47351
33.24742	48555
33.25553	48727
33.26367	48673
33.27178	42370
33.27992	46064
33.28803	49417
33.29615	49408
33.30428	46485
33.31240	48323
33.32053	48213
33.32865	50348
33.33677	46372
33.34490	53393
33.35302	45932
33.36115	53437
33.36927	48172
33.37738	50420
33.38552	48608
33.39363	50076
33.40175	48742
33.40988	49735
33.41800	47419
33.42613	44698
33.43425	42664
33.44237	43144
33.45050	46954
33.45862	45149
33.46675	45960
33.47487	44936
33.48298	45455
33.49112	48201
33.49923	49777
33.50735	45547
33.51548	47341
33.52360	48513
33.53173	45359
33.53985	49891
33.54797	52552
33.55610	50521
33.56422	55071
33.57235	54438
33.58047	51250
33.58858	48524
33.59672	48043
33.60483	43901
33.61297	45577
33.62108	46256
33.62920	48274
33.63733	46843
33.64545	56299
33.65357	50654
33.66170	49858
33.66982	49015
33.67795	49796
33.68607	48977
33.69418	47864
33.70232	48149
33.71043	44333
33.71857	45382
33.72668	44512
33.73480	41384
33.74293	43873
33.75105	45241
33.75917	43835
33.76730	44744
33.77542	47198
33.78355	44085
33.79167	43219
33.79978	46722
33.80792	48465
33.81603	43919
33.82417	47155
33.83228	47080
33.84040	46453
33.84853	43453
33.85665	43501
33.86478	48598
33.87290	45788
33.88102	49863
33.88915	46922
33.89727	49864
33.90538	48725
33.91352	50036
33.92163	46893
33.92977	49457
33.93788	51932
33.94600	45231
33.95413	48608
33.96225	41284
33.97038	41394
33.97850	41949
33.98662	43611
33.99475	41835
34.00287	44139
34.01100	45182
34.01912	46720
34.02723	46397
34.03537	46142
34.04348	41971
34.05160	46909
34.05973	50828
34.06785	45481
34.07598	44895
34.08410	46812
34.09222	46947
34.10035	45485
34.10847	42811
34.11660	46477
34.12472	45195
34.13283	48467
34.14097	46110
34.14908	48668
34.15720	47181
34.16533	49682
34.17345	46762
34.18158	51207
34.18970	48658
34.19782	47429
34.20595	49008
34.21407	45433
34.22220	50144
34.23032	50066
34.23843	48051
34.24657	50664
34.25468	45078
34.26282	47378
34.27093	47745
34.27905	48673
34.28718	42009
34.29530	45724
34.30342	46427
34.31155	46597
34.31967	42020
34.32780	40209
34.33592	50405
34.34403	49577
34.35217	46269
34.36028	44518
34.36842	44796
34.37653	46517
34.38465	45095
34.39278	49001
34.40090	48571
34.40903	46447
34.41715	46017
34.42527	47035
34.43340	43433
34.44152	50969
34.44963	44572
34.45777	48597
34.46588	47284
34.47402	44050
34.48213	43741
34.49025	48672
34.49838	50996
34.50650	55931
34.51463	60475
34.52275	62014
34.53087	67464
34.53900	73595
34.54712	76917
34.55523	75313
34.56337	74310
34.57148	73982
34.57962	71879
34.58773	68673
34.59585	69406
34.60398	62759
34.61210	62361
34.62023	59318
34.62835	60281
34.63647	58929
34.64460	61437
34.65272	64118
34.66085	55837
34.66897	54796
34.67708	53048
34.68522	52508
34.69333	51564
34.70145	53318
34.70958	53150
34.71770	55140
34.72583	49659
34.73395	50251
34.74207	51599
34.75020	52155
34.75832	54591
34.76645	51188
34.77457	52858
34.78268	53178
34.79082	50537
34.79893	51260
34.80707	50594
34.81518	51365
34.82330	54197
34.83143	53232
34.83955	54784
34.84767	52109
34.85580	52788
34.86392	50972
34.87205	54787
34.88017	52675
34.88828	48167
34.89642	50258
34.90453	49548
34.91267	50613
34.92078	51518
34.92890	53487
34.93703	55501
34.94515	55602
34.95327	56422
34.96140	57881
34.96952	62978
34.97765	58592
34.98577	64857
34.99388	59915
35.00202	56222
35.01013	51519
35.01827	52611
35.02638	50115
35.03450	51896
35.04263	46174
35.05075	51362
35.05888	50040
35.06700	49419
35.07512	52815
35.08325	46474
35.09137	46228
35.09948	48794
35.10762	46920
35.11573	48924
35.12387	47910
35.13198	48219
35.14010	50058
35.14823	52275
35.15635	48779
35.16448	48211
35.17260	50167
35.18072	53015
35.18885	47796
35.19697	49167
35.20508	49393
35.21322	46879
35.22133	43630
35.22947	50815
35.23758	48735
35.24570	47916
35.25383	46086
35.26195	47683
35.27008	47665
35.27820	49484
35.28632	46440
35.29445	46446
35.30257	48270
35.31070	48134
35.31882	48148
35.32693	42900
35.33507	45136
35.34318	45700
35.35130	52566
35.35943	48959
35.36755	43267
35.37568	45788
35.38380	48745
35.39192	52976
35.40005	51163
35.40817	55509
35.41630	52620
35.42442	57003
35.43253	54728
35.44067	55818
35.44878	59494
35.45692	58514
35.46503	56552
35.47315	55769
35.48128	58568
35.48940	53807
35.49752	50410
35.50565	51285
35.51377	53440
35.52190	55338
35.53002	48485
35.53813	50512
35.54627	51417
35.55438	46923
35.56252	46322
35.57063	45960
35.57875	46920
35.58688	49243
35.59500	47247
35.60312	49390
35.61125	50555
35.61937	49297
35.62750	52019
35.63562	48881
35.64373	52391
35.65187	49914
35.65998	51931
35.66812	52768
35.67623	50239
35.68435	53878
35.69248	51645
35.70060	50838
35.70873	48333
35.71685	51959
35.72497	52324
35.73310	48697
35.74122	51696
35.74933	56665
35.75747	56983
35.76558	53454
35.77372	54717
35.78183	53640
35.78995	54758
35.79808	52599
35.80620	53329
35.81433	52186
35.82245	51359
35.83057	50324
35.83870	50433
35.84682	48173
35.85495	48980
35.86307	47888
35.87118	50404
35.87932	50156
35.88743	51189
35.89555	49035
35.90368	49052
35.91180	50715
35.91993	47162
35.92805	48976
35.93617	48610
35.94430	49259
35.95242	49149
35.96055	51732
35.96867	49563
35.97678	46098
35.98492	49693
35.99303	53392
36.00115	52138
36.00928	53780
36.01740	52030
36.02553	55365
36.03365	55457
36.04177	52144
36.04990	50964
36.05802	51050
36.06615	50603
36.07427	51745
36.08238	51089
36.09052	52801
36.09863	50851
36.10677	53550
36.11488	51086
36.12300	52135
36.13113	53054
36.13925	50769
36.14737	52868
36.15550	49613
36.16362	54742
36.17175	52511
36.17987	50534
36.18798	51103
36.19612	46773
36.20423	50052
36.21237	47797
36.22048	51647
36.22860	53514
36.23673	49697
36.24485	51991
36.25297	57041
36.26110	65404
36.26922	68531
36.27735	70502
36.28547	79350
36.29358	85080
36.30172	88152
36.30983	89851
36.31797	88520
36.32608	86424
36.33420	81537
36.34233	80058
36.35045	81929
36.35858	77093
36.36670	79813
36.37482	77522
36.38295	76094
36.39107	79965
36.39918	79501
36.40732	82724
36.41543	83046
36.42357	73900
36.43168	79775
36.43980	74256
36.44793	80419
36.45605	83925
36.46418	80555
36.47230	77252
36.48042	77335
36.48855	74446
36.49667	76487
36.50480	76116
36.51292	79644
36.52103	76454
36.52917	74325
36.53728	77027
36.54540	77112
36.55353	76890
36.56165	76535
36.56978	75875
36.57790	74187
36.58602	68691
36.59415	75450
36.60227	70939
36.61040	75497
36.61852	76184
36.62663	77524
36.63477	78601
36.64288	74365
36.65102	74375
36.65913	72118
36.66725	73724
36.67538	73799
36.68350	75650
36.69162	69445
36.69975	80215
36.70787	76562
36.71600	71796
36.72412	73021
36.73223	71884
36.74037	73195
36.74848	74541
36.75662	70569
36.76473	70483
36.77285	70461
36.78098	70724
36.78910	66952
36.79722	66733
36.80535	71592
36.81347	67177
36.82160	71351
36.82972	70558
36.83783	68851
36.84597	66182
36.85408	74587
36.86222	67467
36.87033	65746
36.87845	68056
36.88658	67998
36.89470	68145
36.90283	65997
36.91095	66544
36.91907	70127
36.92720	71195
36.93532	74471
36.94343	75888
36.95157	85604
36.95968	90589
36.96782	84797
36.97593	93511
36.98405	90278
36.99218	79242
37.00030	73896
37.00843	75525
37.01655	70733
37.02467	72749
37.03280	68430
37.04092	67774
37.04903	64770
37.05717	67971
37.06528	70050
37.07342	65861
37.08153	62391
37.08965	68113
37.09778	70274
37.10590	70571
37.11403	70513
37.12215	70895
37.13027	64477
37.13840	67995
37.14652	67244
37.15465	65252
37.16277	65458
37.17088	68303
37.17902	65195
37.18713	67206
37.19525	67072
37.20338	64074
37.21150	66452
37.21963	65921
37.22775	66799
37.23587	71397
37.24400	62963
37.25212	63096
37.26025	62530
37.26837	65297
37.27648	64009
37.28462	64320
37.29273	65803
37.30087	65342
37.30898	68947
37.31710	73009
37.32523	82998
37.33335	84767
37.34147	93952
37.34960	90518
37.35772	86365
37.36585	90872
37.37397	81891
37.38208	80317
37.39022	81313
37.39833	77644
37.40647	76071
37.41458	73600
37.42270	78122
37.43083	73772
37.43895	75889
37.44707	74932
37.45520	76269
37.46332	77490
37.47145	73236
37.47957	73379
37.48768	68745
