C:\MassHunter\GCMS\1\data\JTB-E18\JTB-E18-026-10.D Tue Sep 17 18:08:05 2019
Start of data points
2.09517	105146
2.10330	104580
2.11142	109363
2.11953	109931
2.12767	105334
2.13578	102387
2.14392	105247
2.15203	103676
2.16015	105295
2.16828	104883
2.17640	90804
2.18452	94691
2.19265	93724
2.20077	95182
2.20890	92922
2.21702	96835
2.22513	91803
2.23327	90961
2.24138	97921
2.24952	88722
2.25763	88893
2.26575	101939
2.27388	381816
2.28200	1488622
2.29013	1567559
2.29825	759032
2.30637	429793
2.31450	334285
2.32262	282769
2.33073	251649
2.33887	245029
2.34698	225209
2.35512	200518
2.36323	183278
2.37135	179035
2.37948	169399
2.38760	228856
2.39573	195544
2.40385	165656
2.41197	154560
2.42010	149027
2.42822	156952
2.43635	145875
2.44447	141132
2.45258	155602
2.46072	145975
2.46883	134494
2.47695	135158
2.48508	131002
2.49320	156304
2.50133	184170
2.50945	158050
2.51757	137948
2.52570	133791
2.53382	132498
2.54195	126501
2.55007	131050
2.55818	131407
2.56632	125286
2.57443	116013
2.58257	123934
2.59068	122524
2.59880	126424
2.60693	120339
2.61505	139383
2.62317	146643
2.63130	142583
2.63942	132156
2.64755	127744
2.65567	123032
2.66378	128279
2.67192	127378
2.68003	153932
2.68817	149208
2.69628	128107
2.70440	124824
2.71253	117958
2.72065	115421
2.72877	112533
2.73690	114153
2.74502	112077
2.75315	117228
2.76127	115587
2.76938	109791
2.77752	109671
2.78563	107910
2.79377	111438
2.80188	106857
2.81000	114958
2.81813	121162
2.82625	187850
2.83438	389409
2.84250	457322
2.85062	278186
2.85875	189478
2.86687	183167
2.87498	170522
2.88312	143308
2.89123	135261
2.89937	124749
2.90748	120281
2.91560	115678
2.92373	116564
2.93185	111551
2.93998	108908
2.94810	108670
2.95622	107335
2.96435	104824
2.97247	108026
2.98058	111498
2.98872	110873
2.99683	110999
3.00497	116971
3.01308	117253
3.02120	133214
3.02933	216947
3.03745	376855
3.04558	531082
3.05370	1268336
3.06182	3484494
3.06995	4589151
3.07807	2938370
3.08620	1371186
3.09432	785801
3.10243	559062
3.11057	444887
3.11868	381292
3.12680	330493
3.13493	275371
3.14305	251894
3.15118	233079
3.15930	221269
3.16742	206836
3.17555	201691
3.18367	195366
3.19180	179362
3.19992	172069
3.20803	160691
3.21617	157768
3.22428	166581
3.23242	162302
3.24053	158761
3.24865	156364
3.25678	144091
3.26490	141970
3.27302	144686
3.28115	221084
3.28927	813121
3.29740	3074798
3.30552	6966555
3.31363	8991123
3.32177	7414810
3.32988	4783106
3.33802	3109857
3.34613	2191588
3.35425	1716436
3.36238	1409515
3.37050	1245853
3.37862	1248189
3.38675	1231217
3.39487	1086299
3.40300	1063970
3.41112	1589820
3.41923	2419905
3.42737	2377432
3.43548	1619693
3.44362	1033833
3.45173	767951
3.45985	666004
3.46798	608146
3.47610	551371
3.48423	502130
3.49235	468528
3.50047	446917
3.50860	417100
3.51672	410655
3.52483	386400
3.53297	370706
3.54108	365716
3.54922	339623
3.55733	328623
3.56545	322200
3.57358	318101
3.58170	308094
3.58983	297457
3.59795	292404
3.60607	300083
3.61420	308733
3.62232	466283
3.63045	854937
3.63857	1297913
3.64668	1249144
3.65482	863997
3.66293	547554
3.67105	416546
3.67918	353245
3.68730	323572
3.69543	298971
3.70355	284506
3.71167	274917
3.71980	268701
3.72792	262338
3.73605	256706
3.74417	257257
3.75228	258017
3.76042	257957
3.76853	247735
3.77665	245509
3.78478	234833
3.79290	236687
3.80103	231110
3.80915	225090
3.81727	228243
3.82540	225003
3.83352	223907
3.84165	222090
3.84977	212622
3.85788	211542
3.86602	199777
3.87413	195927
3.88227	201710
3.89038	195903
3.89850	202643
3.90663	199151
3.91475	199983
3.92287	194283
3.93100	191157
3.93912	182443
3.94725	187369
3.95537	182068
3.96348	184378
3.97162	179384
3.97973	183674
3.98787	174741
3.99598	175819
4.00410	183513
4.01223	178114
4.02035	177137
4.02847	177688
4.03660	175802
4.04472	175855
4.05285	176733
4.06097	177565
4.06908	177413
4.07722	178924
4.08533	179028
4.09347	170164
4.10158	170814
4.10970	167655
4.11783	170827
4.12595	171344
4.13408	201681
4.14220	301003
4.15032	481570
4.15845	555342
4.16657	481348
4.17468	338844
4.18282	251045
4.19093	216080
4.19907	200368
4.20718	200439
4.21530	297648
4.22343	685554
4.23155	1503794
4.23968	2071284
4.24780	1834575
4.25592	1229271
4.26405	817214
4.27217	600051
4.28030	457073
4.28842	382930
4.29653	340711
4.30467	297413
4.31278	275198
4.32090	253041
4.32903	248681
4.33715	231173
4.34528	226123
4.35340	217981
4.36152	209201
4.36965	203654
4.37777	203094
4.38590	202906
4.39402	191031
4.40213	184649
4.41027	183648
4.41838	178211
4.42650	182421
4.43463	174678
4.44275	180495
4.45088	176523
4.45900	187891
4.46712	185033
4.47525	178125
4.48337	177060
4.49150	166018
4.49962	166956
4.50773	163448
4.51587	159954
4.52398	162147
4.53212	159233
4.54023	159547
4.54835	163147
4.55648	150905
4.56460	158638
4.57272	151644
4.58085	152293
4.58897	151751
4.59710	158346
4.60522	152949
4.61333	144689
4.62147	155083
4.62958	144266
4.63772	152754
4.64583	145341
4.65395	143395
4.66208	145080
4.67020	141582
4.67833	147750
4.68645	147747
4.69457	151273
4.70270	142916
4.71082	144346
4.71893	142791
4.72707	140750
4.73518	143710
4.74332	139204
4.75143	141802
4.75955	135916
4.76768	137261
4.77580	134351
4.78393	143359
4.79205	139154
4.80017	135259
4.80830	137858
4.81642	142651
4.82453	139421
4.83267	138967
4.84078	142550
4.84892	141854
4.85703	133665
4.86515	143429
4.87328	141136
4.88140	139346
4.88953	138535
4.89765	141393
4.90577	134115
4.91390	167214
4.92202	296659
4.93015	713436
4.93827	1647766
4.94638	2839833
4.95452	3561483
4.96263	3397093
4.97075	2604062
4.97888	1803301
4.98700	1274499
4.99513	965881
5.00325	772527
5.01137	654106
5.01950	574773
5.02762	504433
5.03575	462934
5.04387	430434
5.05198	394708
5.06012	371378
5.06823	355881
5.07635	331106
5.08448	314576
5.09260	316485
5.10073	314510
5.10885	328472
5.11697	341896
5.12510	338910
5.13322	326378
5.14135	300198
5.14947	267922
5.15758	257386
5.16572	255207
5.17383	278858
5.18197	298537
5.19008	305998
5.19820	295378
5.20633	280116
5.21445	253038
5.22257	254034
5.23070	266988
5.23882	309896
5.24695	358967
5.25507	343434
5.26318	301408
5.27132	251159
5.27943	231047
5.28757	216564
5.29568	209236
5.30380	207227
5.31193	192971
5.32005	186190
5.32818	196199
5.33630	185357
5.34442	189317
5.35255	194005
5.36067	183944
5.36878	173064
5.37692	175145
5.38503	166762
5.39317	168684
5.40128	170653
5.40940	173654
5.41753	163708
5.42565	161267
5.43378	162256
5.44190	157652
5.45002	167034
5.45815	168096
5.46627	168416
5.47438	162242
5.48252	157970
5.49063	160160
5.49877	165202
5.50688	162730
5.51500	163931
5.52313	156171
5.53125	157533
5.53938	155729
5.54750	155482
5.55562	153487
5.56375	165451
5.57187	150911
5.58000	163485
5.58812	158118
5.59623	157848
5.60437	158628
5.61248	159449
5.62060	172786
5.62873	170138
5.63685	174186
5.64498	176997
5.65310	175348
5.66122	170538
5.66935	166010
5.67747	168316
5.68560	171528
5.69372	175978
5.70183	181930
5.70997	180389
5.71808	178946
5.72622	186061
5.73433	193915
5.74245	184928
5.75058	179320
5.75870	180668
5.76682	186722
5.77495	197877
5.78307	181281
5.79120	184504
5.79932	200145
5.80743	234344
5.81557	348302
5.82368	519444
5.83182	693075
5.83993	735325
5.84805	631679
5.85618	476752
5.86430	347121
5.87242	261247
5.88055	220370
5.88867	198525
5.89680	193107
5.90492	200101
5.91303	217592
5.92117	277607
5.92928	341359
5.93742	380243
5.94553	349131
5.95365	276312
5.96178	220426
5.96990	176982
5.97803	165240
5.98615	159785
5.99427	144939
6.00240	132502
6.01052	136969
6.01863	122830
6.02677	125932
6.03488	119880
6.04302	121650
6.05113	113457
6.05925	117482
6.06738	109049
6.07550	107297
6.08363	113396
6.09175	107157
6.09987	107314
6.10800	102078
6.11612	104765
6.12425	105644
6.13237	102845
6.14048	106076
6.14862	107877
6.15673	111910
6.16485	112405
6.17298	123215
6.18110	123118
6.18923	132496
6.19735	142099
6.20547	153239
6.21360	143678
6.22172	135698
6.22985	132986
6.23797	125681
6.24608	127127
6.25422	135783
6.26233	140432
6.27045	134977
6.27858	144918
6.28670	136004
6.29483	140687
6.30295	148952
6.31107	146201
6.31920	144172
6.32732	153378
6.33545	157603
6.34357	160407
6.35168	160194
6.35982	167945
6.36793	179790
6.37607	175874
6.38418	180454
6.39230	168867
6.40043	170944
6.40855	176496
6.41667	177912
6.42480	179425
6.43292	177126
6.44105	185234
6.44917	188244
6.45728	198925
6.46542	197379
6.47353	194028
6.48167	198030
6.48978	189504
6.49790	198720
6.50603	199232
6.51415	200606
6.52227	200395
6.53040	161522
6.53852	139288
6.54665	136333
6.55477	135052
6.56288	121566
6.57102	124192
6.57913	120505
6.58727	118646
6.59538	111079
6.60350	111352
6.61163	109177
6.61975	111126
6.62788	105001
6.63600	96177
6.64412	107335
6.65225	100498
6.66037	100420
6.66848	106256
6.67662	99458
6.68473	100657
6.69287	106588
6.70098	105069
6.70910	98481
6.71723	108863
6.72535	122626
6.73348	141046
6.74160	151938
6.74972	162809
6.75785	144827
6.76597	132292
6.77410	120980
6.78222	110395
6.79033	103719
6.79847	99654
6.80658	89870
6.81470	90488
6.82283	90091
6.83095	92783
6.83908	93439
6.84720	101511
6.85532	129606
6.86345	191120
6.87157	288595
6.87970	388361
6.88782	449279
6.89593	439741
6.90407	372481
6.91218	275311
6.92030	190118
6.92843	131519
6.93655	100502
6.94468	86985
6.95280	81790
6.96092	77349
6.96905	72494
6.97717	70858
6.98530	66646
6.99342	65759
7.00153	69955
7.00967	83087
7.01778	104996
7.02592	130884
7.03403	176042
7.04215	211143
7.05028	221989
7.05840	202278
7.06652	174380
7.07465	139102
7.08277	116858
7.09090	101961
7.09902	93516
7.10713	90828
7.11527	90443
7.12338	80432
7.13152	81445
7.13963	83709
7.14775	81018
7.15588	82866
7.16400	76958
7.17213	71333
7.18025	70491
7.18837	68377
7.19650	71566
7.20462	74412
7.21273	74319
7.22087	79624
7.22898	73719
7.23712	80538
7.24523	77537
7.25335	82520
7.26148	83669
7.26960	94094
7.27773	101312
7.28585	106280
7.29397	108694
7.30210	103296
7.31022	97527
7.31833	88299
7.32647	83849
7.33458	90443
7.34272	87855
7.35083	91448
7.35895	89344
7.36708	83335
7.37520	84707
7.38333	98948
7.39145	104514
7.39957	134679
7.40770	158230
7.41582	161064
7.42395	156327
7.43207	140591
7.44018	107698
7.44832	100057
7.45643	89085
7.46455	86352
7.47268	82627
7.48080	76936
7.48893	82708
7.49705	100819
7.50517	106800
7.51330	121348
7.52142	129626
7.52955	115264
7.53767	108639
7.54578	99020
7.55392	87999
7.56203	81018
7.57015	77556
7.57828	68387
7.58640	70852
7.59453	66344
7.60265	70833
7.61077	64419
7.61890	69498
7.62702	61849
7.63515	65781
7.64327	65871
7.65138	67125
7.65952	67511
7.66763	66707
7.67577	64143
7.68388	65315
7.69200	61376
7.70013	63976
7.70825	62474
7.71637	63426
7.72450	62035
7.73262	55524
7.74075	57600
7.74887	56299
7.75698	54726
7.76512	57212
7.77323	63140
7.78137	60393
7.78948	56599
7.79760	57756
7.80573	58514
7.81385	59773
7.82198	62136
7.83010	58141
7.83822	60083
7.84635	55072
7.85447	55760
7.86258	57829
7.87072	55449
7.87883	55773
7.88697	54872
7.89508	56897
7.90320	56810
7.91133	54251
7.91945	57596
7.92758	55296
7.93570	57049
7.94382	54545
7.95195	56650
7.96007	57831
7.96820	58911
7.97632	59247
7.98443	57313
7.99257	59156
8.00068	56864
8.00880	53590
8.01693	56025
8.02505	54958
8.03318	53055
8.04130	52726
8.04942	56537
8.05755	54943
8.06567	49691
8.07380	50750
8.08192	49223
8.09003	51959
8.09817	52483
8.10628	53999
8.11440	49734
8.12253	45885
8.13065	49681
8.13878	51646
8.14690	52503
8.15502	55720
8.16315	49833
8.17127	53732
8.17940	59761
8.18752	53622
8.19563	52130
8.20377	55085
8.21188	49861
8.22002	52635
8.22813	51719
8.23625	50672
8.24438	50841
8.25250	49081
8.26062	52155
8.26875	49451
8.27687	53751
8.28500	52062
8.29312	48578
8.30123	50122
8.30937	47722
8.31748	48971
8.32562	52277
8.33373	53956
8.34185	54111
8.34998	58485
8.35810	53933
8.36622	57708
8.37435	56427
8.38247	51505
8.39060	52169
8.39872	54258
8.40683	51553
8.41497	50162
8.42308	49319
8.43122	50841
8.43933	51467
8.44745	47252
8.45558	51998
8.46370	49273
8.47183	52137
8.47995	51760
8.48807	50145
8.49620	57201
8.50432	57850
8.51243	63040
8.52057	59190
8.52868	61353
8.53682	59357
8.54493	55688
8.55305	51504
8.56118	53731
8.56930	52961
8.57743	51708
8.58555	53540
8.59367	52077
8.60180	55528
8.60992	53250
8.61805	52527
8.62617	52893
8.63428	46154
8.64242	50823
8.65053	52669
8.65865	47983
8.66678	47261
8.67490	50788
8.68303	49746
8.69115	49615
8.69927	54510
8.70740	50228
8.71552	51938
8.72365	58461
8.73177	86589
8.73988	165847
8.74802	355350
8.75613	654179
8.76425	973990
8.77238	1141876
8.78050	1044306
8.78863	773249
8.79675	540620
8.80487	371499
8.81300	287058
8.82112	247468
8.82925	209557
8.83737	179868
8.84548	154756
8.85362	137770
8.86173	132463
8.86987	122530
8.87798	117726
8.88610	107979
8.89423	103956
8.90235	96280
8.91047	92630
8.91860	92521
8.92672	89131
8.93485	86988
8.94297	80851
8.95108	86978
8.95922	84489
8.96733	79853
8.97547	76430
8.98358	78955
8.99170	80524
8.99983	75908
9.00795	77455
9.01608	77825
9.02420	71341
9.03232	73228
9.04045	73613
9.04857	74728
9.05668	70873
9.06482	71805
9.07293	70094
9.08107	71896
9.08918	70626
9.09730	71058
9.10543	64106
9.11355	67043
9.12168	70329
9.12980	67532
9.13792	69564
9.14605	70133
9.15417	70334
9.16228	65611
9.17042	63904
9.17853	66779
9.18667	61836
9.19478	67291
9.20290	64504
9.21103	66304
9.21915	64041
9.22728	62277
9.23540	62727
9.24352	60724
9.25165	65438
9.25977	64165
9.26790	59669
9.27602	61346
9.28413	61694
9.29227	61600
9.30038	60216
9.30850	65754
9.31663	61181
9.32475	60043
9.33288	55119
9.34100	60825
9.34912	61281
9.35725	63507
9.36537	60415
9.37350	58795
9.38162	56866
9.38973	58407
9.39787	55238
9.40598	57053
9.41410	53450
9.42223	55292
9.43035	55390
9.43848	53340
9.44660	55925
9.45472	57508
9.46285	54063
9.47097	53063
9.47910	56450
9.48722	56407
9.49533	56275
9.50347	52305
9.51158	56678
9.51972	52015
9.52783	53256
9.53595	51106
9.54408	47078
9.55220	47398
9.56032	44633
9.56845	46041
9.57657	43762
9.58470	43454
9.59282	45295
9.60093	47143
9.60907	43128
9.61718	44751
9.62532	37274
9.63343	36014
9.64155	39470
9.64968	37915
9.65780	37338
9.66593	39610
9.67405	36758
9.68217	39820
9.69030	41248
9.69842	39818
9.70653	35990
9.71467	38409
9.72278	36497
9.73092	38233
9.73903	37763
9.74715	35324
9.75528	36371
9.76340	38119
9.77153	38782
9.77965	37916
9.78777	35135
9.79590	37219
9.80402	38120
9.81213	36749
9.82027	37589
9.82838	37235
9.83652	37244
9.84463	37823
9.85275	36155
9.86088	42335
9.86900	38461
9.87713	35170
9.88525	38067
9.89337	41999
9.90150	34981
9.90962	35601
9.91775	35860
9.92587	36853
9.93398	34181
9.94212	39093
9.95023	37616
9.95835	38506
9.96648	39182
9.97460	43555
9.98273	41138
9.99085	45594
9.99897	49178
10.00710	44646
10.01522	46984
10.02335	45183
10.03147	44569
10.03958	37776
10.04772	40347
10.05583	42738
10.06397	38071
10.07208	37517
10.08020	35482
10.08833	40021
10.09645	36341
10.10457	36205
10.11270	36777
10.12082	35922
10.12895	37078
10.13707	35742
10.14518	35699
10.15332	36843
10.16143	37467
10.16957	38025
10.17768	34423
10.18580	39705
10.19393	37025
10.20205	34901
10.21017	35422
10.21830	36750
10.22642	36722
10.23455	40835
10.24267	40380
10.25078	41827
10.25892	39487
10.26703	38844
10.27517	38918
10.28328	41052
10.29140	40526
10.29953	38885
10.30765	41208
10.31578	38872
10.32390	41748
10.33202	41411
10.34015	37889
10.34827	37877
10.35638	37488
10.36452	35151
10.37263	36986
10.38077	39913
10.38888	40152
10.39700	39754
10.40513	39795
10.41325	41461
10.42138	39202
10.42950	41747
10.43762	40537
10.44575	40727
10.45387	37740
10.46200	35370
10.47012	37978
10.47823	36718
10.48637	37188
10.49448	36887
10.50260	39166
10.51073	36526
10.51885	40227
10.52698	40561
10.53510	40574
10.54322	42391
10.55135	40867
10.55947	37216
10.56760	39013
10.57572	37993
10.58383	41515
10.59197	41297
10.60008	38214
10.60820	41786
10.61633	38645
10.62445	33784
10.63258	37626
10.64070	37596
10.64882	37150
10.65695	35755
10.66507	37981
10.67320	34280
10.68132	32125
10.68943	38427
10.69757	36117
10.70568	40372
10.71382	42643
10.72193	39216
10.73005	39404
10.73818	39795
10.74630	40847
10.75442	38665
10.76255	39119
10.77067	42246
10.77880	43056
10.78692	38023
10.79503	37271
10.80317	37143
10.81128	36155
10.81942	39886
10.82753	34797
10.83565	37929
10.84378	37356
10.85190	38361
10.86002	35711
10.86815	34674
10.87627	34187
10.88440	35177
10.89252	33586
10.90063	33752
10.90877	37815
10.91688	37969
10.92502	33299
10.93313	39746
10.94125	37196
10.94938	32425
10.95750	33306
10.96563	34479
10.97375	36420
10.98187	37145
10.99000	38748
10.99812	33230
11.00623	38071
11.01437	37382
11.02248	30157
11.03062	32509
11.03873	30502
11.04685	34760
11.05498	31005
11.06310	31241
11.07123	30330
11.07935	33127
11.08747	32219
11.09560	30835
11.10372	32396
11.11185	33953
11.11997	32425
11.12808	34297
11.13622	33263
11.14433	36112
11.15245	38946
11.16058	39469
11.16870	41829
11.17683	39707
11.18495	40553
11.19307	37942
11.20120	39480
11.20932	40297
11.21745	38277
11.22557	41823
11.23368	37650
11.24182	36943
11.24993	34905
11.25805	33579
11.26618	36653
11.27430	40004
11.28243	44501
11.29055	52320
11.29867	58835
11.30680	76278
11.31492	82403
11.32305	89536
11.33117	91662
11.33928	83621
11.34742	75171
11.35553	73381
11.36367	66268
11.37178	64847
11.37990	55563
11.38803	49078
11.39615	48804
11.40427	45042
11.41240	43082
11.42052	41468
11.42865	40278
11.43677	37984
11.44488	38797
11.45302	32905
11.46113	37654
11.46927	37775
11.47738	33172
11.48550	35389
11.49363	34915
11.50175	34847
11.50988	35828
11.51800	36242
11.52612	39718
11.53425	40542
11.54237	45618
11.55048	46428
11.55862	45775
11.56673	49487
11.57487	46954
11.58298	46440
11.59110	47862
11.59923	39275
11.60735	47719
11.61548	44876
11.62360	42614
11.63172	38937
11.63985	38022
11.64797	36505
11.65608	35563
11.66422	33013
11.67233	34022
11.68047	39868
11.68858	40287
11.69670	41330
11.70483	40362
11.71295	44114
11.72108	47855
11.72920	44569
11.73732	48609
11.74545	46411
11.75357	45979
11.76170	48385
11.76982	50962
11.77793	47135
11.78607	47403
11.79418	46715
11.80230	44466
11.81043	44355
11.81855	40416
11.82668	41561
11.83480	38566
11.84292	41261
11.85105	41106
11.85917	40209
11.86730	37407
11.87542	39955
11.88353	36308
11.89167	35432
11.89978	34419
11.90790	35014
11.91603	36609
11.92415	38337
11.93228	41830
11.94040	47036
11.94852	44919
11.95665	49694
11.96477	51116
11.97290	52534
11.98102	53058
11.98913	46976
11.99727	49326
12.00538	42071
12.01352	41658
12.02163	39286
12.02975	39047
12.03788	35781
12.04600	37953
12.05412	35188
12.06225	36056
12.07037	36738
12.07850	33581
12.08662	35272
12.09473	34061
12.10287	35111
12.11098	35053
12.11912	39190
12.12723	34110
12.13535	37468
12.14348	36167
12.15160	36516
12.15973	33706
12.16785	33402
12.17597	35286
12.18410	35754
12.19222	31206
12.20033	35695
12.20847	32342
12.21658	36540
12.22472	32280
12.23283	33933
12.24095	34689
12.24908	32617
12.25720	36102
12.26533	30732
12.27345	35291
12.28157	33094
12.28970	35729
12.29782	35298
12.30595	35121
12.31407	31615
12.32218	33016
12.33032	34961
12.33843	30907
12.34655	32030
12.35468	32547
12.36280	33671
12.37093	33340
12.37905	35456
12.38717	34000
12.39530	39953
12.40342	43251
12.41155	48437
12.41967	53002
12.42778	47913
12.43592	44452
12.44403	41472
12.45215	40878
12.46028	39413
12.46840	37135
12.47653	35604
12.48465	35883
12.49277	32334
12.50090	31051
12.50902	32082
12.51715	31232
12.52527	37087
12.53338	33482
12.54152	35005
12.54963	31211
12.55777	31142
12.56588	28801
12.57400	31396
12.58213	33924
12.59025	31119
12.59837	31149
12.60650	26419
12.61462	30956
12.62275	29811
12.63087	36137
12.63898	30747
12.64712	30349
12.65523	31616
12.66337	36530
12.67148	31089
12.67960	30878
12.68773	30915
12.69585	30385
12.70397	31324
12.71210	32183
12.72022	35415
12.72835	32879
12.73647	34741
12.74458	34612
12.75272	40685
12.76083	35098
12.76897	31332
12.77708	33409
12.78520	34277
12.79333	35543
12.80145	35245
12.80958	36371
12.81770	39907
12.82582	38745
12.83395	37903
12.84207	39536
12.85018	39615
12.85832	37735
12.86643	37247
12.87457	31460
12.88268	32508
12.89080	35179
12.89893	32635
12.90705	34035
12.91518	31989
12.92330	35283
12.93142	31200
12.93955	33189
12.94767	36981
12.95580	41021
12.96392	47899
12.97203	57093
12.98017	72163
12.98828	77624
12.99640	79256
13.00453	79629
13.01265	76454
13.02078	74160
13.02890	67395
13.03702	57770
13.04515	55136
13.05327	46681
13.06140	46404
13.06952	40257
13.07763	40679
13.08577	39063
13.09388	40462
13.10200	37774
13.11013	36780
13.11825	38363
13.12638	35678
13.13450	36052
13.14262	35481
13.15075	36962
13.15887	35094
13.16700	35373
13.17512	40228
13.18323	33805
13.19137	36596
13.19948	37657
13.20762	36917
13.21573	38681
13.22385	38363
13.23198	35623
13.24010	37094
13.24822	36493
13.25635	34738
13.26447	38577
13.27260	40890
13.28072	50553
13.28883	45727
13.29697	49789
13.30508	47185
13.31322	48462
13.32133	47039
13.32945	47694
13.33758	47419
13.34570	47693
13.35383	46293
13.36195	48542
13.37007	47826
13.37820	44116
13.38632	39819
13.39443	42774
13.40257	45911
13.41068	36313
13.41882	39701
13.42693	37990
13.43505	37167
13.44318	38351
13.45130	34353
13.45943	36093
13.46755	36093
13.47567	35221
13.48380	36230
13.49192	33348
13.50003	34380
13.50817	35298
13.51628	34240
13.52442	29882
13.53253	34320
13.54065	32527
13.54878	32788
13.55690	34586
13.56503	36005
13.57315	41673
13.58127	41141
13.58940	43524
13.59752	45661
13.60565	49561
13.61377	45264
13.62188	44645
13.63002	47268
13.63813	52955
13.64625	52495
13.65438	50412
13.66250	51096
13.67063	50172
13.67875	47102
13.68687	47460
13.69500	42102
13.70312	42154
13.71125	40370
13.71937	39536
13.72748	39772
13.73562	40893
13.74373	37791
13.75185	35480
13.75998	40491
13.76810	36839
13.77623	39532
13.78435	39243
13.79247	40456
13.80060	39442
13.80872	37342
13.81685	33708
13.82497	36705
13.83308	36631
13.84122	35106
13.84933	32429
13.85747	35603
13.86558	34775
13.87370	36273
13.88183	38423
13.88995	34324
13.89807	41430
13.90620	44228
13.91432	42958
13.92245	45406
13.93057	46440
13.93868	47461
13.94682	44291
13.95493	41133
13.96307	44254
13.97118	40243
13.97930	40969
13.98743	41027
13.99555	36943
14.00368	41195
14.01180	39360
14.01992	38877
14.02805	41345
14.03617	44149
14.04428	39136
14.05242	38049
14.06053	40811
14.06867	35283
14.07678	39359
14.08490	39084
14.09303	36472
14.10115	38094
14.10928	41981
14.11740	40576
14.12552	43080
14.13365	52893
14.14177	76120
14.14988	136178
14.15802	232437
14.16613	323801
14.17427	382050
14.18238	359941
14.19050	289538
14.19863	212034
14.20675	152614
14.21488	108747
14.22300	100498
14.23112	88247
14.23925	82762
14.24737	80255
14.25550	78225
14.26362	71235
14.27173	66425
14.27987	66273
14.28798	61278
14.29610	61330
14.30423	58737
14.31235	54448
14.32048	50934
14.32860	48949
14.33672	41210
14.34485	37403
14.35297	38173
14.36110	36412
14.36922	40042
14.37733	33609
14.38547	35065
14.39358	39424
14.40172	38506
14.40983	36056
14.41795	36881
14.42608	32457
14.43420	37709
14.44232	37287
14.45045	34175
14.45857	38655
14.46670	31720
14.47482	34822
14.48293	30650
14.49107	34847
14.49918	34814
14.50732	30720
14.51543	32464
14.52355	36106
14.53168	33346
14.53980	35558
14.54792	32534
14.55605	32700
14.56417	30960
14.57230	30629
14.58042	32299
14.58853	31667
14.59667	30830
14.60478	32368
14.61292	32448
14.62103	34869
14.62915	31259
14.63728	32983
14.64540	32583
14.65353	32157
14.66165	32001
14.66977	33037
14.67790	33296
14.68602	32357
14.69413	28109
14.70227	32387
14.71038	28979
14.71852	32347
14.72663	33042
14.73475	31930
14.74288	29820
14.75100	32984
14.75913	35748
14.76725	30394
14.77537	29850
14.78350	30620
14.79162	30194
14.79973	32184
14.80787	30828
14.81598	34256
14.82412	34315
14.83223	31361
14.84035	34695
14.84848	33181
14.85660	31491
14.86473	32582
14.87285	31487
14.88097	33236
14.88910	32210
14.89722	33741
14.90535	34204
14.91347	32963
14.92158	30809
14.92972	32991
14.93783	34334
14.94595	31688
14.95408	33834
14.96220	30268
14.97033	30570
14.97845	31849
14.98657	33136
14.99470	29961
15.00282	31802
15.01095	31100
15.01907	33733
15.02718	33538
15.03532	34018
15.04343	32284
15.05157	29083
15.05968	31431
15.06780	29475
15.07593	30048
15.08405	28988
15.09217	33370
15.10030	30855
15.10842	29287
15.11655	30281
15.12467	28805
15.13278	30035
15.14092	26618
15.14903	29345
15.15717	30906
15.16528	31046
15.17340	28266
15.18153	32486
15.18965	33283
15.19777	31830
15.20590	29948
15.21402	28050
15.22215	28838
15.23027	28166
15.23838	28653
15.24652	27015
15.25463	30734
15.26277	28962
15.27088	30235
15.27900	31310
15.28713	29780
15.29525	30867
15.30338	27719
15.31150	30890
15.31962	28581
15.32775	29088
15.33587	27353
15.34398	30091
15.35212	29751
15.36023	30082
15.36837	31081
15.37648	32067
15.38460	28646
15.39273	26244
15.40085	29445
15.40898	26829
15.41710	30030
15.42522	27979
15.43335	30843
15.44147	31263
15.44960	27031
15.45772	28099
15.46583	29158
15.47397	30063
15.48208	30306
15.49020	28038
15.49833	27356
15.50645	27177
15.51458	31776
15.52270	32271
15.53082	28105
15.53895	28532
15.54707	30832
15.55520	29331
15.56332	28594
15.57143	32102
15.57957	29902
15.58768	30394
15.59580	28608
15.60393	28504
15.61205	26974
15.62018	26774
15.62830	28728
15.63642	27441
15.64455	28164
15.65267	30169
15.66080	27529
15.66892	30432
15.67703	29455
15.68517	29846
15.69328	32417
15.70142	28820
15.70953	31057
15.71765	29172
15.72578	30277
15.73390	27786
15.74202	32825
15.75015	30481
15.75827	29896
15.76640	32547
15.77452	29601
15.78263	31292
15.79077	28902
15.79888	31484
15.80702	29256
15.81513	31196
15.82325	30457
15.83138	28780
15.83950	29446
15.84763	28025
15.85575	31546
15.86387	30014
15.87200	29254
15.88012	32442
15.88823	29157
15.89637	30871
15.90448	31087
15.91262	30610
15.92073	30045
15.92885	29996
15.93698	29198
15.94510	26343
15.95323	27856
15.96135	32834
15.96947	28256
15.97760	27740
15.98572	34002
15.99383	35194
16.00197	37681
16.01008	35749
16.01822	38450
16.02633	39510
16.03445	37946
16.04258	40277
16.05070	38769
16.05883	34134
16.06695	31258
16.07507	37682
16.08320	34467
16.09132	35806
16.09945	33593
16.10757	32669
16.11568	30357
16.12382	34258
16.13193	34707
16.14005	30773
16.14818	29097
16.15630	30704
16.16443	33623
16.17255	32461
16.18067	31753
16.18880	31430
16.19692	34723
16.20505	29694
16.21317	28587
16.22128	30020
16.22942	30122
16.23753	31634
16.24565	31340
16.25378	31761
16.26190	33401
16.27003	33063
16.27815	31752
16.28627	34765
16.29440	35964
16.30252	30513
16.31065	33477
16.31877	34086
16.32688	37888
16.33502	36985
16.34313	35697
16.35127	34306
16.35938	35688
16.36750	31982
16.37563	33756
16.38375	34618
16.39187	28667
16.40000	31411
16.40812	31423
16.41625	32586
16.42437	33355
16.43248	31980
16.44062	32335
16.44873	31778
16.45687	32454
16.46498	33291
16.47310	33414
16.48123	33363
16.48935	35296
16.49748	37560
16.50560	32684
16.51372	32813
16.52185	33919
16.52997	35331
16.53808	32150
16.54622	34426
16.55433	30120
16.56247	34183
16.57058	34199
16.57870	33834
16.58683	36265
16.59495	34747
16.60308	35779
16.61120	33823
16.61932	30965
16.62745	35669
16.63557	34052
16.64368	34507
16.65182	32330
16.65993	29044
16.66807	30352
16.67618	34201
16.68430	31507
16.69243	30684
16.70055	32457
16.70868	34999
16.71680	31535
16.72492	31169
16.73305	34349
16.74117	32685
16.74930	32349
16.75742	29804
16.76553	32542
16.77367	29675
16.78178	31671
16.78990	31890
16.79803	31071
16.80615	32167
16.81428	33297
16.82240	29821
16.83052	27655
16.83865	30931
16.84677	32278
16.85490	30703
16.86302	31483
16.87113	30984
16.87927	34211
16.88738	32648
16.89552	32406
16.90363	33736
16.91175	30323
16.91988	28746
16.92800	32462
16.93612	31887
16.94425	32613
16.95237	33540
16.96050	32897
16.96862	31655
16.97673	32727
16.98487	32999
16.99298	32011
17.00112	33746
17.00923	31116
17.01735	30845
17.02548	33546
17.03360	32767
17.04172	33486
17.04985	30467
17.05797	35503
17.06610	33110
17.07422	34020
17.08233	34637
17.09047	35145
17.09858	31787
17.10672	31498
17.11483	34060
17.12295	37649
17.13108	32908
17.13920	31697
17.14733	35040
17.15545	32649
17.16357	31677
17.17170	31954
17.17982	29106
17.18793	31980
17.19607	34581
17.20418	31428
17.21232	33295
17.22043	33112
17.22855	29532
17.23668	28729
17.24480	35904
17.25293	36449
17.26105	32581
17.26917	33856
17.27730	30144
17.28542	32995
17.29353	32240
17.30167	32014
17.30978	32693
17.31792	35950
17.32603	35271
17.33415	31544
17.34228	33238
17.35040	38182
17.35853	31858
17.36665	38107
17.37477	38427
17.38290	37043
17.39102	37590
17.39915	37495
17.40727	38229
17.41538	39209
17.42352	34497
17.43163	37290
17.43975	40843
17.44788	33493
17.45600	39046
17.46413	36177
17.47225	33098
17.48037	34421
17.48850	36465
17.49662	35908
17.50475	37800
17.51287	37221
17.52098	37283
17.52912	36324
17.53723	38994
17.54537	42577
17.55348	46028
17.56160	42109
17.56973	47028
17.57785	47180
17.58597	44229
17.59410	39743
17.60222	37738
17.61035	36778
17.61847	35425
17.62658	38767
17.63472	37180
17.64283	38200
17.65097	35159
17.65908	35016
17.66720	36093
17.67533	39554
17.68345	38638
17.69157	37698
17.69970	36382
17.70782	41758
17.71595	37865
17.72407	38670
17.73218	35359
17.74032	32045
17.74843	34368
17.75657	33612
17.76468	36384
17.77280	33833
17.78093	33709
17.78905	31865
17.79718	33687
17.80530	34376
17.81342	33567
17.82155	33355
17.82967	37359
17.83778	35359
17.84592	31606
17.85403	36567
17.86217	38750
17.87028	36114
17.87840	36348
17.88653	34336
17.89465	34135
17.90278	33613
17.91090	32415
17.91902	35879
17.92715	33386
17.93527	33137
17.94340	32185
17.95152	33911
17.95963	35303
17.96777	32566
17.97588	35739
17.98400	29858
17.99213	32867
18.00025	33919
18.00838	35258
18.01650	35438
18.02462	38407
18.03275	36200
18.04087	34074
18.04900	38136
18.05712	38853
18.06523	37627
18.07337	38201
18.08148	35711
18.08960	35795
18.09773	37989
18.10585	39761
18.11398	38539
18.12210	36381
18.13022	37139
18.13835	35277
18.14647	36574
18.15460	36755
18.16272	36135
18.17083	35318
18.17897	33668
18.18708	35609
18.19522	36380
18.20333	35496
18.21145	38523
18.21958	34874
18.22770	35741
18.23582	40522
18.24395	37019
18.25207	36608
18.26020	41433
18.26832	39326
18.27643	42450
18.28457	37993
18.29268	41013
18.30082	37301
18.30893	32936
18.31705	33762
18.32518	34017
18.33330	30211
18.34143	38234
18.34955	34252
18.35767	33694
18.36580	30708
18.37392	31610
18.38203	34594
18.39017	34444
18.39828	32527
18.40642	35844
18.41453	35457
18.42265	31857
18.43078	36492
18.43890	34772
18.44703	33286
18.45515	38891
18.46327	36885
18.47140	37252
18.47952	35710
18.48763	35372
18.49577	37504
18.50388	39987
18.51202	36632
18.52013	39682
18.52825	41110
18.53638	38519
18.54450	40493
18.55263	38439
18.56075	38227
18.56887	42119
18.57700	39530
18.58512	40536
18.59325	42686
18.60137	42052
18.60948	41549
18.61762	42430
18.62573	39655
18.63385	38205
18.64198	37328
18.65010	39506
18.65823	39143
18.66635	38286
18.67447	39170
18.68260	38817
18.69072	39296
18.69885	41883
18.70697	38709
18.71508	37981
18.72322	37963
18.73133	35843
18.73947	36464
18.74758	38341
18.75570	36499
18.76383	39368
18.77195	38288
18.78007	39247
18.78820	36297
18.79632	36830
18.80445	36758
18.81257	39466
18.82068	36572
18.82882	38584
18.83693	34702
18.84507	36167
18.85318	38340
18.86130	36380
18.86943	36158
18.87755	38229
18.88567	37347
18.89380	38926
18.90192	37843
18.91005	34495
18.91817	39045
18.92628	38843
18.93442	35036
18.94253	36016
18.95067	32660
18.95878	35874
18.96690	33495
18.97503	34442
18.98315	37292
18.99128	36790
18.99940	36198
19.00752	32390
19.01565	38654
19.02377	40070
19.03188	39478
19.04002	39213
19.04813	36618
19.05627	30974
19.06438	37561
19.07250	37662
19.08063	39737
19.08875	51124
19.09688	46601
19.10500	46548
19.11312	45403
19.12125	46022
19.12937	42649
19.13748	44222
19.14562	44531
19.15373	44131
19.16187	46701
19.16998	47783
19.17810	47068
19.18623	44986
19.19435	42720
19.20248	41326
19.21060	40475
19.21872	39156
19.22685	40121
19.23497	33974
19.24310	35267
19.25122	38134
19.25933	36141
19.26747	38340
19.27558	40942
19.28370	40371
19.29183	45427
19.29995	41307
19.30808	43273
19.31620	45037
19.32432	40197
19.33245	39109
19.34057	39894
19.34870	38351
19.35682	34102
19.36493	37996
19.37307	38390
19.38118	35955
19.38932	38066
19.39743	37177
19.40555	33566
19.41368	37605
19.42180	38601
19.42992	41368
19.43805	47387
19.44617	72375
19.45430	116032
19.46242	151404
19.47053	175756
19.47867	176403
19.48678	157558
19.49492	110988
19.50303	80992
19.51115	63307
19.51928	46402
19.52740	42181
19.53552	42615
19.54365	39615
19.55177	37989
19.55990	38806
19.56802	39208
19.57613	36204
19.58427	37694
19.59238	35567
19.60052	41539
19.60863	39232
19.61675	38162
19.62488	40592
19.63300	50138
19.64113	63214
19.64925	73457
19.65737	89264
19.66550	89284
19.67362	87288
19.68173	77866
19.68987	68429
19.69798	60958
19.70612	55692
19.71423	53545
19.72235	46317
19.73048	50927
19.73860	42721
19.74673	39705
19.75485	38657
19.76297	39192
19.77110	41223
19.77922	43075
19.78735	38771
19.79547	35892
19.80358	38026
19.81172	39173
19.81983	35939
19.82795	36936
19.83608	41854
19.84420	39597
19.85233	39746
19.86045	40954
19.86857	40925
19.87670	47647
19.88482	53586
19.89295	67360
19.90107	72637
19.90918	78907
19.91732	85277
19.92543	90345
19.93355	88366
19.94168	90829
19.94980	86044
19.95793	83887
19.96605	80288
19.97417	85473
19.98230	77785
19.99042	71382
19.99855	73548
20.00667	68071
20.01478	71923
20.02292	75169
20.03103	65641
20.03917	64544
20.04728	59634
20.05540	54203
20.06353	50413
20.07165	48036
20.07977	44651
20.08790	46536
20.09602	46043
20.10415	42054
20.11227	43463
20.12038	44146
20.12852	42056
20.13663	41754
20.14477	42273
20.15288	46323
20.16100	41160
20.16913	38751
20.17725	40581
20.18537	40815
20.19350	44732
20.20162	44308
20.20975	41366
20.21787	45607
20.22598	49186
20.23412	49883
20.24223	57424
20.25037	67625
20.25848	77007
20.26660	78414
20.27473	80118
20.28285	75065
20.29098	71557
20.29910	61875
20.30722	58742
20.31535	51176
20.32347	44104
20.33158	48595
20.33972	42319
20.34783	43385
20.35597	42562
20.36408	43649
20.37220	41942
20.38033	42961
20.38845	42204
20.39658	42813
20.40470	44070
20.41282	47863
20.42095	45525
20.42907	43941
20.43720	48444
20.44532	51109
20.45343	47491
20.46157	44006
20.46968	43980
20.47780	41577
20.48593	44826
20.49405	41764
20.50218	39342
20.51030	41919
20.51842	42773
20.52655	43506
20.53467	41606
20.54280	36781
20.55092	38586
20.55903	38598
20.56717	40057
20.57528	39924
20.58340	43675
20.59153	32151
20.59965	33748
20.60778	37755
20.61590	39506
20.62402	38314
20.63215	40154
20.64027	36959
20.64840	38640
20.65652	41793
20.66463	36735
20.67277	36805
20.68088	41851
20.68902	45846
20.69713	40152
20.70525	41769
20.71338	40647
20.72150	38281
20.72962	39639
20.73775	41416
20.74587	39843
20.75400	39022
20.76212	38146
20.77023	37220
20.77837	44006
20.78648	39643
20.79462	40830
20.80273	41941
20.81085	39612
20.81898	42894
20.82710	40958
20.83523	42366
20.84335	40807
20.85147	37233
20.85960	42801
20.86772	39305
20.87583	41495
20.88397	41089
20.89208	42177
20.90022	40834
20.90833	42170
20.91645	39426
20.92458	43874
20.93270	39854
20.94083	42179
20.94895	43102
20.95707	40845
20.96520	43958
20.97332	43418
20.98143	43336
20.98957	43065
20.99768	41262
21.00582	42572
21.01393	41946
21.02205	44761
21.03018	44914
21.03830	40618
21.04643	43826
21.05455	45570
21.06267	43264
21.07080	42005
21.07892	43079
21.08705	43936
21.09517	42868
21.10328	42318
21.11142	41191
21.11953	43812
21.12765	45253
21.13578	40440
21.14390	42025
21.15203	46024
21.16015	42518
21.16827	43947
21.17640	40024
21.18452	44045
21.19265	40891
21.20077	44570
21.20888	41698
21.21702	41730
21.22513	45162
21.23327	43736
21.24138	44365
21.24950	47365
21.25763	46080
21.26575	44857
21.27387	44236
21.28200	42078
21.29012	44048
21.29825	45058
21.30637	41896
21.31448	43554
21.32262	40480
21.33073	46129
21.33887	43091
21.34698	42705
21.35510	35190
21.36323	42997
21.37135	40927
21.37947	40533
21.38760	37485
21.39572	43659
21.40385	39822
21.41197	42280
21.42008	45269
21.42822	39533
21.43633	38002
21.44447	41617
21.45258	38611
21.46070	39793
21.46883	40514
21.47695	44590
21.48508	43342
21.49320	39228
21.50132	42142
21.50945	41689
21.51757	39638
21.52568	41781
21.53382	40155
21.54193	41705
21.55007	39606
21.55818	36811
21.56630	42565
21.57443	41129
21.58255	42854
21.59068	50453
21.59880	50964
21.60692	54449
21.61505	56672
21.62317	55524
21.63128	52360
21.63942	50545
21.64753	52235
21.65567	46068
21.66378	42963
21.67190	41044
21.68003	41881
21.68815	40040
21.69628	40595
21.70440	38412
21.71252	38656
21.72065	36280
21.72877	39598
21.73690	39058
21.74502	42121
21.75313	36889
21.76127	38927
21.76938	41693
21.77750	38978
21.78563	42972
21.79375	46340
21.80188	49926
21.81000	46421
21.81812	46846
21.82625	46710
21.83437	45306
21.84250	47141
21.85062	41558
21.85873	38829
21.86687	39679
21.87498	38845
21.88312	35842
21.89123	36076
21.89935	34167
21.90748	33122
21.91560	35065
21.92372	37983
21.93185	39330
21.93997	35728
21.94810	35481
21.95622	35124
21.96433	35268
21.97247	34824
21.98058	33190
21.98872	36904
21.99683	34610
22.00495	35621
22.01308	35067
22.02120	37963
22.02932	34177
22.03745	35703
22.04557	40621
22.05370	44032
22.06182	41381
22.06993	38504
22.07807	39404
22.08618	38666
22.09432	39865
22.10243	39247
22.11055	42109
22.11868	40352
22.12680	40842
22.13493	39808
22.14305	35618
22.15117	35774
22.15930	37626
22.16742	35485
22.17553	37317
22.18367	36798
22.19178	38849
22.19992	35662
22.20803	40613
22.21615	36166
22.22428	35649
22.23240	36872
22.24053	36552
22.24865	32900
22.25677	34649
22.26490	33706
22.27302	32777
22.28115	34563
22.28927	35670
22.29738	34744
22.30552	34668
22.31363	34511
22.32175	34348
22.32988	37000
22.33800	36883
22.34613	32013
22.35425	36069
22.36237	33596
22.37050	32394
22.37862	33128
22.38675	34063
22.39487	38008
22.40298	33776
22.41112	30664
22.41923	34184
22.42735	34688
22.43548	33854
22.44360	34445
22.45173	35723
22.45985	37834
22.46797	33049
22.47610	32795
22.48422	34846
22.49235	34251
22.50047	34846
22.50858	33779
22.51672	31282
22.52483	34249
22.53297	32781
22.54108	32516
22.54920	34621
22.55733	32722
22.56545	30790
22.57357	30752
22.58170	33129
22.58982	33902
22.59795	30913
22.60607	34670
22.61418	30960
22.62232	32729
22.63043	31417
22.63857	28811
22.64668	31085
22.65480	30958
22.66293	31637
22.67105	34245
22.67917	31241
22.68730	32332
22.69542	31512
22.70355	30993
22.71167	32818
22.71978	32155
22.72792	31770
22.73603	32318
22.74417	31332
22.75228	28251
22.76040	30323
22.76853	31349
22.77665	30446
22.78478	31856
22.79290	31284
22.80102	32509
22.80915	32358
22.81727	33906
22.82538	31848
22.83352	31467
22.84163	32298
22.84977	35672
22.85788	36498
22.86600	35936
22.87413	35055
22.88225	38946
22.89038	38540
22.89850	39531
22.90662	39845
22.91475	41493
22.92287	44109
22.93100	50012
22.93912	46092
22.94723	48658
22.95537	47440
22.96348	46455
22.97160	45612
22.97973	46271
22.98785	47770
22.99598	40743
23.00410	39113
23.01222	40379
23.02035	40795
23.02847	39732
23.03660	34969
23.04472	34078
23.05283	32084
23.06097	37586
23.06908	35636
23.07722	37308
23.08533	37130
23.09345	35067
23.10158	35361
23.10970	37068
23.11782	30909
23.12595	33925
23.13407	33843
23.14220	33828
23.15032	35528
23.15843	33888
23.16657	32651
23.17468	35963
23.18282	35503
23.19093	34577
23.19905	34376
23.20718	32051
23.21530	30330
23.22342	33162
23.23155	30769
23.23967	31731
23.24780	31968
23.25592	34275
23.26403	31287
23.27217	35259
23.28028	32268
23.28842	35624
23.29653	33818
23.30465	38257
23.31278	36051
23.32090	34501
23.32903	32149
23.33715	32629
23.34527	34364
23.35340	34312
23.36152	35434
23.36963	33190
23.37777	34484
23.38588	35599
23.39402	32777
23.40213	33654
23.41025	34757
23.41838	35702
23.42650	34735
23.43463	36867
23.44275	33428
23.45087	36285
23.45900	36557
23.46712	34389
23.47523	35051
23.48337	33548
23.49148	36890
23.49962	33656
23.50773	34738
23.51585	32848
23.52398	34512
23.53210	35323
23.54023	32276
23.54835	38401
23.55647	35196
23.56460	35830
23.57272	37678
23.58085	37617
23.58897	35694
23.59708	41316
23.60522	37814
23.61333	36567
23.62145	38063
23.62958	36733
23.63770	38758
23.64583	41536
23.65395	43020
23.66207	41118
23.67020	44014
23.67832	49114
23.68645	48810
23.69457	48257
23.70268	47434
23.71082	40620
23.71893	46954
23.72707	55179
23.73518	71741
23.74330	127919
23.75143	297542
23.75955	630277
23.76767	1207272
23.77580	1918750
23.78392	2412542
23.79205	2494722
23.80017	2289709
23.80828	1839720
23.81642	1397037
23.82453	1009536
23.83267	747870
23.84078	574900
23.84890	440126
23.85703	379653
23.86515	320385
23.87327	282388
23.88140	244085
23.88952	220795
23.89765	194393
23.90577	177256
23.91388	164421
23.92202	151947
23.93013	137278
23.93827	126144
23.94638	125578
23.95450	125379
23.96263	117948
23.97075	108743
23.97888	108330
23.98700	105927
23.99512	102423
24.00325	91801
24.01137	94363
24.01948	88142
24.02762	86611
24.03573	87205
24.04387	81812
24.05198	84087
24.06010	79946
24.06823	81618
24.07635	81032
24.08448	79031
24.09260	80561
24.10072	72301
24.10885	76090
24.11697	74598
24.12510	72474
24.13322	72067
24.14133	62509
24.14947	66237
24.15758	69895
24.16570	68432
24.17383	68025
24.18195	69607
24.19008	73603
24.19820	71819
24.20632	71834
24.21445	69370
24.22257	66395
24.23070	60601
24.23882	60282
24.24693	61759
24.25507	60726
24.26318	57040
24.27130	56820
24.27943	56037
24.28755	54268
24.29568	56515
24.30380	51411
24.31192	53740
24.32005	59462
24.32817	64105
24.33630	78988
24.34442	105092
24.35253	124771
24.36067	138355
24.36878	130126
24.37692	112746
24.38503	82344
24.39315	67288
24.40128	58557
24.40940	55736
24.41752	50734
24.42565	49541
24.43377	48774
24.44190	52277
24.45002	57965
24.45813	55209
24.46627	58182
24.47438	60357
24.48252	53818
24.49063	56235
24.49875	51805
24.50688	47647
24.51500	45955
24.52312	54055
24.53125	49433
24.53937	46903
24.54750	45265
24.55562	44912
24.56373	46954
24.57187	43705
24.57998	49149
24.58812	45072
24.59623	42817
24.60435	46053
24.61248	39027
24.62060	44049
24.62873	43325
24.63685	41627
24.64497	44717
24.65310	46013
24.66122	41745
24.66933	43195
24.67747	39166
24.68558	43094
24.69372	43509
24.70183	41098
24.70995	43256
24.71808	41731
24.72620	39676
24.73433	38267
24.74245	41724
24.75057	42195
24.75870	42283
24.76682	42452
24.77495	38930
24.78307	40277
24.79118	41297
24.79932	40916
24.80743	41711
24.81555	40659
24.82368	38737
24.83180	40213
24.83993	37737
24.84805	40961
24.85617	37512
24.86430	39167
24.87242	39995
24.88055	37601
24.88867	39653
24.89678	39864
24.90492	39533
24.91303	38779
24.92115	39425
24.92928	40403
24.93740	37343
24.94553	39042
24.95365	37871
24.96177	37764
24.96990	39058
24.97802	38449
24.98615	36915
24.99427	37129
25.00238	38093
25.01052	37904
25.01863	35405
25.02677	38115
25.03488	38445
25.04300	35769
25.05113	35804
25.05925	34100
25.06737	39005
25.07550	37918
25.08362	35812
25.09175	38071
25.09987	38932
25.10798	36161
25.11612	34424
25.12423	38528
25.13237	39932
25.14048	37930
25.14860	38935
25.15673	40933
25.16485	37408
25.17298	36994
25.18110	41413
25.18922	35264
25.19735	35114
25.20547	38633
25.21358	37250
25.22172	35060
25.22983	34526
25.23797	35229
25.24608	33034
25.25420	36222
25.26233	36394
25.27045	37309
25.27858	37191
25.28670	39034
25.29482	41210
25.30295	43281
25.31107	46596
25.31918	50473
25.32732	47305
25.33543	43435
25.34357	41711
25.35168	37387
25.35980	41660
25.36793	39286
25.37605	38332
25.38418	36941
25.39230	33554
25.40042	37302
25.40855	35781
25.41667	36875
25.42480	36116
25.43292	37331
25.44103	37591
25.44917	32806
25.45728	35625
25.46540	34462
25.47353	33486
25.48165	35623
25.48978	36634
25.49790	36601
25.50602	35060
25.51415	38962
25.52227	34651
25.53040	35004
25.53852	35316
25.54663	35733
25.55477	36482
25.56288	31306
25.57102	34598
25.57913	31614
25.58725	39481
25.59538	32085
25.60350	35686
25.61162	34252
25.61975	30915
25.62787	32364
25.63600	33183
25.64412	32089
25.65223	34963
25.66037	34595
25.66848	30924
25.67662	31625
25.68473	32303
25.69285	31214
25.70098	32102
25.70910	35750
25.71722	30321
25.72535	33074
25.73347	32169
25.74160	31307
25.74972	31866
25.75783	34668
25.76597	31831
25.77408	32866
25.78222	31741
25.79033	33705
25.79845	30993
25.80658	28840
25.81470	31959
25.82283	32483
25.83095	32210
25.83907	32020
25.84720	32095
25.85532	30037
25.86343	30274
25.87157	31578
25.87968	32498
25.88782	29017
25.89593	31097
25.90405	32200
25.91218	30645
25.92030	30004
25.92843	31015
25.93655	30069
25.94467	33018
25.95280	30885
25.96092	29725
25.96903	32642
25.97717	29603
25.98528	31046
25.99342	30464
26.00153	32686
26.00965	28778
26.01778	32475
26.02590	29180
26.03403	31114
26.04215	31906
26.05027	31160
26.05840	30248
26.06652	31580
26.07465	31007
26.08277	29048
26.09088	32936
26.09902	31089
26.10713	30856
26.11525	36843
26.12338	42211
26.13150	39638
26.13963	41485
26.14775	39349
26.15587	39447
26.16400	37402
26.17212	39959
26.18025	37858
26.18837	33639
26.19648	36524
26.20462	33982
26.21273	34740
26.22087	36183
26.22898	29616
26.23710	32701
26.24523	34894
26.25335	31218
26.26147	28984
26.26960	33967
26.27772	30224
26.28585	29758
26.29397	28945
26.30208	30112
26.31022	31174
26.31833	32464
26.32647	36520
26.33458	29648
26.34270	26946
26.35083	29047
26.35895	31034
26.36707	35140
26.37520	30690
26.38332	29654
26.39145	28084
26.39957	30015
26.40768	31672
26.41582	28191
26.42393	31600
26.43207	27857
26.44018	30531
26.44830	28883
26.45643	30940
26.46455	30121
26.47268	35590
26.48080	31404
26.48892	29732
26.49705	28757
26.50517	29314
26.51328	30592
26.52142	28497
26.52953	29561
26.53767	28413
26.54578	30178
26.55390	31914
26.56203	29791
26.57015	32224
26.57828	30075
26.58640	30515
26.59452	30496
26.60265	31689
26.61077	31531
26.61890	31415
26.62702	28966
26.63513	33174
26.64327	30001
26.65138	33899
26.65950	33023
26.66763	31018
26.67575	30258
26.68388	33001
26.69200	28990
26.70012	30570
26.70825	31795
26.71637	32302
26.72450	34738
26.73262	32131
26.74073	35996
26.74887	34151
26.75698	32199
26.76510	33614
26.77323	29354
26.78135	29094
26.78948	28216
26.79760	30398
26.80572	30711
26.81385	32948
26.82197	34117
26.83010	32204
26.83822	33229
26.84633	31383
26.85447	32583
26.86258	30941
26.87072	31836
26.87883	31558
26.88695	32215
26.89508	32756
26.90320	31805
26.91132	31893
26.91945	33520
26.92757	36920
26.93570	33908
26.94382	46185
26.95193	64448
26.96007	93845
26.96818	162428
26.97632	242325
26.98443	368926
26.99255	494285
27.00068	608232
27.00880	661639
27.01692	633969
27.02505	560268
27.03317	456323
27.04130	364456
27.04942	302660
27.05753	230102
27.06567	187590
27.07378	153806
27.08192	132264
27.09003	114458
27.09815	107570
27.10628	102775
27.11440	91141
27.12253	86643
27.13065	78958
27.13877	74924
27.14690	70897
27.15502	71532
27.16313	64304
27.17127	61373
27.17938	63647
27.18752	60360
27.19563	59186
27.20375	61611
27.21188	53208
27.22000	52134
27.22813	52031
27.23625	54788
27.24437	53052
27.25250	51044
27.26062	50334
27.26875	46849
27.27687	49370
27.28498	46619
27.29312	45825
27.30123	50562
27.30935	48644
27.31748	44392
27.32560	44682
27.33373	43593
27.34185	43469
27.34997	41415
27.35810	41820
27.36622	40464
27.37435	41618
27.38247	42271
27.39058	41999
27.39872	42512
27.40683	41980
27.41495	39061
27.42308	42149
27.43120	37380
27.43933	40159
27.44745	41968
27.45557	41674
27.46370	37242
27.47182	38930
27.47995	38597
27.48807	38167
27.49618	39387
27.50432	37562
27.51243	36888
27.52057	38731
27.52868	43038
27.53680	37404
27.54493	35235
27.55305	37069
27.56117	38506
27.56930	39673
27.57742	39199
27.58555	33659
27.59367	37179
27.60178	36273
27.60992	34644
27.61803	36582
27.62617	35941
27.63428	34261
27.64240	35824
27.65053	34995
27.65865	36372
27.66678	36766
27.67490	33593
27.68302	34472
27.69115	33449
27.69927	34104
27.70738	34000
27.71552	32448
27.72363	39120
27.73177	38493
27.73988	39412
27.74800	43119
27.75613	39651
27.76425	41859
27.77238	39501
27.78050	37588
27.78862	35985
27.79675	35710
27.80487	36013
27.81298	33148
27.82112	33382
27.82923	33777
27.83737	36280
27.84548	32824
27.85360	32280
27.86173	33668
27.86985	35197
27.87798	33792
27.88610	35864
27.89422	34179
27.90235	36963
27.91047	32046
27.91860	35443
27.92672	34517
27.93483	34381
27.94297	35346
27.95108	34470
27.95920	33233
27.96733	34611
27.97545	36595
27.98358	39658
27.99170	35951
27.99982	32876
28.00795	36675
28.01607	38247
28.02420	36599
28.03232	34678
28.04043	34314
28.04857	35313
28.05668	35118
28.06480	37115
28.07293	39332
28.08105	40875
28.08918	49206
28.09730	55309
28.10542	59982
28.11355	63846
28.12167	61773
28.12980	57946
28.13792	50091
28.14603	47056
28.15417	45314
28.16228	42875
28.17042	37524
28.17853	40877
28.18665	33084
28.19478	34976
28.20290	34755
28.21102	34801
28.21915	36253
28.22727	31351
28.23540	33985
28.24352	37299
28.25163	47830
28.25977	62407
28.26788	76803
28.27602	105470
28.28413	146289
28.29225	191374
28.30038	218814
28.30850	270671
28.31663	293076
28.32475	313721
28.33287	299172
28.34100	311597
28.34912	292606
28.35723	255664
28.36537	235789
28.37348	211987
28.38162	180127
28.38973	164992
28.39785	141555
28.40598	127943
28.41410	117963
28.42223	106802
28.43035	99933
28.43847	91032
28.44660	90492
28.45472	80601
28.46285	77644
28.47097	68465
28.47908	68604
28.48722	65203
28.49533	59140
28.50345	59967
28.51158	59845
28.51970	59545
28.52783	58565
28.53595	57455
28.54407	55701
28.55220	54961
28.56032	56607
28.56845	50803
28.57657	51894
28.58468	49478
28.59282	46873
28.60093	51941
28.60905	49692
28.61718	45644
28.62530	47909
28.63343	51722
28.64155	51265
28.64967	53991
28.65780	54691
28.66592	52811
28.67405	55665
28.68217	51288
28.69028	55067
28.69842	59430
28.70653	59543
28.71467	75945
28.72278	89313
28.73090	88050
28.73903	83453
28.74715	65237
28.75527	63387
28.76340	52045
28.77152	49509
28.77965	46040
28.78777	43066
28.79588	45572
28.80402	42445
28.81213	42290
28.82027	44134
28.82838	41672
28.83650	41823
28.84463	43614
28.85275	45529
28.86087	40711
28.86900	41699
28.87712	41636
28.88525	42587
28.89337	40727
28.90148	39591
28.90962	39677
28.91773	37533
28.92587	37856
28.93398	38340
28.94210	41894
28.95023	40245
28.95835	39815
28.96648	43231
28.97460	41443
28.98272	42258
28.99085	42487
28.99897	42668
29.00708	40290
29.01522	38583
29.02333	38105
29.03147	37995
29.03958	37973
29.04770	38801
29.05583	38571
29.06395	35660
29.07208	40243
29.08020	39842
29.08832	40190
29.09645	39846
29.10457	39579
29.11270	38374
29.12082	40212
29.12893	38776
29.13707	35121
29.14518	37564
29.15330	37490
29.16143	40378
29.16955	37348
29.17768	35818
29.18580	38708
29.19392	37365
29.20205	39748
29.21017	38407
29.21830	36257
29.22642	39199
29.23453	40275
29.24267	40394
29.25078	43507
29.25890	44039
29.26703	40513
29.27515	42085
29.28328	41888
29.29140	38238
29.29952	38402
29.30765	37348
29.31577	40290
29.32390	39145
29.33202	38456
29.34013	35012
29.34827	38034
29.35638	37878
29.36452	31723
29.37263	37128
29.38075	34414
29.38888	36248
29.39700	37806
29.40512	34159
29.41325	39486
29.42137	38538
29.42950	36305
29.43762	39302
29.44573	35164
29.45387	36421
29.46198	36957
29.47012	34682
29.47823	39453
29.48635	35683
29.49448	39964
29.50260	40854
29.51073	36091
29.51885	40758
29.52697	37215
29.53510	39884
29.54322	36843
29.55133	39658
29.55947	35032
29.56758	37970
29.57572	37910
29.58383	41132
29.59195	44325
29.60008	44149
29.60820	43952
29.61633	46056
29.62445	42217
29.63257	38388
29.64070	36727
29.64882	37278
29.65693	34715
29.66507	35473
29.67318	36820
29.68132	33833
29.68943	35861
29.69755	35230
29.70568	33109
29.71380	35240
29.72193	36189
29.73005	36180
29.73817	35513
29.74630	35456
29.75442	37296
29.76255	32581
29.77067	31917
29.77878	35629
29.78692	36407
29.79503	36416
29.80315	33827
29.81128	30794
29.81940	34363
29.82753	33554
29.83565	35382
29.84377	33409
29.85190	35322
29.86002	34612
29.86815	37630
29.87627	42874
29.88438	51999
29.89252	58406
29.90063	75537
29.90875	85408
29.91688	101757
29.92500	112656
29.93313	121764
29.94125	128753
29.94937	145477
29.95750	152604
29.96562	153896
29.97375	154946
29.98187	152510
29.98998	140198
29.99812	142598
30.00623	133925
30.01437	117619
30.02248	117978
30.03060	105886
30.03873	97857
30.04685	84390
30.05497	82392
30.06310	79725
30.07122	73837
30.07935	73235
30.08747	71054
30.09558	67323
30.10372	66961
30.11183	59321
30.11997	54975
30.12808	58233
30.13620	55741
30.14433	54088
30.15245	55269
30.16058	52961
30.16870	51184
30.17682	53308
30.18495	49158
30.19307	48470
30.20118	45612
30.20932	50617
30.21743	45859
30.22557	42662
30.23368	47719
30.24180	42260
30.24993	45061
30.25805	47233
30.26618	42328
30.27430	46132
30.28242	43706
30.29055	46318
30.29867	42131
30.30678	41157
30.31492	43270
30.32303	43822
30.33117	41776
30.33928	41561
30.34740	42935
30.35553	40846
30.36365	43803
30.37178	41115
30.37990	41496
30.38802	39689
30.39615	42543
30.40427	44353
30.41240	41720
30.42052	40852
30.42863	39309
30.43677	39540
30.44488	43459
30.45300	43114
30.46113	40202
30.46925	40715
30.47738	41238
30.48550	39186
30.49362	39663
30.50175	37721
30.50987	39979
30.51800	40464
30.52612	38718
30.53423	41101
30.54237	41315
30.55048	40503
30.55862	39558
30.56673	37278
30.57485	40368
30.58298	36905
30.59110	38727
30.59922	37373
30.60735	41915
30.61547	42716
30.62360	38634
30.63172	37475
30.63983	40702
30.64797	40733
30.65608	37204
30.66422	38100
30.67233	39117
30.68045	40241
30.68858	39150
30.69670	37799
30.70482	40033
30.71295	39111
30.72107	37792
30.72920	36356
30.73732	40903
30.74543	36815
30.75357	34270
30.76168	40721
30.76982	36552
30.77793	37727
30.78605	41932
30.79418	42392
30.80230	37559
30.81043	40457
30.81855	38147
30.82667	36839
30.83480	38932
30.84292	41630
30.85103	34729
30.85917	35823
30.86728	39616
30.87542	35416
30.88353	35065
30.89165	36619
30.89978	38013
30.90790	36134
30.91603	33472
30.92415	35599
30.93227	36032
30.94040	35825
30.94852	35671
30.95665	37516
30.96477	37053
30.97288	36027
30.98102	36625
30.98913	37450
30.99725	36151
31.00538	35851
31.01350	38290
31.02163	34271
31.02975	39721
31.03787	39112
31.04600	36264
31.05412	36959
31.06225	37995
31.07037	36244
31.07848	40090
31.08662	42566
31.09473	40327
31.10285	43510
31.11098	41115
31.11910	41757
31.12723	39696
31.13535	40790
31.14347	35883
31.15160	39697
31.15972	38898
31.16785	47707
31.17597	56925
31.18408	77952
31.19222	93659
31.20033	118556
31.20847	133316
31.21658	145947
31.22470	125130
31.23283	107738
31.24095	83281
31.24907	70511
31.25720	61051
31.26532	43469
31.27345	44223
31.28157	41035
31.28968	37275
31.29782	38933
31.30593	39122
31.31407	36885
31.32218	43636
31.33030	37109
31.33843	36941
31.34655	40180
31.35467	40117
31.36280	32901
31.37092	38197
31.37905	41306
31.38717	37894
31.39528	36503
31.40342	39066
31.41153	37569
31.41967	35324
31.42778	39868
31.43590	39382
31.44403	39598
31.45215	37983
31.46028	38238
31.46840	37957
31.47652	37986
31.48465	37203
31.49277	37524
31.50088	39023
31.50902	36486
31.51713	34485
31.52527	38415
31.53338	40873
31.54150	37124
31.54963	34040
31.55775	36779
31.56588	35971
31.57400	37971
31.58212	38819
31.59025	35196
31.59837	35026
31.60650	39075
31.61462	35266
31.62273	39531
31.63087	36780
31.63898	36606
31.64710	38523
31.65523	38351
31.66335	39398
31.67148	35375
31.67960	41909
31.68772	40107
31.69585	40568
31.70397	41386
31.71210	39931
31.72022	38534
31.72833	39700
31.73647	39027
31.74458	37842
31.75270	37207
31.76083	38805
31.76895	38111
31.77708	38231
31.78520	37743
31.79332	40877
31.80145	37746
31.80957	42268
31.81770	42546
31.82582	43058
31.83393	48818
31.84207	49496
31.85018	55984
31.85832	67689
31.86643	73253
31.87455	82381
31.88268	85928
31.89080	94864
31.89892	94930
31.90705	94952
31.91517	98051
31.92330	96515
31.93142	95772
31.93953	91196
31.94767	87497
31.95578	81934
31.96392	72484
31.97203	77865
31.98015	73759
31.98828	68993
31.99640	68771
32.00453	64305
32.01265	61427
32.02077	62098
32.02890	57367
32.03702	56130
32.04513	55290
32.05327	48240
32.06138	53798
32.06952	48889
32.07763	49487
32.08575	48168
32.09388	48627
32.10200	47121
32.11013	47351
32.11825	50190
32.12637	48411
32.13450	45337
32.14262	40982
32.15073	44689
32.15887	47372
32.16698	43869
32.17512	41204
32.18323	41923
32.19135	43441
32.19948	44837
32.20760	42073
32.21573	46526
32.22385	42423
32.23197	41740
32.24010	41861
32.24822	41937
32.25635	40252
32.26447	40362
32.27258	42100
32.28072	42304
32.28883	45749
32.29695	42103
32.30508	42001
32.31320	39452
32.32133	42149
32.32945	44746
32.33757	39263
32.34570	42733
32.35382	44638
32.36195	43964
32.37007	41364
32.37818	39032
32.38632	43004
32.39443	42355
32.40255	42041
32.41068	43196
32.41880	39523
32.42693	43790
32.43505	40943
32.44317	39725
32.45130	40827
32.45942	40739
32.46755	36454
32.47567	42279
32.48378	38681
32.49192	38955
32.50003	38835
32.50817	39148
32.51628	40670
32.52440	40339
32.53253	40133
32.54065	36383
32.54877	40218
32.55690	43397
32.56502	42008
32.57315	42099
32.58127	42169
32.58938	45264
32.59752	52166
32.60563	58848
32.61377	63784
32.62188	67305
32.63000	65699
32.63813	59413
32.64625	50824
32.65438	42995
32.66250	41929
32.67062	41558
32.67875	39236
32.68687	39870
32.69498	39874
32.70312	43433
32.71123	41153
32.71937	44504
32.72748	39679
32.73560	42893
32.74373	39938
32.75185	39795
32.75998	36789
32.76810	41359
32.77622	41321
32.78435	39253
32.79247	39151
32.80058	41299
32.80872	41129
32.81683	39978
32.82497	40409
32.83308	38997
32.84120	36360
32.84933	39897
32.85745	40290
32.86558	42362
32.87370	42978
32.88182	39428
32.88995	38095
32.89807	36990
32.90620	38674
32.91432	37830
32.92243	38523
32.93057	40879
32.93868	41930
32.94680	39527
32.95493	38720
32.96305	40093
32.97118	37593
32.97930	37263
32.98742	41603
32.99555	38954
33.00367	38098
33.01180	34359
33.01992	38493
33.02803	37175
33.03617	37163
33.04428	40792
33.05242	41347
33.06053	37755
33.06865	39550
33.07678	38286
33.08490	42000
33.09302	48908
33.10115	50137
33.10927	54399
33.11740	51497
33.12552	55815
33.13363	53586
33.14177	47698
33.14988	44139
33.15802	47118
33.16613	44414
33.17425	41682
33.18238	41596
33.19050	43423
33.19862	38873
33.20675	41641
33.21487	40428
33.22300	39477
33.23112	42505
33.23923	42023
33.24737	42102
33.25548	42375
33.26362	41352
33.27173	39951
33.27985	36626
33.28798	41140
33.29610	40346
33.30423	41439
33.31235	41307
33.32047	43037
33.32860	40658
33.33672	42133
33.34483	40459
33.35297	41408
33.36108	40337
33.36922	41396
33.37733	40262
33.38545	43597
33.39358	37604
33.40170	40179
33.40983	40286
33.41795	39615
33.42607	42402
33.43420	39505
33.44232	41488
33.45043	41885
33.45857	38853
33.46668	39384
33.47482	42981
33.48293	46221
33.49105	37895
33.49918	35056
33.50730	40386
33.51543	38340
33.52355	39306
33.53167	38667
33.53980	39747
33.54792	41078
33.55605	42805
33.56417	38870
33.57228	39285
33.58042	42190
33.58853	39072
33.59665	44379
33.60478	43585
33.61290	41957
33.62103	38414
33.62915	39581
33.63727	42032
33.64540	39177
33.65352	43120
33.66165	40452
33.66977	41729
33.67788	42519
33.68602	44031
33.69413	43926
33.70227	39192
33.71038	43993
33.71850	40392
33.72663	43178
33.73475	44228
33.74287	43380
33.75100	44726
33.75912	43066
33.76725	43502
33.77537	44283
33.78348	42487
33.79162	43366
33.79973	44660
33.80787	46583
33.81598	48893
33.82410	43747
33.83223	44106
33.84035	46596
33.84848	45758
33.85660	47976
33.86472	49375
33.87285	47894
33.88097	53409
33.88908	56467
33.89722	54820
33.90533	62042
33.91347	63664
33.92158	68057
33.92970	62336
33.93783	64420
33.94595	63751
33.95408	67778
33.96220	71924
33.97032	66800
33.97845	66476
33.98657	64547
33.99468	62684
34.00282	57059
34.01093	60764
34.01907	61178
34.02718	64806
34.03530	60718
34.04343	53063
34.05155	58001
34.05968	52020
34.06780	57707
34.07592	54966
34.08405	52258
34.09217	50237
34.10030	52292
34.10842	49819
34.11653	46145
34.12467	49695
34.13278	49352
34.14090	47063
34.14903	49015
34.15715	47146
34.16528	43577
34.17340	46833
34.18152	44447
34.18965	45238
34.19777	45637
34.20590	46045
34.21402	44922
34.22213	43805
34.23027	47926
34.23838	48747
34.24650	48843
34.25463	49523
34.26275	45117
34.27088	46901
34.27900	45396
34.28712	45654
34.29525	45004
34.30337	46513
34.31150	48998
34.31962	47682
34.32773	49202
34.33587	46091
34.34398	49010
34.35212	49811
34.36023	48486
34.36835	49787
34.37648	45182
34.38460	45307
34.39272	42788
34.40085	44514
34.40897	47535
34.41710	45231
34.42522	49356
34.43333	51287
34.44147	50133
34.44958	53671
34.45772	57022
34.46583	66709
34.47395	79233
34.48208	88498
34.49020	97321
34.49833	102971
34.50645	100685
34.51457	100850
34.52270	99444
34.53082	88115
34.53893	87137
34.54707	79903
34.55518	72004
34.56332	70221
34.57143	69493
34.57955	68488
34.58768	65340
34.59580	58977
34.60393	58883
34.61205	61231
34.62017	63102
34.62830	58824
34.63642	63701
34.64453	59739
34.65267	62211
34.66078	58096
34.66892	62062
34.67703	59566
34.68515	64271
34.69328	62880
34.70140	62470
34.70953	57851
34.71765	63873
34.72577	56104
34.73390	60991
34.74202	62767
34.75015	58890
34.75827	58812
34.76638	59042
34.77452	60513
34.78263	57298
34.79075	57036
34.79888	55336
34.80700	58087
34.81513	56492
34.82325	57098
34.83137	54102
34.83950	55137
34.84762	57660
34.85575	52549
34.86387	54263
34.87198	50791
34.88012	51770
34.88823	53436
34.89637	49781
34.90448	52502
34.91260	54702
34.92073	47459
34.92885	51902
34.93697	54264
34.94510	56585
34.95322	55431
34.96135	53764
34.96947	55331
34.97758	51381
34.98572	51856
34.99383	51158
35.00197	49214
35.01008	50859
35.01820	50515
35.02633	54201
35.03445	54287
35.04257	51382
35.05070	49787
35.05882	48500
35.06695	49255
35.07507	51916
35.08318	49586
35.09132	48657
35.09943	52851
35.10757	52060
35.11568	51721
35.12380	56903
35.13193	52489
35.14005	53037
35.14818	48393
35.15630	52603
35.16442	52152
35.17255	46184
35.18067	49034
35.18878	51109
35.19692	50568
35.20503	55878
35.21317	51877
35.22128	46980
35.22940	48387
35.23753	53409
35.24565	57016
35.25378	53835
35.26190	51548
35.27002	54407
35.27815	46957
35.28627	56221
35.29438	55092
35.30252	51582
35.31063	54635
35.31877	52555
35.32688	55280
35.33500	55270
35.34313	52452
35.35125	51451
35.35938	49287
35.36750	47599
35.37562	50713
35.38375	49104
35.39187	48976
35.40000	53220
35.40812	52483
35.41623	49179
35.42437	52815
35.43248	52092
35.44060	51845
35.44873	53253
35.45685	57424
35.46498	56935
35.47310	50531
35.48122	55193
35.48935	55465
35.49747	56524
35.50560	51241
35.51372	52985
35.52183	54413
35.52997	49650
35.53808	54554
35.54622	54589
35.55433	52712
35.56245	54335
35.57058	55350
35.57870	51816
35.58682	51925
35.59495	53752
35.60307	56983
35.61120	56649
35.61932	56774
35.62743	55368
35.63557	53442
35.64368	54304
35.65182	55521
35.65993	59223
35.66805	61639
35.67618	55475
35.68430	56562
35.69242	51492
35.70055	55316
35.70867	53691
35.71680	56162
35.72492	54290
35.73303	54905
35.74117	50150
35.74928	56769
35.75742	55392
35.76553	51544
35.77365	52855
35.78178	54331
35.78990	51010
35.79803	53218
35.80615	55003
35.81427	51386
35.82240	54730
35.83052	50657
35.83863	55260
35.84677	54299
35.85488	52558
35.86302	56169
35.87113	55252
35.87925	55264
35.88738	52825
35.89550	55007
35.90363	56303
35.91175	55279
35.91987	57486
35.92800	52403
35.93612	55555
35.94425	55627
35.95237	54318
35.96048	53538
35.96862	59507
35.97673	56111
35.98485	57193
35.99298	56659
36.00110	59092
36.00923	55818
36.01735	62686
36.02547	54947
36.03360	59351
36.04172	61993
36.04985	58488
36.05797	53728
36.06608	57396
36.07422	59726
36.08233	55496
36.09045	60875
36.09858	54994
36.10670	61225
36.11483	59277
36.12295	58286
36.13107	56727
36.13920	56872
36.14732	55749
36.15545	55882
36.16357	57159
36.17168	58094
36.17982	54923
36.18793	55377
36.19607	55736
36.20418	52839
36.21230	56627
36.22043	58409
36.22855	63423
36.23667	65260
36.24480	68243
36.25292	83953
36.26105	86999
36.26917	87960
36.27728	83306
36.28542	74883
36.29353	67312
36.30167	64373
36.30978	61688
36.31790	58334
36.32603	60315
36.33415	59200
36.34228	56675
36.35040	58758
36.35852	57002
36.36665	59713
36.37477	59455
36.38288	59212
36.39102	57536
36.39913	61345
36.40727	58847
36.41538	58648
36.42350	58911
36.43163	59129
36.43975	59835
36.44788	59966
36.45600	58961
36.46412	63507
36.47225	55238
36.48037	62419
36.48848	56959
36.49662	52125
36.50473	58246
36.51287	52550
36.52098	59615
36.52910	55675
36.53723	56797
36.54535	56480
36.55348	59249
36.56160	55874
36.56972	57614
36.57785	58429
36.58597	60238
36.59410	63009
36.60222	61525
36.61033	64465
36.61847	63758
36.62658	60790
36.63470	60736
36.64283	59872
36.65095	61759
36.65908	58790
36.66720	60419
36.67532	58763
36.68345	60030
36.69157	64893
36.69970	60607
36.70782	61958
36.71593	59185
36.72407	60542
36.73218	60686
36.74030	57940
36.74843	58893
36.75655	61819
36.76468	54922
36.77280	62976
36.78092	60482
36.78905	63971
36.79717	62063
36.80530	58617
36.81342	59401
36.82153	62849
36.82967	57469
36.83778	56513
36.84592	60662
36.85403	61167
36.86215	61675
36.87028	61499
36.87840	56018
36.88652	59717
36.89465	57308
36.90277	59313
36.91090	62007
36.91902	60072
36.92713	61253
36.93527	62869
36.94338	60319
36.95152	61722
36.95963	59483
36.96775	61576
36.97588	62629
36.98400	68824
36.99213	70683
37.00025	76400
37.00837	83306
37.01650	98961
37.02462	99468
37.03273	102644
37.04087	100101
37.04898	87162
37.05712	84825
37.06523	78312
37.07335	74005
37.08148	70810
37.08960	66925
37.09773	68035
37.10585	62462
37.11397	65276
37.12210	67242
37.13022	70273
37.13833	63703
37.14647	64193
37.15458	66041
37.16272	67681
37.17083	68630
37.17895	64803
37.18708	62899
37.19520	64078
37.20333	66387
37.21145	67388
37.21957	66487
37.22770	65870
37.23582	65371
37.24395	64434
37.25207	65354
37.26018	69085
37.26832	81046
37.27643	90532
37.28455	103054
37.29268	114093
37.30080	113345
37.30893	113075
37.31705	117439
37.32517	108633
37.33330	100224
37.34142	91860
37.34955	90155
37.35767	87513
37.36578	83736
37.37392	81298
37.38203	79749
37.39017	79701
37.39828	79410
37.40640	75159
37.41453	77614
37.42265	80750
37.43077	78366
37.43890	82741
37.44702	73709
37.45515	76853
37.46327	72306
37.47138	73372
37.47952	76928
37.48763	73544
