Z:\data\JTB-E02\BACandBLUE\JTB-E02-198-06.D Fri Feb 22 09:51:26 2019
Start of data points
2.09527,37669
2.10338,38221
2.11152,39081
2.11963,37287
2.12775,44126
2.13588,42491
2.14400,41240
2.15213,43668
2.16025,43206
2.16837,47907
2.17650,48783
2.18462,50200
2.19273,48935
2.20087,41290
2.20898,47375
2.21712,43511
2.22523,42390
2.23335,43098
2.24148,78644
2.24960,610703
2.25773,1584734
2.26585,2033415
2.27397,1454100
2.28210,797515
2.29022,541874
2.29833,446095
2.30647,445480
2.31458,389734
2.32272,339731
2.33083,282260
2.33895,238747
2.34708,207044
2.35520,193424
2.36333,203445
2.37145,211398
2.37957,182909
2.38770,175140
2.39582,171303
2.40395,176144
2.41207,170377
2.42018,152232
2.42832,148847
2.43643,144655
2.44455,131406
2.45268,117588
2.46080,118312
2.46893,113645
2.47705,105710
2.48517,101690
2.49330,96587
2.50142,96776
2.50955,99098
2.51767,98902
2.52578,103541
2.53392,108864
2.54203,119250
2.55017,111733
2.55828,100412
2.56640,93594
2.57453,90000
2.58265,84400
2.59077,91346
2.59890,98761
2.60702,95570
2.61515,93548
2.62327,81378
2.63138,80214
2.63952,82464
2.64763,84717
2.65577,75743
2.66388,78852
2.67200,79893
2.68013,81433
2.68825,72221
2.69637,74760
2.70450,71734
2.71262,70608
2.72075,69386
2.72887,63643
2.73698,65608
2.74512,61773
2.75323,64792
2.76137,64687
2.76948,64069
2.77760,65863
2.78573,67046
2.79385,68140
2.80198,78397
2.81010,68821
2.81822,68212
2.82635,60427
2.83447,67383
2.84258,65251
2.85072,65265
2.85883,70158
2.86697,64645
2.87508,69183
2.88320,67091
2.89133,62950
2.89945,57845
2.90758,58246
2.91570,60686
2.92382,56739
2.93195,57812
2.94007,59759
2.94820,59848
2.95632,59575
2.96443,59348
2.97257,55420
2.98068,57982
2.98880,59327
2.99693,62487
3.00505,59296
3.01318,63040
3.02130,59116
3.02942,56002
3.03755,59824
3.04567,56977
3.05380,55970
3.06192,55676
3.07003,55940
3.07817,59770
3.08628,66304
3.09440,73028
3.10253,87972
3.11065,80421
3.11878,78293
3.12690,74033
3.13502,72438
3.14315,67352
3.15127,68957
3.15940,64757
3.16752,58854
3.17563,60331
3.18377,57479
3.19188,55992
3.20002,54465
3.20813,57382
3.21625,52154
3.22438,59014
3.23250,52883
3.24062,53036
3.24875,51015
3.25687,53846
3.26500,57312
3.27312,114014
3.28123,416061
3.28937,1381294
3.29748,3097641
3.30562,4407824
3.31373,4341156
3.32185,3499751
3.32998,2668356
3.33810,2130678
3.34622,1735177
3.35435,1454393
3.36247,1247849
3.37060,1074022
3.37872,959921
3.38683,846890
3.39497,756096
3.40308,702108
3.41122,646251
3.41933,583858
3.42745,562061
3.43558,507203
3.44370,502259
3.45183,455036
3.45995,425831
3.46807,411936
3.47620,401406
3.48432,392945
3.49243,373669
3.50057,352940
3.50868,334223
3.51682,323463
3.52493,313672
3.53305,299000
3.54118,293243
3.54930,282692
3.55743,273886
3.56555,280977
3.57367,269582
3.58180,253362
3.58992,255532
3.59805,246108
3.60617,236234
3.61428,238480
3.62242,232022
3.63053,215538
3.63865,219870
3.64678,209433
3.65490,208243
3.66303,202768
3.67115,203556
3.67927,197602
3.68740,205840
3.69552,195787
3.70365,195718
3.71177,190443
3.71988,187655
3.72802,183412
3.73613,181255
3.74425,177911
3.75238,171595
3.76050,171154
3.76863,179401
3.77675,172779
3.78487,168397
3.79300,169079
3.80112,166728
3.80925,173893
3.81737,167318
3.82548,169627
3.83362,161067
3.84173,161163
3.84987,147637
3.85798,153828
3.86610,147396
3.87423,153972
3.88235,152418
3.89047,143941
3.89860,142842
3.90672,136772
3.91485,140781
3.92297,142087
3.93108,138942
3.93922,131022
3.94733,137153
3.95547,134053
3.96358,136232
3.97170,128578
3.97983,135548
3.98795,131618
3.99608,134906
4.00420,128174
4.01232,129064
4.02045,128826
4.02857,129145
4.03668,130595
4.04482,127886
4.05293,133163
4.06107,128389
4.06918,122589
4.07730,120725
4.08543,123090
4.09355,124147
4.10168,126484
4.10980,122608
4.11792,124742
4.12605,126778
4.13417,132982
4.14228,132495
4.15042,144481
4.15853,140156
4.16667,137239
4.17478,119971
4.18290,118973
4.19103,121054
4.19915,116517
4.20728,115990
4.21540,126854
4.22352,132281
4.23165,125199
4.23977,124143
4.24790,125656
4.25602,118999
4.26413,116648
4.27227,105655
4.28038,110099
4.28850,110053
4.29663,109383
4.30475,111200
4.31288,112830
4.32100,118316
4.32912,113861
4.33725,117596
4.34537,109538
4.35350,109217
4.36162,110754
4.36973,112307
4.37787,107973
4.38598,113791
4.39412,104631
4.40223,110531
4.41035,107178
4.41848,97464
4.42660,102490
4.43472,104044
4.44285,100180
4.45097,95538
4.45910,101699
4.46722,103209
4.47533,101492
4.48347,105601
4.49158,100186
4.49972,104067
4.50783,107092
4.51595,101823
4.52408,100216
4.53220,99518
4.54032,99645
4.54845,102495
4.55657,95657
4.56470,91262
4.57282,103989
4.58093,100309
4.58907,91598
4.59718,99149
4.60532,95086
4.61343,101791
4.62155,98428
4.62968,96465
4.63780,92957
4.64593,96499
4.65405,93748
4.66217,95544
4.67030,94761
4.67842,95711
4.68653,92528
4.69467,93804
4.70278,89453
4.71092,88246
4.71903,89711
4.72715,94700
4.73528,85427
4.74340,96049
4.75153,91133
4.75965,86534
4.76777,82975
4.77590,90883
4.78402,86091
4.79213,91562
4.80027,87961
4.80838,86896
4.81652,88357
4.82463,91815
4.83275,93580
4.84088,90235
4.84900,91448
4.85713,92163
4.86525,100510
4.87337,99114
4.88150,99966
4.88962,94417
4.89775,96718
4.90587,88534
4.91398,90143
4.92212,91735
4.93023,120421
4.93835,223854
4.94648,508094
4.95460,981422
4.96273,1539086
4.97085,1725304
4.97897,1682271
4.98710,1375842
4.99522,1082817
5.00335,870793
5.01147,718719
5.01958,604754
5.02772,535457
5.03583,476322
5.04397,429891
5.05208,403807
5.06020,366671
5.06833,341633
5.07645,326255
5.08457,303165
5.09270,296812
5.10082,280366
5.10895,274933
5.11707,258501
5.12518,257195
5.13332,243991
5.14143,241700
5.14957,244843
5.15768,227353
5.16580,227093
5.17393,220365
5.18205,226300
5.19017,225689
5.19830,218178
5.20642,201699
5.21455,200327
5.22267,205589
5.23078,204346
5.23892,208632
5.24703,201966
5.25517,200826
5.26328,184950
5.27140,178201
5.27953,176623
5.28765,169930
5.29578,166301
5.30390,166292
5.31202,162113
5.32015,160136
5.32827,160890
5.33638,159805
5.34452,158890
5.35263,173522
5.36077,162378
5.36888,160305
5.37700,156426
5.38513,150260
5.39325,148943
5.40138,148577
5.40950,140292
5.41762,144322
5.42575,143154
5.43387,139500
5.44200,140275
5.45012,135583
5.45823,140291
5.46637,143810
5.47448,135109
5.48260,135469
5.49073,131786
5.49885,133234
5.50698,137800
5.51510,129542
5.52322,132131
5.53135,129141
5.53947,126072
5.54760,125671
5.55572,127214
5.56383,129425
5.57197,133479
5.58008,127288
5.58820,126663
5.59633,130988
5.60445,134095
5.61258,142886
5.62070,142422
5.62882,157128
5.63695,161692
5.64507,154081
5.65320,142934
5.66132,139722
5.66943,137401
5.67757,141063
5.68568,147610
5.69382,152266
5.70193,149441
5.71005,140486
5.71818,134794
5.72630,131934
5.73442,119387
5.74255,129293
5.75067,119296
5.75880,119919
5.76692,118043
5.77503,113766
5.78317,116314
5.79128,119651
5.79942,117943
5.80753,117497
5.81565,111038
5.82378,112411
5.83190,111939
5.84002,113717
5.84815,109068
5.85627,110948
5.86440,108700
5.87252,105778
5.88063,106300
5.88877,111307
5.89688,110341
5.90502,106906
5.91313,98325
5.92125,85906
5.92938,80626
5.93750,81296
5.94563,77294
5.95375,85723
5.96187,89206
5.97000,91806
5.97812,94243
5.98623,104584
5.99437,105789
6.00248,91431
6.01062,86319
6.01873,90693
6.02685,83783
6.03498,85711
6.04310,81700
6.05123,84328
6.05935,89974
6.06747,77611
6.07560,82801
6.08372,82829
6.09185,85796
6.09997,79245
6.10808,83333
6.11622,80740
6.12433,82402
6.13245,83993
6.14058,87005
6.14870,86279
6.15683,83274
6.16495,93099
6.17307,96831
6.18120,94920
6.18932,94408
6.19745,91502
6.20557,101851
6.21368,97351
6.22182,98625
6.22993,103736
6.23807,101098
6.24618,106142
6.25430,106572
6.26243,108767
6.27055,113227
6.27867,109084
6.28680,117211
6.29492,113484
6.30305,113577
6.31117,119924
6.31928,126983
6.32742,121827
6.33553,122774
6.34367,125979
6.35178,129612
6.35990,131391
6.36803,140289
6.37615,137120
6.38427,140924
6.39240,142321
6.40052,146463
6.40865,151736
6.41677,154750
6.42488,150752
6.43302,153587
6.44113,163272
6.44927,167486
6.45738,162594
6.46550,169031
6.47363,160611
6.48175,161936
6.48988,166414
6.49800,137397
6.50612,119229
6.51425,107230
6.52237,109802
6.53048,93102
6.53862,99795
6.54673,98327
6.55487,102516
6.56298,90505
6.57110,95768
6.57923,92737
6.58735,86003
6.59548,86243
6.60360,92197
6.61172,83576
6.61985,82475
6.62797,85342
6.63608,88664
6.64422,84743
6.65233,82219
6.66047,83966
6.66858,85122
6.67670,85374
6.68483,80441
6.69295,82651
6.70108,75528
6.70920,76279
6.71732,73599
6.72545,82576
6.73357,76309
6.74170,81207
6.74982,88061
6.75793,81340
6.76607,78776
6.77418,80842
6.78230,84186
6.79043,74331
6.79855,78937
6.80668,73386
6.81480,80609
6.82292,79203
6.83105,70529
6.83917,74089
6.84730,72176
6.85542,78286
6.86353,76566
6.87167,73899
6.87978,70972
6.88790,80852
6.89603,81145
6.90415,66131
6.91228,66489
6.92040,65684
6.92852,54050
6.93665,57172
6.94477,51748
6.95290,48477
6.96102,48410
6.96913,49168
6.97727,48742
6.98538,46027
6.99352,45150
7.00163,49816
7.00975,50903
7.01788,51387
7.02600,45367
7.03412,49260
7.04225,45898
7.05037,44752
7.05850,51138
7.06662,45916
7.07473,48853
7.08287,48044
7.09098,45933
7.09912,46471
7.10723,44728
7.11535,46346
7.12348,46880
7.13160,44930
7.13973,44272
7.14785,43717
7.15597,38175
7.16410,44252
7.17222,44894
7.18033,43199
7.18847,45938
7.19658,48765
7.20472,47356
7.21283,53128
7.22095,56316
7.22908,59216
7.23720,66867
7.24533,54311
7.25345,52977
7.26157,51667
7.26970,46571
7.27782,44411
7.28595,46506
7.29407,41019
7.30218,42209
7.31032,47376
7.31843,49109
7.32655,47408
7.33468,44537
7.34280,47650
7.35093,44439
7.35905,48331
7.36717,47197
7.37530,44975
7.38342,42436
7.39155,43490
7.39967,47031
7.40778,44553
7.41592,45095
7.42403,47478
7.43215,50856
7.44028,51128
7.44840,54420
7.45653,55271
7.46465,55877
7.47277,56469
7.48090,49190
7.48902,46567
7.49715,48431
7.50527,47692
7.51338,44826
7.52152,46410
7.52963,41968
7.53777,43459
7.54588,44194
7.55400,47651
7.56213,52287
7.57025,45099
7.57837,44594
7.58650,41491
7.59462,43253
7.60275,43956
7.61087,43186
7.61898,41537
7.62712,40774
7.63523,41140
7.64337,42988
7.65148,39689
7.65960,41190
7.66773,47253
7.67585,42579
7.68397,43089
7.69210,46769
7.70022,43622
7.70835,45976
7.71647,46216
7.72458,43205
7.73272,42932
7.74083,40566
7.74897,48184
7.75708,43471
7.76520,45796
7.77333,40676
7.78145,47650
7.78958,44614
7.79770,43228
7.80582,42898
7.81395,46010
7.82207,41050
7.83018,43612
7.83832,40665
7.84643,41387
7.85457,40768
7.86268,43590
7.87080,39591
7.87893,35464
7.88705,38537
7.89518,33842
7.90330,42356
7.91142,40088
7.91955,42775
7.92767,37781
7.93580,38524
7.94392,40121
7.95203,38295
7.96017,41549
7.96828,38892
7.97640,42819
7.98453,49161
7.99265,38846
8.00078,40401
8.00890,42583
8.01702,36783
8.02515,35965
8.03327,39942
8.04140,44077
8.04952,36625
8.05763,39177
8.06577,38748
8.07388,38567
8.08200,41213
8.09013,39551
8.09825,38082
8.10638,37365
8.11450,41915
8.12262,39762
8.13075,38864
8.13887,36612
8.14700,40760
8.15512,43667
8.16323,44779
8.17137,44950
8.17948,42077
8.18762,46061
8.19573,44654
8.20385,49052
8.21198,43417
8.22010,39607
8.22822,41270
8.23635,37749
8.24447,46387
8.25260,40770
8.26072,46958
8.26883,42048
8.27697,38498
8.28508,38735
8.29322,41676
8.30133,39748
8.30945,41487
8.31758,42608
8.32570,45218
8.33383,44711
8.34195,45872
8.35007,48446
8.35820,56685
8.36632,52842
8.37443,52527
8.38257,47837
8.39068,45837
8.39882,47167
8.40693,47346
8.41505,42814
8.42318,45990
8.43130,44387
8.43943,48281
8.44755,47416
8.45567,51158
8.46380,44954
8.47192,49516
8.48003,45183
8.48817,48064
8.49628,45151
8.50442,46335
8.51253,54966
8.52065,61116
8.52878,57263
8.53690,56167
8.54503,53030
8.55315,51590
8.56127,48694
8.56940,50890
8.57752,49155
8.58565,47284
8.59377,45689
8.60188,48264
8.61002,47343
8.61813,48668
8.62625,47668
8.63438,51297
8.64250,49530
8.65063,45327
8.65875,48594
8.66687,47099
8.67500,46255
8.68312,45504
8.69125,44166
8.69937,44741
8.70748,46410
8.71562,46023
8.72373,47791
8.73185,46446
8.73998,45638
8.74810,48040
8.75623,48574
8.76435,51189
8.77247,58865
8.78060,86173
8.78872,134129
8.79685,227210
8.80497,324416
8.81308,377876
8.82122,380953
8.82933,342027
8.83747,301942
8.84558,246064
8.85370,230790
8.86183,182940
8.86995,170842
8.87807,156759
8.88620,144430
8.89432,139459
8.90245,126746
8.91057,117435
8.91868,124111
8.92682,116609
8.93493,109180
8.94307,111740
8.95118,108826
8.95930,105605
8.96743,97752
8.97555,101807
8.98368,99528
8.99180,98172
8.99992,97075
9.00805,97931
9.01617,94363
9.02428,93425
9.03242,85424
9.04053,86702
9.04867,89803
9.05678,83857
9.06490,83821
9.07303,78574
9.08115,80795
9.08928,83434
9.09740,79183
9.10552,80049
9.11365,79944
9.12177,76753
9.12988,77016
9.13802,81418
9.14613,79407
9.15427,84747
9.16238,76374
9.17050,80010
9.17863,71178
9.18675,77052
9.19488,77520
9.20300,75398
9.21112,75675
9.21925,73606
9.22737,74899
9.23550,68424
9.24362,74700
9.25173,74912
9.25987,73168
9.26798,66122
9.27610,74280
9.28423,67391
9.29235,69332
9.30048,68871
9.30860,69367
9.31672,63853
9.32485,68669
9.33297,66565
9.34110,67328
9.34922,65297
9.35733,67862
9.36547,63745
9.37358,62283
9.38172,63518
9.38983,63516
9.39795,63172
9.40608,64251
9.41420,58183
9.42232,60606
9.43045,61524
9.43857,61858
9.44670,59941
9.45482,61044
9.46293,63100
9.47107,57851
9.47918,58413
9.48732,57931
9.49543,63653
9.50355,60123
9.51168,60208
9.51980,61441
9.52792,61741
9.53605,59584
9.54417,61854
9.55230,65395
9.56042,62560
9.56853,62469
9.57667,54977
9.58478,53054
9.59292,56922
9.60103,61284
9.60915,65419
9.61728,63520
9.62540,62202
9.63353,62260
9.64165,54144
9.64977,51301
9.65790,50798
9.66602,51668
9.67413,49216
9.68227,45938
9.69038,46758
9.69852,43680
9.70663,45267
9.71475,43181
9.72288,41675
9.73100,41326
9.73913,42563
9.74725,42417
9.75537,42095
9.76350,44858
9.77162,41810
9.77975,39295
9.78787,43401
9.79598,43137
9.80412,41416
9.81223,42553
9.82035,41820
9.82848,43758
9.83660,42982
9.84473,45340
9.85285,44372
9.86097,49032
9.86910,44469
9.87722,42858
9.88535,43568
9.89347,37872
9.90158,45104
9.90972,39640
9.91783,38189
9.92595,38963
9.93408,37504
9.94220,38317
9.95033,38467
9.95845,38044
9.96657,41834
9.97470,43451
9.98282,42187
9.99095,43394
9.99907,47380
10.00718,48527
10.01532,49488
10.02343,47461
10.03157,51974
10.03968,56104
10.04780,53088
10.05593,53488
10.06405,51070
10.07217,48801
10.08030,47256
10.08842,52810
10.09655,42207
10.10467,46719
10.11278,44939
10.12092,39351
10.12903,41930
10.13717,43158
10.14528,40117
10.15340,38228
10.16153,38379
10.16965,45672
10.17777,46079
10.18590,46259
10.19402,39621
10.20215,40693
10.21027,39567
10.21838,41018
10.22652,44312
10.23463,41167
10.24277,41692
10.25088,45729
10.25900,46103
10.26713,49156
10.27525,41355
10.28338,45611
10.29150,39939
10.29962,40829
10.30775,44132
10.31587,44639
10.32398,43258
10.33212,42672
10.34023,44971
10.34837,44268
10.35648,44049
10.36460,46698
10.37273,41232
10.38085,38506
10.38898,41935
10.39710,37803
10.40522,42348
10.41335,43097
10.42147,36041
10.42960,36600
10.43772,42231
10.44583,39914
10.45397,40599
10.46208,38641
10.47020,38579
10.47833,44233
10.48645,37744
10.49458,39194
10.50270,41840
10.51082,38643
10.51895,38318
10.52707,39143
10.53520,40830
10.54332,37516
10.55143,36949
10.55957,37218
10.56768,40701
10.57580,40805
10.58393,40966
10.59205,41618
10.60018,37696
10.60830,37410
10.61642,37998
10.62455,39603
10.63267,37624
10.64080,37137
10.64892,35654
10.65703,39884
10.66517,34635
10.67328,37657
10.68142,37377
10.68953,40792
10.69765,35521
10.70578,40081
10.71390,38847
10.72202,38472
10.73015,45221
10.73827,40586
10.74640,40702
10.75452,40686
10.76263,42237
10.77077,35673
10.77888,48185
10.78702,40776
10.79513,44434
10.80325,42944
10.81138,41559
10.81950,40062
10.82763,36989
10.83575,39616
10.84387,34753
10.85200,39153
10.86012,35337
10.86823,38269
10.87637,38395
10.88448,37068
10.89262,39895
10.90073,36154
10.90885,36302
10.91698,34823
10.92510,40646
10.93323,38057
10.94135,36688
10.94947,35834
10.95760,36045
10.96572,37448
10.97383,38184
10.98197,36972
10.99008,37259
10.99822,39342
11.00633,36275
11.01445,38414
11.02258,34258
11.03070,34922
11.03883,34000
11.04695,37751
11.05507,32760
11.06320,36171
11.07132,35650
11.07945,30583
11.08757,34933
11.09568,34224
11.10382,31619
11.11193,33947
11.12005,30879
11.12818,33028
11.13630,36265
11.14443,30600
11.15255,35961
11.16067,30910
11.16880,32860
11.17692,30034
11.18505,37465
11.19317,34872
11.20128,37807
11.20942,47350
11.21753,43639
11.22565,41680
11.23378,44002
11.24190,40989
11.25003,36728
11.25815,36584
11.26627,33171
11.27440,34864
11.28252,35245
11.29065,31489
11.29877,33366
11.30688,32849
11.31502,34580
11.32313,37261
11.33127,34108
11.33938,35333
11.34750,32839
11.35563,35127
11.36375,34640
11.37187,35826
11.38000,30954
11.38812,31995
11.39625,33908
11.40437,31480
11.41248,30180
11.42062,31499
11.42873,34065
11.43687,29732
11.44498,26179
11.45310,33596
11.46123,30085
11.46935,30031
11.47748,23192
11.48560,32103
11.49372,29047
11.50185,29466
11.50997,30824
11.51808,29723
11.52622,32441
11.53433,29189
11.54247,26234
11.55058,27061
11.55870,32092
11.56683,32326
11.57495,27393
11.58308,30337
11.59120,27277
11.59932,26672
11.60745,28856
11.61557,27732
11.62368,27335
11.63182,28308
11.63993,29870
11.64807,27791
11.65618,28248
11.66430,27449
11.67243,27618
11.68055,28688
11.68868,31185
11.69680,28300
11.70492,31785
11.71305,29551
11.72117,29131
11.72930,31910
11.73742,33835
11.74553,31634
11.75367,30636
11.76178,29557
11.76990,31200
11.77803,26088
11.78615,28609
11.79428,30377
11.80240,32024
11.81052,34481
11.81865,34001
11.82677,30488
11.83490,33962
11.84302,37024
11.85113,33498
11.85927,34021
11.86738,34711
11.87552,30971
11.88363,34048
11.89175,32478
11.89988,30003
11.90800,31821
11.91612,30214
11.92425,31687
11.93237,28285
11.94050,33921
11.94862,29461
11.95673,30245
11.96487,31433
11.97298,29099
11.98112,27597
11.98923,27272
11.99735,31098
12.00548,33237
12.01360,29758
12.02172,36086
12.02985,29999
12.03797,26749
12.04610,27514
12.05422,27814
12.06233,29586
12.07047,28962
12.07858,28379
12.08672,28215
12.09483,29736
12.10295,30402
12.11108,30237
12.11920,30567
12.12733,27325
12.13545,30875
12.14357,32609
12.15170,29495
12.15982,30713
12.16793,28736
12.17607,30279
12.18418,26628
12.19232,31255
12.20043,27416
12.20855,28118
12.21668,30061
12.22480,27921
12.23293,27566
12.24105,29562
12.24917,35711
12.25730,28294
12.26542,30773
12.27353,28849
12.28167,29634
12.28978,28581
12.29792,28238
12.30603,30103
12.31415,27207
12.32228,27743
12.33040,28659
12.33853,30810
12.34665,30572
12.35477,28082
12.36290,31584
12.37102,29006
12.37915,29820
12.38727,34982
12.39538,31451
12.40352,30178
12.41163,35189
12.41975,29540
12.42788,35286
12.43600,29399
12.44413,30184
12.45225,28965
12.46037,32900
12.46850,32961
12.47662,38211
12.48475,38977
12.49287,33151
12.50098,33698
12.50912,34345
12.51723,29823
12.52537,30283
12.53348,25235
12.54160,29158
12.54973,27953
12.55785,27015
12.56597,30619
12.57410,28549
12.58222,29748
12.59035,28312
12.59847,27327
12.60658,30366
12.61472,29078
12.62283,25969
12.63097,27767
12.63908,29324
12.64720,29003
12.65533,30811
12.66345,29237
12.67158,27708
12.67970,28597
12.68782,24493
12.69595,36694
12.70407,29496
12.71218,32076
12.72032,34339
12.72843,36806
12.73657,42464
12.74468,45055
12.75280,53807
12.76093,52885
12.76905,49596
12.77718,49345
12.78530,44583
12.79342,37134
12.80155,37558
12.80967,38379
12.81778,33890
12.82592,32017
12.83403,29038
12.84217,29147
12.85028,28080
12.85840,33220
12.86653,30419
12.87465,27081
12.88278,27955
12.89090,27384
12.89902,27867
12.90715,29318
12.91527,31722
12.92340,31334
12.93152,29439
12.93963,25911
12.94777,27354
12.95588,26784
12.96400,30136
12.97213,25553
12.98025,27602
12.98838,30506
12.99650,30018
13.00462,26509
13.01275,29184
13.02087,26151
13.02900,27537
13.03712,23725
13.04523,25192
13.05337,24196
13.06148,27170
13.06960,26562
13.07773,26589
13.08585,26222
13.09398,26040
13.10210,28173
13.11022,28435
13.11835,29503
13.12647,27295
13.13460,28192
13.14272,28363
13.15083,30507
13.15897,26453
13.16708,29950
13.17522,32987
13.18333,27857
13.19145,26837
13.19958,29301
13.20770,32466
13.21582,35173
13.22395,33032
13.23207,28397
13.24020,34583
13.24832,27499
13.25643,29416
13.26457,26548
13.27268,27611
13.28082,29660
13.28893,29056
13.29705,25352
13.30518,25155
13.31330,28817
13.32143,26128
13.32955,24812
13.33767,28729
13.34580,28542
13.35392,28013
13.36203,28408
13.37017,33420
13.37828,28182
13.38642,29460
13.39453,26450
13.40265,26805
13.41078,26396
13.41890,30265
13.42703,27534
13.43515,24982
13.44327,27764
13.45140,27115
13.45952,25024
13.46763,26467
13.47577,27455
13.48388,27297
13.49202,26535
13.50013,25475
13.50825,23000
13.51638,29734
13.52450,26559
13.53263,25203
13.54075,26175
13.54887,25389
13.55700,30670
13.56512,28372
13.57325,24784
13.58137,28795
13.58948,26120
13.59762,27664
13.60573,24336
13.61385,23856
13.62198,28843
13.63010,28221
13.63823,26300
13.64635,26479
13.65447,27081
13.66260,28571
13.67072,27023
13.67885,21705
13.68697,26511
13.69508,22954
13.70322,26257
13.71133,30728
13.71947,27366
13.72758,21746
13.73570,26726
13.74383,27387
13.75195,27991
13.76007,30366
13.76820,27811
13.77632,24539
13.78445,26671
13.79257,27471
13.80068,25284
13.80882,27297
13.81693,25826
13.82507,27939
13.83318,27817
13.84130,26097
13.84943,28371
13.85755,27214
13.86567,29534
13.87380,31082
13.88192,28319
13.89005,28115
13.89817,29166
13.90628,27783
13.91442,27699
13.92253,30123
13.93067,26922
13.93878,29441
13.94690,30276
13.95503,28399
13.96315,30909
13.97128,27538
13.97940,27667
13.98752,27024
13.99565,27576
14.00377,33113
14.01188,30876
14.02002,27492
14.02813,28583
14.03627,25918
14.04438,26311
14.05250,26962
14.06063,28304
14.06875,30454
14.07688,34223
14.08500,30631
14.09312,33075
14.10125,33506
14.10937,31159
14.11748,29911
14.12562,27126
14.13373,33212
14.14187,26995
14.14998,28157
14.15810,26655
14.16623,26698
14.17435,30985
14.18248,32478
14.19060,37014
14.19872,53197
14.20685,74006
14.21497,104415
14.22310,137781
14.23122,153526
14.23933,153022
14.24747,140106
14.25558,123246
14.26370,111625
14.27183,97321
14.27995,90012
14.28808,81231
14.29620,71258
14.30432,68455
14.31245,58744
14.32057,60207
14.32870,58653
14.33682,57693
14.34493,51968
14.35307,52011
14.36118,46322
14.36932,45072
14.37743,39986
14.38555,36833
14.39368,33801
14.40180,32633
14.40992,28593
14.41805,28828
14.42617,26990
14.43430,30886
14.44242,35273
14.45053,27526
14.45867,27503
14.46678,27900
14.47492,28227
14.48303,25574
14.49115,27199
14.49928,26247
14.50740,26802
14.51552,30686
14.52365,31127
14.53177,28614
14.53990,27616
14.54802,26012
14.55613,28234
14.56427,30434
14.57238,28127
14.58052,32663
14.58863,31649
14.59675,29455
14.60488,29850
14.61300,28710
14.62113,27196
14.62925,26908
14.63737,24832
14.64550,26329
14.65362,25296
14.66173,28058
14.66987,25063
14.67798,27364
14.68612,25608
14.69423,26406
14.70235,24079
14.71048,25904
14.71860,26136
14.72673,24365
14.73485,27190
14.74297,25700
14.75110,27827
14.75922,26186
14.76735,24619
14.77547,22608
14.78358,30234
14.79172,26750
14.79983,25833
14.80795,23061
14.81608,25680
14.82420,27611
14.83233,26849
14.84045,36569
14.84857,31324
14.85670,36975
14.86482,39865
14.87295,36054
14.88107,34344
14.88918,35925
14.89732,33072
14.90543,38047
14.91355,34252
14.92168,35592
14.92980,40054
14.93793,34988
14.94605,38521
14.95417,33008
14.96230,33254
14.97042,31438
14.97855,32996
14.98667,31886
14.99478,30274
15.00292,31636
15.01103,30770
15.01917,34655
15.02728,28960
15.03540,28637
15.04353,32594
15.05165,30157
15.05977,32952
15.06790,30631
15.07602,31868
15.08415,33855
15.09227,29355
15.10038,27578
15.10852,34397
15.11663,25920
15.12477,29252
15.13288,31861
15.14100,29447
15.14913,32796
15.15725,30642
15.16538,28161
15.17350,26603
15.18162,28735
15.18975,32262
15.19787,29704
15.20598,26263
15.21412,31718
15.22223,26185
15.23037,31489
15.23848,28245
15.24660,28602
15.25473,23590
15.26285,28557
15.27098,27976
15.27910,29992
15.28722,25385
15.29535,27784
15.30347,27774
15.31158,24449
15.31972,23365
15.32783,28142
15.33597,23873
15.34408,25924
15.35220,24685
15.36033,24533
15.36845,29633
15.37658,22780
15.38470,27161
15.39282,28167
15.40095,22449
15.40907,24320
15.41720,23863
15.42532,19992
15.43343,25904
15.44157,25049
15.44968,21916
15.45780,23675
15.46593,22339
15.47405,24273
15.48218,22221
15.49030,25721
15.49842,26789
15.50655,24705
15.51467,26405
15.52280,30483
15.53092,26036
15.53903,22621
15.54717,25182
15.55528,27922
15.56340,24287
15.57153,21869
15.57965,24806
15.58778,23173
15.59590,23715
15.60402,21995
15.61215,21718
15.62027,21525
15.62840,26347
15.63652,25501
15.64463,25320
15.65277,25429
15.66088,21906
15.66902,22072
15.67713,23027
15.68525,21200
15.69338,25962
15.70150,29810
15.70962,24089
15.71775,22359
15.72587,24188
15.73400,23044
15.74212,24906
15.75023,22317
15.75837,22953
15.76648,22811
15.77462,25759
15.78273,24071
15.79085,25931
15.79898,26345
15.80710,27888
15.81523,19193
15.82335,24090
15.83147,25095
15.83960,26443
15.84772,25787
15.85583,21443
15.86397,26717
15.87208,23928
15.88022,26125
15.88833,23682
15.89645,24400
15.90458,26842
15.91270,22573
15.92083,26437
15.92895,28503
15.93707,23399
15.94520,23141
15.95332,27690
15.96143,24678
15.96957,27190
15.97768,21903
15.98582,22335
15.99393,26132
16.00205,33780
16.01018,42853
16.01830,66596
16.02643,99757
16.03455,139479
16.04267,173593
16.05080,190233
16.05892,177934
16.06705,140442
16.07517,106010
16.08328,79309
16.09142,62303
16.09953,55367
16.10765,49779
16.11578,44657
16.12390,45713
16.13203,44423
16.14015,38286
16.14827,43149
16.15640,44189
16.16452,42049
16.17265,36151
16.18077,39449
16.18888,34346
16.19702,35268
16.20513,38324
16.21327,36012
16.22138,33538
16.22950,36904
16.23763,32687
16.24575,31587
16.25387,34106
16.26200,29074
16.27012,31570
16.27825,29025
16.28637,28395
16.29448,30472
16.30262,28322
16.31073,29049
16.31887,33010
16.32698,27618
16.33510,31772
16.34323,31859
16.35135,29624
16.35947,29518
16.36760,30083
16.37572,28060
16.38385,31420
16.39197,29318
16.40008,27801
16.40822,27919
16.41633,30790
16.42447,29883
16.43258,27746
16.44070,28134
16.44883,29621
16.45695,27367
16.46508,25900
16.47320,27257
16.48132,24871
16.48945,32661
16.49757,29388
16.50568,28183
16.51382,27318
16.52193,31787
16.53007,26189
16.53818,28423
16.54630,25901
16.55443,28379
16.56255,26594
16.57068,28354
16.57880,24742
16.58692,31248
16.59505,24682
16.60317,24873
16.61128,25663
16.61942,26115
16.62753,23661
16.63567,21960
16.64378,27406
16.65190,25886
16.66003,28134
16.66815,28901
16.67628,31103
16.68440,28847
16.69252,26657
16.70065,26230
16.70877,26785
16.71690,22652
16.72502,24041
16.73313,29566
16.74127,23076
16.74938,24032
16.75750,25483
16.76563,31653
16.77375,24633
16.78188,24427
16.79000,21983
16.79812,22029
16.80625,22105
16.81437,25335
16.82250,26389
16.83062,26260
16.83873,25855
16.84687,23160
16.85498,23457
16.86312,22810
16.87123,24859
16.87935,23066
16.88748,23709
16.89560,22857
16.90372,22365
16.91185,22757
16.91997,22805
16.92810,25161
16.93622,28227
16.94433,24239
16.95247,25178
16.96058,20856
16.96872,22803
16.97683,21763
16.98495,27277
16.99308,22851
17.00120,25190
17.00932,21509
17.01745,27309
17.02557,25205
17.03370,22695
17.04182,23431
17.04993,23987
17.05807,23624
17.06618,22476
17.07432,22977
17.08243,26054
17.09055,22824
17.09868,27426
17.10680,22820
17.11493,21677
17.12305,23730
17.13117,23096
17.13930,22126
17.14742,21061
17.15553,21939
17.16367,22909
17.17178,24492
17.17992,21742
17.18803,22769
17.19615,21611
17.20428,26294
17.21240,23382
17.22053,19310
17.22865,26391
17.23677,24605
17.24490,24154
17.25302,21608
17.26115,20372
17.26927,21549
17.27738,23429
17.28552,23057
17.29363,22075
17.30175,22030
17.30988,23571
17.31800,22040
17.32613,22106
17.33425,21552
17.34237,24057
17.35050,23429
17.35862,24886
17.36675,27967
17.37487,29706
17.38298,28927
17.39112,28405
17.39923,28698
17.40735,28207
17.41548,27460
17.42360,26433
17.43173,26327
17.43985,26759
17.44797,25468
17.45610,24862
17.46422,26541
17.47235,22791
17.48047,24063
17.48858,25187
17.49672,29398
17.50483,28429
17.51297,24951
17.52108,23742
17.52920,27028
17.53733,25064
17.54545,27961
17.55357,31925
17.56170,27400
17.56982,26711
17.57795,26408
17.58607,20840
17.59418,25356
17.60232,29184
17.61043,23220
17.61857,26742
17.62668,22776
17.63480,24586
17.64293,22844
17.65105,22450
17.65917,25816
17.66730,26223
17.67542,22758
17.68355,28196
17.69167,30789
17.69978,27743
17.70792,27155
17.71603,32214
17.72417,29536
17.73228,24604
17.74040,26076
17.74853,25536
17.75665,26418
17.76478,26124
17.77290,23385
17.78102,24419
17.78915,22227
17.79727,22646
17.80538,21368
17.81352,25412
17.82163,21484
17.82977,26463
17.83788,33267
17.84600,31562
17.85413,32367
17.86225,32826
17.87038,29588
17.87850,31219
17.88662,28024
17.89475,27355
17.90287,21170
17.91100,22233
17.91912,20514
17.92723,28977
17.93537,21868
17.94348,23705
17.95160,22856
17.95973,26743
17.96785,21003
17.97598,21220
17.98410,22609
17.99222,26231
18.00035,22818
18.00847,21288
18.01660,24056
18.02472,24523
18.03283,20617
18.04097,24676
18.04908,22983
18.05722,23326
18.06533,22380
18.07345,24595
18.08158,26301
18.08970,29419
18.09782,31286
18.10595,37418
18.11407,37953
18.12220,38574
18.13032,44523
18.13843,42278
18.14657,42274
18.15468,44264
18.16282,41403
18.17093,39279
18.17905,38502
18.18718,39487
18.19530,35805
18.20342,41453
18.21155,39159
18.21967,35758
18.22780,39779
18.23592,36479
18.24403,36992
18.25217,35678
18.26028,39410
18.26842,35670
18.27653,35664
18.28465,33636
18.29278,38221
18.30090,28728
18.30903,30017
18.31715,26428
18.32527,31020
18.33340,29578
18.34152,27518
18.34963,24905
18.35777,25894
18.36588,28619
18.37402,27587
18.38213,25371
18.39025,24395
18.39838,24715
18.40650,22942
18.41463,25924
18.42275,22822
18.43087,22948
18.43900,20921
18.44712,24210
18.45523,23720
18.46337,21126
18.47148,24788
18.47962,26083
18.48773,24323
18.49585,26922
18.50398,25518
18.51210,23460
18.52023,22241
18.52835,23612
18.53647,21202
18.54460,24436
18.55272,24711
18.56085,25453
18.56897,22691
18.57708,24350
18.58522,25599
18.59333,23601
18.60145,21303
18.60958,26005
18.61770,28177
18.62583,25039
18.63395,22515
18.64207,23628
18.65020,20671
18.65832,25081
18.66645,22368
18.67457,23760
18.68268,23186
18.69082,24632
18.69893,28527
18.70707,22727
18.71518,24236
18.72330,21452
18.73143,21417
18.73955,21080
18.74767,24175
18.75580,27175
18.76392,23682
18.77205,22782
18.78017,20836
18.78828,24296
18.79642,22998
18.80453,21886
18.81267,21488
18.82078,24430
18.82890,23203
18.83703,23812
18.84515,22203
18.85327,22215
18.86140,23413
18.86952,21521
18.87765,23438
18.88577,22736
18.89388,21712
18.90202,20892
18.91013,21995
18.91827,21973
18.92638,22205
18.93450,21380
18.94263,23274
18.95075,21361
18.95888,24211
18.96700,21710
18.97512,22953
18.98325,22811
18.99137,22470
18.99948,21719
19.00762,24483
19.01573,20515
19.02387,21072
19.03198,25246
19.04010,22338
19.04823,22474
19.05635,26181
19.06448,21598
19.07260,20131
19.08072,25671
19.08885,20450
19.09697,25874
19.10510,23830
19.11322,24634
19.12133,27888
19.12947,27436
19.13758,27459
19.14570,27739
19.15383,23204
19.16195,24141
19.17008,22778
19.17820,29100
19.18632,26878
19.19445,27006
19.20257,23187
19.21070,24815
19.21882,20840
19.22693,22767
19.23507,27176
19.24318,25349
19.25130,22285
19.25943,27649
19.26755,27508
19.27568,34317
19.28380,43438
19.29192,53721
19.30005,63204
19.30817,79319
19.31630,92157
19.32442,75384
19.33253,65039
19.34067,54877
19.34878,48138
19.35692,43124
19.36503,35906
19.37315,33061
19.38128,34740
19.38940,33014
19.39752,35754
19.40565,29050
19.41377,33542
19.42190,29125
19.43002,32520
19.43813,28066
19.44627,30204
19.45438,28341
19.46252,33466
19.47063,33555
19.47875,39988
19.48688,48445
19.49500,59268
19.50312,76369
19.51125,97623
19.51937,120389
19.52750,128881
19.53562,129676
19.54373,120299
19.55187,102211
19.55998,72769
19.56812,54369
19.57623,44275
19.58435,37849
19.59248,29719
19.60060,34543
19.60873,31826
19.61685,32150
19.62497,34229
19.63310,32915
19.64122,36533
19.64933,52502
19.65747,79925
19.66558,118449
19.67372,170930
19.68183,211558
19.68995,223098
19.69808,204506
19.70620,167751
19.71433,129798
19.72245,100470
19.73057,78471
19.73870,63519
19.74682,61219
19.75495,47050
19.76307,42742
19.77118,40782
19.77932,34188
19.78743,33454
19.79555,33492
19.80368,33842
19.81180,27138
19.81993,32887
19.82805,29761
19.83617,29901
19.84430,32831
19.85242,28228
19.86055,30373
19.86867,30333
19.87678,35843
19.88492,47989
19.89303,67506
19.90115,100028
19.90928,146949
19.91740,208250
19.92553,255405
19.93365,290727
19.94177,304560
19.94990,320415
19.95802,317777
19.96615,302403
19.97427,303939
19.98238,286891
19.99052,270974
19.99863,271159
20.00677,263079
20.01488,251825
20.02300,250428
20.03113,230859
20.03925,215697
20.04737,193329
20.05550,174290
20.06362,156120
20.07175,124743
20.07987,102650
20.08798,76175
20.09612,76127
20.10423,70172
20.11237,60402
20.12048,62066
20.12860,63867
20.13673,56186
20.14485,61535
20.15298,56663
20.16110,66056
20.16922,60468
20.17735,60107
20.18547,58549
20.19358,61830
20.20172,58939
20.20983,57626
20.21797,56875
20.22608,62292
20.23420,65705
20.24233,57292
20.25045,57261
20.25858,70636
20.26670,93166
20.27482,118453
20.28295,154189
20.29107,196219
20.29918,217095
20.30732,222223
20.31543,203367
20.32357,171446
20.33168,141151
20.33980,118748
20.34793,97222
20.35605,83333
20.36418,76550
20.37230,71301
20.38042,65925
20.38855,67060
20.39667,65264
20.40480,64932
20.41292,63390
20.42103,62016
20.42917,65195
20.43728,79883
20.44540,95396
20.45353,97111
20.46165,108815
20.46978,104325
20.47790,97304
20.48602,83286
20.49415,82520
20.50227,73858
20.51040,67602
20.51852,65056
20.52663,58142
20.53477,59648
20.54288,60992
20.55102,51555
20.55913,55170
20.56725,55126
20.57538,58862
20.58350,53731
20.59162,53732
20.59975,50107
20.60787,56307
20.61600,52382
20.62412,52549
20.63223,52776
20.64037,51784
20.64848,47950
20.65662,54912
20.66473,49963
20.67285,50230
20.68098,46443
20.68910,49319
20.69722,50057
20.70535,51907
20.71347,47090
20.72160,46986
20.72972,43617
20.73783,44220
20.74597,39705
20.75408,45985
20.76222,40199
20.77033,32464
20.77845,34533
20.78658,36985
20.79470,36941
20.80283,40246
20.81095,37496
20.81907,34380
20.82720,37061
20.83532,32935
20.84343,34078
20.85157,34279
20.85968,36926
20.86782,36338
20.87593,34901
20.88405,34029
20.89218,33789
20.90030,34150
20.90843,36344
20.91655,35084
20.92467,36200
20.93280,34299
20.94092,31470
20.94903,29414
20.95717,35645
20.96528,32541
20.97342,35924
20.98153,34303
20.98965,34453
20.99778,33067
21.00590,33770
21.01403,32831
21.02215,32045
21.03027,34062
21.03840,30686
21.04652,33332
21.05465,32507
21.06277,33186
21.07088,32844
21.07902,39556
21.08713,31839
21.09525,30267
21.10338,34081
21.11150,31768
21.11963,28191
21.12775,35210
21.13587,34739
21.14400,31150
21.15212,33091
21.16025,29984
21.16837,33224
21.17648,33423
21.18462,35294
21.19273,33694
21.20087,33798
21.20898,32955
21.21710,30457
21.22523,31703
21.23335,33015
21.24147,31948
21.24960,30718
21.25772,33951
21.26585,34106
21.27397,33865
21.28208,33493
21.29022,37509
21.29833,32406
21.30647,32355
21.31458,29105
21.32270,30396
21.33083,28995
21.33895,29241
21.34707,29168
21.35520,31500
21.36332,32466
21.37145,29880
21.37957,30340
21.38768,27838
21.39582,29471
21.40393,34468
21.41207,30503
21.42018,29718
21.42830,33060
21.43643,34866
21.44455,29894
21.45268,30965
21.46080,30401
21.46892,34862
21.47705,31816
21.48517,30846
21.49328,29833
21.50142,29928
21.50953,26733
21.51767,34488
21.52578,28051
21.53390,28596
21.54203,28965
21.55015,33596
21.55828,26713
21.56640,30376
21.57452,29304
21.58265,29637
21.59077,30934
21.59890,28136
21.60702,31234
21.61513,30070
21.62327,34315
21.63138,35352
21.63950,44653
21.64763,55881
21.65575,67699
21.66388,68303
21.67200,66693
21.68012,56765
21.68825,51694
21.69637,48015
21.70450,43859
21.71262,29843
21.72073,30367
21.72887,31628
21.73698,30825
21.74510,32063
21.75323,31310
21.76135,33094
21.76948,29537
21.77760,30148
21.78572,31675
21.79385,32986
21.80197,32086
21.81010,29273
21.81822,34657
21.82633,42981
21.83447,39238
21.84258,49050
21.85072,57467
21.85883,64405
21.86695,61692
21.87508,61115
21.88320,49279
21.89132,42832
21.89945,39800
21.90757,33209
21.91570,30243
21.92382,27987
21.93193,29749
21.94007,28466
21.94818,28358
21.95632,29299
21.96443,25109
21.97255,31474
21.98068,28453
21.98880,26583
21.99692,25483
22.00505,26640
22.01317,26384
22.02130,26960
22.02942,25989
22.03753,27923
22.04567,26237
22.05378,30463
22.06192,29289
22.07003,28775
22.07815,27293
22.08628,27863
22.09440,25499
22.10253,28819
22.11065,28365
22.11877,24205
22.12690,25058
22.13502,28159
22.14313,27645
22.15127,28450
22.15938,23604
22.16752,24992
22.17563,26853
22.18375,26863
22.19188,28093
22.20000,24385
22.20813,26736
22.21625,28976
22.22437,28667
22.23250,31347
22.24062,30765
22.24875,35961
22.25687,34085
22.26498,29762
22.27312,31735
22.28123,25912
22.28935,28218
22.29748,26569
22.30560,26411
22.31373,24555
22.32185,25554
22.32997,28060
22.33810,26656
22.34622,22498
22.35435,30499
22.36247,29812
22.37058,34054
22.37872,28630
22.38683,30452
22.39495,29927
22.40308,26755
22.41120,25006
22.41933,27603
22.42745,29966
22.43557,27308
22.44370,30973
22.45182,29785
22.45995,34312
22.46807,37260
22.47618,39506
22.48432,39783
22.49243,33041
22.50057,31101
22.50868,26702
22.51680,30816
22.52493,28420
22.53305,28142
22.54117,28249
22.54930,26315
22.55742,25208
22.56555,26793
22.57367,26799
22.58178,22594
22.58992,26546
22.59803,25061
22.60617,22247
22.61428,24636
22.62240,25839
22.63053,25436
22.63865,22060
22.64678,25494
22.65490,27502
22.66302,24100
22.67115,22507
22.67927,24801
22.68738,22491
22.69552,25904
22.70363,26764
22.71177,26764
22.71988,27341
22.72800,26832
22.73613,29317
22.74425,25237
22.75238,26491
22.76050,27092
22.76862,25550
22.77675,25805
22.78487,24866
22.79298,22434
22.80112,22308
22.80923,23511
22.81737,21500
22.82548,25815
22.83360,25573
22.84173,23263
22.84985,24456
22.85798,24721
22.86610,24759
22.87422,27364
22.88235,27680
22.89047,27190
22.89860,28653
22.90672,34237
22.91483,36382
22.92297,45236
22.93108,54394
22.93920,68664
22.94733,85928
22.95545,99309
22.96358,103661
22.97170,97935
22.97982,96720
22.98795,83908
22.99607,79949
23.00420,78178
23.01232,68406
23.02043,65933
23.02857,55859
23.03668,47270
23.04480,39557
23.05293,40245
23.06105,35473
23.06918,39750
23.07730,31027
23.08542,33928
23.09355,34959
23.10167,31081
23.10980,30344
23.11792,27463
23.12603,27263
23.13417,28324
23.14228,28786
23.15042,27685
23.15853,26637
23.16665,32124
23.17478,28106
23.18290,29630
23.19102,25174
23.19915,28147
23.20727,27043
23.21540,25247
23.22352,28847
23.23163,29386
23.23977,25050
23.24788,28295
23.25602,28589
23.26413,26650
23.27225,31020
23.28038,26080
23.28850,27933
23.29663,25904
23.30475,26939
23.31287,28129
23.32100,26313
23.32912,26204
23.33723,23980
23.34537,27437
23.35348,22913
23.36162,28035
23.36973,26602
23.37785,24789
23.38598,26909
23.39410,30697
23.40223,24598
23.41035,28804
23.41847,29209
23.42660,29587
23.43472,29295
23.44285,26257
23.45097,24320
23.45908,24400
23.46722,24318
23.47533,25668
23.48345,22764
23.49158,20976
23.49970,22699
23.50783,24275
23.51595,23176
23.52407,23672
23.53220,21877
23.54032,25469
23.54845,22923
23.55657,27248
23.56468,24588
23.57282,24120
23.58093,23503
23.58905,26764
23.59718,24835
23.60530,25382
23.61343,25309
23.62155,27429
23.62967,32216
23.63780,27587
23.64592,25188
23.65405,26253
23.66217,30192
23.67028,35087
23.67842,36399
23.68653,37495
23.69467,43643
23.70278,42006
23.71090,42405
23.71903,45500
23.72715,39857
23.73527,44305
23.74340,41021
23.75152,57238
23.75965,102289
23.76777,254213
23.77588,649928
23.78402,1574779
23.79213,2680000
23.80027,3535134
23.80838,3868316
23.81650,3509880
23.82463,2787562
23.83275,2068037
23.84087,1426312
23.84900,955660
23.85712,715089
23.86525,519091
23.87337,428411
23.88148,341447
23.88962,292555
23.89773,251059
23.90587,221227
23.91398,206468
23.92210,188469
23.93023,178526
23.93835,156324
23.94648,150428
23.95460,137486
23.96272,130499
23.97085,122651
23.97897,123328
23.98708,111497
23.99522,107250
24.00333,105201
24.01147,96875
24.01958,98730
24.02770,93850
24.03583,96665
24.04395,88684
24.05208,84871
24.06020,80970
24.06832,79613
24.07645,81999
24.08457,79104
24.09270,74793
24.10082,70747
24.10893,69452
24.11707,69165
24.12518,70790
24.13330,69390
24.14143,73725
24.14955,70046
24.15768,73216
24.16580,71715
24.17392,75492
24.18205,69852
24.19017,68368
24.19830,59798
24.20642,61068
24.21453,62692
24.22267,66887
24.23078,67134
24.23890,69502
24.24703,66013
24.25515,63946
24.26328,63743
24.27140,57640
24.27952,57240
24.28765,55181
24.29577,54094
24.30390,61137
24.31202,52151
24.32013,52572
24.32827,46224
24.33638,45668
24.34452,49613
24.35263,47517
24.36075,46636
24.36888,50521
24.37700,46007
24.38512,46685
24.39325,57477
24.40137,63034
24.40950,75215
24.41762,92462
24.42573,94630
24.43387,90609
24.44198,74239
24.45012,62533
24.45823,52659
24.46635,44125
24.47448,45919
24.48260,44186
24.49073,43997
24.49885,42456
24.50697,47987
24.51510,52436
24.52322,58462
24.53133,60046
24.53947,58924
24.54758,57120
24.55572,55083
24.56383,46965
24.57195,47389
24.58008,46626
24.58820,45976
24.59633,40870
24.60445,44558
24.61257,42568
24.62070,40871
24.62882,42213
24.63693,43071
24.64507,42070
24.65318,40344
24.66132,44276
24.66943,47334
24.67755,42165
24.68568,43524
24.69380,46580
24.70193,41550
24.71005,39922
24.71817,38910
24.72630,33747
24.73442,38294
24.74255,36936
24.75067,33978
24.75878,33385
24.76692,37657
24.77503,38269
24.78315,33190
24.79128,33829
24.79940,34242
24.80753,33345
24.81565,36801
24.82377,32830
24.83190,29914
24.84002,33616
24.84815,33110
24.85627,31038
24.86438,32836
24.87252,36759
24.88063,36923
24.88875,35536
24.89688,34947
24.90500,36426
24.91313,34552
24.92125,32167
24.92937,34053
24.93750,29967
24.94562,29903
24.95375,34129
24.96187,31806
24.96998,33088
24.97812,33189
24.98623,29358
24.99437,32298
25.00248,31536
25.01060,34100
25.01873,30154
25.02685,31410
25.03497,26368
25.04310,27602
25.05122,28531
25.05935,31833
25.06747,29945
25.07558,27109
25.08372,32982
25.09183,35296
25.09997,34545
25.10808,28768
25.11620,30815
25.12433,32939
25.13245,31800
25.14058,36264
25.14870,38553
25.15682,44108
25.16495,41081
25.17307,47270
25.18118,44815
25.18932,41718
25.19743,37828
25.20557,34054
25.21368,33642
25.22180,34083
25.22993,35455
25.23805,32181
25.24618,33127
25.25430,32206
25.26242,33875
25.27055,31728
25.27867,29833
25.28678,31393
25.29492,32202
25.30303,34909
25.31117,35740
25.31928,36656
25.32740,34803
25.33553,37532
25.34365,37181
25.35178,34575
25.35990,37261
25.36802,36495
25.37615,38017
25.38427,33921
25.39240,31330
25.40052,28172
25.40863,29265
25.41677,29524
25.42488,27578
25.43300,30728
25.44113,30696
25.44925,28810
25.45738,32153
25.46550,31605
25.47362,37809
25.48175,43127
25.48987,42829
25.49800,42883
25.50612,46322
25.51423,49638
25.52237,50447
25.53048,42969
25.53862,42028
25.54673,35673
25.55485,36590
25.56298,35644
25.57110,33243
25.57922,29818
25.58735,34062
25.59547,29720
25.60360,33339
25.61172,26907
25.61983,31640
25.62797,29877
25.63608,30106
25.64422,27118
25.65233,28633
25.66045,29945
25.66858,30975
25.67670,26808
25.68482,24883
25.69295,30940
25.70107,29157
25.70920,26441
25.71732,25591
25.72543,24686
25.73357,28783
25.74168,27166
25.74982,25046
25.75793,30284
25.76605,27747
25.77418,29238
25.78230,32346
25.79043,28113
25.79855,32926
25.80667,35378
25.81480,31569
25.82292,31821
25.83103,31019
25.83917,33095
25.84728,32865
25.85542,33875
25.86353,30910
25.87165,31161
25.87978,28248
25.88790,28284
25.89603,28603
25.90415,36389
25.91227,29823
25.92040,31418
25.92852,29002
25.93663,31799
25.94477,27840
25.95288,28994
25.96102,28839
25.96913,33787
25.97725,29447
25.98538,27037
25.99350,30129
26.00163,28127
26.00975,31202
26.01787,26911
26.02600,26702
26.03412,32421
26.04225,27174
26.05037,28547
26.05848,30877
26.06662,26140
26.07473,29353
26.08285,26593
26.09098,28640
26.09910,26585
26.10723,28674
26.11535,30892
26.12347,28794
26.13160,33869
26.13972,32561
26.14785,33966
26.15597,35271
26.16408,36902
26.17222,39022
26.18033,42659
26.18847,40700
26.19658,39951
26.20470,37433
26.21283,41466
26.22095,38998
26.22907,33117
26.23720,37403
26.24532,31465
26.25345,34003
26.26157,36488
26.26968,31965
26.27782,30884
26.28593,33199
26.29407,31044
26.30218,33451
26.31030,31598
26.31843,31824
26.32655,29548
26.33467,28324
26.34280,37192
26.35092,30440
26.35905,28167
26.36717,29061
26.37528,30093
26.38342,29463
26.39153,30684
26.39967,31312
26.40778,29431
26.41590,27741
26.42403,30642
26.43215,31069
26.44028,33242
26.44840,30622
26.45652,27130
26.46465,27903
26.47277,30453
26.48088,31074
26.48902,25575
26.49713,29800
26.50527,30649
26.51338,29133
26.52150,28433
26.52963,29057
26.53775,26881
26.54588,28589
26.55400,26612
26.56212,28050
26.57025,26878
26.57837,27031
26.58650,28289
26.59462,27459
26.60273,27311
26.61087,28432
26.61898,25858
26.62710,27762
26.63523,28080
26.64335,28873
26.65148,27190
26.65960,29750
26.66772,34180
26.67585,33822
26.68397,31096
26.69210,30282
26.70022,32156
26.70833,33350
26.71647,32055
26.72458,30395
26.73270,28882
26.74083,33655
26.74895,26852
26.75708,32265
26.76520,30295
26.77332,26944
26.78145,26862
26.78957,32738
26.79770,29691
26.80582,29061
26.81393,30527
26.82207,35334
26.83018,31557
26.83832,31841
26.84643,34688
26.85455,36536
26.86268,38720
26.87080,38882
26.87892,30728
26.88705,37292
26.89517,31896
26.90330,32214
26.91142,29766
26.91953,29790
26.92767,27910
26.93578,29447
26.94392,31362
26.95203,34544
26.96015,33031
26.96828,40752
26.97640,59912
26.98453,104493
26.99265,206349
27.00077,391151
27.00890,684324
27.01702,1089343
27.02513,1554593
27.03327,1838385
27.04138,1850708
27.04952,1595828
27.05763,1231659
27.06575,918511
27.07388,650650
27.08200,491749
27.09013,377134
27.09825,310458
27.10637,266906
27.11450,234792
27.12262,200951
27.13073,176854
27.13887,159978
27.14698,152190
27.15512,134232
27.16323,132080
27.17135,124183
27.17948,122674
27.18760,112908
27.19573,106116
27.20385,100508
27.21197,104004
27.22010,96572
27.22822,95091
27.23635,90446
27.24447,86231
27.25258,85242
27.26072,77167
27.26883,74717
27.27695,70269
27.28508,71126
27.29320,70149
27.30133,67222
27.30945,68583
27.31757,68357
27.32570,56403
27.33382,65777
27.34195,59190
27.35007,60087
27.35818,60576
27.36632,58044
27.37443,57998
27.38255,56406
27.39068,55590
27.39880,55457
27.40693,51472
27.41505,57813
27.42317,58297
27.43130,51460
27.43942,50833
27.44755,53144
27.45567,50066
27.46378,48193
27.47192,43566
27.48003,43550
27.48817,45204
27.49628,48322
27.50440,52875
27.51253,45891
27.52065,51094
27.52877,42457
27.53690,46974
27.54502,49096
27.55315,48423
27.56127,48064
27.56938,45241
27.57752,46307
27.58563,42553
27.59377,44547
27.60188,45440
27.61000,44864
27.61813,44242
27.62625,41779
27.63438,44242
27.64250,42252
27.65062,42123
27.65875,43926
27.66687,45718
27.67498,41245
27.68312,42838
27.69123,38176
27.69937,42131
27.70748,39661
27.71560,42100
27.72373,43503
27.73185,35878
27.73998,37956
27.74810,32626
27.75622,39174
27.76435,39602
27.77247,38425
27.78058,38845
27.78872,35350
27.79683,35709
27.80497,36917
27.81308,38393
27.82120,36980
27.82933,36292
27.83745,34835
27.84558,32821
27.85370,33814
27.86182,38830
27.86995,35299
27.87807,37245
27.88620,35829
27.89432,37465
27.90243,34503
27.91057,36030
27.91868,34641
27.92680,37915
27.93493,33372
27.94305,32832
27.95118,34393
27.95930,35522
27.96742,36285
27.97555,32424
27.98367,36327
27.99180,32022
27.99992,34688
28.00803,32716
28.01617,34876
28.02428,31694
28.03242,31146
28.04053,32713
28.04865,35466
28.05678,32332
28.06490,32879
28.07302,35016
28.08115,35002
28.08927,33800
28.09740,34455
28.10552,31576
28.11363,35601
28.12177,34215
28.12988,34981
28.13802,36386
28.14613,33510
28.15425,35953
28.16238,32661
28.17050,36350
28.17862,33053
28.18675,31965
28.19487,32363
28.20300,31468
28.21112,35476
28.21923,37602
28.22737,42870
28.23548,43310
28.24362,41393
28.25173,42527
28.25985,37585
28.26798,35894
28.27610,35424
28.28423,37138
28.29235,34494
28.30047,42525
28.30860,47346
28.31672,63046
28.32483,84573
28.33297,130778
28.34108,174291
28.34922,239032
28.35733,289012
28.36545,331802
28.37358,353899
28.38170,359012
28.38983,348787
28.39795,333075
28.40607,307741
28.41420,258571
28.42232,231228
28.43043,197766
28.43857,171500
28.44668,150533
28.45482,131190
28.46293,112141
28.47105,102642
28.47918,94962
28.48730,87307
28.49543,86863
28.50355,77927
28.51167,79418
28.51980,71883
28.52792,72520
28.53605,68976
28.54417,73816
28.55228,65964
28.56042,62333
28.56853,64993
28.57665,62255
28.58478,61494
28.59290,58355
28.60103,56252
28.60915,53675
28.61727,46688
28.62540,53521
28.63352,57484
28.64165,52853
28.64977,53997
28.65788,52195
28.66602,54494
28.67413,57492
28.68227,53598
28.69038,57498
28.69850,50442
28.70663,53178
28.71475,49367
28.72287,55727
28.73100,51055
28.73912,40522
28.74725,46065
28.75537,47089
28.76348,51015
28.77162,48703
28.77973,57183
28.78787,67978
28.79598,70040
28.80410,71712
28.81223,58961
28.82035,49870
28.82848,49178
28.83660,48591
28.84472,46634
28.85285,39516
28.86097,41854
28.86908,42545
28.87722,41301
28.88533,36559
28.89347,41703
28.90158,40677
28.90970,41445
28.91783,40533
28.92595,37760
28.93408,42304
28.94220,40455
28.95032,34861
28.95845,44951
28.96657,47771
28.97468,40287
28.98282,44360
28.99093,45055
28.99907,40585
29.00718,42846
29.01530,39434
29.02343,39209
29.03155,40023
29.03968,43227
29.04780,38657
29.05592,36171
29.06405,38269
29.07217,37141
29.08030,39778
29.08842,35815
29.09653,38989
29.10467,38919
29.11278,36905
29.12090,41913
29.12903,38631
29.13715,37642
29.14528,39680
29.15340,33762
29.16152,40819
29.16965,37345
29.17777,34834
29.18590,41280
29.19402,39521
29.20213,38761
29.21027,38753
29.21838,38658
29.22650,42193
29.23463,37392
29.24275,38472
29.25088,39415
29.25900,40032
29.26712,40337
29.27525,36346
29.28337,35764
29.29150,36571
29.29962,34829
29.30773,36096
29.31587,37237
29.32398,34621
29.33212,36331
29.34023,37595
29.34835,45842
29.35648,34774
29.36460,35705
29.37272,37112
29.38085,36035
29.38897,37731
29.39710,33473
29.40522,42106
29.41333,39188
29.42147,40059
29.42958,39393
29.43772,39386
29.44583,37491
29.45395,36897
29.46208,35803
29.47020,34912
29.47833,39959
29.48645,35952
29.49457,37386
29.50270,42553
29.51082,38550
29.51893,39627
29.52707,40690
29.53518,42568
29.54332,35906
29.55143,37270
29.55955,36378
29.56768,34544
29.57580,37881
29.58393,33536
29.59205,29291
29.60017,32366
29.60830,39492
29.61642,31312
29.62453,36837
29.63267,31086
29.64078,33843
29.64892,34581
29.65703,40245
29.66515,35334
29.67328,36352
29.68140,32764
29.68953,32305
29.69765,35283
29.70577,35702
29.71390,34709
29.72202,33891
29.73015,30711
29.73827,35242
29.74638,35582
29.75452,33648
29.76263,34020
29.77075,35766
29.77888,38320
29.78700,34560
29.79513,31896
29.80325,34307
29.81137,32170
29.81950,33482
29.82762,29681
29.83575,29794
29.84387,34606
29.85198,31981
29.86012,31925
29.86823,32239
29.87637,29028
29.88448,33920
29.89260,39121
29.90073,40526
29.90885,40721
29.91697,51715
29.92510,41584
29.93322,44823
29.94135,40270
29.94947,49500
29.95758,48776
29.96572,54955
29.97383,56924
29.98197,72865
29.99008,87188
29.99820,95308
30.00633,115119
30.01445,129161
30.02257,149671
30.03070,147577
30.03882,152908
30.04695,152147
30.05507,141749
30.06318,143358
30.07132,136249
30.07943,120818
30.08757,109456
30.09568,100481
30.10380,100792
30.11193,91037
30.12005,78959
30.12818,80646
30.13630,73138
30.14442,66851
30.15255,65440
30.16067,62964
30.16878,60258
30.17692,60406
30.18503,58898
30.19317,50123
30.20128,47746
30.20940,49737
30.21753,51114
30.22565,47888
30.23378,48942
30.24190,46777
30.25002,47300
30.25815,47195
30.26627,45938
30.27438,44828
30.28252,40618
30.29063,42170
30.29877,45131
30.30688,41111
30.31500,40330
30.32313,40833
30.33125,40496
30.33938,39828
30.34750,40422
30.35562,43233
30.36375,39884
30.37187,43167
30.38000,43591
30.38812,39993
30.39623,38043
30.40437,39856
30.41248,35202
30.42060,42135
30.42873,38093
30.43685,36558
30.44498,39100
30.45310,35350
30.46122,35942
30.46935,36204
30.47747,37034
30.48560,37436
30.49372,36661
30.50183,34197
30.50997,34296
30.51808,35149
30.52622,38146
30.53433,34703
30.54245,34580
30.55058,33650
30.55870,36240
30.56682,37497
30.57495,37986
30.58307,33078
30.59120,35558
30.59932,34107
30.60743,33400
30.61557,38947
30.62368,32242
30.63182,37173
30.63993,33593
30.64805,32138
30.65618,32659
30.66430,30646
30.67242,31202
30.68055,32959
30.68867,36171
30.69680,34061
30.70492,38168
30.71303,32914
30.72117,37955
30.72928,37906
30.73742,34415
30.74553,33822
30.75365,31445
30.76178,33129
30.76990,33724
30.77803,32757
30.78615,33561
30.79427,34525
30.80240,33741
30.81052,37764
30.81863,40512
30.82677,35600
30.83488,35299
30.84302,37095
30.85113,35683
30.85925,35513
30.86738,36292
30.87550,35999
30.88363,33401
30.89175,33710
30.89987,30640
30.90800,38465
30.91612,37556
30.92425,36093
30.93237,37634
30.94048,30308
30.94862,31109
30.95673,31027
30.96485,34592
30.97298,33993
30.98110,29808
30.98923,32530
30.99735,34731
31.00547,31817
31.01360,39475
31.02172,31603
31.02985,34707
31.03797,38956
31.04608,37713
31.05422,35147
31.06233,32812
31.07045,31237
31.07858,36366
31.08670,37763
31.09483,37441
31.10295,43137
31.11107,44199
31.11920,46008
31.12732,54000
31.13545,48255
31.14357,49562
31.15168,50211
31.15982,46052
31.16793,46130
31.17607,43031
31.18418,54798
31.19230,64779
31.20043,77034
31.20855,122830
31.21667,146144
31.22480,183499
31.23292,204792
31.24105,199011
31.24917,181669
31.25728,149027
31.26542,114782
31.27353,77907
31.28167,57757
31.28978,50071
31.29790,45100
31.30603,36861
31.31415,40779
31.32228,46859
31.33040,40834
31.33852,35181
31.34665,33388
31.35477,36076
31.36288,36896
31.37102,36565
31.37913,36276
31.38727,38476
31.39538,34750
31.40350,38147
31.41163,36003
31.41975,38080
31.42788,37504
31.43600,41149
31.44412,37934
31.45225,39946
31.46037,39638
31.46848,37867
31.47662,37597
31.48473,36108
31.49287,33150
31.50098,35858
31.50910,33844
31.51723,30044
31.52535,36082
31.53348,29958
31.54160,32321
31.54972,31496
31.55785,33663
31.56597,31721
31.57410,34617
31.58222,31262
31.59033,34714
31.59847,34634
31.60658,30212
31.61470,35154
31.62283,32207
31.63095,32020
31.63908,33521
31.64720,34464
31.65532,31767
31.66345,38711
31.67157,38013
31.67970,38730
31.68782,32083
31.69593,35730
31.70407,36730
31.71218,36419
31.72030,32681
31.72843,32420
31.73655,29650
31.74468,29243
31.75280,28611
31.76092,31567
31.76905,32422
31.77717,28314
31.78530,33556
31.79342,31736
31.80153,31901
31.80967,33000
31.81778,33510
31.82592,36711
31.83403,33802
31.84215,38027
31.85028,37908
31.85840,37205
31.86652,41371
31.87465,46367
31.88277,48245
31.89090,47341
31.89902,43591
31.90713,45097
31.91527,43407
31.92338,55247
31.93152,56435
31.93963,64464
31.94775,76809
31.95588,78184
31.96400,83898
31.97213,88031
31.98025,94476
31.98837,94593
31.99650,92647
32.00462,91247
32.01273,83113
32.02087,88089
32.02898,79659
32.03712,74949
32.04523,67288
32.05335,66973
32.06148,61035
32.06960,60792
32.07773,59799
32.08585,57092
32.09397,57619
32.10210,52067
32.11022,55747
32.11833,48580
32.12647,46626
32.13458,46064
32.14272,45712
32.15083,46545
32.15895,40881
32.16708,46436
32.17520,39459
32.18333,47567
32.19145,43272
32.19957,40410
32.20770,46174
32.21582,41652
32.22395,36854
32.23207,40320
32.24018,40479
32.24832,46270
32.25643,41684
32.26455,40139
32.27268,41318
32.28080,37963
32.28893,40261
32.29705,38085
32.30517,35783
32.31330,38168
32.32142,39911
32.32955,39481
32.33767,40824
32.34578,41803
32.35392,41359
32.36203,43765
32.37017,43370
32.37828,45785
32.38640,46778
32.39453,41164
32.40265,40496
32.41077,34626
32.41890,37830
32.42702,37459
32.43515,38098
32.44327,36377
32.45138,34949
32.45952,36955
32.46763,37430
32.47577,34341
32.48388,34400
32.49200,37018
32.50013,37228
32.50825,33684
32.51637,41865
32.52450,36804
32.53262,32942
32.54075,34625
32.54887,36618
32.55698,34645
32.56512,33495
32.57323,34709
32.58137,40389
32.58948,35802
32.59760,38304
32.60573,41316
32.61385,35041
32.62198,37136
32.63010,36542
32.63822,37939
32.64635,34570
32.65447,36040
32.66258,36258
32.67072,44436
32.67883,49231
32.68697,54149
32.69508,56039
32.70320,55986
32.71133,50094
32.71945,44572
32.72758,43373
32.73570,38196
32.74382,35960
32.75195,40828
32.76007,39524
32.76818,40391
32.77632,39844
32.78443,37210
32.79257,37560
32.80068,32962
32.80880,34218
32.81693,38379
32.82505,34502
32.83318,34410
32.84130,34801
32.84942,34382
32.85755,34050
32.86567,32083
32.87380,32270
32.88192,33779
32.89003,36575
32.89817,39396
32.90628,33288
32.91440,32122
32.92253,34955
32.93065,37037
32.93878,37573
32.94690,37968
32.95502,39860
32.96315,31422
32.97127,31944
32.97940,31415
32.98752,34756
32.99563,36309
33.00377,33168
33.01188,33995
33.02002,34402
33.02813,33323
33.03625,35798
33.04438,35218
33.05250,34853
33.06062,36748
33.06875,35562
33.07687,35956
33.08500,35792
33.09312,36276
33.10123,38457
33.10937,41571
33.11748,44433
33.12562,46569
33.13373,53214
33.14185,51959
33.14998,54592
33.15810,46794
33.16622,41284
33.17435,36358
33.18247,38877
33.19060,36640
33.19872,35600
33.20683,38128
33.21497,38514
33.22308,38691
33.23122,41013
33.23933,39155
33.24745,38114
33.25558,38844
33.26370,42328
33.27183,39994
33.27995,38158
33.28807,37642
33.29620,34013
33.30432,35814
33.31243,36313
33.32057,36797
33.32868,38025
33.33682,35883
33.34493,33783
33.35305,33262
33.36118,32916
33.36930,36015
33.37743,38348
33.38555,34576
33.39367,38906
33.40180,34988
33.40992,35929
33.41805,35674
33.42617,31937
33.43428,34059
33.44242,35396
33.45053,37503
33.45865,36724
33.46678,38184
33.47490,33978
33.48303,42967
33.49115,30998
33.49927,34343
33.50740,37004
33.51552,36500
33.52365,35130
33.53177,37115
33.53988,33309
33.54802,35894
33.55613,34910
33.56425,35934
33.57238,37383
33.58050,34652
33.58863,38233
33.59675,35731
33.60487,34906
33.61300,34270
33.62112,34228
33.62925,33531
33.63737,37946
33.64548,35928
33.65362,33429
33.66173,38467
33.66987,37193
33.67798,34576
33.68610,35958
33.69423,33582
33.70235,37740
33.71047,34286
33.71860,34487
33.72672,35587
33.73485,36550
33.74297,39724
33.75108,37110
33.75922,35954
33.76733,36370
33.77547,37249
33.78358,33539
33.79170,34005
33.79983,38216
33.80795,38073
33.81607,37769
33.82420,40568
33.83232,38030
33.84045,41118
33.84857,36986
33.85668,40969
33.86482,43301
33.87293,39058
33.88107,42363
33.88918,37215
33.89730,42916
33.90543,33371
33.91355,40456
33.92168,38590
33.92980,38631
33.93792,35296
33.94605,35654
33.95417,37622
33.96228,41284
33.97042,38623
33.97853,39897
33.98667,33590
33.99478,32730
34.00290,34783
34.01103,36655
34.01915,35761
34.02728,39628
34.03540,32662
34.04352,34551
34.05165,37059
34.05977,36827
34.06790,40341
34.07602,36831
34.08413,41920
34.09227,40521
34.10038,38845
34.10850,36633
34.11663,36333
34.12475,42484
34.13288,37670
34.14100,38056
34.14912,36464
34.15725,37625
34.16537,38394
34.17350,41142
34.18162,39268
34.18973,39774
34.19787,39409
34.20598,35490
34.21412,42858
34.22223,37693
34.23035,37688
34.23848,39741
34.24660,37990
34.25472,35629
34.26285,38015
34.27097,35750
34.27910,38392
34.28722,38528
34.29533,42448
34.30347,37036
34.31158,40554
34.31972,37783
34.32783,39713
34.33595,37633
34.34408,37801
34.35220,38932
34.36032,37264
34.36845,36671
34.37657,39212
34.38470,40784
34.39282,42238
34.40093,37405
34.40907,37588
34.41718,42672
34.42532,40357
34.43343,40610
34.44155,35476
34.44968,37185
34.45780,38359
34.46593,39781
34.47405,40729
34.48217,36407
34.49030,36545
34.49842,35842
34.50653,41871
34.51467,40987
34.52278,42632
34.53092,44024
34.53903,48019
34.54715,56474
34.55528,66289
34.56340,72700
34.57153,76379
34.57965,76280
34.58777,74000
34.59590,76211
34.60402,64335
34.61213,61157
34.62027,61978
34.62838,56353
34.63652,53674
34.64463,53519
34.65275,52038
34.66088,49916
34.66900,52300
34.67713,46668
34.68525,49163
34.69337,43853
34.70150,48131
34.70962,46324
34.71775,46138
34.72587,43373
34.73398,45305
34.74212,46582
34.75023,46274
34.75835,46165
34.76648,44861
34.77460,46487
34.78273,43154
34.79085,45488
34.79897,43509
34.80710,37546
34.81522,41119
34.82335,38952
34.83147,43843
34.83958,44775
34.84772,42689
34.85583,39518
34.86397,42299
34.87208,44672
34.88020,41750
34.88833,41507
34.89645,45086
34.90457,41926
34.91270,42896
34.92082,41132
34.92895,49536
34.93707,45216
34.94518,41824
34.95332,48062
34.96143,44346
34.96957,49827
34.97768,57177
34.98580,53628
34.99393,63109
35.00205,54770
35.01017,53373
35.01830,56705
35.02642,48016
35.03455,48886
35.04267,50586
35.05078,46463
35.05892,46560
35.06703,49692
35.07517,48762
35.08328,49303
35.09140,47326
35.09953,49506
35.10765,46842
35.11578,45548
35.12390,49286
35.13202,48301
35.14015,48309
35.14827,50168
35.15638,49222
35.16452,51322
35.17263,48143
35.18077,49566
35.18888,50407
35.19700,56690
35.20513,46533
35.21325,46966
35.22138,45639
35.22950,45121
35.23762,44694
35.24575,40113
35.25387,42753
35.26200,44772
35.27012,41876
35.27823,45204
35.28637,47327
35.29448,47513
35.30260,46266
35.31073,41595
35.31885,48467
35.32698,41670
35.33510,43764
35.34322,40845
35.35135,42012
35.35947,43543
35.36760,46499
35.37572,46203
35.38383,45457
35.39197,44107
35.40008,40919
35.40820,43016
35.41633,40806
35.42445,42802
35.43258,45183
35.44070,40404
35.44882,44727
35.45695,39859
35.46507,43487
35.47320,47671
35.48132,47957
35.48943,43967
35.49757,45991
35.50568,40770
35.51382,47018
35.52193,42069
35.53005,44136
35.53818,44393
35.54630,45044
35.55442,42358
35.56255,42661
35.57067,45268
35.57880,42800
35.58692,41848
35.59503,50580
35.60317,48168
35.61128,38170
35.61942,44843
35.62753,42323
35.63565,45293
35.64378,41989
35.65190,42138
35.66002,46426
35.66815,48296
35.67627,48845
35.68440,43438
35.69252,46542
35.70063,46577
35.70877,51805
35.71688,53222
35.72502,49956
35.73313,47061
35.74125,49396
35.74938,45024
35.75750,47262
35.76563,44929
35.77375,48853
35.78187,46380
35.79000,41530
35.79812,42159
35.80623,44978
35.81437,43237
35.82248,41417
35.83062,46349
35.83873,44632
35.84685,43075
35.85498,48118
35.86310,43366
35.87123,48039
35.87935,46887
35.88747,46361
35.89560,46901
35.90372,46561
35.91185,44177
35.91997,44237
35.92808,41480
35.93622,45279
35.94433,42567
35.95245,46994
35.96058,47018
35.96870,41997
35.97683,45217
35.98495,50744
35.99307,49117
36.00120,45606
36.00932,50091
36.01745,46564
36.02557,49880
36.03368,46975
36.04182,48424
36.04993,47725
36.05805,50038
36.06618,48185
36.07430,48666
36.08243,47988
36.09055,49162
36.09867,48865
36.10680,50660
36.11492,47456
36.12305,45412
36.13117,47465
36.13928,46899
36.14742,46242
36.15553,44494
36.16367,47302
36.17178,46369
36.17990,48073
36.18803,50297
36.19615,48445
36.20427,49257
36.21240,51971
36.22052,48563
36.22865,49609
36.23677,49848
36.24488,46357
36.25302,45874
36.26113,51289
36.26927,45521
36.27738,47258
36.28550,46052
36.29363,49077
36.30175,48966
36.30988,52095
36.31800,55635
36.32612,59658
36.33425,64701
36.34237,67934
36.35048,68363
36.35862,64795
36.36673,61687
36.37487,66355
36.38298,62074
36.39110,64316
36.39923,68406
36.40735,64723
36.41548,70423
36.42360,72536
36.43172,73644
36.43985,77425
36.44797,81246
36.45608,83080
36.46422,88648
36.47233,86989
36.48047,91702
36.48858,103075
36.49670,102477
36.50483,103918
36.51295,103442
36.52108,107066
36.52920,100557
36.53732,99551
36.54545,98257
36.55357,92203
36.56170,91554
36.56982,86215
36.57793,83540
36.58607,77703
36.59418,74757
36.60230,74240
36.61043,66272
36.61855,65428
36.62668,59507
36.63480,54117
36.64292,60736
36.65105,58098
36.65917,55119
36.66730,50122
36.67542,52038
36.68353,54473
36.69167,52371
36.69978,53536
36.70792,54180
36.71603,50555
36.72415,52698
36.73228,52687
36.74040,52562
36.74852,50926
36.75665,53844
36.76477,51815
36.77290,50687
36.78102,50149
36.78913,50895
36.79727,49917
36.80538,51032
36.81352,50733
36.82163,47684
36.82975,48656
36.83788,47950
36.84600,51946
36.85412,53411
36.86225,47778
36.87037,49496
36.87850,48124
36.88662,49788
36.89473,49758
36.90287,53022
36.91098,52042
36.91912,49467
36.92723,49606
36.93535,49227
36.94348,48588
36.95160,47652
36.95973,51119
36.96785,53448
36.97597,52149
36.98410,50604
36.99222,49939
37.00033,53582
37.00847,54823
37.01658,48588
37.02472,51476
37.03283,47174
37.04095,47511
37.04908,54928
37.05720,51072
37.06533,49276
37.07345,52621
37.08157,47672
37.08970,47089
37.09782,52241
37.10593,52545
37.11407,53674
37.12218,52538
37.13032,51072
37.13843,51367
37.14655,48567
37.15468,52236
37.16280,56364
37.17093,51771
37.17905,54002
37.18717,48939
37.19530,58578
37.20342,49813
37.21155,53653
37.21967,52596
37.22778,61441
37.23592,54327
37.24403,52540
37.25215,62464
37.26028,58959
37.26840,57376
37.27653,60510
37.28465,58211
37.29277,58726
37.30090,53314
37.30902,57435
37.31715,56565
37.32527,59455
37.33338,57485
37.34152,60272
37.34963,64476
37.35777,64487
37.36588,69528
37.37400,74566
37.38213,76343
37.39025,74599
37.39837,69277
37.40650,78214
37.41462,70866
37.42275,67662
37.43087,63890
37.43898,67015
37.44712,60224
37.45523,64494
37.46337,61646
37.47148,59144
37.47960,63943
37.48773,60219
