C:\MassHunter\GCMS\1\data\JTB-E18\BACandBLUE_bioassay\JTB-E18-41-07.D Tue Dec 03 14:57:07 2019
Start of data points
2.09530	91600
2.10342	92984
2.11153	88796
2.11967	89293
2.12778	87899
2.13592	84754
2.14403	82975
2.15215	83971
2.16028	85751
2.16840	85947
2.17652	81979
2.18465	83462
2.19277	76822
2.20090	75061
2.20902	73833
2.21713	70879
2.22527	77145
2.23338	71250
2.24152	73113
2.24963	69715
2.25775	71782
2.26588	209984
2.27400	1207669
2.28213	1868927
2.29025	935611
2.29837	509931
2.30650	393606
2.31462	341355
2.32273	288897
2.33087	264626
2.33898	255636
2.34712	224585
2.35523	202384
2.36335	193618
2.37148	175944
2.37960	170717
2.38773	170812
2.39585	160710
2.40397	152168
2.41210	150344
2.42022	153562
2.42833	182510
2.43647	171370
2.44458	147859
2.45272	140520
2.46083	141404
2.46895	129094
2.47708	123670
2.48520	123956
2.49333	130320
2.50145	133415
2.50957	125447
2.51770	122614
2.52582	119820
2.53395	119277
2.54207	118076
2.55018	140651
2.55832	198160
2.56643	194159
2.57455	145891
2.58268	128247
2.59080	123690
2.59893	126186
2.60705	177750
2.61517	253675
2.62330	233524
2.63142	173286
2.63955	143775
2.64767	131113
2.65578	124163
2.66392	123205
2.67203	121534
2.68017	119053
2.68828	120165
2.69640	111565
2.70453	110890
2.71265	114688
2.72077	118364
2.72890	121584
2.73702	112681
2.74515	117323
2.75327	112231
2.76138	108848
2.76952	109560
2.77763	133602
2.78577	209507
2.79388	199210
2.80200	149469
2.81013	148413
2.81825	166747
2.82637	218479
2.83450	258152
2.84262	217782
2.85075	160535
2.85887	139977
2.86698	137022
2.87512	132675
2.88323	124634
2.89137	119085
2.89948	114337
2.90760	110621
2.91573	114200
2.92385	103967
2.93198	105456
2.94010	107307
2.94822	100203
2.95635	99352
2.96447	101823
2.97258	100207
2.98072	102178
2.98883	112463
2.99697	132378
3.00508	128717
3.01320	121675
3.02133	120567
3.02945	146257
3.03758	180938
3.04570	249185
3.05382	596509
3.06195	999344
3.07007	889556
3.07820	674830
3.08632	1158473
3.09443	1993690
3.10257	2340323
3.11068	2419236
3.11880	1735957
3.12693	1038939
3.13505	725183
3.14318	558218
3.15130	438154
3.15942	377466
3.16755	386091
3.17567	398147
3.18380	529672
3.19192	881030
3.20003	932055
3.20817	664426
3.21628	490555
3.22440	409451
3.23253	338660
3.24065	292353
3.24878	257569
3.25690	231849
3.26502	215283
3.27315	232188
3.28127	463421
3.28940	1464623
3.29752	3437457
3.30563	4833232
3.31377	4351134
3.32188	3023383
3.33002	2035077
3.33813	1515039
3.34625	1195850
3.35438	1008904
3.36250	898332
3.37062	827818
3.37875	778911
3.38687	729090
3.39500	675979
3.40312	730103
3.41123	961529
3.41937	1059845
3.42748	886451
3.43562	695546
3.44373	580757
3.45185	520211
3.45998	498259
3.46810	477184
3.47622	463380
3.48435	453061
3.49247	431963
3.50060	403501
3.50872	393857
3.51683	399537
3.52497	401054
3.53308	401918
3.54122	389388
3.54933	384132
3.55745	355737
3.56558	351288
3.57370	344425
3.58183	339496
3.58995	318580
3.59807	319354
3.60620	318313
3.61432	339081
3.62243	441688
3.63057	600523
3.63868	668833
3.64682	581354
3.65493	552613
3.66305	1250961
3.67118	3696812
3.67930	6146748
3.68743	5680169
3.69555	3749749
3.70367	2634411
3.71180	2060540
3.71992	1684976
3.72805	1435208
3.73617	1232091
3.74428	1094740
3.75242	978625
3.76053	897508
3.76865	808710
3.77678	745644
3.78490	709214
3.79303	672046
3.80115	765751
3.80927	1037765
3.81740	1215412
3.82552	1067199
3.83365	873180
3.84177	734283
3.84988	658508
3.85802	595539
3.86613	549269
3.87427	515392
3.88238	493657
3.89050	465668
3.89863	459506
3.90675	448475
3.91487	476624
3.92300	547909
3.93112	567438
3.93925	551727
3.94737	593525
3.95548	848835
3.96362	1141305
3.97173	1096927
3.97987	835691
3.98798	649842
3.99610	705988
4.00423	1052605
4.01235	1430677
4.02047	1309231
4.02860	958266
4.03672	678051
4.04485	535214
4.05297	451022
4.06108	408662
4.06922	387310
4.07733	363363
4.08547	345216
4.09358	332914
4.10170	340703
4.10983	317787
4.11795	328404
4.12608	455905
4.13420	962070
4.14232	1828240
4.15045	2253997
4.15857	1826002
4.16668	1135546
4.17482	745922
4.18293	548958
4.19107	475685
4.19918	580544
4.20730	1672525
4.21543	5350001
4.22355	1.087273E+07
4.23168	1.433654E+07
4.23980	1.269077E+07
4.24792	7826700
4.25605	4309989
4.26417	2796707
4.27228	2037705
4.28042	1576117
4.28853	1255117
4.29667	1058363
4.30478	914413
4.31290	797008
4.32103	713089
4.32915	654654
4.33728	618893
4.34540	602784
4.35352	576714
4.36165	583541
4.36977	559158
4.37790	519508
4.38602	490882
4.39413	452214
4.40227	429571
4.41038	408545
4.41850	398503
4.42663	380098
4.43475	366336
4.44288	350692
4.45100	357580
4.45912	341087
4.46725	341853
4.47537	332666
4.48350	331186
4.49162	323980
4.49973	311570
4.50787	314679
4.51598	308144
4.52412	295838
4.53223	297344
4.54035	301580
4.54848	299601
4.55660	288914
4.56472	278087
4.57285	275519
4.58097	269950
4.58910	266274
4.59722	254539
4.60533	268813
4.61347	274492
4.62158	322029
4.62972	417636
4.63783	505541
4.64595	492862
4.65408	428182
4.66220	362736
4.67032	340886
4.67845	310102
4.68657	295289
4.69470	282638
4.70282	274299
4.71093	264226
4.71907	262949
4.72718	254028
4.73532	246783
4.74343	249598
4.75155	239049
4.75968	234347
4.76780	235269
4.77593	240264
4.78405	281710
4.79217	406289
4.80030	601583
4.80842	687076
4.81653	613744
4.82467	494032
4.83278	417366
4.84092	373414
4.84903	348772
4.85715	323005
4.86528	294402
4.87340	279487
4.88153	265230
4.88965	252198
4.89777	248309
4.90590	285865
4.91402	402607
4.92215	712392
4.93027	1216252
4.93838	1620954
4.94652	1692524
4.95463	1475206
4.96275	1156568
4.97088	919747
4.97900	773219
4.98713	694082
4.99525	624527
5.00337	601535
5.01150	554282
5.01962	555463
5.02775	571274
5.03587	612217
5.04398	608734
5.05212	562960
5.06023	529191
5.06835	505458
5.07648	492155
5.08460	472604
5.09273	461697
5.10085	475102
5.10897	484561
5.11710	498515
5.12522	481919
5.13335	464062
5.14147	443589
5.14958	442771
5.15772	479502
5.16583	503842
5.17397	522125
5.18208	526638
5.19020	526845
5.19833	521030
5.20645	510801
5.21457	476109
5.22270	459133
5.23082	448366
5.23895	436010
5.24707	421235
5.25518	392104
5.26332	376340
5.27143	354122
5.27957	342242
5.28768	340048
5.29580	332287
5.30393	333065
5.31205	330346
5.32017	322126
5.32830	329964
5.33642	331757
5.34455	338496
5.35267	320691
5.36078	315216
5.36892	307694
5.37703	316737
5.38517	313031
5.39328	310773
5.40140	314790
5.40953	304205
5.41765	300504
5.42578	308112
5.43390	301142
5.44202	292597
5.45015	302691
5.45827	304319
5.46638	289478
5.47452	288236
5.48263	281341
5.49077	278648
5.49888	270110
5.50700	276031
5.51513	273268
5.52325	276197
5.53138	276099
5.53950	272237
5.54762	297005
5.55575	336257
5.56387	384106
5.57200	429347
5.58012	421923
5.58823	398554
5.59637	357202
5.60448	315655
5.61260	298511
5.62073	292318
5.62885	285489
5.63698	284630
5.64510	282345
5.65322	280875
5.66135	273712
5.66947	270560
5.67760	288204
5.68572	306844
5.69383	299131
5.70197	301373
5.71008	297579
5.71820	304571
5.72633	301888
5.73445	298332
5.74258	294966
5.75070	293615
5.75882	303608
5.76695	300770
5.77507	301260
5.78320	291512
5.79132	295666
5.79943	314296
5.80757	416839
5.81568	614906
5.82382	833727
5.83193	933355
5.84005	884640
5.84818	707541
5.85630	541631
5.86442	419162
5.87255	364129
5.88067	332961
5.88880	316652
5.89692	306259
5.90503	326501
5.91317	376533
5.92128	448643
5.92942	523577
5.93753	506674
5.94565	446679
5.95378	402877
5.96190	422778
5.97003	521189
5.97815	618098
5.98627	665956
5.99440	569865
6.00252	468230
6.01063	374762
6.01877	322941
6.02688	290393
6.03502	275644
6.04313	255116
6.05125	245356
6.05938	243347
6.06750	233828
6.07563	238398
6.08375	236615
6.09187	260506
6.10000	304671
6.10812	356701
6.11623	373128
6.12437	374696
6.13248	381718
6.14062	393081
6.14873	378191
6.15685	343627
6.16498	303506
6.17310	287011
6.18123	261092
6.18935	268318
6.19747	279635
6.20560	281631
6.21372	258525
6.22185	242220
6.22997	226116
6.23808	220081
6.24622	219143
6.25433	215017
6.26245	211321
6.27058	213338
6.27870	201518
6.28683	194281
6.29495	194291
6.30307	194782
6.31120	199890
6.31932	200337
6.32745	210675
6.33557	220324
6.34368	213113
6.35182	206515
6.35993	208573
6.36805	201579
6.37618	192145
6.38430	187806
6.39243	189526
6.40055	185293
6.40867	180041
6.41680	177428
6.42492	182617
6.43305	184607
6.44117	185846
6.44928	183409
6.45742	183354
6.46553	186535
6.47367	188433
6.48178	196222
6.48990	187716
6.49803	192848
6.50615	187479
6.51427	192094
6.52240	190946
6.53052	195463
6.53865	196761
6.54677	200325
6.55488	210381
6.56302	237006
6.57113	268381
6.57927	279261
6.58738	268347
6.59550	231486
6.60363	213400
6.61175	203263
6.61988	199030
6.62800	195660
6.63612	216583
6.64425	313477
6.65237	583705
6.66048	916491
6.66862	1155734
6.67673	1086532
6.68487	857222
6.69298	641691
6.70110	512938
6.70923	409654
6.71735	327551
6.72548	294294
6.73360	282559
6.74172	279634
6.74985	262866
6.75797	241811
6.76608	254243
6.77422	288304
6.78233	402930
6.79047	588107
6.79858	801325
6.80670	897931
6.81483	824173
6.82295	625716
6.83108	453521
6.83920	313590
6.84732	240241
6.85545	189405
6.86357	161197
6.87170	146743
6.87982	134219
6.88793	130140
6.89607	120759
6.90418	117077
6.91230	129211
6.92043	155876
6.92855	200743
6.93668	280204
6.94480	356043
6.95292	378031
6.96105	364803
6.96917	292729
6.97730	233852
6.98542	184231
6.99353	149056
7.00167	126618
7.00978	119771
7.01792	115949
7.02603	112982
7.03415	123326
7.04228	121223
7.05040	126432
7.05852	115472
7.06665	118084
7.07477	112701
7.08290	108711
7.09102	103775
7.09913	99476
7.10727	97657
7.11538	98280
7.12352	95832
7.13163	99635
7.13975	105007
7.14788	122295
7.15600	149578
7.16412	154409
7.17225	169169
7.18037	188571
7.18850	201560
7.19662	225819
7.20473	349769
7.21287	645507
7.22098	1075517
7.22912	1379587
7.23723	1257994
7.24535	892484
7.25348	572547
7.26160	370813
7.26973	273482
7.27785	198923
7.28597	174258
7.29410	171232
7.30222	199594
7.31033	244096
7.31847	279420
7.32658	280114
7.33472	245561
7.34283	208459
7.35095	168134
7.35908	140651
7.36720	128506
7.37533	118636
7.38345	118872
7.39157	117923
7.39970	135528
7.40782	151668
7.41595	179675
7.42407	197733
7.43218	202679
7.44032	186058
7.44843	168982
7.45655	146109
7.46468	123220
7.47280	109693
7.48093	107194
7.48905	103660
7.49717	108551
7.50530	125002
7.51342	168609
7.52155	259706
7.52967	394435
7.53778	532414
7.54592	649901
7.55403	679255
7.56215	585794
7.57028	455902
7.57840	336899
7.58653	231667
7.59465	175978
7.60277	142509
7.61090	127806
7.61902	121234
7.62715	116911
7.63527	110266
7.64338	107666
7.65152	105303
7.65963	99615
7.66777	98978
7.67588	94991
7.68400	98423
7.69213	95469
7.70025	98576
7.70837	94131
7.71650	92683
7.72462	89598
7.73275	92203
7.74087	90216
7.74898	87698
7.75712	93317
7.76523	92888
7.77337	101095
7.78148	96238
7.78960	105350
7.79773	103896
7.80585	106700
7.81397	105600
7.82210	99447
7.83022	95977
7.83835	95901
7.84647	94853
7.85458	90398
7.86272	101802
7.87083	102889
7.87897	105037
7.88708	104406
7.89520	100424
7.90333	95046
7.91145	86297
7.91958	96359
7.92770	114376
7.93582	113751
7.94395	123911
7.95207	119624
7.96018	115199
7.96832	97919
7.97643	94059
7.98457	85770
7.99268	85340
8.00080	79530
8.00893	79595
8.01705	77308
8.02518	81639
8.03330	81065
8.04142	86173
8.04955	80908
8.05767	80020
8.06580	80524
8.07392	77253
8.08203	76663
8.09017	73140
8.09828	75803
8.10640	73883
8.11453	74971
8.12265	78541
8.13078	87828
8.13890	93133
8.14702	100661
8.15515	96263
8.16327	83480
8.17140	78064
8.17952	76455
8.18763	75312
8.19577	77016
8.20388	76601
8.21200	72935
8.22013	76469
8.22825	73157
8.23638	71009
8.24450	72350
8.25262	70343
8.26075	66498
8.26887	67346
8.27700	68293
8.28512	74358
8.29323	71609
8.30137	74177
8.30948	76567
8.31762	80186
8.32573	75239
8.33385	72367
8.34198	65800
8.35010	66874
8.35822	67169
8.36635	70346
8.37447	66391
8.38260	65715
8.39072	64097
8.39883	64992
8.40697	63380
8.41508	62975
8.42322	66363
8.43133	60758
8.43945	66707
8.44758	63759
8.45570	65262
8.46383	62384
8.47195	62980
8.48007	67039
8.48820	64317
8.49632	65390
8.50443	66978
8.51257	87976
8.52068	122061
8.52882	197998
8.53693	265244
8.54505	278182
8.55318	255266
8.56130	180356
8.56943	125622
8.57755	93753
8.58567	87404
8.59380	76501
8.60192	81027
8.61003	72482
8.61817	70104
8.62628	72841
8.63442	66652
8.64253	66586
8.65065	67067
8.65878	69207
8.66690	65903
8.67503	67083
8.68315	65174
8.69127	86731
8.69940	124731
8.70752	239171
8.71565	419116
8.72377	649387
8.73188	849435
8.74002	846463
8.74813	689456
8.75625	508262
8.76438	353050
8.77250	275113
8.78063	228703
8.78875	201335
8.79687	205118
8.80500	212354
8.81312	216180
8.82125	221413
8.82937	214080
8.83748	225706
8.84562	211709
8.85373	201786
8.86185	195868
8.86998	198302
8.87810	196686
8.88623	183723
8.89435	173931
8.90247	168822
8.91060	171615
8.91872	175791
8.92685	169825
8.93497	177715
8.94308	190055
8.95122	178853
8.95933	175942
8.96747	170657
8.97558	171411
8.98370	175355
8.99183	166210
8.99995	158388
9.00807	157860
9.01620	150809
9.02432	144753
9.03245	146589
9.04057	138878
9.04868	142217
9.05682	141923
9.06493	145409
9.07307	142804
9.08118	139950
9.08930	148366
9.09743	159098
9.10555	172737
9.11368	171739
9.12180	164069
9.12992	147671
9.13805	142351
9.14617	134167
9.15428	130511
9.16242	126747
9.17053	123853
9.17867	124374
9.18678	120204
9.19490	122800
9.20303	118089
9.21115	119991
9.21928	121205
9.22740	126277
9.23552	126365
9.24365	128527
9.25177	127866
9.25990	128464
9.26802	124261
9.27613	127114
9.28427	123458
9.29238	119108
9.30050	114219
9.30863	108122
9.31675	116539
9.32488	111679
9.33300	118237
9.34112	109283
9.34925	108575
9.35737	111117
9.36550	112497
9.37362	113362
9.38173	107976
9.38987	111524
9.39798	117760
9.40610	128992
9.41423	149072
9.42235	161824
9.43048	166059
9.43860	160306
9.44672	146917
9.45485	126797
9.46297	117549
9.47110	106768
9.47922	105698
9.48733	101085
9.49547	104090
9.50358	103374
9.51172	96206
9.51983	90473
9.52795	75554
9.53608	65994
9.54420	60603
9.55232	56913
9.56045	57683
9.56857	53201
9.57670	52019
9.58482	52451
9.59293	46010
9.60107	51336
9.60918	46880
9.61732	48349
9.62543	47459
9.63355	48403
9.64168	52374
9.64980	46430
9.65792	48558
9.66605	47304
9.67417	47968
9.68230	48585
9.69042	42957
9.69853	46092
9.70667	44487
9.71478	42755
9.72292	45713
9.73103	44902
9.73915	42503
9.74728	42095
9.75540	42271
9.76353	46460
9.77165	39804
9.77977	44163
9.78790	40732
9.79602	38716
9.80413	41870
9.81227	43040
9.82038	44853
9.82852	43565
9.83663	49160
9.84475	53370
9.85288	63886
9.86100	63188
9.86913	69981
9.87725	62338
9.88537	52508
9.89350	50049
9.90162	54187
9.90975	49986
9.91787	57731
9.92598	66317
9.93412	73112
9.94223	89925
9.95035	86878
9.95848	90708
9.96660	81264
9.97473	71539
9.98285	65404
9.99097	56683
9.99910	54453
10.00722	48088
10.01535	47028
10.02347	47959
10.03158	51567
10.03972	48783
10.04783	49424
10.05595	53528
10.06408	54498
10.07220	53784
10.08033	47759
10.08845	49731
10.09657	53271
10.10470	49604
10.11282	44891
10.12095	51670
10.12907	47876
10.13718	47993
10.14532	47432
10.15343	44343
10.16157	48926
10.16968	46845
10.17780	44650
10.18593	46691
10.19405	48600
10.20217	48865
10.21030	48015
10.21842	54881
10.22655	58202
10.23467	67320
10.24278	87367
10.25092	139685
10.25903	282174
10.26717	608806
10.27528	1114811
10.28340	1758457
10.29153	2634882
10.29965	3948216
10.30778	5912437
10.31590	8376990
10.32402	9690375
10.33215	9156742
10.34027	6928610
10.34838	4354035
10.35652	2550903
10.36463	1583455
10.37277	1043855
10.38088	742679
10.38900	528834
10.39713	390148
10.40525	293957
10.41338	253707
10.42150	238724
10.42962	235372
10.43775	227014
10.44587	221901
10.45398	210783
10.46212	203764
10.47023	192321
10.47837	185491
10.48648	173196
10.49460	166341
10.50273	170082
10.51085	158800
10.51898	147822
10.52710	131158
10.53522	132024
10.54335	125020
10.55147	118523
10.55960	116043
10.56772	115594
10.57583	107527
10.58397	109581
10.59208	104391
10.60020	106691
10.60833	106660
10.61645	100180
10.62458	93358
10.63270	96745
10.64082	91359
10.64895	88874
10.65707	92495
10.66520	93959
10.67332	96949
10.68143	102838
10.68957	101374
10.69768	102854
10.70580	92091
10.71393	85877
10.72205	80398
10.73018	81339
10.73830	79486
10.74642	72681
10.75455	75685
10.76267	71135
10.77080	69308
10.77892	72793
10.78703	82169
10.79517	77944
10.80328	86435
10.81142	78917
10.81953	76276
10.82765	68750
10.83578	66804
10.84390	61826
10.85202	64287
10.86015	66846
10.86827	63947
10.87640	63615
10.88452	62150
10.89263	64110
10.90077	62974
10.90888	61376
10.91702	61180
10.92513	63443
10.93325	62943
10.94138	60186
10.94950	70568
10.95763	64786
10.96575	63592
10.97387	62668
10.98200	59843
10.99012	63255
10.99823	61534
11.00637	56998
11.01448	59027
11.02262	53551
11.03073	56869
11.03885	54050
11.04698	54918
11.05510	56455
11.06323	59653
11.07135	66011
11.07947	71140
11.08760	76276
11.09572	76990
11.10383	79660
11.11197	72547
11.12008	73757
11.12822	57976
11.13633	55715
11.14445	52700
11.15258	58584
11.16070	52169
11.16883	57971
11.17695	66230
11.18507	61000
11.19320	59488
11.20132	57113
11.20945	52801
11.21757	50954
11.22568	50891
11.23382	59581
11.24193	83095
11.25005	128039
11.25818	185902
11.26630	245653
11.27443	286737
11.28255	306335
11.29067	309888
11.29880	338052
11.30692	446894
11.31505	610372
11.32317	762552
11.33128	827010
11.33942	790999
11.34753	634788
11.35567	465395
11.36378	324345
11.37190	244189
11.38003	200191
11.38815	183564
11.39627	178769
11.40440	170327
11.41252	161490
11.42065	145127
11.42877	138172
11.43688	128921
11.44502	115795
11.45313	109946
11.46127	105593
11.46938	118216
11.47750	121655
11.48563	131353
11.49375	143840
11.50187	152308
11.51000	153469
11.51812	164641
11.52625	151982
11.53437	138943
11.54248	125909
11.55062	105673
11.55873	93994
11.56687	86299
11.57498	86185
11.58310	86113
11.59123	95374
11.59935	106411
11.60748	121334
11.61560	122449
11.62372	112199
11.63185	94765
11.63997	82948
11.64808	82712
11.65622	81096
11.66433	87872
11.67247	87589
11.68058	101386
11.68870	114389
11.69683	130356
11.70495	131581
11.71308	132043
11.72120	127737
11.72932	118498
11.73745	103114
11.74557	85275
11.75370	80725
11.76182	73412
11.76993	70628
11.77807	64528
11.78618	66433
11.79430	65947
11.80243	66995
11.81055	68355
11.81868	64616
11.82680	60859
11.83492	63006
11.84305	62401
11.85117	58797
11.85930	57127
11.86742	58043
11.87553	60923
11.88367	60171
11.89178	74492
11.89990	84236
11.90803	103686
11.91615	118234
11.92428	122257
11.93240	120029
11.94052	98552
11.94865	84211
11.95677	70364
11.96490	61496
11.97302	60489
11.98113	64624
11.98927	70200
11.99738	82843
12.00552	74847
12.01363	68023
12.02175	69158
12.02988	60379
12.03800	60287
12.04612	56174
12.05425	58034
12.06237	63221
12.07050	61338
12.07862	63391
12.08673	65925
12.09487	65786
12.10298	63218
12.11112	65094
12.11923	72896
12.12735	71287
12.13548	62995
12.14360	59750
12.15172	52862
12.15985	50636
12.16797	50620
12.17610	44462
12.18422	46881
12.19233	47863
12.20047	49809
12.20858	49433
12.21672	44845
12.22483	49461
12.23295	48825
12.24108	51189
12.24920	51655
12.25733	51544
12.26545	54125
12.27357	64027
12.28170	59710
12.28982	59701
12.29793	54150
12.30607	48170
12.31418	45598
12.32232	45827
12.33043	47757
12.33855	45326
12.34668	42753
12.35480	45477
12.36293	46893
12.37105	52446
12.37917	57217
12.38730	71938
12.39542	93388
12.40355	116859
12.41167	128168
12.41978	127307
12.42792	111935
12.43603	93664
12.44415	75772
12.45228	66215
12.46040	61855
12.46853	60259
12.47665	57885
12.48477	49885
12.49290	52588
12.50102	45733
12.50915	47041
12.51727	49862
12.52538	58725
12.53352	71789
12.54163	94589
12.54975	109952
12.55788	122197
12.56600	108653
12.57413	92167
12.58225	74033
12.59037	58472
12.59850	55432
12.60662	48716
12.61475	45828
12.62287	45901
12.63098	44596
12.63912	45017
12.64723	38489
12.65537	42160
12.66348	39897
12.67160	40051
12.67973	38632
12.68785	36743
12.69597	38060
12.70410	39772
12.71222	39600
12.72035	43801
12.72847	43826
12.73658	44328
12.74472	39831
12.75283	46562
12.76097	52951
12.76908	63562
12.77720	65275
12.78533	65156
12.79345	59468
12.80158	60573
12.80970	48616
12.81782	42394
12.82595	40467
12.83407	44066
12.84218	40437
12.85032	44714
12.85843	42294
12.86657	43867
12.87468	44208
12.88280	38865
12.89093	41782
12.89905	44536
12.90718	45566
12.91530	62871
12.92342	89361
12.93155	140197
12.93967	189636
12.94778	232734
12.95592	248227
12.96403	235639
12.97217	185766
12.98028	150581
12.98840	117807
12.99653	92996
13.00465	88473
13.01278	85433
13.02090	87857
13.02902	86402
13.03715	84483
13.04527	73625
13.05340	73123
13.06152	69053
13.06963	62068
13.07777	57618
13.08588	60151
13.09400	60944
13.10213	60102
13.11025	54114
13.11838	53671
13.12650	57857
13.13462	55716
13.14275	58428
13.15087	55127
13.15900	56991
13.16712	57012
13.17523	51917
13.18337	54641
13.19148	55824
13.19960	57309
13.20773	57517
13.21585	66626
13.22398	71619
13.23210	75543
13.24022	95351
13.24835	102886
13.25647	98619
13.26460	100378
13.27272	81937
13.28083	83256
13.28897	75256
13.29708	85621
13.30522	92713
13.31333	98905
13.32145	90292
13.32958	80238
13.33770	71840
13.34582	64039
13.35395	59220
13.36207	61619
13.37020	61514
13.37832	57269
13.38643	59017
13.39457	59086
13.40268	56164
13.41082	56263
13.41893	54168
13.42705	48970
13.43518	51582
13.44330	50312
13.45143	49271
13.45955	49562
13.46767	48707
13.47580	51050
13.48392	46602
13.49203	46890
13.50017	51997
13.50828	54242
13.51642	61795
13.52453	66151
13.53265	75875
13.54078	82668
13.54890	82858
13.55703	83009
13.56515	82168
13.57327	81414
13.58140	91808
13.58952	92979
13.59765	116498
13.60577	119976
13.61388	128285
13.62202	120089
13.63013	107053
13.63825	86052
13.64638	75143
13.65450	70887
13.66263	63804
13.67075	66516
13.67887	62906
13.68700	68005
13.69512	69904
13.70325	70667
13.71137	62250
13.71948	62103
13.72762	63149
13.73573	62450
13.74385	84835
13.75198	92610
13.76010	116130
13.76823	134624
13.77635	147601
13.78447	160188
13.79260	161510
13.80072	171384
13.80885	198862
13.81697	216915
13.82508	214520
13.83322	198978
13.84133	175256
13.84947	145183
13.85758	121217
13.86570	106081
13.87383	114116
13.88195	108611
13.89007	101757
13.89820	98165
13.90632	99032
13.91445	88278
13.92257	77458
13.93068	72753
13.93882	75067
13.94693	76664
13.95507	74240
13.96318	77115
13.97130	81118
13.97943	78423
13.98755	72946
13.99567	73174
14.00380	71932
14.01192	68126
14.02005	66246
14.02817	63600
14.03628	59867
14.04442	58462
14.05253	58853
14.06067	62029
14.06878	51808
14.07690	55410
14.08503	54536
14.09315	56267
14.10128	66595
14.10940	110151
14.11752	165748
14.12565	249417
14.13377	334083
14.14188	374418
14.15002	376675
14.15813	347841
14.16627	299917
14.17438	266948
14.18250	240423
14.19063	217571
14.19875	206442
14.20688	189906
14.21500	177974
14.22312	174497
14.23125	168066
14.23937	171094
14.24750	158174
14.25562	146908
14.26373	142059
14.27187	125117
14.27998	113094
14.28810	101681
14.29623	82248
14.30435	70245
14.31248	57876
14.32060	53806
14.32872	52735
14.33685	55089
14.34497	55486
14.35310	47972
14.36122	49753
14.36933	45251
14.37747	47691
14.38558	45710
14.39370	56548
14.40183	51274
14.40995	54830
14.41808	55680
14.42620	54091
14.43432	49621
14.44245	48441
14.45057	43800
14.45870	48081
14.46682	46828
14.47493	46369
14.48307	46278
14.49118	41963
14.49932	44689
14.50743	44214
14.51555	43623
14.52368	47263
14.53180	47238
14.53992	43050
14.54805	42378
14.55617	40897
14.56430	38180
14.57242	41746
14.58053	39262
14.58867	37928
14.59678	38357
14.60492	37417
14.61303	37474
14.62115	35690
14.62928	37371
14.63740	37975
14.64553	36890
14.65365	37676
14.66177	36455
14.66990	32725
14.67802	35479
14.68613	39255
14.69427	37695
14.70238	40361
14.71052	39039
14.71863	36205
14.72675	38509
14.73488	40317
14.74300	34727
14.75113	39320
14.75925	41403
14.76737	47767
14.77550	67318
14.78362	150020
14.79173	334683
14.79987	641690
14.80798	1058452
14.81612	1429388
14.82423	1483772
14.83235	1268926
14.84048	926187
14.84860	607861
14.85673	395647
14.86485	269183
14.87297	211089
14.88110	169935
14.88922	145329
14.89735	127418
14.90547	120384
14.91358	117919
14.92172	98192
14.92983	93879
14.93795	85161
14.94608	76269
14.95420	77856
14.96233	80205
14.97045	72368
14.97857	71828
14.98670	69709
14.99482	69332
15.00295	66459
15.01107	64978
15.01918	60956
15.02732	63105
15.03543	61895
15.04355	57842
15.05168	57543
15.05980	55549
15.06793	55775
15.07605	50943
15.08417	56936
15.09230	51069
15.10042	47193
15.10855	51400
15.11667	50444
15.12478	56365
15.13292	57623
15.14103	56093
15.14917	55777
15.15728	50287
15.16540	43105
15.17353	44018
15.18165	42853
15.18977	40006
15.19790	38182
15.20602	40379
15.21415	37998
15.22227	39092
15.23038	35361
15.23852	40707
15.24663	35658
15.25477	36753
15.26288	35554
15.27100	32412
15.27913	36755
15.28725	34244
15.29538	37634
15.30350	32488
15.31162	34833
15.31975	35331
15.32787	33282
15.33598	34091
15.34412	33588
15.35223	37242
15.36037	33088
15.36848	32144
15.37660	35798
15.38473	32717
15.39285	34580
15.40098	33190
15.40910	34137
15.41722	31090
15.42535	34046
15.43347	34306
15.44158	42555
15.44972	48319
15.45783	64367
15.46597	91300
15.47408	129469
15.48220	150213
15.49033	166964
15.49845	166558
15.50658	154122
15.51470	135907
15.52282	130919
15.53095	126132
15.53907	118815
15.54720	106707
15.55532	90049
15.56343	79872
15.57157	68164
15.57968	65502
15.58780	57955
15.59593	54360
15.60405	50263
15.61218	47902
15.62030	47504
15.62842	47679
15.63655	43834
15.64467	40155
15.65280	41715
15.66092	46209
15.66903	41750
15.67717	38847
15.68528	43494
15.69342	43512
15.70153	40589
15.70965	40945
15.71778	42967
15.72590	44633
15.73402	48384
15.74215	56043
15.75027	76480
15.75840	99206
15.76652	123724
15.77463	135500
15.78277	134165
15.79088	120040
15.79902	96538
15.80713	76998
15.81525	62292
15.82338	57222
15.83150	51360
15.83962	52243
15.84775	45576
15.85587	47375
15.86400	48058
15.87212	45189
15.88023	43345
15.88837	44167
15.89648	42667
15.90462	46056
15.91273	43651
15.92085	42993
15.92898	40631
15.93710	43570
15.94523	42760
15.95335	42306
15.96147	42122
15.96960	45276
15.97772	46306
15.98583	45401
15.99397	49399
16.00208	51015
16.01022	48241
16.01833	47781
16.02645	44020
16.03458	42814
16.04270	41577
16.05083	37619
16.05895	40915
16.06707	40410
16.07520	41348
16.08332	41557
16.09143	36461
16.09957	37054
16.10768	37651
16.11582	42016
16.12393	39830
16.13205	44170
16.14018	41859
16.14830	39915
16.15643	39398
16.16455	41643
16.17267	39649
16.18080	38464
16.18892	42994
16.19705	39708
16.20517	37705
16.21328	36874
16.22142	35651
16.22953	39143
16.23765	36991
16.24578	37296
16.25390	38517
16.26203	38355
16.27015	40426
16.27827	45156
16.28640	48795
16.29452	45182
16.30265	46084
16.31077	43313
16.31888	42510
16.32702	43440
16.33513	45915
16.34327	44889
16.35138	44929
16.35950	45871
16.36763	47583
16.37575	47073
16.38387	46014
16.39200	46298
16.40012	40837
16.40825	39830
16.41637	42456
16.42448	42892
16.43262	62230
16.44073	85749
16.44887	137440
16.45698	210728
16.46510	277881
16.47323	308009
16.48135	277600
16.48947	214122
16.49760	148472
16.50572	105760
16.51385	86786
16.52197	69724
16.53008	62596
16.53822	62397
16.54633	57557
16.55447	56288
16.56258	52249
16.57070	58322
16.57883	49492
16.58695	53538
16.59508	47608
16.60320	51889
16.61132	46943
16.61945	45514
16.62757	44560
16.63568	47522
16.64382	44364
16.65193	43154
16.66007	40373
16.66818	38601
16.67630	39589
16.68443	42236
16.69255	40191
16.70068	38570
16.70880	42259
16.71692	45122
16.72505	37342
16.73317	42711
16.74130	41338
16.74942	43945
16.75753	47950
16.76567	41622
16.77378	42735
16.78190	40506
16.79003	37591
16.79815	38000
16.80628	35005
16.81440	36442
16.82252	40633
16.83065	41814
16.83877	39445
16.84690	40274
16.85502	39167
16.86313	39587
16.87127	36467
16.87938	37171
16.88750	35217
16.89563	38771
16.90375	34180
16.91188	40167
16.92000	37643
16.92812	37729
16.93625	38512
16.94437	36669
16.95250	36823
16.96062	37714
16.96873	37970
16.97687	34047
16.98498	38452
16.99312	37845
17.00123	36892
17.00935	37457
17.01748	44711
17.02560	39885
17.03372	47855
17.04185	43260
17.04997	47166
17.05810	43394
17.06622	43811
17.07433	45254
17.08247	45294
17.09058	45642
17.09872	48042
17.10683	45426
17.11495	47764
17.12308	46690
17.13120	44976
17.13933	45273
17.14745	45559
17.15557	41358
17.16370	44857
17.17182	35630
17.17993	39855
17.18807	40202
17.19618	36904
17.20432	37596
17.21243	37013
17.22055	36461
17.22868	41360
17.23680	39695
17.24493	38236
17.25305	39387
17.26117	38757
17.26930	37029
17.27742	37655
17.28553	37002
17.29367	38616
17.30178	40996
17.30992	49805
17.31803	47211
17.32615	53953
17.33428	54857
17.34240	62625
17.35053	58392
17.35865	57021
17.36677	60140
17.37490	61553
17.38302	56434
17.39115	63146
17.39927	61803
17.40738	63807
17.41552	57148
17.42363	63758
17.43175	57596
17.43988	51387
17.44800	52702
17.45613	49269
17.46425	52106
17.47237	51671
17.48050	53351
17.48862	56106
17.49675	56238
17.50487	72764
17.51298	79743
17.52112	92563
17.52923	99605
17.53735	109721
17.54548	108483
17.55360	118221
17.56173	134561
17.56985	159107
17.57797	181439
17.58610	210844
17.59422	209759
17.60235	191605
17.61047	162829
17.61858	125072
17.62672	101308
17.63483	82606
17.64297	79194
17.65108	76129
17.65920	68339
17.66733	65307
17.67545	69384
17.68357	64752
17.69170	61609
17.69982	62472
17.70795	64938
17.71607	59914
17.72418	58906
17.73232	59076
17.74043	57661
17.74857	54417
17.75668	52947
17.76480	49562
17.77293	45437
17.78105	47917
17.78918	48734
17.79730	48958
17.80542	50304
17.81355	54378
17.82167	60176
17.82978	58728
17.83792	68849
17.84603	69032
17.85417	68516
17.86228	67966
17.87040	60492
17.87853	55914
17.88665	53053
17.89478	48826
17.90290	47402
17.91102	49052
17.91915	41636
17.92727	44677
17.93538	45707
17.94352	40823
17.95163	41906
17.95977	42137
17.96788	42108
17.97600	46260
17.98413	43930
17.99225	54197
18.00038	62903
18.00850	75290
18.01662	92324
18.02475	100995
18.03287	97525
18.04100	88183
18.04912	71448
18.05723	62184
18.06537	59521
18.07348	58136
18.08160	54911
18.08973	60417
18.09785	60938
18.10598	61757
18.11410	58452
18.12222	58051
18.13035	61393
18.13847	58645
18.14660	55432
18.15472	55995
18.16283	51513
18.17097	49547
18.17908	53173
18.18722	56831
18.19533	53127
18.20345	45135
18.21158	48875
18.21970	48654
18.22782	47564
18.23595	48641
18.24407	42960
18.25220	43699
18.26032	42092
18.26843	41685
18.27657	42477
18.28468	41220
18.29282	44416
18.30093	39980
18.30905	37913
18.31718	40847
18.32530	40874
18.33342	41463
18.34155	57416
18.34967	85736
18.35780	120396
18.36592	143343
18.37403	146160
18.38217	163264
18.39028	158879
18.39842	168915
18.40653	176388
18.41465	187746
18.42278	183766
18.43090	198204
18.43903	205732
18.44715	208651
18.45527	219045
18.46340	216790
18.47152	209391
18.47963	211501
18.48777	192927
18.49588	179207
18.50402	164304
18.51213	155042
18.52025	146418
18.52838	143641
18.53650	142626
18.54463	138061
18.55275	142253
18.56087	147298
18.56900	150443
18.57712	146776
18.58523	154369
18.59337	150509
18.60148	154101
18.60962	151481
18.61773	142203
18.62585	143289
18.63398	130715
18.64210	132133
18.65023	130528
18.65835	125265
18.66647	126225
18.67460	119696
18.68272	116652
18.69085	112489
18.69897	113434
18.70708	108140
18.71522	110383
18.72333	107153
18.73145	98590
18.73958	100159
18.74770	100832
18.75583	101317
18.76395	99306
18.77207	105196
18.78020	99434
18.78832	95900
18.79645	90722
18.80457	94168
18.81268	94277
18.82082	90614
18.82893	88971
18.83707	90945
18.84518	88529
18.85330	89798
18.86143	95032
18.86955	91919
18.87767	94644
18.88580	94846
18.89392	96673
18.90205	95906
18.91017	98536
18.91828	97790
18.92642	97763
18.93453	101999
18.94267	101869
18.95078	98635
18.95890	93463
18.96703	90544
18.97515	87846
18.98328	86808
18.99140	83438
18.99952	90971
19.00765	82853
19.01577	79448
19.02388	80716
19.03202	78875
19.04013	72834
19.04827	77893
19.05638	70888
19.06450	75763
19.07263	82937
19.08075	91338
19.08888	97994
19.09700	101746
19.10512	100856
19.11325	107341
19.12137	111082
19.12948	109381
19.13762	109642
19.14573	105800
19.15387	106017
19.16198	98067
19.17010	91259
19.17823	86187
19.18635	80633
19.19448	75163
19.20260	73484
19.21072	69724
19.21885	64178
19.22697	67181
19.23510	63871
19.24322	63185
19.25133	61523
19.25947	66083
19.26758	67536
19.27570	72360
19.28383	73219
19.29195	66667
19.30008	68489
19.30820	67759
19.31632	65637
19.32445	62278
19.33257	67041
19.34070	71370
19.34882	72102
19.35693	76951
19.36507	84281
19.37318	81055
19.38130	80016
19.38943	81199
19.39755	85632
19.40568	117345
19.41380	168059
19.42192	232331
19.43005	292734
19.43817	325726
19.44630	294236
19.45442	233333
19.46253	174810
19.47067	133047
19.47878	102206
19.48692	86977
19.49503	80963
19.50315	75949
19.51128	77485
19.51940	79793
19.52752	80424
19.53565	74716
19.54377	70029
19.55190	66747
19.56002	65260
19.56813	58238
19.57627	59904
19.58438	56018
19.59252	58998
19.60063	71600
19.60875	81267
19.61688	117651
19.62500	178577
19.63313	258999
19.64125	341031
19.64937	397303
19.65750	413968
19.66562	365528
19.67373	317021
19.68187	255730
19.68998	214103
19.69812	176721
19.70623	149256
19.71435	138444
19.72248	116168
19.73060	105168
19.73873	93389
19.74685	94607
19.75497	85526
19.76310	86901
19.77122	89939
19.77933	93786
19.78747	92621
19.79558	100613
19.80372	91082
19.81183	82020
19.81995	74228
19.82808	71883
19.83620	71003
19.84433	76507
19.85245	73316
19.86057	74205
19.86870	81977
19.87682	82092
19.88495	92934
19.89307	103104
19.90118	103678
19.90932	110194
19.91743	102764
19.92555	102091
19.93368	96891
19.94180	90925
19.94993	86754
19.95805	87990
19.96617	86849
19.97430	84150
19.98242	82351
19.99055	78957
19.99867	79098
20.00678	78528
20.01492	78330
20.02303	72899
20.03117	78064
20.03928	80658
20.04740	88790
20.05553	111119
20.06365	109577
20.07177	119073
20.07990	117484
20.08802	112104
20.09615	103264
20.10427	91753
20.11238	86293
20.12052	88665
20.12863	111328
20.13677	151004
20.14488	217243
20.15300	300901
20.16113	413387
20.16925	512428
20.17737	582667
20.18550	569638
20.19362	534634
20.20175	451748
20.20987	385278
20.21798	361143
20.22612	394317
20.23423	458325
20.24237	530049
20.25048	591895
20.25860	618951
20.26673	569635
20.27485	496430
20.28298	400762
20.29110	328944
20.29922	242701
20.30735	182299
20.31547	138587
20.32358	109568
20.33172	98455
20.33983	88702
20.34797	84911
20.35608	74094
20.36420	78637
20.37233	85428
20.38045	93031
20.38858	101699
20.39670	117356
20.40482	135081
20.41295	133579
20.42107	124954
20.42918	125269
20.43732	112966
20.44543	98843
20.45357	89345
20.46168	82425
20.46980	75697
20.47793	66627
20.48605	64918
20.49418	64620
20.50230	60323
20.51042	56246
20.51855	54476
20.52667	53536
20.53480	55760
20.54292	50827
20.55103	49746
20.55917	52132
20.56728	51328
20.57540	51967
20.58353	56805
20.59165	52014
20.59978	50163
20.60790	54961
20.61602	46942
20.62415	55147
20.63227	50946
20.64040	49951
20.64852	47899
20.65663	49340
20.66477	49492
20.67288	48035
20.68102	53299
20.68913	46969
20.69725	49681
20.70538	50091
20.71350	47730
20.72162	46242
20.72975	50007
20.73787	50699
20.74600	51642
20.75412	55438
20.76223	60566
20.77037	69213
20.77848	84664
20.78662	107479
20.79473	141036
20.80285	158929
20.81098	146776
20.81910	134034
20.82722	106401
20.83535	83025
20.84347	69979
20.85160	62129
20.85972	60543
20.86783	59604
20.87597	59094
20.88408	59367
20.89222	59409
20.90033	59734
20.90845	67500
20.91658	66760
20.92470	65506
20.93283	64383
20.94095	64647
20.94907	56662
20.95720	55065
20.96532	51975
20.97343	48003
20.98157	47132
20.98968	48175
20.99782	46709
21.00593	48876
21.01405	46621
21.02218	49802
21.03030	50305
21.03843	53775
21.04655	52936
21.05467	51679
21.06280	51571
21.07092	49017
21.07905	46092
21.08717	48405
21.09528	48111
21.10342	48530
21.11153	50531
21.11965	57840
21.12778	65379
21.13590	75670
21.14403	85304
21.15215	83216
21.16027	88195
21.16840	76753
21.17652	67300
21.18465	58033
21.19277	56287
21.20088	52381
21.20902	47631
21.21713	49963
21.22525	44854
21.23338	52561
21.24150	49005
21.24963	50769
21.25775	45057
21.26587	46191
21.27400	46892
21.28212	48189
21.29025	44335
21.29837	45125
21.30648	44733
21.31462	43136
21.32273	43926
21.33087	43268
21.33898	49735
21.34710	44954
21.35523	44060
21.36335	46593
21.37147	49511
21.37960	47607
21.38772	61112
21.39585	61291
21.40397	59786
21.41208	59018
21.42022	59233
21.42833	58812
21.43647	54070
21.44458	62189
21.45270	62935
21.46083	59786
21.46895	59804
21.47708	56025
21.48520	56706
21.49332	57891
21.50145	58201
21.50957	60425
21.51768	60651
21.52582	58707
21.53393	60029
21.54207	65851
21.55018	71438
21.55830	86212
21.56643	115042
21.57455	135245
21.58268	149174
21.59080	161393
21.59892	145990
21.60705	138776
21.61517	125334
21.62328	108637
21.63142	95558
21.63953	86104
21.64767	83748
21.65578	83629
21.66390	78432
21.67203	79313
21.68015	75937
21.68828	68143
21.69640	71482
21.70452	67729
21.71265	65935
21.72077	59928
21.72890	59645
21.73702	64013
21.74513	68516
21.75327	81362
21.76138	96319
21.76950	115303
21.77763	132908
21.78575	129103
21.79388	124101
21.80200	107077
21.81012	90645
21.81825	79121
21.82637	64910
21.83450	61204
21.84262	56503
21.85073	55964
21.85887	53066
21.86698	53244
21.87510	53150
21.88323	48052
21.89135	47769
21.89948	49475
21.90760	44551
21.91572	47661
21.92385	44762
21.93197	44171
21.94010	40600
21.94822	41045
21.95633	42350
21.96447	44286
21.97258	43431
21.98072	40133
21.98883	41788
21.99695	42872
22.00508	39657
22.01320	43333
22.02132	42448
22.02945	42324
22.03757	43780
22.04570	51044
22.05382	48042
22.06193	55091
22.07007	74708
22.07818	94042
22.08632	119699
22.09443	128872
22.10255	137410
22.11068	140499
22.11880	144081
22.12693	146468
22.13505	146640
22.14317	145392
22.15130	157936
22.15942	160503
22.16753	174643
22.17567	166591
22.18378	164538
22.19192	154633
22.20003	147503
22.20815	139861
22.21628	135905
22.22440	128745
22.23253	133910
22.24065	124867
22.24877	124229
22.25690	118743
22.26502	121705
22.27313	120886
22.28127	118095
22.28938	122003
22.29752	113140
22.30563	114294
22.31375	114269
22.32188	105832
22.33000	107870
22.33813	115592
22.34625	106805
22.35437	98902
22.36250	98447
22.37062	100192
22.37875	102747
22.38687	112966
22.39498	113387
22.40312	125094
22.41123	124019
22.41935	111905
22.42748	105267
22.43560	98582
22.44373	94896
22.45185	85956
22.45997	85670
22.46810	84883
22.47622	89103
22.48435	91942
22.49247	94867
22.50058	97071
22.50872	87272
22.51683	85308
22.52497	81818
22.53308	82494
22.54120	71357
22.54933	69919
22.55745	64611
22.56557	69427
22.57370	67303
22.58182	58302
22.58995	61047
22.59807	59131
22.60618	51115
22.61432	54937
22.62243	51695
22.63057	56311
22.63868	53182
22.64680	54707
22.65493	52392
22.66305	59036
22.67117	53532
22.67930	55990
22.68742	53853
22.69555	54554
22.70367	54509
22.71178	52740
22.71992	52840
22.72803	51853
22.73617	58102
22.74428	49454
22.75240	51553
22.76053	51946
22.76865	49656
22.77678	50378
22.78490	50929
22.79302	59786
22.80115	52149
22.80927	54983
22.81738	54056
22.82552	54935
22.83363	51737
22.84177	58047
22.84988	61398
22.85800	72791
22.86613	78580
22.87425	85952
22.88238	94004
22.89050	98172
22.89862	98493
22.90675	111794
22.91487	112743
22.92298	122712
22.93112	113320
22.93923	100488
22.94737	98768
22.95548	84036
22.96360	77301
22.97173	73846
22.97985	75300
22.98798	68778
22.99610	62529
23.00422	58575
23.01235	55243
23.02047	54351
23.02860	47741
23.03672	52131
23.04483	51939
23.05297	51247
23.06108	52981
23.06920	51136
23.07733	49716
23.08545	46473
23.09358	50283
23.10170	47090
23.10982	46474
23.11795	46988
23.12607	42506
23.13420	41331
23.14232	45226
23.15043	40411
23.15857	42013
23.16668	42941
23.17482	43951
23.18293	41686
23.19105	40067
23.19918	41197
23.20730	39728
23.21542	40786
23.22355	44813
23.23167	47091
23.23980	45148
23.24792	46767
23.25603	46661
23.26417	45516
23.27228	42662
23.28042	42421
23.28853	43669
23.29665	45475
23.30478	49019
23.31290	46922
23.32102	48087
23.32915	52776
23.33727	62666
23.34540	67245
23.35352	68699
23.36163	71051
23.36977	69719
23.37788	62736
23.38602	61017
23.39413	56393
23.40225	52646
23.41038	51326
23.41850	47452
23.42663	46777
23.43475	49278
23.44287	42067
23.45100	48159
23.45912	45960
23.46723	45804
23.47537	42071
23.48348	41165
23.49162	41132
23.49973	39519
23.50785	39130
23.51598	46901
23.52410	42505
23.53223	47601
23.54035	49721
23.54847	52339
23.55660	65785
23.56472	85270
23.57285	99640
23.58097	116025
23.58908	129424
23.59722	126697
23.60533	117524
23.61345	105641
23.62158	85847
23.62970	77975
23.63783	77131
23.64595	74709
23.65407	81486
23.66220	73744
23.67032	73117
23.67845	68121
23.68657	58840
23.69468	52737
23.70282	51807
23.71093	56366
23.71905	81848
23.72718	192249
23.73530	477382
23.74343	1147206
23.75155	2278383
23.75967	3519908
23.76780	4667012
23.77592	4996154
23.78405	4606660
23.79217	3871142
23.80028	3004346
23.80842	2210543
23.81653	1555593
23.82467	1157794
23.83278	898625
23.84090	729752
23.84903	600881
23.85715	514089
23.86527	483428
23.87340	465057
23.88152	445262
23.88965	430727
23.89777	413193
23.90588	387615
23.91402	373553
23.92213	358249
23.93027	350075
23.93838	328376
23.94650	319536
23.95463	307566
23.96275	295770
23.97087	288423
23.97900	280677
23.98712	274775
23.99525	272499
24.00337	280717
24.01148	298453
24.01962	305019
24.02773	296193
24.03587	293584
24.04398	279058
24.05210	272562
24.06023	246687
24.06835	248899
24.07648	234174
24.08460	218467
24.09272	202968
24.10085	206616
24.10897	200478
24.11708	202610
24.12522	211065
24.13333	220602
24.14147	228119
24.14958	226961
24.15770	212642
24.16583	200428
24.17395	193556
24.18208	181946
24.19020	174838
24.19832	165532
24.20645	157972
24.21457	153366
24.22270	148541
24.23082	139456
24.23893	135131
24.24707	133276
24.25518	129454
24.26330	127554
24.27143	123863
24.27955	139167
24.28768	153146
24.29580	185719
24.30392	226657
24.31205	259802
24.32017	264989
24.32830	248940
24.33642	203743
24.34453	169545
24.35267	140392
24.36078	116805
24.36892	113678
24.37703	113919
24.38515	107936
24.39328	109310
24.40140	113196
24.40952	122557
24.41765	129658
24.42577	148298
24.43390	151906
24.44202	148481
24.45013	135425
24.45827	132546
24.46638	116427
24.47452	106520
24.48263	104336
24.49075	102960
24.49888	103284
24.50700	100771
24.51512	101581
24.52325	107665
24.53137	114473
24.53950	109424
24.54762	105772
24.55573	107543
24.56387	100239
24.57198	99241
24.58012	89219
24.58823	92077
24.59635	85017
24.60448	82173
24.61260	78534
24.62073	82930
24.62885	82164
24.63697	77348
24.64510	82142
24.65322	79011
24.66133	84164
24.66947	74246
24.67758	71531
24.68572	72911
24.69383	71798
24.70195	70702
24.71008	67754
24.71820	69426
24.72633	64178
24.73445	65615
24.74257	68614
24.75070	65628
24.75882	64692
24.76693	72787
24.77507	70930
24.78318	64274
24.79132	68876
24.79943	68652
24.80755	70196
24.81568	70737
24.82380	81167
24.83193	82643
24.84005	99888
24.84817	111119
24.85630	142484
24.86442	165863
24.87255	183409
24.88067	193480
24.88878	172230
24.89692	144426
24.90503	126329
24.91315	103646
24.92128	78615
24.92940	66952
24.93753	65082
24.94565	62698
24.95377	59513
24.96190	61349
24.97002	58382
24.97815	57438
24.98627	58676
24.99438	57276
25.00252	55662
25.01063	55835
25.01877	58188
25.02688	53351
25.03500	54199
25.04313	57412
25.05125	54164
25.05937	60789
25.06750	63847
25.07562	83333
25.08375	116500
25.09187	184672
25.09998	288358
25.10812	436497
25.11623	627628
25.12437	783161
25.13248	894976
25.14060	881752
25.14873	787531
25.15685	617388
25.16497	453038
25.17310	343396
25.18122	274938
25.18935	235626
25.19747	199517
25.20558	203115
25.21372	190689
25.22183	186532
25.22997	186824
25.23808	193708
25.24620	200524
25.25433	201591
25.26245	192041
25.27058	196679
25.27870	190432
25.28682	178945
25.29495	171367
25.30307	168175
25.31118	165139
25.31932	159216
25.32743	151204
25.33557	144587
25.34368	134411
25.35180	132047
25.35993	126435
25.36805	125967
25.37618	123000
25.38430	131607
25.39242	126887
25.40055	123746
25.40867	119526
25.41680	119736
25.42492	108842
25.43303	105050
25.44117	104474
25.44928	100724
25.45740	97050
25.46553	95328
25.47365	92056
25.48178	88495
25.48990	86912
25.49802	87893
25.50615	82507
25.51427	81469
25.52240	80231
25.53052	77102
25.53863	72416
25.54677	74725
25.55488	72474
25.56300	73990
25.57113	73370
25.57925	72915
25.58738	70803
25.59550	70539
25.60362	66046
25.61175	67381
25.61987	63945
25.62800	66954
25.63612	64293
25.64423	65614
25.65237	64041
25.66048	61106
25.66862	64562
25.67673	58706
25.68485	60024
25.69298	58981
25.70110	57507
25.70922	56815
25.71735	57268
25.72547	56736
25.73360	57814
25.74172	57398
25.74983	56368
25.75797	59385
25.76608	58657
25.77422	60552
25.78233	58383
25.79045	56079
25.79858	62214
25.80670	58633
25.81482	55889
25.82295	57753
25.83107	56436
25.83920	58562
25.84732	53534
25.85543	53940
25.86357	53797
25.87168	54665
25.87982	49801
25.88793	51658
25.89605	55217
25.90418	50698
25.91230	58567
25.92043	54504
25.92855	56518
25.93667	53759
25.94480	58071
25.95292	55648
25.96103	57816
25.96917	50715
25.97728	53424
25.98542	53758
25.99353	51587
26.00165	49085
26.00978	50602
26.01790	48002
26.02603	48577
26.03415	51414
26.04227	50640
26.05040	51255
26.05852	52825
26.06665	51525
26.07477	49940
26.08288	52148
26.09102	56855
26.09913	52451
26.10725	62849
26.11538	65619
26.12350	71555
26.13163	68752
26.13975	70743
26.14787	71139
26.15600	68735
26.16412	62650
26.17225	63620
26.18037	58976
26.18848	58362
26.19662	51585
26.20473	55928
26.21285	53308
26.22098	53162
26.22910	53441
26.23723	49763
26.24535	50572
26.25347	50251
26.26160	53677
26.26972	46769
26.27785	50992
26.28597	50005
26.29408	48314
26.30222	50404
26.31033	52006
26.31847	50959
26.32658	51702
26.33470	63082
26.34283	70850
26.35095	88891
26.35907	111933
26.36720	141895
26.37532	160985
26.38345	174142
26.39157	173966
26.39968	160394
26.40782	130783
26.41593	111733
26.42407	89986
26.43218	78036
26.44030	66934
26.44843	62943
26.45655	61647
26.46468	57868
26.47280	59567
26.48092	53817
26.48905	52249
26.49717	50721
26.50528	54586
26.51342	48309
26.52153	50312
26.52967	50161
26.53778	51680
26.54590	45718
26.55403	51031
26.56215	49699
26.57028	51594
26.57840	49811
26.58652	48227
26.59465	50532
26.60277	52050
26.61088	53500
26.61902	52039
26.62713	51440
26.63527	50694
26.64338	52668
26.65150	54258
26.65963	54160
26.66775	55574
26.67588	54215
26.68400	57587
26.69212	56077
26.70025	56180
26.70837	54983
26.71650	57878
26.72462	57822
26.73273	56650
26.74087	55736
26.74898	57212
26.75710	59411
26.76523	60879
26.77335	63313
26.78148	60771
26.78960	56202
26.79772	53608
26.80585	50745
26.81397	48481
26.82210	51638
26.83022	51357
26.83833	51532
26.84647	45079
26.85458	54175
26.86270	54276
26.87083	52444
26.87895	50003
26.88708	52598
26.89520	56548
26.90332	61252
26.91145	61484
26.91957	60949
26.92770	76588
26.93582	100767
26.94393	173154
26.95207	306584
26.96018	562959
26.96832	911279
26.97643	1408938
26.98455	1874507
26.99268	2196839
27.00080	2195248
27.00892	1939985
27.01705	1566110
27.02517	1259832
27.03330	957650
27.04142	736565
27.04953	581808
27.05767	464398
27.06578	370315
27.07392	320318
27.08203	281762
27.09015	250229
27.09828	218079
27.10640	200033
27.11453	190934
27.12265	174516
27.13077	162867
27.13890	161814
27.14702	159992
27.15513	153225
27.16327	151169
27.17138	145522
27.17952	137278
27.18763	126939
27.19575	120633
27.20388	115378
27.21200	109971
27.22013	99250
27.22825	95236
27.23637	91503
27.24450	86740
27.25262	86495
27.26073	84102
27.26887	80677
27.27698	87363
27.28512	82233
27.29323	80360
27.30135	81256
27.30948	78332
27.31760	76186
27.32573	74320
27.33385	75321
27.34197	76224
27.35010	79060
27.35822	76131
27.36635	76612
27.37447	73868
27.38258	74186
27.39072	74044
27.39883	70265
27.40695	70460
27.41508	75885
27.42320	78400
27.43133	82540
27.43945	77542
27.44757	72834
27.45570	73723
27.46382	72180
27.47195	68066
27.48007	70562
27.48818	70969
27.49632	71337
27.50443	71417
27.51257	71796
27.52068	73938
27.52880	70348
27.53693	76837
27.54505	70183
27.55317	67634
27.56130	69913
27.56942	65117
27.57755	69372
27.58567	69931
27.59378	66867
27.60192	66192
27.61003	63752
27.61817	62560
27.62628	59224
27.63440	56282
27.64253	57883
27.65065	61049
27.65877	59259
27.66690	57478
27.67502	57954
27.68315	60171
27.69127	61199
27.69938	58908
27.70752	63709
27.71563	63675
27.72377	68279
27.73188	73009
27.74000	74481
27.74813	74397
27.75625	67635
27.76438	64397
27.77250	59678
27.78062	59789
27.78875	56246
27.79687	56246
27.80498	55924
27.81312	57731
27.82123	53515
27.82937	58435
27.83748	58110
27.84560	52585
27.85373	51729
27.86185	56581
27.86998	49156
27.87810	53491
27.88622	52656
27.89435	49120
27.90247	50126
27.91060	48840
27.91872	49151
27.92683	49833
27.93497	54297
27.94308	54070
27.95120	49847
27.95933	54024
27.96745	61112
27.97558	62565
27.98370	69196
27.99182	69464
27.99995	66694
28.00807	65400
28.01620	68125
28.02432	68617
28.03243	74620
28.04057	69372
28.04868	65283
28.05680	62602
28.06493	54945
28.07305	57044
28.08118	64592
28.08930	64732
28.09742	73633
28.10555	74883
28.11367	78014
28.12180	75271
28.12992	65318
28.13803	60409
28.14617	56775
28.15428	52980
28.16242	50948
28.17053	50482
28.17865	55036
28.18678	55664
28.19490	55589
28.20302	61674
28.21115	61534
28.21927	62124
28.22740	56523
28.23552	55473
28.24363	57662
28.25177	69350
28.25988	83280
28.26802	109657
28.27613	139196
28.28425	168133
28.29238	204398
28.30050	234191
28.30862	264486
28.31675	284549
28.32487	286918
28.33300	279434
28.34112	254253
28.34923	238559
28.35737	228997
28.36548	207495
28.37362	189016
28.38173	173078
28.38985	154408
28.39798	153861
28.40610	130220
28.41423	117998
28.42235	115769
28.43047	105905
28.43860	102052
28.44672	93414
28.45483	100791
28.46297	90165
28.47108	82819
28.47922	86440
28.48733	84646
28.49545	82343
28.50358	80223
28.51170	76891
28.51983	74286
28.52795	72183
28.53607	67057
28.54420	70959
28.55232	66724
28.56045	66585
28.56857	65218
28.57668	65249
28.58482	61445
28.59293	62629
28.60105	63589
28.60918	67796
28.61730	70918
28.62543	74162
28.63355	85975
28.64167	89803
28.64980	98716
28.65792	109149
28.66605	117827
28.67417	125911
28.68228	131312
28.69042	124529
28.69853	107575
28.70665	92510
28.71478	78692
28.72290	67056
28.73103	58212
28.73915	55438
28.74727	56286
28.75540	54893
28.76352	55180
28.77165	56856
28.77977	59935
28.78788	56026
28.79602	60759
28.80413	54489
28.81227	56810
28.82038	55099
28.82850	58680
28.83663	55512
28.84475	56398
28.85287	57079
28.86100	61002
28.86912	57066
28.87725	52228
28.88537	63239
28.89348	58483
28.90162	61287
28.90973	53441
28.91787	52526
28.92598	55135
28.93410	55715
28.94223	55845
28.95035	58426
28.95848	58396
28.96660	55164
28.97472	54919
28.98285	48990
28.99097	50393
28.99908	50959
29.00722	52351
29.01533	47323
29.02347	50657
29.03158	54101
29.03970	48698
29.04783	52614
29.05595	53087
29.06408	48100
29.07220	46549
29.08032	47696
29.08845	47983
29.09657	47510
29.10468	49001
29.11282	46106
29.12093	45307
29.12907	46658
29.13718	48310
29.14530	42818
29.15343	49354
29.16155	52382
29.16968	52345
29.17780	55583
29.18592	61358
29.19405	55172
29.20217	68396
29.21030	62157
29.21842	63646
29.22653	62979
29.23467	65738
29.24278	68549
29.25090	65994
29.25903	66316
29.26715	64581
29.27528	60296
29.28340	56172
29.29152	51788
29.29965	54606
29.30777	48628
29.31590	46026
29.32402	48910
29.33213	49461
29.34027	44526
29.34838	42451
29.35650	48615
29.36463	48974
29.37275	50377
29.38088	52400
29.38900	58295
29.39712	59052
29.40525	55396
29.41337	52970
29.42150	55026
29.42962	53490
29.43773	56022
29.44587	48224
29.45398	48270
29.46212	45955
29.47023	51569
29.47835	53611
29.48648	61566
29.49460	59527
29.50272	64367
29.51085	59611
29.51897	56234
29.52710	53005
29.53522	46333
29.54333	48053
29.55147	50234
29.55958	48124
29.56772	49227
29.57583	50454
29.58395	53591
29.59208	52461
29.60020	49921
29.60833	51843
29.61645	52249
29.62457	48165
29.63270	46099
29.64082	46891
29.64893	44747
29.65707	43125
29.66518	46050
29.67332	42632
29.68143	43084
29.68955	40804
29.69768	43073
29.70580	42658
29.71393	48493
29.72205	40660
29.73017	40864
29.73830	46774
29.74642	43802
29.75455	42190
29.76267	39730
29.77078	38843
29.77892	40147
29.78703	40856
29.79515	42066
29.80328	39421
29.81140	40216
29.81953	39055
29.82765	37810
29.83577	43512
29.84390	42661
29.85202	48578
29.86015	57653
29.86827	64703
29.87638	80153
29.88452	100027
29.89263	108270
29.90075	120714
29.90888	126122
29.91700	133134
29.92513	135724
29.93325	143187
29.94137	153339
29.94950	155028
29.95762	158861
29.96575	156867
29.97387	160510
29.98198	153025
29.99012	146818
29.99823	137942
30.00637	130510
30.01448	123020
30.02260	117867
30.03073	107562
30.03885	106961
30.04697	100517
30.05510	91841
30.06322	87874
30.07135	86921
30.07947	78850
30.08758	82666
30.09572	75438
30.10383	74287
30.11197	69965
30.12008	63603
30.12820	66339
30.13633	64043
30.14445	60574
30.15257	64680
30.16070	64236
30.16882	64581
30.17695	60729
30.18507	66384
30.19318	66039
30.20132	68740
30.20943	67430
30.21757	70335
30.22568	67676
30.23380	70162
30.24193	70080
30.25005	69416
30.25818	68795
30.26630	71604
30.27442	70945
30.28255	71249
30.29067	65479
30.29878	68573
30.30692	65183
30.31503	62183
30.32317	72075
30.33128	63973
30.33940	65291
30.34753	61479
30.35565	62570
30.36378	61808
30.37190	61265
30.38002	57264
30.38815	60898
30.39627	65291
30.40440	58600
30.41252	59497
30.42063	57831
30.42877	57604
30.43688	56539
30.44500	55514
30.45313	53891
30.46125	54748
30.46938	57674
30.47750	57659
30.48562	59231
30.49375	55485
30.50187	53785
30.51000	53215
30.51812	50625
30.52623	54377
30.53437	54211
30.54248	49370
30.55060	52865
30.55873	53185
30.56685	49555
30.57498	52167
30.58310	50829
30.59122	49915
30.59935	54778
30.60747	48981
30.61560	52617
30.62372	50775
30.63183	51283
30.63997	50292
30.64808	47822
30.65622	49203
30.66433	51084
30.67245	49800
30.68058	43960
30.68870	50994
30.69682	48418
30.70495	50618
30.71307	48897
30.72120	47912
30.72932	51018
30.73743	54175
30.74557	62470
30.75368	91350
30.76182	163065
30.76993	285977
30.77805	497599
30.78618	744429
30.79430	938307
30.80243	1000370
30.81055	906697
30.81867	723792
30.82680	505150
30.83492	323608
30.84303	203937
30.85117	134773
30.85928	99557
30.86742	84325
30.87553	70935
30.88365	73105
30.89178	64039
30.89990	63361
30.90803	63489
30.91615	60416
30.92427	60105
30.93240	60393
30.94052	57236
30.94863	55652
30.95677	56221
30.96488	54504
30.97302	53920
30.98113	51121
30.98925	51349
30.99738	53278
31.00550	52062
31.01363	56529
31.02175	54191
31.02987	52374
31.03800	55051
31.04612	53606
31.05425	52296
31.06237	55006
31.07048	61125
31.07862	68610
31.08673	72961
31.09485	70023
31.10298	68522
31.11110	62921
31.11923	62492
31.12735	58172
31.13547	57178
31.14360	63074
31.15172	70741
31.15985	85479
31.16797	109758
31.17608	158575
31.18422	217371
31.19233	272374
31.20045	318900
31.20858	313112
31.21670	289655
31.22483	222482
31.23295	166221
31.24107	115430
31.24920	85731
31.25732	65462
31.26545	58810
31.27357	53640
31.28168	53126
31.28982	53600
31.29793	60705
31.30607	55196
31.31418	57275
31.32230	54743
31.33043	58424
31.33855	54487
31.34667	48271
31.35480	48579
31.36292	47550
31.37105	46537
31.37917	49268
31.38728	49279
31.39542	47981
31.40353	44771
31.41167	47876
31.41978	47955
31.42790	48063
31.43603	45600
31.44415	43712
31.45228	46888
31.46040	43904
31.46852	49488
31.47665	49725
31.48477	50294
31.49288	47158
31.50102	49077
31.50913	50329
31.51727	50795
31.52538	48508
31.53350	44611
31.54163	46695
31.54975	44350
31.55788	44692
31.56600	43112
31.57412	43144
31.58225	45233
31.59037	47946
31.59848	43752
31.60662	48894
31.61473	45091
31.62287	46675
31.63098	49805
31.63910	48152
31.64723	50970
31.65535	50995
31.66348	52975
31.67160	58026
31.67972	55830
31.68785	60486
31.69597	54772
31.70410	52120
31.71222	48955
31.72033	46113
31.72847	45938
31.73658	46464
31.74470	43448
31.75283	48083
31.76095	49061
31.76908	51875
31.77720	56533
31.78532	55856
31.79345	57406
31.80157	61469
31.80970	62808
31.81782	67873
31.82593	73593
31.83407	83090
31.84218	97853
31.85032	104906
31.85843	120994
31.86655	129263
31.87468	136803
31.88280	130049
31.89092	129250
31.89905	129623
31.90717	127391
31.91530	117753
31.92342	116378
31.93153	110336
31.93967	103589
31.94778	101314
31.95592	106950
31.96403	104262
31.97215	94861
31.98028	96794
31.98840	92281
31.99652	81239
32.00465	78089
32.01277	71661
32.02090	72731
32.02902	65693
32.03713	65015
32.04527	68079
32.05338	63503
32.06152	60691
32.06963	57257
32.07775	56221
32.08588	54799
32.09400	57491
32.10213	55078
32.11025	54046
32.11837	51985
32.12650	53759
32.13462	47211
32.14273	55759
32.15087	51034
32.15898	52082
32.16712	47807
32.17523	48546
32.18335	49463
32.19148	47922
32.19960	51560
32.20773	48660
32.21585	49522
32.22397	48092
32.23210	51579
32.24022	53622
32.24835	51778
32.25647	50541
32.26458	52493
32.27272	49374
32.28083	52411
32.28895	52873
32.29708	49993
32.30520	50478
32.31333	51030
32.32145	54411
32.32957	54266
32.33770	57362
32.34582	55686
32.35395	51847
32.36207	52694
32.37018	51253
32.37832	54380
32.38643	48800
32.39455	45573
32.40268	49780
32.41080	49186
32.41893	45964
32.42705	46460
32.43517	45826
32.44330	44444
32.45142	44908
32.45955	44495
32.46767	45660
32.47578	43931
32.48392	42952
32.49203	45139
32.50017	42036
32.50828	44331
32.51640	40038
32.52453	44529
32.53265	44309
32.54077	50706
32.54890	60559
32.55702	72158
32.56515	84339
32.57327	80177
32.58138	78641
32.58952	69684
32.59763	63303
32.60577	54956
32.61388	50754
32.62200	51040
32.63013	49243
32.63825	48720
32.64637	46196
32.65450	47531
32.66262	43372
32.67075	46924
32.67887	49763
32.68698	49778
32.69512	54318
32.70323	52702
32.71137	55785
32.71948	52365
32.72760	51178
32.73573	50879
32.74385	46595
32.75198	43298
32.76010	47451
32.76822	47193
32.77635	44835
32.78447	47912
32.79258	47635
32.80072	44931
32.80883	42935
32.81697	44802
32.82508	46370
32.83320	44524
32.84133	47179
32.84945	48915
32.85758	47239
32.86570	52800
32.87382	58263
32.88195	55306
32.89007	59496
32.89820	66311
32.90632	58260
32.91443	53199
32.92257	50112
32.93068	44799
32.93880	47674
32.94693	46784
32.95505	48621
32.96318	49591
32.97130	54855
32.97942	56529
32.98755	54248
32.99567	53965
33.00380	53839
33.01192	48319
33.02003	49504
33.02817	47566
33.03628	49007
33.04440	48211
33.05253	51325
33.06065	60343
33.06878	57653
33.07690	64678
33.08502	72408
33.09315	72968
33.10127	77785
33.10940	79002
33.11752	78293
33.12563	70158
33.13377	59546
33.14188	54673
33.15002	51623
33.15813	48782
33.16625	46234
33.17438	49992
33.18250	51076
33.19062	47041
33.19875	46608
33.20687	47491
33.21500	44810
33.22312	47945
33.23123	43252
33.23937	42744
33.24748	46249
33.25562	47096
33.26373	45343
33.27185	43129
33.27998	47197
33.28810	46867
33.29623	44000
33.30435	47361
33.31247	46305
33.32060	47488
33.32872	49090
33.33683	46288
33.34497	49540
33.35308	52264
33.36122	45574
33.36933	47150
33.37745	45759
33.38558	46120
33.39370	46885
33.40183	47579
33.40995	48750
33.41807	49636
33.42620	50034
33.43432	52442
33.44243	57125
33.45057	55034
33.45868	59773
33.46682	58114
33.47493	57824
33.48305	65007
33.49118	67034
33.49930	70518
33.50743	74833
33.51555	77380
33.52367	89258
33.53180	91848
33.53992	99800
33.54805	101327
33.55617	102750
33.56428	110114
33.57242	107196
33.58053	104812
33.58865	108686
33.59678	108992
33.60490	108128
33.61303	112834
33.62115	111592
33.62927	112347
33.63740	110293
33.64552	103318
33.65365	107905
33.66177	104222
33.66988	101596
33.67802	104840
33.68613	102531
33.69425	106509
33.70238	105374
33.71050	98822
33.71863	103459
33.72675	101142
33.73487	99302
33.74300	104817
33.75112	96839
33.75925	102130
33.76737	96311
33.77548	95902
33.78362	90509
33.79173	87596
33.79987	89326
33.80798	83110
33.81610	87981
33.82423	81611
33.83235	87027
33.84047	78302
33.84860	77556
33.85672	75819
33.86485	73357
33.87297	77927
33.88108	73781
33.88922	77286
33.89733	82558
33.90547	75047
33.91358	73946
33.92170	73968
33.92983	68911
33.93795	74943
33.94608	71546
33.95420	69984
33.96232	67507
33.97045	66157
33.97857	64539
33.98668	64163
33.99482	74149
34.00293	61115
34.01107	65476
34.01918	66110
34.02730	57011
34.03543	63831
34.04355	62360
34.05168	63312
34.05980	64332
34.06792	56812
34.07605	61037
34.08417	61051
34.09230	56393
34.10042	63819
34.10853	62904
34.11667	59863
34.12478	59565
34.13290	65240
34.14103	61256
34.14915	58401
34.15728	57918
34.16540	59431
34.17352	55857
34.18165	61237
34.18977	57525
34.19790	59804
34.20602	58683
34.21413	58366
34.22227	57834
34.23038	56925
34.23850	56013
34.24663	59637
34.25475	59474
34.26288	60403
34.27100	59303
34.27912	61960
34.28725	64155
34.29537	64448
34.30350	62794
34.31162	66606
34.31973	68271
34.32787	65016
34.33598	70559
34.34412	73535
34.35223	74865
34.36035	74642
34.36848	80186
34.37660	77774
34.38472	83522
34.39285	88232
34.40097	91940
34.40910	101801
34.41722	112056
34.42533	117975
34.43347	143733
34.44158	161689
34.44972	179392
34.45783	199469
34.46595	208503
34.47408	210910
34.48220	208589
34.49032	202017
34.49845	194683
34.50657	183748
34.51470	178460
34.52282	161023
34.53093	153864
34.53907	140039
34.54718	134038
34.55532	125581
34.56343	116002
34.57155	108478
34.57968	101780
34.58780	104414
34.59593	98153
34.60405	96518
34.61217	95719
34.62030	91792
34.62842	89259
34.63653	83159
34.64467	84064
34.65278	77872
34.66092	79733
34.66903	72722
34.67715	70811
34.68528	75557
34.69340	69012
34.70153	71103
34.70965	66892
34.71777	67580
34.72590	65825
34.73402	64850
34.74215	67709
34.75027	63250
34.75838	63428
34.76652	64708
34.77463	65664
34.78275	62142
34.79088	60431
34.79900	58925
34.80713	62632
34.81525	61180
34.82337	60548
34.83150	63624
34.83962	63496
34.84775	68344
34.85587	62299
34.86398	58767
34.87212	62783
34.88023	63640
34.88835	60662
34.89648	58955
34.90460	63283
34.91273	60132
34.92085	62517
34.92897	61012
34.93710	65520
34.94522	60557
34.95335	65469
34.96147	63471
34.96958	60945
34.97772	59511
34.98583	64200
34.99397	58008
35.00208	61435
35.01020	56256
35.01833	60321
35.02645	58455
35.03457	59713
35.04270	65147
35.05082	67502
35.05895	64993
35.06707	64490
35.07518	58617
35.08332	57722
35.09143	55965
35.09957	56460
35.10768	58720
35.11580	58413
35.12393	64878
35.13205	62134
35.14018	62796
35.14830	60904
35.15642	57165
35.16455	63570
35.17267	62050
35.18078	61716
35.18892	61935
35.19703	60323
35.20517	64725
35.21328	61236
35.22140	70025
35.22953	64968
35.23765	65016
35.24578	64307
35.25390	65668
35.26202	65214
35.27015	68462
35.27827	62486
35.28638	63567
35.29452	63747
35.30263	67479
35.31077	62076
35.31888	64026
35.32700	63251
35.33513	69172
35.34325	64979
35.35138	58020
35.35950	59627
35.36762	60916
35.37575	57934
35.38387	61493
35.39200	61301
35.40012	65016
35.40823	67856
35.41637	65988
35.42448	68746
35.43260	69214
35.44073	76091
35.44885	73336
35.45698	76166
35.46510	78306
35.47322	70616
35.48135	74832
35.48947	70275
35.49760	67208
35.50572	62200
35.51383	62826
35.52197	58955
35.53008	62532
35.53820	68441
35.54633	71226
35.55445	71749
35.56258	76125
35.57070	78299
35.57882	74038
35.58695	73058
35.59507	70177
35.60320	64806
35.61132	67169
35.61943	68850
35.62757	71888
35.63568	64518
35.64382	68759
35.65193	69142
35.66005	71239
35.66818	71158
35.67630	74860
35.68442	72095
35.69255	72125
35.70067	72424
35.70880	72426
35.71692	71924
35.72503	70191
35.73317	77909
35.74128	79249
35.74942	74590
35.75753	77117
35.76565	80306
35.77378	71909
35.78190	71296
35.79003	72261
35.79815	75712
35.80627	66220
35.81440	71732
35.82252	65007
35.83063	72167
35.83877	68533
35.84688	63699
35.85502	68850
35.86313	63033
35.87125	65788
35.87938	62501
35.88750	62042
35.89563	63699
35.90375	64211
35.91187	63875
35.92000	59298
35.92812	62743
35.93623	59778
35.94437	59365
35.95248	63956
35.96062	63267
35.96873	65992
35.97685	71042
35.98498	78952
35.99310	77754
36.00123	81835
36.00935	90865
36.01747	88656
36.02560	90773
36.03372	79180
36.04185	75745
36.04997	78857
36.05808	72788
36.06622	72961
36.07433	71335
36.08245	65741
36.09058	67882
36.09870	64910
36.10683	66115
36.11495	64042
36.12307	64777
36.13120	68106
36.13932	67974
36.14745	67049
36.15557	64015
36.16368	58440
36.17182	65499
36.17993	74197
36.18807	74104
36.19618	88096
36.20430	92041
36.21243	105126
36.22055	103311
36.22867	103052
36.23680	89315
36.24492	85659
36.25305	73704
36.26117	66201
36.26928	69863
36.27742	67596
36.28553	64775
36.29367	63172
36.30178	63171
36.30990	63561
36.31803	59718
36.32615	59439
36.33427	65971
36.34240	64175
36.35052	65087
36.35865	64608
36.36677	64838
36.37488	66755
36.38302	67808
36.39113	64645
36.39927	63354
36.40738	69022
36.41550	68266
36.42363	66940
36.43175	66451
36.43988	63855
36.44800	62197
36.45612	62905
36.46425	64544
36.47237	64369
36.48048	64832
36.48862	66791
36.49673	64072
36.50487	68919
36.51298	63360
36.52110	69937
36.52923	70426
36.53735	70352
36.54548	70366
36.55360	69213
36.56172	66371
36.56985	65850
36.57797	64403
36.58608	72799
36.59422	65921
36.60233	67922
36.61047	70684
36.61858	65659
36.62670	62188
36.63483	62644
36.64295	63741
36.65108	65599
36.65920	64086
36.66732	67943
36.67545	62584
36.68357	64809
36.69170	63418
36.69982	67486
36.70793	63915
36.71607	62127
36.72418	63472
36.73230	65516
36.74043	64672
36.74855	66276
36.75668	66915
36.76480	61295
36.77292	63763
36.78105	62549
36.78917	66995
36.79730	66577
36.80542	63461
36.81353	59454
36.82167	63058
36.82978	63249
36.83792	67608
36.84603	64603
36.85415	63961
36.86228	63234
36.87040	62126
36.87852	63337
36.88665	61122
36.89477	62662
36.90290	61344
36.91102	61916
36.91913	67834
36.92727	70797
36.93538	74690
36.94352	75267
36.95163	76186
36.95975	77975
36.96788	70465
36.97600	78695
36.98412	77753
36.99225	86093
37.00037	90887
37.00850	99091
37.01662	101401
37.02473	102385
37.03287	96638
37.04098	89737
37.04912	78584
37.05723	78057
37.06535	72610
37.07348	73253
37.08160	74275
37.08973	76365
37.09785	69723
37.10597	72855
37.11410	71415
37.12222	71295
37.13033	76968
37.13847	76521
37.14658	73934
37.15472	69884
37.16283	68008
37.17095	69399
37.17908	71374
37.18720	74927
37.19533	72482
37.20345	73206
37.21157	74181
37.21970	80617
37.22782	93906
37.23595	105020
37.24407	126110
37.25218	133412
37.26032	140447
37.26843	153644
37.27655	151796
37.28468	139394
37.29280	128868
37.30093	120558
37.30905	112909
37.31717	102418
37.32530	98870
37.33342	99617
37.34155	95252
37.34967	95244
37.35778	92475
37.36592	84166
37.37403	90076
37.38215	89716
37.39028	83300
37.39840	95748
37.40653	86093
37.41465	84961
37.42277	84338
37.43090	81341
37.43902	82260
37.44715	80158
37.45527	72334
37.46338	76759
37.47152	76909
37.47963	75241
37.48777	83087
