Z:\data\JTB-E02\BACandBLUE\JTB-E02-205-18.D Wed Mar 13 08:19:51 2019
Start of data points
2.09523,47532
2.10337,51243
2.11148,52281
2.11960,54008
2.12773,55794
2.13585,64090
2.14398,63661
2.15210,71772
2.16022,74553
2.16835,80100
2.17647,81136
2.18458,77877
2.19272,79414
2.20083,78132
2.20897,72336
2.21708,72170
2.22520,72395
2.23333,69790
2.24145,64661
2.24958,63790
2.25770,63481
2.26582,57890
2.27395,64970
2.28207,262282
2.29020,814449
2.29832,753210
2.30643,469785
2.31457,349024
2.32268,286191
2.33080,249803
2.33893,234463
2.34705,222983
2.35518,217032
2.36330,189095
2.37142,175062
2.37955,163110
2.38767,158594
2.39580,152794
2.40392,140787
2.41203,140479
2.42017,151980
2.42828,151073
2.43640,191584
2.44453,184567
2.45265,168498
2.46078,159394
2.46890,155120
2.47702,151261
2.48515,135958
2.49327,125661
2.50140,119299
2.50952,114368
2.51763,118552
2.52577,107910
2.53388,104726
2.54202,106876
2.55013,103043
2.55825,106585
2.56638,109914
2.57450,117327
2.58262,109020
2.59075,104770
2.59887,98653
2.60700,90554
2.61512,96253
2.62323,97727
2.63137,94206
2.63948,92395
2.64762,89121
2.65573,85923
2.66385,85195
2.67198,83063
2.68010,81354
2.68822,83652
2.69635,79268
2.70447,76267
2.71260,74665
2.72072,78053
2.72883,73978
2.73697,72554
2.74508,72614
2.75322,69347
2.76133,69496
2.76945,72216
2.77758,67547
2.78570,65746
2.79383,65089
2.80195,63744
2.81007,66983
2.81820,65877
2.82632,70213
2.83443,63491
2.84257,64449
2.85068,65454
2.85882,63210
2.86693,67281
2.87505,66330
2.88318,65230
2.89130,62906
2.89943,62491
2.90755,62670
2.91567,60497
2.92380,60223
2.93192,63696
2.94005,61343
2.94817,63140
2.95628,59762
2.96442,60258
2.97253,62253
2.98065,60160
2.98878,57950
2.99690,57851
3.00503,61333
3.01315,55653
3.02127,58312
3.02940,57787
3.03752,57369
3.04565,54592
3.05377,54488
3.06188,53888
3.07002,56392
3.07813,55311
3.08625,54178
3.09438,53298
3.10250,55329
3.11063,55717
3.11875,66469
3.12687,73996
3.13500,69227
3.14312,67825
3.15125,61783
3.15937,59220
3.16748,60131
3.17562,58985
3.18373,63323
3.19187,58607
3.19998,59586
3.20810,63265
3.21623,58509
3.22435,61590
3.23247,61174
3.24060,56792
3.24872,56829
3.25685,56790
3.26497,54841
3.27308,57126
3.28122,54226
3.28933,62368
3.29747,124975
3.30558,487499
3.31370,1625892
3.32183,3253999
3.32995,4129735
3.33808,3876055
3.34620,3175495
3.35432,2648132
3.36245,2222125
3.37057,1916519
3.37868,1686825
3.38682,1524472
3.39493,1374172
3.40307,1282058
3.41118,1203568
3.41930,1095820
3.42743,1038785
3.43555,957750
3.44368,903093
3.45180,857033
3.45992,810527
3.46805,767609
3.47617,756284
3.48428,714106
3.49242,691084
3.50053,664710
3.50867,637278
3.51678,612061
3.52490,599148
3.53303,573303
3.54115,557199
3.54928,537543
3.55740,518372
3.56552,494218
3.57365,491199
3.58177,467907
3.58990,457609
3.59802,443234
3.60613,440486
3.61427,414143
3.62238,424254
3.63050,419844
3.63863,403498
3.64675,406744
3.65488,397564
3.66300,383863
3.67112,378195
3.67925,367397
3.68737,356476
3.69550,362197
3.70362,340100
3.71173,345087
3.71987,332021
3.72798,313651
3.73610,320501
3.74423,323229
3.75235,310437
3.76048,302571
3.76860,297619
3.77672,295738
3.78485,296514
3.79297,280325
3.80110,286546
3.80922,284228
3.81733,289990
3.82547,276013
3.83358,272686
3.84172,272281
3.84983,264996
3.85795,266192
3.86608,263643
3.87420,260073
3.88232,255630
3.89045,243910
3.89857,245485
3.90670,242083
3.91482,242325
3.92293,242301
3.93107,239472
3.93918,234419
3.94732,239728
3.95543,229454
3.96355,224411
3.97168,217495
3.97980,218706
3.98793,216770
3.99605,211786
4.00417,214758
4.01230,213193
4.02042,214241
4.02853,203975
4.03667,215009
4.04478,207769
4.05292,204081
4.06103,196643
4.06915,199735
4.07728,202172
4.08540,191632
4.09353,193944
4.10165,202401
4.10977,189323
4.11790,194031
4.12602,183686
4.13413,186388
4.14227,181356
4.15038,194568
4.15852,199633
4.16663,206048
4.17475,199316
4.18288,201077
4.19100,192323
4.19913,191509
4.20725,180407
4.21537,178258
4.22350,181510
4.23162,186312
4.23975,184988
4.24787,191951
4.25598,181215
4.26412,181784
4.27223,179915
4.28035,184010
4.28848,173146
4.29660,169367
4.30473,170089
4.31285,167650
4.32097,167145
4.32910,163630
4.33722,176700
4.34535,175212
4.35347,166858
4.36158,171511
4.36972,162887
4.37783,163638
4.38597,166030
4.39408,171561
4.40220,162482
4.41033,161197
4.41845,158438
4.42657,155705
4.43470,154966
4.44282,153230
4.45095,153541
4.45907,153155
4.46718,150657
4.47532,151755
4.48343,149496
4.49157,148662
4.49968,144748
4.50780,146238
4.51593,143036
4.52405,138520
4.53217,140172
4.54030,136975
4.54842,143139
4.55655,132444
4.56467,142160
4.57278,139994
4.58092,138179
4.58903,143514
4.59717,130078
4.60528,130343
4.61340,137580
4.62153,139284
4.62965,135389
4.63778,124415
4.64590,137031
4.65402,127270
4.66215,135755
4.67027,127801
4.67838,134392
4.68652,129608
4.69463,130117
4.70277,125113
4.71088,120035
4.71900,129053
4.72713,128474
4.73525,122794
4.74338,124731
4.75150,120560
4.75962,118887
4.76775,126405
4.77587,119646
4.78400,125524
4.79212,123531
4.80023,122283
4.80837,120193
4.81648,127169
4.82460,118407
4.83273,118697
4.84085,120931
4.84898,118717
4.85710,121778
4.86522,118850
4.87335,118683
4.88147,112973
4.88960,116772
4.89772,120851
4.90583,120754
4.91397,111443
4.92208,113642
4.93020,112788
4.93833,115717
4.94645,140282
4.95458,216569
4.96270,447007
4.97082,792778
4.97895,1161364
4.98707,1304536
4.99520,1243074
5.00332,1118142
5.01143,966238
5.01957,832088
5.02768,734240
5.03582,679245
5.04393,609656
5.05205,572923
5.06018,537682
5.06830,495512
5.07642,471423
5.08455,462998
5.09267,426869
5.10080,414357
5.10892,404915
5.11703,374715
5.12517,353572
5.13328,362005
5.14142,344077
5.14953,335569
5.15765,328093
5.16578,321335
5.17390,307623
5.18202,301468
5.19015,292823
5.19827,295049
5.20640,280506
5.21452,278155
5.22263,269881
5.23077,262762
5.23888,267951
5.24702,262654
5.25513,269541
5.26325,258092
5.27138,247405
5.27950,246865
5.28763,238371
5.29575,237516
5.30387,226847
5.31200,228694
5.32012,215993
5.32823,219174
5.33637,212997
5.34448,218177
5.35262,210901
5.36073,208124
5.36885,202697
5.37698,212178
5.38510,210240
5.39323,203957
5.40135,193333
5.40947,197644
5.41760,189477
5.42572,189835
5.43385,196316
5.44197,186085
5.45008,190413
5.45822,183242
5.46633,179839
5.47445,178602
5.48258,179585
5.49070,173220
5.49883,171690
5.50695,172498
5.51507,172363
5.52320,169213
5.53132,169444
5.53945,166357
5.54757,165515
5.55568,166144
5.56382,159619
5.57193,162773
5.58005,160007
5.58818,163128
5.59630,166717
5.60443,164709
5.61255,171782
5.62067,169511
5.62880,173315
5.63692,190522
5.64505,207639
5.65317,221340
5.66128,220770
5.66942,213949
5.67753,208132
5.68567,202118
5.69378,207872
5.70190,210216
5.71003,210044
5.71815,208213
5.72627,188418
5.73440,187318
5.74252,181702
5.75065,170139
5.75877,167373
5.76688,163217
5.77502,169191
5.78313,161926
5.79127,164083
5.79938,161103
5.80750,164742
5.81563,150313
5.82375,147442
5.83188,156089
5.84000,148129
5.84812,147439
5.85625,140226
5.86437,143151
5.87248,144246
5.88062,144857
5.88873,138867
5.89687,134617
5.90498,142142
5.91310,134188
5.92123,129944
5.92935,105605
5.93748,105987
5.94560,101044
5.95372,104025
5.96185,103712
5.96997,98627
5.97808,100970
5.98622,109390
5.99433,116226
6.00247,117356
6.01058,111399
6.01870,116229
6.02683,102445
6.03495,111021
6.04308,100714
6.05120,102782
6.05932,97808
6.06745,99217
6.07557,100524
6.08370,100343
6.09182,96818
6.09993,98305
6.10807,92857
6.11618,94831
6.12430,99784
6.13243,97169
6.14055,94981
6.14868,98966
6.15680,95796
6.16492,94347
6.17305,102152
6.18117,96081
6.18930,106782
6.19742,107065
6.20553,102761
6.21367,104547
6.22178,105545
6.22990,112828
6.23803,106512
6.24615,109050
6.25428,115708
6.26240,112196
6.27052,109871
6.27865,115335
6.28677,113439
6.29490,121146
6.30302,125472
6.31113,115771
6.31927,121174
6.32738,118433
6.33552,117969
6.34363,128976
6.35175,129064
6.35988,135519
6.36800,126784
6.37612,134702
6.38425,126213
6.39237,113250
6.40050,109650
6.40862,103875
6.41673,98071
6.42487,104973
6.43298,100886
6.44112,96819
6.44923,93974
6.45735,92746
6.46548,93686
6.47360,88477
6.48173,92694
6.48985,92851
6.49797,90095
6.50610,90545
6.51422,88222
6.52233,98471
6.53047,90679
6.53858,85939
6.54672,83478
6.55483,88143
6.56295,84375
6.57108,87917
6.57920,85509
6.58733,81956
6.59545,82333
6.60357,90197
6.61170,80811
6.61982,80753
6.62795,80257
6.63607,81194
6.64418,80702
6.65232,83736
6.66043,77782
6.66855,79402
6.67668,77059
6.68480,83832
6.69293,80579
6.70105,78923
6.70917,84239
6.71730,74977
6.72542,80160
6.73355,73719
6.74167,77325
6.74978,76371
6.75792,74658
6.76603,74065
6.77415,75555
6.78228,74842
6.79040,71699
6.79853,72610
6.80665,79043
6.81477,72188
6.82290,71368
6.83102,70549
6.83915,69641
6.84727,70133
6.85538,70535
6.86352,62709
6.87163,59117
6.87977,50279
6.88788,50831
6.89600,51727
6.90413,55731
6.91225,50078
6.92037,56041
6.92850,53792
6.93662,52113
6.94475,51627
6.95287,50707
6.96098,50519
6.96912,48037
6.97723,46741
6.98537,52961
6.99348,46634
7.00160,46842
7.00973,45856
7.01785,46909
7.02597,48057
7.03410,44843
7.04222,44324
7.05035,41571
7.05847,45496
7.06658,46464
7.07472,41738
7.08283,44566
7.09097,46129
7.09908,45297
7.10720,46602
7.11533,41640
7.12345,45603
7.13158,42124
7.13970,44033
7.14782,42975
7.15595,45365
7.16407,49113
7.17218,43344
7.18032,41932
7.18843,46760
7.19657,42923
7.20468,40760
7.21280,40810
7.22093,43056
7.22905,41963
7.23718,43496
7.24530,44695
7.25342,45310
7.26155,43560
7.26967,45531
7.27780,43648
7.28592,42347
7.29403,43744
7.30217,42255
7.31028,43973
7.31840,43415
7.32653,43462
7.33465,39644
7.34278,40778
7.35090,40202
7.35902,44982
7.36715,46476
7.37527,42106
7.38340,38845
7.39152,44046
7.39963,43931
7.40777,43251
7.41588,39852
7.42400,44340
7.43213,39472
7.44025,40991
7.44838,40201
7.45650,38737
7.46462,40238
7.47275,41002
7.48087,45512
7.48900,49878
7.49712,53053
7.50523,59645
7.51337,59141
7.52148,60577
7.52962,54109
7.53773,55007
7.54585,54118
7.55398,53823
7.56210,53997
7.57022,50506
7.57835,46895
7.58647,49081
7.59460,43780
7.60272,45714
7.61083,48007
7.61897,46441
7.62708,44622
7.63522,41606
7.64333,48833
7.65145,41458
7.65958,41821
7.66770,44588
7.67583,42639
7.68395,42426
7.69207,38192
7.70020,38982
7.70832,41675
7.71643,38706
7.72457,42196
7.73268,40624
7.74082,44177
7.74893,40022
7.75705,38290
7.76518,39043
7.77330,44177
7.78143,39950
7.78955,40770
7.79767,40977
7.80580,38330
7.81392,40989
7.82203,42519
7.83017,40244
7.83828,38309
7.84642,43868
7.85453,41507
7.86265,38680
7.87078,38192
7.87890,38806
7.88703,40492
7.89515,44756
7.90327,37802
7.91140,37268
7.91952,37852
7.92765,36627
7.93577,39625
7.94388,41848
7.95202,40723
7.96013,40224
7.96825,36788
7.97638,39652
7.98450,43161
7.99263,40577
8.00075,42014
8.00887,41107
8.01700,42235
8.02512,44838
8.03325,41681
8.04137,40934
8.04948,43281
8.05762,41888
8.06573,38380
8.07385,40920
8.08198,37467
8.09010,41862
8.09823,40567
8.10635,39669
8.11447,39900
8.12260,36378
8.13072,40243
8.13885,38961
8.14697,43541
8.15508,42820
8.16322,38020
8.17133,38202
8.17947,37305
8.18758,37597
8.19570,38847
8.20383,43649
8.21195,41072
8.22007,40721
8.22820,45169
8.23632,42865
8.24445,40337
8.25257,39911
8.26068,39181
8.26882,39023
8.27693,37309
8.28507,35441
8.29318,37201
8.30130,38042
8.30943,39482
8.31755,37336
8.32568,36324
8.33380,36345
8.34192,35501
8.35005,34427
8.35817,38486
8.36628,38194
8.37442,41921
8.38253,41138
8.39067,46266
8.39878,46029
8.40690,44646
8.41503,44586
8.42315,42631
8.43128,41202
8.43940,43612
8.44752,39611
8.45565,37872
8.46377,40016
8.47188,39299
8.48002,40467
8.48813,35637
8.49627,38336
8.50438,40466
8.51250,39064
8.52063,36944
8.52875,41051
8.53688,40578
8.54500,40214
8.55312,39531
8.56125,39709
8.56937,38096
8.57750,34615
8.58562,34699
8.59373,39898
8.60187,37717
8.60998,36632
8.61810,35220
8.62623,36146
8.63435,37970
8.64248,40039
8.65060,36721
8.65872,39196
8.66685,39934
8.67497,37143
8.68310,39180
8.69122,38385
8.69933,36327
8.70747,34071
8.71558,30812
8.72372,33407
8.73183,36925
8.73995,35658
8.74808,34453
8.75620,32390
8.76432,36288
8.77245,38662
8.78057,42629
8.78870,60801
8.79682,110023
8.80493,181670
8.81307,269420
8.82118,327367
8.82932,341664
8.83743,317837
8.84555,270626
8.85368,233869
8.86180,194706
8.86992,180850
8.87805,165649
8.88617,154089
8.89430,140267
8.90242,130972
8.91053,115119
8.91867,117235
8.92678,113376
8.93492,102334
8.94303,101135
8.95115,97602
8.95928,91421
8.96740,91246
8.97553,90786
8.98365,89399
8.99177,85050
8.99990,84148
9.00802,87136
9.01613,83837
9.02427,76951
9.03238,79457
9.04052,73211
9.04863,74441
9.05675,69306
9.06488,68687
9.07300,68331
9.08113,70376
9.08925,69084
9.09737,69649
9.10550,62623
9.11362,63664
9.12175,67860
9.12987,63749
9.13798,65950
9.14612,63646
9.15423,65274
9.16235,63892
9.17048,62173
9.17860,59996
9.18673,57553
9.19485,60079
9.20297,57569
9.21110,62501
9.21922,65372
9.22735,61550
9.23547,65381
9.24358,63862
9.25172,62965
9.25983,59725
9.26795,63500
9.27608,55897
9.28420,54360
9.29233,54389
9.30045,59021
9.30857,55070
9.31670,54497
9.32482,55867
9.33295,55583
9.34107,53934
9.34918,57679
9.35732,59675
9.36543,58185
9.37357,64886
9.38168,59193
9.38980,61412
9.39793,51134
9.40605,51819
9.41417,51839
9.42230,55000
9.43042,53126
9.43855,52467
9.44667,49849
9.45478,51866
9.46292,49598
9.47103,48249
9.47917,48962
9.48728,45964
9.49540,39971
9.50353,44438
9.51165,45456
9.51977,45518
9.52790,49452
9.53602,49095
9.54415,50822
9.55227,49779
9.56038,52922
9.56852,54198
9.57663,52936
9.58477,53046
9.59288,51685
9.60100,48569
9.60913,52837
9.61725,43329
9.62538,48633
9.63350,45827
9.64162,46913
9.64975,47829
9.65787,45049
9.66598,42468
9.67412,40561
9.68223,42271
9.69037,40884
9.69848,38168
9.70660,40089
9.71473,41045
9.72285,36335
9.73098,39796
9.73910,37636
9.74722,40556
9.75535,36182
9.76347,37814
9.77160,36000
9.77972,37342
9.78783,34444
9.79597,34801
9.80408,36391
9.81220,36538
9.82033,38958
9.82845,36914
9.83658,37677
9.84470,40097
9.85282,39443
9.86095,40137
9.86907,40130
9.87720,37449
9.88532,42791
9.89343,40869
9.90157,39358
9.90968,36776
9.91780,34357
9.92593,32415
9.93405,37590
9.94218,37551
9.95030,38220
9.95842,35404
9.96655,34925
9.97467,37980
9.98280,35654
9.99092,35614
9.99903,36279
10.00717,41551
10.01528,49227
10.02342,45254
10.03153,46517
10.03965,51827
10.04778,54271
10.05590,50568
10.06402,50927
10.07215,50747
10.08027,51610
10.08840,47439
10.09652,48802
10.10463,45845
10.11277,43651
10.12088,42491
10.12902,39259
10.13713,43858
10.14525,41633
10.15338,40669
10.16150,43266
10.16963,40582
10.17775,40763
10.18587,37858
10.19400,35233
10.20212,35944
10.21023,38333
10.21837,40553
10.22648,35725
10.23462,39516
10.24273,46019
10.25085,44969
10.25898,47510
10.26710,48348
10.27523,44560
10.28335,47288
10.29147,47980
10.29960,48516
10.30772,44503
10.31583,49299
10.32397,44555
10.33208,50407
10.34022,49765
10.34833,40125
10.35645,44215
10.36458,45000
10.37270,41299
10.38083,40750
10.38895,41744
10.39707,43388
10.40520,41261
10.41332,37669
10.42145,37787
10.42957,35587
10.43768,41942
10.44582,36459
10.45393,37079
10.46205,40589
10.47018,35553
10.47830,35185
10.48643,37145
10.49455,37075
10.50267,33444
10.51080,37343
10.51892,35179
10.52705,35986
10.53517,36358
10.54328,37676
10.55142,37066
10.55953,34627
10.56765,32587
10.57578,34916
10.58390,35246
10.59203,35222
10.60015,36449
10.60827,37825
10.61640,31412
10.62452,31231
10.63265,35529
10.64077,35134
10.64888,31540
10.65702,36452
10.66513,32309
10.67327,33302
10.68138,30993
10.68950,31541
10.69763,29828
10.70575,33215
10.71387,36034
10.72200,39059
10.73012,35261
10.73825,35486
10.74637,31421
10.75448,32410
10.76262,37379
10.77073,32573
10.77887,39511
10.78698,36391
10.79510,34655
10.80323,40712
10.81135,35431
10.81948,35651
10.82760,34865
10.83572,35505
10.84385,34068
10.85197,35146
10.86008,30845
10.86822,32421
10.87633,35120
10.88447,35633
10.89258,34885
10.90070,30931
10.90883,31367
10.91695,34339
10.92508,30567
10.93320,29258
10.94132,30814
10.94945,31181
10.95757,31254
10.96568,30923
10.97382,32789
10.98193,30625
10.99007,26758
10.99818,33028
11.00630,31566
11.01443,31739
11.02255,34811
11.03068,30863
11.03880,31111
11.04692,32307
11.05505,29234
11.06317,32098
11.07130,27559
11.07942,30829
11.08753,30912
11.09567,31341
11.10378,29927
11.11190,29557
11.12003,28482
11.12815,25332
11.13628,29501
11.14440,27160
11.15252,28211
11.16065,29397
11.16877,30765
11.17690,32307
11.18502,31587
11.19313,30388
11.20127,36837
11.20938,40279
11.21752,46176
11.22563,52339
11.23375,53739
11.24188,53209
11.25000,47808
11.25812,49065
11.26625,47055
11.27437,44127
11.28250,39954
11.29062,35448
11.29873,36491
11.30687,36344
11.31498,38882
11.32312,38184
11.33123,40185
11.33935,38636
11.34748,37856
11.35560,33796
11.36372,33151
11.37185,38500
11.37997,39392
11.38810,37112
11.39622,31818
11.40433,30519
11.41247,33020
11.42058,31558
11.42872,34554
11.43683,30691
11.44495,28178
11.45308,29219
11.46120,31710
11.46933,29456
11.47745,31716
11.48557,31366
11.49370,31260
11.50182,31224
11.50993,31015
11.51807,29982
11.52618,31382
11.53432,28702
11.54243,30799
11.55055,30698
11.55868,25846
11.56680,31885
11.57493,30942
11.58305,31521
11.59117,33283
11.59930,32009
11.60742,32434
11.61553,32822
11.62367,31504
11.63178,32758
11.63992,33611
11.64803,32749
11.65615,28698
11.66428,32784
11.67240,26988
11.68053,30316
11.68865,31417
11.69677,32123
11.70490,31903
11.71302,33995
11.72115,33300
11.72927,32225
11.73738,33876
11.74552,35195
11.75363,31004
11.76175,29067
11.76988,32448
11.77800,32288
11.78613,31423
11.79425,34389
11.80237,34985
11.81050,31955
11.81862,32545
11.82675,29751
11.83487,29218
11.84298,33012
11.85112,30803
11.85923,31978
11.86737,30026
11.87548,29812
11.88360,32906
11.89173,32616
11.89985,31944
11.90797,31394
11.91610,32623
11.92422,31595
11.93235,31583
11.94047,30940
11.94858,32710
11.95672,28702
11.96483,31796
11.97297,32224
11.98108,29567
11.98920,30843
11.99733,32411
12.00545,28311
12.01358,31390
12.02170,30770
12.02982,28968
12.03795,28049
12.04607,30557
12.05418,28294
12.06232,29656
12.07043,31610
12.07857,30282
12.08668,31812
12.09480,30409
12.10293,27590
12.11105,31546
12.11918,28313
12.12730,32813
12.13542,27902
12.14355,30886
12.15167,27397
12.15978,31906
12.16792,30127
12.17603,33839
12.18417,32027
12.19228,35488
12.20040,31002
12.20853,29364
12.21665,30478
12.22478,34561
12.23290,29339
12.24102,30289
12.24915,28985
12.25727,27456
12.26540,29331
12.27352,32382
12.28163,30487
12.28977,33192
12.29788,32389
12.30600,25554
12.31413,30316
12.32225,26410
12.33038,30616
12.33850,25863
12.34662,29130
12.35475,29442
12.36287,30947
12.37100,29887
12.37912,27385
12.38723,29388
12.39537,31163
12.40348,29002
12.41160,29820
12.41973,32266
12.42785,27142
12.43598,32056
12.44410,29820
12.45222,30224
12.46035,30462
12.46847,38646
12.47660,34290
12.48472,36716
12.49283,34926
12.50097,36369
12.50908,36200
12.51722,33101
12.52533,32341
12.53345,32878
12.54158,30232
12.54970,32382
12.55782,32796
12.56595,34207
12.57407,30923
12.58220,29964
12.59032,31993
12.59843,29714
12.60657,29893
12.61468,29695
12.62282,29264
12.63093,30376
12.63905,31169
12.64718,32498
12.65530,31419
12.66343,30230
12.67155,29537
12.67967,30883
12.68780,26436
12.69592,29990
12.70403,27448
12.71217,28268
12.72028,29302
12.72842,31128
12.73653,32463
12.74465,35446
12.75278,39919
12.76090,43653
12.76903,51476
12.77715,42977
12.78527,47581
12.79340,39893
12.80152,36231
12.80963,36909
12.81777,36384
12.82588,34743
12.83402,35383
12.84213,32546
12.85025,33001
12.85838,35517
12.86650,30194
12.87463,30994
12.88275,30142
12.89087,34373
12.89900,37899
12.90712,27062
12.91525,32445
12.92337,28955
12.93148,30278
12.93962,34432
12.94773,30920
12.95585,30258
12.96398,30117
12.97210,31730
12.98023,29689
12.98835,31622
12.99647,34262
13.00460,31881
13.01272,29619
13.02085,29272
13.02897,30144
13.03708,30392
13.04522,30849
13.05333,27967
13.06147,28434
13.06958,29927
13.07770,32029
13.08583,27817
13.09395,28984
13.10207,29056
13.11020,29889
13.11832,29279
13.12645,29269
13.13457,30317
13.14268,31695
13.15082,28752
13.15893,31234
13.16707,31838
13.17518,28507
13.18330,34211
13.19143,32060
13.19955,29903
13.20767,32944
13.21580,34720
13.22392,35702
13.23205,32790
13.24017,35398
13.24828,38334
13.25642,33940
13.26453,31682
13.27267,31955
13.28078,29399
13.28890,34202
13.29703,31005
13.30515,31509
13.31328,32203
13.32140,29978
13.32952,30998
13.33765,28023
13.34577,30296
13.35388,27953
13.36202,28208
13.37013,29835
13.37827,28262
13.38638,30460
13.39450,26952
13.40263,30814
13.41075,25859
13.41888,30576
13.42700,27603
13.43512,34897
13.44325,32744
13.45137,33727
13.45948,30037
13.46762,27319
13.47573,29181
13.48387,27872
13.49198,28129
13.50010,28064
13.50823,32540
13.51635,30542
13.52448,33247
13.53260,33366
13.54072,27076
13.54885,28508
13.55697,32332
13.56510,31278
13.57322,28073
13.58133,30144
13.58947,31391
13.59758,32129
13.60570,29234
13.61383,29072
13.62195,30252
13.63008,28134
13.63820,31406
13.64632,29144
13.65445,30941
13.66257,27899
13.67070,29431
13.67882,28049
13.68693,28106
13.69507,29758
13.70318,34962
13.71132,29604
13.71943,28941
13.72755,28299
13.73568,30918
13.74380,31888
13.75192,27674
13.76005,28188
13.76817,28750
13.77630,33072
13.78442,26543
13.79253,29040
13.80067,26498
13.80878,29886
13.81692,30336
13.82503,30366
13.83315,26962
13.84128,31059
13.84940,28561
13.85752,34213
13.86565,27917
13.87377,30421
13.88190,34430
13.89002,31960
13.89813,34706
13.90627,30188
13.91438,32210
13.92252,32420
13.93063,30431
13.93875,34415
13.94688,30247
13.95500,34276
13.96313,30440
13.97125,31236
13.97937,28090
13.98750,28849
13.99562,30872
14.00373,29776
14.01187,29094
14.01998,29792
14.02812,27618
14.03623,29190
14.04435,29598
14.05248,28193
14.06060,30090
14.06873,30353
14.07685,32254
14.08497,28741
14.09310,29619
14.10122,34522
14.10935,34435
14.11747,32589
14.12558,34749
14.13372,31115
14.14183,32816
14.14995,35098
14.15808,31817
14.16620,32028
14.17433,36342
14.18245,32989
14.19057,38774
14.19870,42681
14.20682,54901
14.21495,75170
14.22307,93722
14.23118,112190
14.23932,104356
14.24743,99984
14.25555,95281
14.26368,81983
14.27180,86703
14.27993,79083
14.28805,70796
14.29617,69018
14.30430,60444
14.31242,59640
14.32055,50744
14.32867,50907
14.33678,48602
14.34492,46869
14.35303,43046
14.36117,43718
14.36928,43108
14.37740,40888
14.38553,35963
14.39365,30861
14.40177,34570
14.40990,32614
14.41802,30058
14.42615,32816
14.43427,32003
14.44238,34540
14.45052,34587
14.45863,30417
14.46677,31143
14.47488,31858
14.48300,33988
14.49113,29641
14.49925,28405
14.50738,29968
14.51550,32425
14.52362,32517
14.53175,27834
14.53987,28302
14.54798,33745
14.55612,31553
14.56423,30458
14.57237,32596
14.58048,31561
14.58860,33593
14.59673,36051
14.60485,31531
14.61298,33892
14.62110,31099
14.62922,30718
14.63735,28528
14.64547,28343
14.65358,24522
14.66172,25615
14.66983,29115
14.67797,29103
14.68608,28540
14.69420,28195
14.70233,26055
14.71045,31087
14.71858,25485
14.72670,28534
14.73482,27687
14.74295,32661
14.75107,27288
14.75920,29732
14.76732,31974
14.77543,29867
14.78357,30073
14.79168,29530
14.79980,27506
14.80793,30486
14.81605,30101
14.82418,29685
14.83230,26060
14.84042,28521
14.84855,25021
14.85667,27497
14.86480,26276
14.87292,31179
14.88103,27035
14.88917,30228
14.89728,28306
14.90540,31007
14.91353,28048
14.92165,32851
14.92978,26693
14.93790,30961
14.94602,27134
14.95415,29220
14.96227,27858
14.97040,29281
14.97852,26695
14.98663,30398
14.99477,30244
15.00288,26378
15.01102,26946
15.01913,30487
15.02725,28886
15.03538,26230
15.04350,28066
15.05162,27976
15.05975,27811
15.06787,27631
15.07600,25876
15.08412,28638
15.09223,26017
15.10037,24773
15.10848,26316
15.11662,32643
15.12473,29112
15.13285,30638
15.14098,24241
15.14910,25952
15.15723,29071
15.16535,24587
15.17347,28943
15.18160,24850
15.18972,26048
15.19783,28407
15.20597,26801
15.21408,25032
15.22222,26084
15.23033,24929
15.23845,26880
15.24658,26800
15.25470,27876
15.26283,27342
15.27095,24320
15.27907,27029
15.28720,26872
15.29532,26603
15.30343,28480
15.31157,24260
15.31968,27902
15.32782,27130
15.33593,26297
15.34405,26473
15.35218,27203
15.36030,25971
15.36843,23705
15.37655,25716
15.38467,23646
15.39280,30606
15.40092,24818
15.40905,24228
15.41717,26125
15.42528,28549
15.43342,25592
15.44153,25510
15.44965,25591
15.45778,27768
15.46590,24226
15.47403,24340
15.48215,31574
15.49027,25710
15.49840,25671
15.50652,28020
15.51465,25359
15.52277,31175
15.53088,25690
15.53902,27741
15.54713,29038
15.55527,27535
15.56338,27756
15.57150,31682
15.57963,26671
15.58775,25027
15.59587,27517
15.60400,22413
15.61212,23968
15.62025,25848
15.62837,28034
15.63648,24703
15.64462,24290
15.65273,28763
15.66087,24679
15.66898,26479
15.67710,26012
15.68523,25019
15.69335,26976
15.70147,25745
15.70960,23459
15.71772,27278
15.72585,24734
15.73397,24201
15.74208,22609
15.75022,26191
15.75833,27464
15.76647,26647
15.77458,27493
15.78270,25904
15.79083,25825
15.79895,24667
15.80708,26831
15.81520,25135
15.82332,25348
15.83145,26152
15.83957,27668
15.84768,27129
15.85582,26991
15.86393,30352
15.87207,25830
15.88018,24978
15.88830,27928
15.89643,28060
15.90455,29177
15.91268,28603
15.92080,27020
15.92892,22393
15.93705,23091
15.94517,23474
15.95328,30089
15.96142,24255
15.96953,26623
15.97767,25000
15.98578,28871
15.99390,26071
16.00203,27403
16.01015,29625
16.01828,33403
16.02640,39507
16.03452,47513
16.04265,56605
16.05077,58132
16.05890,59543
16.06702,62257
16.07513,55228
16.08327,46663
16.09138,39278
16.09950,34152
16.10763,33286
16.11575,33632
16.12388,31522
16.13200,33185
16.14012,29945
16.14825,26752
16.15637,33552
16.16450,31610
16.17262,28013
16.18073,28239
16.18887,27719
16.19698,33106
16.20512,30538
16.21323,27487
16.22135,28197
16.22948,29537
16.23760,27542
16.24572,30218
16.25385,29351
16.26197,27301
16.27010,25781
16.27822,29096
16.28633,30403
16.29447,26184
16.30258,29484
16.31072,29841
16.31883,32995
16.32695,24931
16.33508,28007
16.34320,29056
16.35132,28894
16.35945,28997
16.36757,28001
16.37570,25023
16.38382,28785
16.39193,26914
16.40007,27930
16.40818,29784
16.41632,27642
16.42443,35405
16.43255,27403
16.44068,28288
16.44880,25370
16.45693,25262
16.46505,23459
16.47317,23881
16.48130,27682
16.48942,26599
16.49753,28480
16.50567,26989
16.51378,27173
16.52192,25565
16.53003,25910
16.53815,29022
16.54628,29906
16.55440,28329
16.56253,26809
16.57065,26241
16.57877,25148
16.58690,27542
16.59502,25715
16.60315,28046
16.61127,27281
16.61938,30370
16.62752,24538
16.63563,24967
16.64375,25423
16.65188,27450
16.66000,25252
16.66813,24976
16.67625,30009
16.68437,27287
16.69250,27400
16.70062,25332
16.70875,25644
16.71687,24462
16.72498,26084
16.73312,25494
16.74123,24516
16.74935,27965
16.75748,24987
16.76560,25023
16.77373,22756
16.78185,26952
16.78997,27344
16.79810,23950
16.80622,27461
16.81435,24019
16.82247,24618
16.83058,25786
16.83872,24912
16.84683,23757
16.85497,23268
16.86308,28538
16.87120,22456
16.87933,28445
16.88745,26084
16.89557,25246
16.90370,25569
16.91182,23973
16.91995,23855
16.92807,26364
16.93618,25371
16.94432,27286
16.95243,25819
16.96057,27232
16.96868,26463
16.97680,26979
16.98493,22766
16.99305,23101
17.00118,28239
17.00930,24331
17.01742,23624
17.02555,24881
17.03367,26090
17.04178,25607
17.04992,23988
17.05803,23064
17.06617,24262
17.07428,25327
17.08240,30210
17.09053,23521
17.09865,24754
17.10678,23435
17.11490,24088
17.12302,27592
17.13115,27773
17.13927,27163
17.14738,29263
17.15552,34610
17.16363,28686
17.17177,25601
17.17988,27404
17.18800,27997
17.19613,26449
17.20425,22154
17.21238,25454
17.22050,27451
17.22862,23591
17.23675,27380
17.24487,24352
17.25300,27848
17.26112,25312
17.26923,27285
17.27737,26232
17.28548,25829
17.29360,23394
17.30173,26190
17.30985,29356
17.31798,28203
17.32610,25459
17.33422,26631
17.34235,23409
17.35047,25305
17.35860,23132
17.36672,27118
17.37483,26086
17.38297,26013
17.39108,27253
17.39922,27636
17.40733,26480
17.41545,30691
17.42358,25503
17.43170,25415
17.43982,24758
17.44795,23972
17.45607,23813
17.46420,26826
17.47232,24179
17.48043,22598
17.48857,22786
17.49668,26153
17.50482,24395
17.51293,22815
17.52105,23199
17.52918,28420
17.53730,25689
17.54542,27106
17.55355,26842
17.56167,33459
17.56980,29254
17.57792,29056
17.58603,28666
17.59417,25159
17.60228,30865
17.61042,24383
17.61853,26304
17.62665,25826
17.63478,25247
17.64290,22267
17.65103,23002
17.65915,28463
17.66727,24963
17.67540,23903
17.68352,24875
17.69163,27189
17.69977,31740
17.70788,25751
17.71602,26616
17.72413,28136
17.73225,28152
17.74038,26434
17.74850,28802
17.75663,29896
17.76475,29182
17.77287,27274
17.78100,25689
17.78912,28373
17.79723,27835
17.80537,23522
17.81348,25407
17.82162,28612
17.82973,28804
17.83785,24186
17.84598,29387
17.85410,27408
17.86223,31131
17.87035,33386
17.87847,34233
17.88660,28989
17.89472,29139
17.90285,30684
17.91097,29608
17.91908,24683
17.92722,26537
17.93533,25850
17.94345,26670
17.95158,25838
17.95970,26943
17.96783,24110
17.97595,27352
17.98407,25546
17.99220,25995
18.00032,23781
18.00845,26294
18.01657,24305
18.02468,25162
18.03282,23567
18.04093,23738
18.04907,25466
18.05718,27311
18.06530,24917
18.07343,29154
18.08155,30944
18.08967,28326
18.09780,31477
18.10592,29815
18.11405,31307
18.12217,32458
18.13028,33127
18.13842,25746
18.14653,24582
18.15467,26495
18.16278,26820
18.17090,28174
18.17903,28935
18.18715,26302
18.19527,25709
18.20340,28430
18.21152,26236
18.21965,25795
18.22777,30082
18.23588,28090
18.24402,31694
18.25213,30685
18.26027,29905
18.26838,35808
18.27650,36765
18.28463,35860
18.29275,39842
18.30088,35797
18.30900,33012
18.31712,35187
18.32525,30732
18.33337,26990
18.34148,27266
18.34962,28097
18.35773,27726
18.36587,24668
18.37398,27664
18.38210,28103
18.39023,27573
18.39835,26448
18.40648,27201
18.41460,29358
18.42272,29817
18.43085,28353
18.43897,22859
18.44710,23822
18.45522,28043
18.46333,26018
18.47147,24732
18.47958,19496
18.48770,25101
18.49583,26332
18.50395,23981
18.51208,25169
18.52020,23472
18.52832,24077
18.53645,27282
18.54457,26307
18.55270,24720
18.56082,23422
18.56893,24634
18.57707,23663
18.58518,24295
18.59330,25061
18.60143,23353
18.60955,25975
18.61768,25988
18.62580,25161
18.63392,23766
18.64205,25097
18.65017,23890
18.65830,26824
18.66642,27121
18.67453,24501
18.68267,23390
18.69078,24508
18.69892,25407
18.70703,24578
18.71515,24029
18.72328,22622
18.73140,24184
18.73952,25200
18.74765,30548
18.75577,26776
18.76390,24873
18.77202,23781
18.78013,23193
18.78827,24219
18.79638,26061
18.80452,23651
18.81263,22376
18.82075,24246
18.82888,21146
18.83700,25507
18.84512,25445
18.85325,28241
18.86137,24577
18.86950,24597
18.87762,25373
18.88573,27299
18.89387,24552
18.90198,25199
18.91012,26122
18.91823,25004
18.92635,23163
18.93448,22782
18.94260,24454
18.95073,28743
18.95885,23223
18.96697,24319
18.97510,27563
18.98322,24951
18.99133,24796
18.99947,27137
19.00758,22691
19.01572,23862
19.02383,26742
19.03195,22245
19.04008,26358
19.04820,23573
19.05633,24391
19.06445,24158
19.07257,24509
19.08070,23906
19.08882,26569
19.09695,31096
19.10507,33643
19.11318,32740
19.12132,39578
19.12943,44932
19.13755,36719
19.14568,36873
19.15380,33159
19.16193,33255
19.17005,34298
19.17817,35339
19.18630,32059
19.19442,35854
19.20255,32731
19.21067,32382
19.21878,30213
19.22692,28719
19.23503,29103
19.24315,28518
19.25128,26778
19.25940,28168
19.26753,30770
19.27565,35952
19.28377,44098
19.29190,57460
19.30002,68952
19.30815,86095
19.31627,85954
19.32438,80861
19.33252,78139
19.34063,62406
19.34877,56182
19.35688,45950
19.36500,40701
19.37313,37556
19.38125,35613
19.38937,34133
19.39750,37675
19.40562,38835
19.41375,36762
19.42187,33423
19.42998,30389
19.43812,31242
19.44623,30315
19.45437,31286
19.46248,29677
19.47060,28190
19.47873,30369
19.48685,28066
19.49498,32117
19.50310,34681
19.51122,42370
19.51935,57661
19.52747,58657
19.53558,60245
19.54372,62333
19.55183,47500
19.55997,43621
19.56808,36643
19.57620,33218
19.58433,36030
19.59245,32227
19.60058,27217
19.60870,25563
19.61682,26661
19.62495,29489
19.63307,30766
19.64118,37936
19.64932,67437
19.65743,102468
19.66557,156257
19.67368,228482
19.68180,281904
19.68993,312050
19.69805,305513
19.70618,288655
19.71430,246679
19.72242,195799
19.73055,171101
19.73867,141730
19.74680,124578
19.75492,104976
19.76303,96228
19.77117,85901
19.77928,82334
19.78740,70677
19.79553,72387
19.80365,67872
19.81178,69998
19.81990,65907
19.82802,65718
19.83615,67378
19.84427,62584
19.85240,59657
19.86052,58958
19.86863,63415
19.87677,62392
19.88488,66707
19.89302,72897
19.90113,82118
19.90925,84089
19.91738,88611
19.92550,94872
19.93362,93453
19.94175,88903
19.94987,84519
19.95800,81173
19.96612,77462
19.97423,80450
19.98237,74117
19.99048,75117
19.99862,73630
20.00673,70963
20.01485,71560
20.02298,72060
20.03110,68824
20.03922,68626
20.04735,70034
20.05547,64632
20.06360,59606
20.07172,58415
20.07983,57217
20.08797,62306
20.09608,56904
20.10422,51160
20.11233,57432
20.12045,58399
20.12858,51002
20.13670,53081
20.14483,53115
20.15295,54849
20.16107,52131
20.16920,48211
20.17732,51099
20.18543,52459
20.19357,46329
20.20168,51008
20.20982,53285
20.21793,50074
20.22605,47974
20.23418,50654
20.24230,51331
20.25043,60630
20.25855,80379
20.26667,117301
20.27480,176224
20.28292,241759
20.29103,324987
20.29917,358584
20.30728,359311
20.31542,320234
20.32353,249449
20.33165,202139
20.33978,151486
20.34790,114247
20.35603,103778
20.36415,84524
20.37227,78183
20.38040,75456
20.38852,66418
20.39665,61938
20.40477,60737
20.41288,60347
20.42102,65819
20.42913,70702
20.43725,78900
20.44538,96628
20.45350,106642
20.46163,119513
20.46975,108394
20.47787,111175
20.48600,93910
20.49412,84248
20.50225,75956
20.51037,66763
20.51848,59684
20.52662,52834
20.53473,50866
20.54287,51669
20.55098,47387
20.55910,49065
20.56723,47156
20.57535,50134
20.58347,49327
20.59160,45584
20.59972,43399
20.60785,43215
20.61597,46434
20.62408,44061
20.63222,43137
20.64033,40935
20.64847,42111
20.65658,38076
20.66470,40562
20.67283,39117
20.68095,44034
20.68907,39050
20.69720,43620
20.70532,41436
20.71345,41185
20.72157,40144
20.72968,40098
20.73782,40522
20.74593,38194
20.75407,36453
20.76218,36648
20.77030,39906
20.77843,37590
20.78655,39710
20.79468,36741
20.80280,35318
20.81092,36412
20.81905,37729
20.82717,35862
20.83528,37964
20.84342,36086
20.85153,32307
20.85967,37071
20.86778,36526
20.87590,34673
20.88403,32338
20.89215,36801
20.90028,35731
20.90840,37534
20.91652,34915
20.92465,37905
20.93277,35652
20.94090,31500
20.94902,34686
20.95713,31359
20.96527,36289
20.97338,33953
20.98150,36446
20.98963,36385
20.99775,32360
21.00588,32830
21.01400,35754
21.02212,36111
21.03025,34020
21.03837,39374
21.04650,30731
21.05462,33082
21.06273,30734
21.07087,28822
21.07898,33564
21.08710,34030
21.09523,30302
21.10335,29623
21.11148,31343
21.11960,33967
21.12772,32281
21.13585,31161
21.14397,33691
21.15210,33097
21.16022,32802
21.16833,33540
21.17647,38482
21.18458,34877
21.19272,30972
21.20083,32865
21.20895,37499
21.21708,33086
21.22520,32842
21.23332,31160
21.24145,30010
21.24957,29033
21.25770,31980
21.26582,33359
21.27393,32679
21.28207,32819
21.29018,31198
21.29832,31175
21.30643,31534
21.31455,33435
21.32268,31983
21.33080,31412
21.33892,29927
21.34705,30504
21.35517,35121
21.36330,29325
21.37142,30060
21.37953,31356
21.38767,31928
21.39578,28122
21.40392,29280
21.41203,33754
21.42015,30925
21.42828,29641
21.43640,33298
21.44453,33409
21.45265,32767
21.46077,34786
21.46890,34892
21.47702,31760
21.48513,38774
21.49327,29916
21.50138,31711
21.50952,28441
21.51763,30756
21.52575,29791
21.53388,30849
21.54200,31497
21.55013,30153
21.55825,26797
21.56637,30019
21.57450,30167
21.58262,30027
21.59075,26766
21.59887,30561
21.60698,33892
21.61512,36291
21.62323,37042
21.63135,47448
21.63948,58910
21.64760,72524
21.65573,88854
21.66385,80874
21.67197,78974
21.68010,69623
21.68822,58308
21.69635,46314
21.70447,44970
21.71258,41707
21.72072,37412
21.72883,36145
21.73697,31964
21.74508,32144
21.75320,29745
21.76133,32195
21.76945,30070
21.77757,32366
21.78570,32835
21.79382,31166
21.80195,32872
21.81007,31764
21.81818,39310
21.82632,41710
21.83443,50987
21.84257,63931
21.85068,69262
21.85880,73661
21.86693,73173
21.87505,62488
21.88317,53071
21.89130,49600
21.89942,39204
21.90755,32801
21.91567,35586
21.92378,34620
21.93192,28753
21.94003,29687
21.94817,31282
21.95628,30702
21.96440,28881
21.97253,30530
21.98065,31429
21.98878,30894
21.99690,27337
22.00502,29612
22.01315,26815
22.02127,28356
22.02938,29489
22.03752,29062
22.04563,29254
22.05377,30326
22.06188,28949
22.07000,29906
22.07813,29488
22.08625,29612
22.09438,32781
22.10250,30417
22.11062,31641
22.11875,31978
22.12687,26080
22.13498,26709
22.14312,25541
22.15123,29189
22.15937,28216
22.16748,29077
22.17560,27745
22.18373,29126
22.19185,25495
22.19998,26228
22.20810,26730
22.21622,27417
22.22435,29416
22.23247,34370
22.24060,35957
22.24872,32848
22.25683,35413
22.26497,32675
22.27308,33133
22.28120,28390
22.28933,30671
22.29745,29077
22.30558,30136
22.31370,25444
22.32182,25965
22.32995,25071
22.33807,27041
22.34620,25021
22.35432,26236
22.36243,23823
22.37057,28724
22.37868,28245
22.38682,26750
22.39493,29865
22.40305,26426
22.41118,22930
22.41930,26384
22.42742,28051
22.43555,25175
22.44367,27050
22.45180,27438
22.45992,30368
22.46803,26247
22.47617,30514
22.48428,28218
22.49242,27783
22.50053,27277
22.50865,25928
22.51678,26965
22.52490,25103
22.53302,27129
22.54115,23526
22.54927,23478
22.55740,24846
22.56552,22419
22.57363,26811
22.58177,26668
22.58988,23379
22.59802,23171
22.60613,24835
22.61425,28604
22.62238,26591
22.63050,24239
22.63863,22393
22.64675,23842
22.65487,25186
22.66300,26142
22.67112,25340
22.67923,25993
22.68737,25958
22.69548,25624
22.70362,23730
22.71173,23944
22.71985,24329
22.72798,25766
22.73610,22297
22.74423,24962
22.75235,26366
22.76047,22067
22.76860,23072
22.77672,23459
22.78485,23672
22.79297,21358
22.80108,22550
22.80922,24462
22.81733,21820
22.82545,27708
22.83358,21727
22.84170,24925
22.84983,26193
22.85795,23036
22.86607,25021
22.87420,26936
22.88232,25088
22.89045,24479
22.89857,32709
22.90668,27738
22.91482,24485
22.92293,27220
22.93105,27723
22.93918,28195
22.94730,28267
22.95543,29415
22.96355,28041
22.97167,30657
22.97980,34664
22.98792,32819
22.99605,43192
23.00417,36981
23.01228,35029
23.02042,35562
23.02853,27363
23.03667,27758
23.04478,28778
23.05290,27047
23.06103,26955
23.06915,24674
23.07727,24913
23.08540,25692
23.09352,24869
23.10165,23280
23.10977,23962
23.11788,24787
23.12602,23925
23.13413,26975
23.14227,24547
23.15038,23891
23.15850,25684
23.16663,26420
23.17475,25578
23.18287,22794
23.19100,24216
23.19912,27061
23.20725,26377
23.21537,24009
23.22348,26109
23.23162,22948
23.23973,25678
23.24787,23178
23.25598,25346
23.26410,25521
23.27223,25963
23.28035,24180
23.28848,27586
23.29660,23138
23.30472,24984
23.31285,21534
23.32097,24296
23.32908,23128
23.33722,23384
23.34533,24374
23.35347,23684
23.36158,25425
23.36970,23390
23.37783,25582
23.38595,24564
23.39408,23858
23.40220,24630
23.41032,25684
23.41845,27520
23.42657,23477
23.43470,20110
23.44282,24517
23.45093,27344
23.45907,24826
23.46718,24684
23.47530,22787
23.48343,22072
23.49155,29573
23.49968,27096
23.50780,24326
23.51592,25169
23.52405,21581
23.53217,30399
23.54030,25270
23.54842,24763
23.55653,24721
23.56467,24371
23.57278,28880
23.58090,28324
23.58903,29474
23.59715,24292
23.60528,26112
23.61340,23762
23.62152,24251
23.62965,25151
23.63777,23944
23.64590,23658
23.65402,27660
23.66213,29314
23.67027,26434
23.67838,28220
23.68652,28532
23.69463,27775
23.70275,31565
23.71088,28127
23.71900,25898
23.72712,28111
23.73525,27558
23.74337,36519
23.75150,62567
23.75962,140171
23.76773,307007
23.77587,677100
23.78398,1402364
23.79212,2122565
23.80023,2586058
23.80835,2740964
23.81648,2412997
23.82460,1926211
23.83273,1385819
23.84085,991668
23.84897,724483
23.85710,561051
23.86522,445830
23.87333,364890
23.88147,306282
23.88958,250695
23.89772,231844
23.90583,195484
23.91395,186842
23.92208,172464
23.93020,155452
23.93833,148205
23.94645,138285
23.95457,131375
23.96270,120955
23.97082,113942
23.97893,108632
23.98707,101080
23.99518,100914
24.00332,101471
24.01143,94568
24.01955,89805
24.02768,85315
24.03580,85305
24.04393,81653
24.05205,79241
24.06017,77836
24.06830,69339
24.07642,70826
24.08455,69574
24.09267,68882
24.10078,64650
24.10892,63627
24.11703,70072
24.12515,64327
24.13328,60103
24.14140,66102
24.14953,72880
24.15765,79271
24.16577,74543
24.17390,67190
24.18202,68142
24.19015,64745
24.19827,57914
24.20638,57898
24.21452,58357
24.22263,63582
24.23075,61986
24.23888,64154
24.24700,68628
24.25513,61272
24.26325,62630
24.27137,59234
24.27950,53743
24.28762,54742
24.29575,60270
24.30387,51909
24.31198,55728
24.32012,51847
24.32823,49351
24.33637,45855
24.34448,47513
24.35260,49455
24.36073,46687
24.36885,44485
24.37697,43379
24.38510,40971
24.39322,48531
24.40135,49438
24.40947,55492
24.41758,57645
24.42572,54748
24.43383,51989
24.44197,51564
24.45008,46281
24.45820,48413
24.46633,45112
24.47445,43561
24.48258,44102
24.49070,42204
24.49882,43598
24.50695,46895
24.51507,48159
24.52318,53501
24.53132,54885
24.53943,52923
24.54757,48393
24.55568,50051
24.56380,46478
24.57193,45860
24.58005,39924
24.58818,40204
24.59630,35913
24.60442,36847
24.61255,37451
24.62067,41597
24.62878,42464
24.63692,42247
24.64503,40497
24.65317,42250
24.66128,43332
24.66940,43659
24.67753,45609
24.68565,37646
24.69378,36797
24.70190,39569
24.71002,38005
24.71815,36056
24.72627,38461
24.73440,36008
24.74252,31966
24.75063,36051
24.75877,33223
24.76688,37685
24.77500,34659
24.78313,35069
24.79125,33090
24.79938,36376
24.80750,36004
24.81562,32897
24.82375,32667
24.83187,31799
24.84000,33101
24.84812,35617
24.85623,31248
24.86437,34651
24.87248,32834
24.88062,35023
24.88873,36425
24.89685,33043
24.90498,30168
24.91310,33596
24.92122,32551
24.92935,30315
24.93747,35391
24.94560,34268
24.95372,36188
24.96183,33368
24.96997,31656
24.97808,40661
24.98622,30311
24.99433,34858
25.00245,31066
25.01058,29285
25.01870,36591
25.02682,33361
25.03495,34573
25.04307,29234
25.05120,29353
25.05932,26809
25.06743,31318
25.07557,32591
25.08368,33874
25.09182,28556
25.09993,33019
25.10805,31238
25.11618,35233
25.12430,30972
25.13243,30873
25.14055,30751
25.14867,30027
25.15680,31781
25.16492,29716
25.17303,33900
25.18117,34701
25.18928,32747
25.19742,34113
25.20553,31808
25.21365,33240
25.22178,32341
25.22990,30046
25.23803,37860
25.24615,32391
25.25427,31299
25.26240,31120
25.27052,34511
25.27865,34567
25.28677,39113
25.29488,30052
25.30302,35959
25.31113,40990
25.31925,44289
25.32738,42727
25.33550,38495
25.34363,42071
25.35175,41927
25.35987,39616
25.36800,36407
25.37612,32386
25.38425,30666
25.39237,30363
25.40048,30859
25.40862,29943
25.41673,27715
25.42485,31342
25.43298,28022
25.44110,30956
25.44923,30293
25.45735,32505
25.46547,31147
25.47360,30560
25.48172,33162
25.48985,37368
25.49797,38673
25.50608,42414
25.51422,35337
25.52233,37497
25.53047,31564
25.53858,35990
25.54670,30548
25.55483,31685
25.56295,27585
25.57107,30157
25.57920,31249
25.58732,30419
25.59545,26079
25.60357,33037
25.61168,30739
25.61982,31206
25.62793,31397
25.63607,29801
25.64418,28409
25.65230,27604
25.66043,24888
25.66855,28508
25.67667,26468
25.68480,27264
25.69292,27447
25.70105,29318
25.70917,28653
25.71728,31913
25.72542,27804
25.73353,25581
25.74167,32326
25.74978,26968
25.75790,27459
25.76603,28075
25.77415,27801
25.78228,30167
25.79040,31009
25.79852,29550
25.80665,29450
25.81477,28577
25.82288,30447
25.83102,32857
25.83913,30412
25.84727,25581
25.85538,25943
25.86350,25164
25.87163,29543
25.87975,28580
25.88788,28143
25.89600,25431
25.90412,30330
25.91225,27892
25.92037,27861
25.92850,27604
25.93662,29055
25.94473,28928
25.95287,29010
25.96098,27605
25.96910,27115
25.97723,28329
25.98535,29552
25.99348,26024
26.00160,27595
26.00972,27747
26.01785,26640
26.02597,26278
26.03410,27214
26.04222,26923
26.05033,27023
26.05847,27625
26.06658,28671
26.07470,31370
26.08283,27378
26.09095,27230
26.09908,30444
26.10720,28904
26.11532,30327
26.12345,33727
26.13157,36698
26.13970,40206
26.14782,39351
26.15593,39577
26.16407,41068
26.17218,35598
26.18032,34207
26.18843,37234
26.19655,31686
26.20468,26161
26.21280,31202
26.22092,29020
26.22905,25409
26.23717,27958
26.24530,28928
26.25342,29651
26.26153,30574
26.26967,25849
26.27778,24314
26.28592,25576
26.29403,27619
26.30215,30199
26.31028,27642
26.31840,27571
26.32653,26624
26.33465,26547
26.34277,30627
26.35090,29060
26.35902,26426
26.36713,28186
26.37527,30907
26.38338,28076
26.39152,25927
26.39963,24828
26.40775,26500
26.41588,26650
26.42400,25120
26.43213,23146
26.44025,24035
26.44837,25562
26.45650,24832
26.46462,28987
26.47273,26304
26.48087,29973
26.48898,25288
26.49712,29165
26.50523,27311
26.51335,27465
26.52148,27568
26.52960,23790
26.53773,25607
26.54585,24194
26.55397,27361
26.56210,31661
26.57022,27293
26.57835,28965
26.58647,25512
26.59458,28924
26.60272,26104
26.61083,27642
26.61895,27606
26.62708,26062
26.63520,22969
26.64333,27988
26.65145,30672
26.65957,31203
26.66770,28975
26.67582,30200
26.68395,30883
26.69207,30006
26.70018,33751
26.70832,29980
26.71643,29428
26.72455,31007
26.73268,29339
26.74080,25553
26.74893,25389
26.75705,27235
26.76517,29767
26.77330,27515
26.78142,26476
26.78955,28590
26.79767,28078
26.80578,29534
26.81392,30107
26.82203,31133
26.83017,31563
26.83828,26974
26.84640,27250
26.85453,30426
26.86265,26074
26.87077,31861
26.87890,32094
26.88702,30841
26.89515,29743
26.90327,26686
26.91138,30121
26.91952,30229
26.92763,31155
26.93577,30947
26.94388,31644
26.95200,30801
26.96013,38899
26.96825,51796
26.97638,105672
26.98450,215994
26.99262,435020
27.00075,838953
27.00887,1540180
27.01698,2574730
27.02512,3485175
27.03323,3852321
27.04137,3594243
27.04948,3016191
27.05760,2347246
27.06573,1749160
27.07385,1277808
27.08198,944804
27.09010,717606
27.09822,567189
27.10635,473871
27.11447,401752
27.12260,341502
27.13072,309880
27.13883,265392
27.14697,240658
27.15508,224579
27.16320,212121
27.17133,183394
27.17945,179537
27.18758,159847
27.19570,152470
27.20382,145158
27.21195,137913
27.22007,133564
27.22820,128822
27.23632,121391
27.24443,113287
27.25257,113297
27.26068,104531
27.26880,108055
27.27693,108119
27.28505,94192
27.29318,95796
27.30130,88934
27.30942,89576
27.31755,85017
27.32567,84116
27.33380,81571
27.34192,83149
27.35003,76041
27.35817,79890
27.36628,75320
27.37442,72851
27.38253,71746
27.39065,72468
27.39878,85736
27.40690,76033
27.41502,70361
27.42315,66243
27.43127,68471
27.43940,69129
27.44752,72560
27.45563,68764
27.46377,66222
27.47188,68902
27.48002,66973
27.48813,60826
27.49625,65927
27.50438,58765
27.51250,60027
27.52062,60871
27.52875,61584
27.53687,62912
27.54500,61758
27.55312,60303
27.56123,62224
27.56937,58692
27.57748,55550
27.58562,56256
27.59373,57558
27.60185,54168
27.60998,52654
27.61810,56810
27.62623,61675
27.63435,59082
27.64247,58610
27.65060,55772
27.65872,56518
27.66683,52778
27.67497,56003
27.68308,52575
27.69122,51459
27.69933,52603
27.70745,53004
27.71558,51568
27.72370,51850
27.73183,49162
27.73995,46496
27.74807,50094
27.75620,50866
27.76432,51736
27.77245,52087
27.78057,47493
27.78868,49546
27.79682,44207
27.80493,46174
27.81305,48949
27.82118,43789
27.82930,47887
27.83743,46722
27.84555,50136
27.85367,43914
27.86180,44659
27.86992,46929
27.87805,43484
27.88617,48515
27.89428,49759
27.90242,44376
27.91053,43882
27.91865,43591
27.92678,43661
27.93490,41507
27.94303,43147
27.95115,40998
27.95927,44632
27.96740,46433
27.97552,46868
27.98365,44030
27.99177,39347
27.99988,47297
28.00802,45767
28.01613,44957
28.02427,43755
28.03238,40427
28.04050,40191
28.04863,37648
28.05675,42515
28.06487,41003
28.07300,43630
28.08112,44878
28.08925,38903
28.09737,37996
28.10548,35929
28.11362,38402
28.12173,39314
28.12987,43211
28.13798,44275
28.14610,40611
28.15423,40993
28.16235,41452
28.17048,37774
28.17860,41514
28.18672,36468
28.19485,39566
28.20297,38279
28.21108,40328
28.21922,43091
28.22733,45007
28.23547,41749
28.24358,46429
28.25170,44672
28.25983,42282
28.26795,41144
28.27608,40149
28.28420,39866
28.29232,43740
28.30045,52380
28.30857,74903
28.31668,94016
28.32482,140642
28.33293,199917
28.34107,268673
28.34918,344768
28.35730,423979
28.36543,483996
28.37355,535038
28.38168,580372
28.38980,597530
28.39792,563780
28.40605,522207
28.41417,469297
28.42230,426210
28.43042,385518
28.43853,326604
28.44667,287211
28.45478,263740
28.46290,222250
28.47103,199126
28.47915,171392
28.48728,150008
28.49540,141585
28.50352,127986
28.51165,122572
28.51977,110651
28.52790,108259
28.53602,100627
28.54413,99400
28.55227,93350
28.56038,85039
28.56850,88745
28.57663,86397
28.58475,81968
28.59288,77129
28.60100,78004
28.60912,67506
28.61725,71067
28.62537,62184
28.63350,74950
28.64162,70988
28.64973,69548
28.65787,74748
28.66598,71408
28.67412,69130
28.68223,67578
28.69035,67186
28.69848,69546
28.70660,66046
28.71472,56036
28.72285,60968
28.73097,56850
28.73910,62885
28.74722,55964
28.75533,63198
28.76347,54499
28.77158,53570
28.77972,60351
28.78783,60421
28.79595,58765
28.80408,57540
28.81220,54854
28.82033,59695
28.82845,47019
28.83657,52541
28.84470,52669
28.85282,49974
28.86093,47024
28.86907,51291
28.87718,47999
28.88532,50739
28.89343,45874
28.90155,54178
28.90968,50097
28.91780,44918
28.92593,45316
28.93405,43736
28.94217,44283
28.95030,46095
28.95842,44199
28.96653,45209
28.97467,45527
28.98278,48966
28.99092,48272
28.99903,47688
29.00715,47926
29.01528,45629
29.02340,48955
29.03153,40258
29.03965,45688
29.04777,46207
29.05590,39234
29.06402,44530
29.07215,39409
29.08027,41188
29.08838,42240
29.09652,38206
29.10463,42377
29.11275,42392
29.12088,45907
29.12900,40847
29.13713,44164
29.14525,44451
29.15337,43368
29.16150,44539
29.16962,41621
29.17775,44156
29.18587,36890
29.19398,42329
29.20212,42450
29.21023,45098
29.21837,40937
29.22648,42385
29.23460,40044
29.24273,42809
29.25085,41038
29.25897,38259
29.26710,38210
29.27522,47821
29.28335,38200
29.29147,43682
29.29958,41897
29.30772,41829
29.31583,42637
29.32397,38253
29.33208,40307
29.34020,41340
29.34833,43359
29.35645,38403
29.36457,41947
29.37270,40725
29.38082,44195
29.38895,39820
29.39707,38464
29.40518,42400
29.41332,40736
29.42143,40584
29.42957,42397
29.43768,36095
29.44580,41533
29.45393,36133
29.46205,35846
29.47018,36078
29.47830,37152
29.48642,38908
29.49455,39123
29.50267,38065
29.51078,42877
29.51892,40161
29.52703,39070
29.53517,39336
29.54328,39928
29.55140,32383
29.55953,33525
29.56765,33240
29.57578,39696
29.58390,38190
29.59202,36403
29.60015,35550
29.60827,37413
29.61638,38173
29.62452,35892
29.63263,33758
29.64077,45925
29.64888,36071
29.65700,37598
29.66513,39693
29.67325,36082
29.68138,34684
29.68950,35089
29.69762,36385
29.70575,33480
29.71387,41216
29.72200,35184
29.73012,32776
29.73823,33250
29.74637,37507
29.75448,35585
29.76260,39227
29.77073,39071
29.77885,33831
29.78698,34715
29.79510,35958
29.80322,35130
29.81135,36226
29.81947,32928
29.82760,33213
29.83572,32897
29.84383,36348
29.85197,30818
29.86008,32925
29.86822,35242
29.87633,35630
29.88445,34027
29.89258,37020
29.90070,37246
29.90882,39668
29.91695,39589
29.92507,37967
29.93320,40095
29.94132,40606
29.94943,44763
29.95757,52646
29.96568,55149
29.97382,63015
29.98193,77604
29.99005,87162
29.99818,106409
30.00630,117927
30.01442,133180
30.02255,141458
30.03067,150373
30.03880,148535
30.04692,151347
30.05503,154998
30.06317,150288
30.07128,138490
30.07942,139777
30.08753,134814
30.09565,118389
30.10378,117771
30.11190,108773
30.12003,103196
30.12815,95514
30.13627,90473
30.14440,81194
30.15252,79743
30.16063,73541
30.16877,72531
30.17688,61007
30.18502,61668
30.19313,56709
30.20125,61015
30.20938,56312
30.21750,56087
30.22563,53869
30.23375,52894
30.24187,51442
30.25000,48431
30.25812,42703
30.26625,49647
30.27437,41123
30.28248,47898
30.29062,49722
30.29873,46995
30.30685,44816
30.31498,44730
30.32310,42501
30.33123,41925
30.33935,42014
30.34747,46484
30.35560,49230
30.36372,43259
30.37185,43465
30.37997,41175
30.38808,39097
30.39622,37227
30.40433,37524
30.41245,38833
30.42058,39041
30.42870,34988
30.43683,38007
30.44495,37776
30.45307,42256
30.46120,41685
30.46932,38096
30.47745,37870
30.48557,42412
30.49368,38812
30.50182,45196
30.50993,41960
30.51807,37322
30.52618,36693
30.53430,37921
30.54243,36230
30.55055,32892
30.55867,37984
30.56680,36772
30.57492,34686
30.58305,41031
30.59117,37178
30.59928,35020
30.60742,34126
30.61553,38467
30.62367,36904
30.63178,37093
30.63990,37590
30.64803,33129
30.65615,36941
30.66428,33370
30.67240,33338
30.68052,36556
30.68865,32713
30.69677,35813
30.70488,40834
30.71302,35487
30.72113,32765
30.72927,34000
30.73738,35327
30.74550,32863
30.75363,34784
30.76175,33529
30.76988,37970
30.77800,33613
30.78612,32080
30.79425,32301
30.80237,34738
30.81048,37285
30.81862,35734
30.82673,37559
30.83487,36350
30.84298,36901
30.85110,33188
30.85923,34774
30.86735,31873
30.87548,34861
30.88360,31267
30.89172,32979
30.89985,34182
30.90797,30509
30.91610,34611
30.92422,33643
30.93233,32728
30.94047,32045
30.94858,31705
30.95670,33983
30.96483,31654
30.97295,31918
30.98108,32226
30.98920,34272
30.99732,35155
31.00545,32583
31.01357,33346
31.02170,34504
31.02982,38616
31.03793,38564
31.04607,35630
31.05418,36167
31.06230,34194
31.07043,34477
31.07855,34769
31.08668,32365
31.09480,34853
31.10292,37165
31.11105,36518
31.11917,34665
31.12730,38808
31.13542,36228
31.14353,36494
31.15167,34204
31.15978,34478
31.16792,38970
31.17603,36087
31.18415,33151
31.19228,34639
31.20040,31694
31.20852,30466
31.21665,29061
31.22477,34317
31.23290,34592
31.24102,33828
31.24913,34666
31.25727,33681
31.26538,34103
31.27352,33133
31.28163,34976
31.28975,31878
31.29788,34521
31.30600,29399
31.31413,34550
31.32225,32297
31.33037,36229
31.33850,30218
31.34662,33593
31.35473,31020
31.36287,31952
31.37098,31602
31.37912,31093
31.38723,33742
31.39535,29398
31.40348,29762
31.41160,34440
31.41973,31579
31.42785,34394
31.43597,36589
31.44410,34063
31.45222,37870
31.46033,33186
31.46847,30704
31.47658,32127
31.48472,31234
31.49283,32073
31.50095,30832
31.50908,31523
31.51720,31257
31.52533,29936
31.53345,31549
31.54157,30541
31.54970,37168
31.55782,34161
31.56595,35794
31.57407,34533
31.58218,32962
31.59032,30266
31.59843,29051
31.60655,32369
31.61468,32868
31.62280,33644
31.63093,34460
31.63905,35961
31.64717,31609
31.65530,34632
31.66342,31521
31.67155,32937
31.67967,36246
31.68778,35137
31.69592,31791
31.70403,35199
31.71217,33841
31.72028,30646
31.72840,31826
31.73653,28864
31.74465,32203
31.75277,33597
31.76090,32046
31.76902,32684
31.77715,30362
31.78527,30930
31.79338,33893
31.80152,32158
31.80963,32150
31.81777,36877
31.82588,35445
31.83400,37283
31.84213,31700
31.85025,30696
31.85837,36565
31.86650,33352
31.87462,35005
31.88275,35144
31.89087,32846
31.89898,37302
31.90712,37605
31.91523,39480
31.92337,37547
31.93148,46305
31.93960,48401
31.94773,59529
31.95585,61938
31.96398,67081
31.97210,70553
31.98022,71747
31.98835,71025
31.99647,76259
32.00458,74843
32.01272,69297
32.02083,69338
32.02897,66801
32.03708,63149
32.04520,61429
32.05333,54991
32.06145,52194
32.06958,47981
32.07770,51496
32.08582,52889
32.09395,47817
32.10207,45897
32.11018,44022
32.11832,36736
32.12643,42938
32.13457,41225
32.14268,42467
32.15080,40938
32.15893,35666
32.16705,37711
32.17518,35154
32.18330,34890
32.19142,35088
32.19955,38425
32.20767,41771
32.21580,36962
32.22392,35155
32.23203,34066
32.24017,34368
32.24828,31389
32.25640,35362
32.26453,37639
32.27265,32462
32.28078,30799
32.28890,35176
32.29702,42395
32.30515,36451
32.31327,33304
32.32140,40607
32.32952,35000
32.33763,34168
32.34577,36017
32.35388,35320
32.36202,36228
32.37013,35651
32.37825,37479
32.38638,33082
32.39450,32566
32.40262,34094
32.41075,33763
32.41887,34914
32.42700,36370
32.43512,30641
32.44323,33400
32.45137,35325
32.45948,34584
32.46762,32897
32.47573,30578
32.48385,34785
32.49198,34893
32.50010,32471
32.50823,36359
32.51635,32620
32.52447,34150
32.53260,33718
32.54072,33008
32.54883,32146
32.55697,34261
32.56508,29140
32.57322,34858
32.58133,36207
32.58945,32567
32.59758,34482
32.60570,35998
32.61383,30984
32.62195,29258
32.63007,32823
32.63820,29789
32.64632,32671
32.65443,33773
32.66257,32852
32.67068,36484
32.67882,34336
32.68693,35025
32.69505,34680
32.70318,36851
32.71130,36435
32.71943,39403
32.72755,32660
32.73567,32462
32.74380,29524
32.75192,31776
32.76005,31833
32.76817,32550
32.77628,31768
32.78442,32967
32.79253,29031
32.80065,33454
32.80878,33533
32.81690,33949
32.82503,30062
32.83315,31856
32.84127,35311
32.84940,33086
32.85752,34150
32.86565,35461
32.87377,31905
32.88188,29826
32.89002,36173
32.89813,33475
32.90625,31982
32.91438,30893
32.92250,33164
32.93063,30783
32.93875,33318
32.94687,31115
32.95500,32908
32.96312,34905
32.97125,33569
32.97937,31133
32.98748,32893
32.99562,32519
33.00373,31655
33.01187,32034
33.01998,34734
33.02810,30321
33.03623,32062
33.04435,30781
33.05247,31084
33.06060,32850
33.06872,34183
33.07685,34585
33.08497,30784
33.09308,30887
33.10122,35118
33.10933,40890
33.11747,39259
33.12558,37232
33.13370,40512
33.14183,35163
33.14995,36361
33.15808,36308
33.16620,37282
33.17432,39038
33.18245,35919
33.19057,35111
33.19868,34091
33.20682,35533
33.21493,34879
33.22307,38615
33.23118,39145
33.23930,42486
33.24743,41691
33.25555,41114
33.26368,43839
33.27180,43201
33.27992,41382
33.28805,46475
33.29617,46104
33.30428,45414
33.31242,51646
33.32053,47409
33.32867,47641
33.33678,48488
33.34490,52650
33.35303,54208
33.36115,52159
33.36928,48788
33.37740,48201
33.38552,47851
33.39365,50499
33.40177,45752
33.40990,48109
33.41802,45756
33.42613,45274
33.43427,45592
33.44238,46465
33.45050,46041
33.45863,45865
33.46675,48040
33.47488,44742
33.48300,43315
33.49112,35629
33.49925,40100
33.50737,40205
33.51550,41425
33.52362,42372
33.53173,39944
33.53987,34732
33.54798,40213
33.55612,38542
33.56423,39506
33.57235,38212
33.58048,37669
33.58860,37914
33.59672,40235
33.60485,32778
33.61297,35374
33.62110,34531
33.62922,36694
33.63733,36532
33.64547,33555
33.65358,35718
33.66172,38600
33.66983,32740
33.67795,34241
33.68608,33721
33.69420,36067
33.70232,34592
33.71045,34005
33.71857,38874
33.72670,35183
33.73482,37792
33.74293,32927
33.75107,32530
33.75918,33765
33.76732,35687
33.77543,33776
33.78355,38947
33.79168,37114
33.79980,33554
33.80793,32733
33.81605,34248
33.82417,36265
33.83230,37526
33.84042,37516
33.84853,36573
33.85667,38216
33.86478,35983
33.87292,38966
33.88103,37193
33.88915,36458
33.89728,36397
33.90540,36546
33.91353,34081
33.92165,33128
33.92977,33830
33.93790,34077
33.94602,41841
33.95413,34411
33.96227,36567
33.97038,36410
33.97852,39829
33.98663,38045
33.99475,36688
34.00288,34003
34.01100,38717
34.01913,35261
34.02725,35019
34.03537,34553
34.04350,34433
34.05162,35916
34.05975,29971
34.06787,31075
34.07598,37820
34.08412,39333
34.09223,34373
34.10035,33143
34.10848,34734
34.11660,35972
34.12473,35918
34.13285,33862
34.14097,34003
34.14910,30875
34.15722,33699
34.16535,34664
34.17347,32068
34.18158,34895
34.18972,35251
34.19783,36476
34.20597,33794
34.21408,36092
34.22220,35721
34.23033,37473
34.23845,32023
34.24657,35102
34.25470,34275
34.26282,35185
34.27095,35337
34.27907,31692
34.28718,35283
34.29532,32972
34.30343,33357
34.31157,33013
34.31968,35852
34.32780,37959
34.33593,33506
34.34405,35836
34.35217,37027
34.36030,37128
34.36842,38142
34.37655,37658
34.38467,36030
34.39278,40000
34.40092,33493
34.40903,34181
34.41717,33332
34.42528,36679
34.43340,32423
34.44153,36590
34.44965,31976
34.45778,34483
34.46590,35681
34.47402,33279
34.48215,35669
34.49027,38796
34.49838,35784
34.50652,36211
34.51463,38126
34.52277,38744
34.53088,39093
34.53900,39012
34.54713,45175
34.55525,51722
34.56338,54612
34.57150,54737
34.57962,53225
34.58775,54343
34.59587,51985
34.60400,50163
34.61212,49391
34.62023,45135
34.62837,47354
34.63648,43101
34.64460,42126
34.65273,45891
34.66085,40664
34.66898,36920
34.67710,37551
34.68522,38910
34.69335,34049
34.70147,40933
34.70960,40027
34.71772,37678
34.72583,40148
34.73397,35978
34.74208,38009
34.75020,32618
34.75833,39056
34.76645,39128
34.77458,37680
34.78270,41124
34.79082,37924
34.79895,38525
34.80707,37744
34.81520,38143
34.82332,38257
34.83143,36600
34.83957,38932
34.84768,34854
34.85582,39044
34.86393,38529
34.87205,38397
34.88018,34982
34.88830,39079
34.89642,37184
34.90455,36446
34.91267,38028
34.92080,40031
34.92892,37491
34.93703,38200
34.94517,38638
34.95328,37618
34.96142,39906
34.96953,39570
34.97765,39733
34.98578,40212
34.99390,41611
35.00202,38619
35.01015,37963
35.01827,36012
35.02640,40139
35.03452,37525
35.04263,38748
35.05077,37656
35.05888,35818
35.06702,36449
35.07513,38517
35.08325,40059
35.09138,39808
35.09950,41051
35.10763,38178
35.11575,33583
35.12387,44106
35.13200,38523
35.14012,40804
35.14823,38503
35.15637,39487
35.16448,42900
35.17262,41700
35.18073,42359
35.18885,40741
35.19698,37613
35.20510,36674
35.21323,40347
35.22135,38983
35.22947,36968
35.23760,38644
35.24572,36820
35.25385,35398
35.26197,41212
35.27008,41422
35.27822,37205
35.28633,40061
35.29445,37310
35.30258,39497
35.31070,38027
35.31883,35466
35.32695,39194
35.33507,37884
35.34320,39576
35.35132,38179
35.35945,39585
35.36757,36831
35.37568,39769
35.38382,37044
35.39193,35676
35.40005,37151
35.40818,36323
35.41630,36311
35.42443,37019
35.43255,34267
35.44067,36628
35.44880,38138
35.45692,38351
35.46505,42171
35.47317,38982
35.48128,38854
35.48942,45999
35.49753,41289
35.50567,39055
35.51378,40585
35.52190,41183
35.53003,39040
35.53815,38820
35.54627,38359
35.55440,38547
35.56252,37298
35.57065,37845
35.57877,37767
35.58688,46952
35.59502,41690
35.60313,38624
35.61127,38347
35.61938,41697
35.62750,36747
35.63563,35694
35.64375,40846
35.65188,38810
35.66000,38120
35.66812,38396
35.67625,39232
35.68437,39876
35.69248,44162
35.70062,43571
35.70873,42064
35.71687,39151
35.72498,34604
35.73310,38018
35.74123,38682
35.74935,41069
35.75748,39298
35.76560,42561
35.77372,39478
35.78185,42878
35.78997,39054
35.79808,39281
35.80622,39163
35.81433,39381
35.82247,39577
35.83058,37930
35.83870,40038
35.84683,46306
35.85495,42696
35.86308,47901
35.87120,43653
35.87932,42499
35.88745,41893
35.89557,39419
35.90370,45094
35.91182,41993
35.91993,41894
35.92807,39946
35.93618,39678
35.94430,42459
35.95243,43047
35.96055,44863
35.96868,39012
35.97680,38846
35.98492,39463
35.99305,41899
36.00117,42776
36.00930,40718
36.01742,46841
36.02553,46246
36.03367,51329
36.04178,48987
36.04992,47146
36.05803,42229
36.06615,43439
36.07428,45683
36.08240,43649
36.09052,43357
36.09865,39323
36.10677,41202
36.11490,39986
36.12302,40000
36.13113,40740
36.13927,42217
36.14738,40818
36.15552,38971
36.16363,40034
36.17175,40933
36.17988,41752
36.18800,38245
36.19612,43454
36.20425,43083
36.21237,44235
36.22050,42568
36.22862,46167
36.23673,43251
36.24487,43963
36.25298,45063
36.26112,42024
36.26923,39425
36.27735,38094
36.28548,46438
36.29360,40917
36.30173,43461
36.30985,43606
36.31797,39574
36.32610,40496
36.33422,44011
36.34233,37994
36.35047,46549
36.35858,42014
36.36672,45371
36.37483,51441
36.38295,43883
36.39108,49055
36.39920,42102
36.40733,46439
36.41545,49071
36.42357,42261
36.43170,44735
36.43982,44064
36.44793,39154
36.45607,42927
36.46418,41862
36.47232,43151
36.48043,41149
36.48855,43422
36.49668,43068
36.50480,45635
36.51293,45454
36.52105,43864
36.52917,41232
36.53730,37628
36.54542,43567
36.55355,40955
36.56167,46979
36.56978,44464
36.57792,39832
36.58603,41282
36.59415,48989
36.60228,44229
36.61040,47868
36.61853,47373
36.62665,44308
36.63477,42685
36.64290,45449
36.65102,48876
36.65915,37931
36.66727,42308
36.67538,41358
36.68352,46349
36.69163,46033
36.69977,45851
36.70788,42948
36.71600,43284
36.72413,43571
36.73225,44383
36.74037,44388
36.74850,44051
36.75662,43205
36.76475,45354
36.77287,40885
36.78098,47056
36.78912,41682
36.79723,44092
36.80537,45313
36.81348,44252
36.82160,50238
36.82973,48474
36.83785,46449
36.84597,46505
36.85410,45910
36.86222,42470
36.87035,45560
36.87847,47337
36.88658,50288
36.89472,44653
36.90283,46478
36.91097,46121
36.91908,47489
36.92720,45486
36.93533,48357
36.94345,47148
36.95158,46444
36.95970,45706
36.96782,46238
36.97595,43223
36.98407,47621
36.99218,45736
37.00032,45903
37.00843,46104
37.01657,41032
37.02468,45930
37.03280,45335
37.04093,48822
37.04905,51481
37.05718,48376
37.06530,46994
37.07342,52113
37.08155,44153
37.08967,51180
37.09780,43534
37.10592,50772
37.11403,46169
37.12217,46623
37.13028,46219
37.13840,42443
37.14653,48418
37.15465,47668
37.16278,44695
37.17090,51479
37.17902,48618
37.18715,46908
37.19527,48087
37.20340,45580
37.21152,47038
37.21963,50968
37.22777,47894
37.23588,47539
37.24400,46786
37.25213,49722
37.26025,50492
37.26838,51911
37.27650,46631
37.28462,49668
37.29275,46207
37.30087,53355
37.30900,49154
37.31712,51918
37.32523,50192
37.33337,50729
37.34148,50607
37.34962,52026
37.35773,56276
37.36585,55394
37.37398,52316
37.38210,55150
37.39022,54813
37.39835,55886
37.40647,51098
37.41460,50628
37.42272,52713
37.43083,49473
37.43897,52325
37.44708,52269
37.45522,51443
37.46333,52507
37.47145,50780
37.47958,53828
37.48770,52121
