Z:\data\JTB-E02\BACandBLUE\JTB-E02-205-13.D Sun Mar 10 12:57:22 2019
Start of data points
2.09527,64105
2.10338,61516
2.11152,60569
2.11963,62843
2.12775,59582
2.13588,63829
2.14400,62477
2.15213,61558
2.16025,57087
2.16837,61271
2.17650,56933
2.18462,53553
2.19273,58457
2.20087,55399
2.20898,53861
2.21712,48468
2.22523,54094
2.23335,54650
2.24148,55060
2.24960,50320
2.25773,50601
2.26585,87637
2.27397,739597
2.28210,2003730
2.29022,1289973
2.29833,550284
2.30647,383533
2.31458,311385
2.32272,281187
2.33083,238869
2.33895,230801
2.34708,215002
2.35520,188483
2.36333,173768
2.37145,172845
2.37957,152873
2.38770,152469
2.39582,142808
2.40395,138323
2.41207,134902
2.42018,136355
2.42832,142714
2.43643,129293
2.44455,129732
2.45268,125299
2.46080,119636
2.46893,115166
2.47705,111824
2.48517,110590
2.49330,120160
2.50142,123625
2.50955,108175
2.51767,111932
2.52578,105053
2.53392,104219
2.54203,100759
2.55017,110355
2.55828,135806
2.56640,177966
2.57453,163467
2.58265,137924
2.59077,120947
2.59890,135828
2.60702,497126
2.61515,1544049
2.62327,1437305
2.63138,741850
2.63952,459229
2.64763,325948
2.65577,250654
2.66388,210143
2.67200,182369
2.68013,162575
2.68825,144162
2.69637,136589
2.70450,124711
2.71262,118870
2.72075,113462
2.72887,111675
2.73698,106466
2.74512,102427
2.75323,95240
2.76137,96498
2.76948,95527
2.77760,149291
2.78573,454433
2.79385,755410
2.80198,531778
2.81010,317181
2.81822,266579
2.82635,237137
2.83447,209999
2.84258,180064
2.85072,162179
2.85883,152735
2.86697,137303
2.87508,134864
2.88320,126107
2.89133,123768
2.89945,117794
2.90758,111516
2.91570,109865
2.92382,101923
2.93195,101067
2.94007,104606
2.94820,98510
2.95632,103047
2.96443,132760
2.97257,158016
2.98068,131390
2.98880,118076
2.99693,113044
3.00505,114571
3.01318,122565
3.02130,115608
3.02942,102776
3.03755,100812
3.04567,95091
3.05380,96067
3.06192,96158
3.07003,96318
3.07817,163543
3.08628,917559
3.09440,3277293
3.10253,5631322
3.11065,7644267
3.11878,7885719
3.12690,5394148
3.13502,3500518
3.14315,2643510
3.15127,2097469
3.15940,1689962
3.16752,1393182
3.17563,1186057
3.18377,1129601
3.19188,1489598
3.20002,2038725
3.20813,1807542
3.21625,1316958
3.22438,1059291
3.23250,897456
3.24062,770106
3.24875,687671
3.25687,597833
3.26500,533329
3.27312,486538
3.28123,459510
3.28937,510607
3.29748,1054234
3.30562,2604182
3.31373,4594541
3.32185,5064310
3.32998,3863727
3.33810,2636626
3.34622,1888906
3.35435,1484773
3.36247,1211919
3.37060,1037742
3.37872,902945
3.38683,780988
3.39497,708606
3.40308,641287
3.41122,594451
3.41933,546918
3.42745,523749
3.43558,493883
3.44370,478076
3.45183,447421
3.45995,413672
3.46807,429833
3.47620,423099
3.48432,424053
3.49243,385438
3.50057,371900
3.50868,352135
3.51682,345226
3.52493,325752
3.53305,336817
3.54118,337346
3.54930,336706
3.55743,313228
3.56555,347155
3.57367,498457
3.58180,680749
3.58992,656120
3.59805,492745
3.60617,425789
3.61428,383475
3.62242,370352
3.63053,352406
3.63865,335785
3.64678,324195
3.65490,315381
3.66303,610302
3.67115,2974334
3.67927,9341436
3.68740,1.407467E+07
3.69552,1.166279E+07
3.70365,6930754
3.71177,4651713
3.71988,3717982
3.72802,3076936
3.73613,2693392
3.74425,2362680
3.75238,2077219
3.76050,1903493
3.76863,1734145
3.77675,1561962
3.78487,1453762
3.79300,1386715
3.80112,1408000
3.80925,2038616
3.81737,3492570
3.82548,4281233
3.83362,3484824
3.84173,2493638
3.84987,1955432
3.85798,1699582
3.86610,1519515
3.87423,1391899
3.88235,1268468
3.89047,1171286
3.89860,1087140
3.90672,1025353
3.91485,993079
3.92297,1030852
3.93108,1109055
3.93922,1138583
3.94733,1231304
3.95547,2209485
3.96358,4970191
3.97170,7868305
3.97983,7711256
3.98795,5317518
3.99608,4253374
4.00420,8861670
4.01232,2.217666E+07
4.02045,3.450858E+07
4.02857,3.41984E+07
4.03668,2.285488E+07
4.04482,1.205392E+07
4.05293,7040962
4.06107,4875019
4.06918,3671128
4.07730,2929694
4.08543,2406365
4.09355,2023491
4.10168,1739159
4.10980,1531951
4.11792,1394502
4.12605,1241528
4.13417,1152176
4.14228,1086875
4.15042,1026021
4.15853,996336
4.16667,935546
4.17478,922338
4.18290,864645
4.19103,840178
4.19915,780229
4.20728,814639
4.21540,1601957
4.22352,4971451
4.23165,1.160825E+07
4.23977,1.714455E+07
4.24790,1.763817E+07
4.25602,1.294556E+07
4.26413,8008799
4.27227,5320041
4.28038,3862475
4.28850,2907033
4.29663,2220262
4.30475,1802828
4.31288,1505116
4.32100,1283667
4.32912,1122903
4.33725,1009469
4.34537,933409
4.35350,854984
4.36162,802383
4.36973,817605
4.37787,772954
4.38598,727822
4.39412,642525
4.40223,603956
4.41035,556822
4.41848,540173
4.42660,505433
4.43472,499387
4.44285,483553
4.45097,454424
4.45910,464205
4.46722,426518
4.47533,437037
4.48347,409877
4.49158,407305
4.49972,395635
4.50783,386088
4.51595,381807
4.52408,377979
4.53220,360483
4.54032,364835
4.54845,359903
4.55657,356087
4.56470,361388
4.57282,339602
4.58093,333783
4.58907,315975
4.59718,314173
4.60532,321138
4.61343,315506
4.62155,322852
4.62968,368714
4.63780,490676
4.64593,613056
4.65405,631802
4.66217,553786
4.67030,444913
4.67842,397399
4.68653,374775
4.69467,346869
4.70278,330347
4.71092,307107
4.71903,293353
4.72715,281480
4.73528,273994
4.74340,269269
4.75153,266779
4.75965,259576
4.76777,255540
4.77590,252686
4.78402,248976
4.79213,269365
4.80027,328224
4.80838,415655
4.81652,455194
4.82463,417503
4.83275,369974
4.84088,354636
4.84900,380703
4.85713,375110
4.86525,368170
4.87337,335802
4.88150,319897
4.88962,291379
4.89775,278749
4.90587,261903
4.91398,248952
4.92212,249846
4.93023,245698
4.93835,294167
4.94648,505486
4.95460,1039517
4.96273,1899536
4.97085,2672893
4.97897,2807570
4.98710,2318903
4.99522,1697231
5.00335,1209288
5.01147,920413
5.01958,734518
5.02772,663042
5.03583,691282
5.04397,744440
5.05208,758880
5.06020,689239
5.06833,586670
5.07645,518260
5.08457,483315
5.09270,449651
5.10082,426698
5.10895,408213
5.11707,383527
5.12518,370554
5.13332,355086
5.14143,353300
5.14957,354426
5.15768,380761
5.16580,427502
5.17393,465192
5.18205,444081
5.19017,405757
5.19830,398492
5.20642,397076
5.21455,416539
5.22267,408394
5.23078,398940
5.23892,384861
5.24703,378927
5.25517,344134
5.26328,310571
5.27140,293668
5.27953,274842
5.28765,272379
5.29578,245654
5.30390,243736
5.31202,247213
5.32015,238359
5.32827,244704
5.33638,262991
5.34452,295046
5.35263,302903
5.36077,283342
5.36888,255954
5.37700,240557
5.38513,236426
5.39325,242805
5.40138,252876
5.40950,244071
5.41762,237528
5.42575,222483
5.43387,222777
5.44200,217044
5.45012,217264
5.45823,223679
5.46637,236097
5.47448,218321
5.48260,228632
5.49073,201970
5.49885,197880
5.50698,208288
5.51510,196693
5.52322,206967
5.53135,208576
5.53947,203696
5.54760,204682
5.55572,208095
5.56383,229783
5.57197,291379
5.58008,339880
5.58820,374397
5.59633,348046
5.60445,307460
5.61258,260739
5.62070,231691
5.62882,220367
5.63695,216665
5.64507,220102
5.65320,213791
5.66132,206198
5.66943,204995
5.67757,210549
5.68568,248382
5.69382,304774
5.70193,326592
5.71005,320913
5.71818,266091
5.72630,231129
5.73442,200993
5.74255,197824
5.75067,187664
5.75880,171834
5.76692,172883
5.77503,177128
5.78317,176837
5.79128,161587
5.79942,164997
5.80753,164212
5.81565,164362
5.82378,166779
5.83190,163289
5.84002,165027
5.84815,157871
5.85627,171357
5.86440,160230
5.87252,150991
5.88063,162791
5.88877,149667
5.89688,155512
5.90502,141003
5.91313,150724
5.92125,140112
5.92938,132142
5.93750,136719
5.94563,146379
5.95375,158586
5.96187,174067
5.97000,212732
5.97812,267442
5.98623,318057
5.99437,368330
6.00248,376103
6.01062,323295
6.01873,270073
6.02685,219936
6.03498,195062
6.04310,170876
6.05123,158685
6.05935,147194
6.06747,151634
6.07560,141171
6.08372,133558
6.09185,130010
6.09997,126986
6.10808,131685
6.11622,132181
6.12433,145631
6.13245,190610
6.14058,292014
6.14870,416835
6.15683,466490
6.16495,414528
6.17307,330143
6.18120,254789
6.18932,216150
6.19745,198931
6.20557,191196
6.21368,178493
6.22182,177746
6.22993,175988
6.23807,168705
6.24618,166097
6.25430,174338
6.26243,176701
6.27055,179354
6.27867,176889
6.28680,179294
6.29492,180648
6.30305,165546
6.31117,167997
6.31928,168902
6.32742,175145
6.33553,177032
6.34367,190038
6.35178,190307
6.35990,179879
6.36803,178821
6.37615,180472
6.38427,176377
6.39240,181258
6.40052,178285
6.40865,179292
6.41677,183008
6.42488,178084
6.43302,179089
6.44113,183335
6.44927,182918
6.45738,190017
6.46550,189127
6.47363,180979
6.48175,192490
6.48988,188582
6.49800,186984
6.50612,186420
6.51425,185010
6.52237,198220
6.53048,190563
6.53862,188940
6.54673,202162
6.55487,194048
6.56298,199964
6.57110,208330
6.57923,238682
6.58735,262246
6.59548,274889
6.60360,247835
6.61172,229249
6.61985,212453
6.62797,207198
6.63608,205502
6.64422,213760
6.65233,220745
6.66047,273940
6.66858,373259
6.67670,454849
6.68483,456798
6.69295,362476
6.70108,298749
6.70920,246371
6.71732,214470
6.72545,182606
6.73357,167069
6.74170,157088
6.74982,148001
6.75793,143331
6.76607,136140
6.77418,133238
6.78230,133622
6.79043,130171
6.79855,130010
6.80668,123646
6.81480,120005
6.82292,119342
6.83105,113510
6.83917,125189
6.84730,125498
6.85542,143526
6.86353,166835
6.87167,194325
6.87978,188168
6.88792,167259
6.89603,136403
6.90415,117994
6.91228,99399
6.92040,98434
6.92852,87634
6.93665,89663
6.94477,91153
6.95290,89723
6.96102,91448
6.96913,112534
6.97727,138401
6.98538,160307
6.99352,172961
7.00163,159380
7.00975,127866
7.01788,114680
7.02600,99850
7.03412,99153
7.04225,95935
7.05037,89766
7.05850,91867
7.06662,91047
7.07473,89400
7.08287,88023
7.09098,84240
7.09912,85005
7.10723,81175
7.11535,81052
7.12348,84805
7.13160,85030
7.13973,84615
7.14785,107690
7.15597,142821
7.16410,188471
7.17222,217468
7.18033,219441
7.18847,184619
7.19658,158866
7.20472,218998
7.21283,500904
7.22095,1137307
7.22908,2010412
7.23720,2407892
7.24533,2156670
7.25345,1434964
7.26157,797160
7.26970,481411
7.27782,284502
7.28595,178431
7.29407,130770
7.30218,108350
7.31032,103068
7.31843,98699
7.32655,102258
7.33468,112135
7.34280,112156
7.35093,102243
7.35905,104970
7.36717,99261
7.37530,99883
7.38342,101952
7.39155,97505
7.39967,93103
7.40778,98717
7.41592,94890
7.42403,93041
7.43215,90875
7.44028,95654
7.44840,86104
7.45653,90625
7.46465,92492
7.47277,85839
7.48090,84438
7.48902,80919
7.49715,82584
7.50527,78755
7.51338,79764
7.52152,88442
7.52963,95503
7.53777,130742
7.54588,199725
7.55400,310071
7.56213,399073
7.57025,468756
7.57837,469319
7.58650,405469
7.59462,320637
7.60275,234968
7.61087,176397
7.61898,133796
7.62712,117754
7.63523,104410
7.64337,91593
7.65148,86900
7.65960,76157
7.66773,82219
7.67585,84296
7.68397,75242
7.69210,69509
7.70022,72679
7.70835,71537
7.71647,75426
7.72458,72603
7.73272,71410
7.74083,78309
7.74897,73590
7.75708,73689
7.76520,71945
7.77333,75553
7.78145,76825
7.78958,80153
7.79770,79833
7.80582,84692
7.81395,91751
7.82207,94620
7.83018,95127
7.83832,86208
7.84643,75017
7.85457,70527
7.86268,72039
7.87080,72488
7.87893,78530
7.88705,77094
7.89518,80896
7.90330,82388
7.91142,81734
7.91955,87828
7.92767,106155
7.93580,160878
7.94392,255169
7.95203,325123
7.96017,348088
7.96828,288390
7.97640,220747
7.98453,170867
7.99265,117584
8.00078,99405
8.00890,83086
8.01702,76467
8.02515,70708
8.03327,71965
8.04140,69616
8.04952,75066
8.05763,80856
8.06577,71562
8.07388,65325
8.08200,67251
8.09013,66873
8.09825,69541
8.10638,62519
8.11450,73083
8.12262,65620
8.13075,68953
8.13887,70994
8.14700,81731
8.15512,91602
8.16323,100283
8.17137,103448
8.17948,87145
8.18762,80699
8.19573,69610
8.20385,70033
8.21198,60776
8.22010,66103
8.22822,67374
8.23635,65297
8.24447,59216
8.25260,60070
8.26072,61629
8.26883,62038
8.27697,62472
8.28508,56872
8.29322,57372
8.30133,58741
8.30945,62291
8.31758,59898
8.32570,67472
8.33383,67697
8.34195,67268
8.35007,65333
8.35820,68292
8.36632,64079
8.37443,65147
8.38257,66544
8.39068,64168
8.39882,62784
8.40693,69571
8.41505,69915
8.42318,59649
8.43130,66005
8.43943,61324
8.44755,58371
8.45567,62347
8.46380,56613
8.47192,60937
8.48003,59628
8.48817,57114
8.49628,56932
8.50442,60594
8.51253,59976
8.52065,73572
8.52878,114550
8.53690,209832
8.54503,346808
8.55315,452144
8.56127,477222
8.56940,366932
8.57752,253257
8.58565,163374
8.59377,119629
8.60188,103571
8.61002,98830
8.61813,93860
8.62625,92705
8.63438,88304
8.64250,82912
8.65063,75907
8.65875,74946
8.66687,74926
8.67500,68085
8.68312,73613
8.69125,73370
8.69937,67898
8.70748,73559
8.71562,66615
8.72373,65447
8.73185,64252
8.73998,59518
8.74810,60777
8.75623,60635
8.76435,77298
8.77247,113083
8.78060,198866
8.78872,338937
8.79685,477032
8.80497,557675
8.81308,513929
8.82122,392270
8.82933,284288
8.83747,221499
8.84558,177763
8.85370,164016
8.86183,169780
8.86995,160277
8.87807,147661
8.88620,146060
8.89432,135880
8.90245,126060
8.91057,114942
8.91868,118630
8.92682,119699
8.93493,136407
8.94307,152201
8.95118,158644
8.95930,162607
8.96743,147339
8.97555,138665
8.98368,121694
8.99180,119622
8.99992,122105
9.00805,114490
9.01617,115735
9.02428,101685
9.03242,94496
9.04053,91044
9.04867,89524
9.05678,95387
9.06490,89356
9.07303,87223
9.08115,84155
9.08928,85281
9.09740,84529
9.10552,97959
9.11365,104402
9.12177,112428
9.12988,120859
9.13802,112587
9.14613,104643
9.15427,98377
9.16238,93620
9.17050,89526
9.17863,84669
9.18675,82948
9.19488,80227
9.20300,78318
9.21112,80259
9.21925,77232
9.22737,79188
9.23550,81622
9.24362,81285
9.25173,77567
9.25987,76228
9.26798,77427
9.27610,71517
9.28423,67770
9.29235,70604
9.30048,70041
9.30860,68597
9.31672,67860
9.32485,72463
9.33297,72182
9.34110,69483
9.34922,68353
9.35733,68421
9.36547,70714
9.37358,65845
9.38172,62229
9.38983,67496
9.39795,64968
9.40608,70098
9.41420,77181
9.42232,79861
9.43045,89814
9.43857,96366
9.44670,107063
9.45482,106971
9.46293,104415
9.47107,86761
9.47918,83147
9.48732,74960
9.49543,70271
9.50355,66436
9.51168,71929
9.51980,78921
9.52792,80633
9.53605,92680
9.54417,91885
9.55230,83084
9.56042,81144
9.56853,83662
9.57667,80911
9.58478,83546
9.59292,87484
9.60103,93172
9.60915,91397
9.61728,77421
9.62540,68456
9.63353,63254
9.64165,61364
9.64977,49549
9.65790,49761
9.66602,50347
9.67413,54265
9.68227,48875
9.69038,46299
9.69852,48092
9.70663,47057
9.71475,49917
9.72288,49035
9.73100,48175
9.73913,50078
9.74725,46311
9.75537,46368
9.76350,47804
9.77162,46621
9.77975,46146
9.78787,51713
9.79598,45378
9.80412,40619
9.81223,43778
9.82035,46164
9.82848,46266
9.83660,48746
9.84473,45642
9.85285,48381
9.86097,47664
9.86910,49257
9.87722,52168
9.88535,54469
9.89347,50658
9.90158,51510
9.90972,46829
9.91783,48304
9.92595,46898
9.93408,51970
9.94220,71005
9.95033,81786
9.95845,114371
9.96657,121506
9.97470,122670
9.98282,110995
9.99095,93285
9.99907,81241
10.00718,73262
10.01532,72736
10.02343,72571
10.03157,74273
10.03968,74084
10.04780,64636
10.05593,56482
10.06405,57807
10.07217,58373
10.08030,58855
10.08842,61230
10.09655,65448
10.10467,64731
10.11278,64887
10.12092,59870
10.12903,60228
10.13717,56173
10.14528,55723
10.15340,54541
10.16153,57140
10.16965,52975
10.17777,49852
10.18590,50803
10.19402,50346
10.20215,51357
10.21027,49009
10.21838,49938
10.22652,51053
10.23463,50472
10.24277,56807
10.25088,58786
10.25900,69729
10.26713,129797
10.27525,296444
10.28338,694867
10.29150,1379014
10.29962,2277795
10.30775,3208366
10.31587,4552396
10.32398,6701772
10.33212,9523289
10.34023,1.191144E+07
10.34837,1.204282E+07
10.35648,9650901
10.36460,6098580
10.37273,3145793
10.38085,1598878
10.38898,959796
10.39710,660777
10.40522,502403
10.41335,388386
10.42147,315361
10.42960,274449
10.43772,240297
10.44583,221114
10.45397,205865
10.46208,188353
10.47020,182738
10.47833,170782
10.48645,159092
10.49458,146940
10.50270,133594
10.51082,140453
10.51895,126021
10.52707,122801
10.53520,126573
10.54332,126267
10.55143,134529
10.55957,117241
10.56768,106978
10.57580,115647
10.58393,108936
10.59205,105997
10.60018,100566
10.60830,94676
10.61642,89705
10.62455,95994
10.63267,94371
10.64080,91818
10.64892,83318
10.65703,84620
10.66517,80516
10.67328,79028
10.68142,81902
10.68953,81796
10.69765,85523
10.70578,79399
10.71390,78705
10.72202,82435
10.73015,83938
10.73827,79478
10.74640,77617
10.75452,81704
10.76263,75457
10.77077,76239
10.77888,71718
10.78702,73055
10.79513,71580
10.80325,69401
10.81138,69706
10.81950,70937
10.82763,66139
10.83575,60449
10.84387,60510
10.85200,61750
10.86012,57338
10.86823,57168
10.87637,59982
10.88448,59319
10.89262,61750
10.90073,54889
10.90885,58503
10.91698,57622
10.92510,59126
10.93323,54117
10.94135,54891
10.94947,54180
10.95760,53800
10.96572,56039
10.97383,59414
10.98197,58538
10.99008,55808
10.99822,56279
11.00633,55412
11.01445,54677
11.02258,55427
11.03070,52764
11.03883,52780
11.04695,49243
11.05507,51038
11.06320,49438
11.07132,48904
11.07945,47857
11.08757,51672
11.09568,52362
11.10382,51711
11.11193,58657
11.12005,51743
11.12818,48620
11.13630,47883
11.14443,47484
11.15255,45554
11.16067,48415
11.16880,46192
11.17692,50152
11.18505,53341
11.19317,50744
11.20128,56220
11.20942,55232
11.21753,51717
11.22565,53868
11.23378,52498
11.24190,45895
11.25003,49446
11.25815,42372
11.26627,40734
11.27440,40189
11.28252,43038
11.29065,42980
11.29877,47669
11.30688,51648
11.31502,72657
11.32313,99182
11.33127,143223
11.33938,200204
11.34750,262756
11.35563,275154
11.36375,263270
11.37187,211674
11.38000,168232
11.38812,121869
11.39625,99266
11.40437,89034
11.41248,84057
11.42062,84261
11.42873,78767
11.43687,77464
11.44498,71240
11.45310,65950
11.46123,61664
11.46935,65346
11.47748,70356
11.48560,89855
11.49372,122448
11.50185,156936
11.50997,175680
11.51808,168939
11.52622,153731
11.53433,125218
11.54247,100298
11.55058,92738
11.55870,83482
11.56683,81123
11.57495,73861
11.58308,74005
11.59120,73554
11.59932,79023
11.60745,97278
11.61557,124229
11.62368,155637
11.63182,164226
11.63993,146694
11.64807,129706
11.65618,102587
11.66430,82488
11.67243,68925
11.68055,61611
11.68868,59934
11.69680,60024
11.70492,63202
11.71305,62004
11.72117,59891
11.72930,60384
11.73742,67308
11.74553,59953
11.75367,51363
11.76178,51968
11.76990,52422
11.77803,50714
11.78615,57314
11.79428,50994
11.80240,47266
11.81052,50197
11.81865,51412
11.82677,52287
11.83490,54843
11.84302,59772
11.85113,63328
11.85927,78763
11.86738,83950
11.87552,84704
11.88363,74898
11.89175,65640
11.89988,55471
11.90800,50176
11.91612,46434
11.92425,51350
11.93237,52991
11.94050,53612
11.94862,53879
11.95673,50942
11.96487,47621
11.97298,47067
11.98112,46712
11.98923,51051
11.99735,61336
12.00548,66961
12.01360,78447
12.02172,84673
12.02985,90702
12.03797,74320
12.04610,64566
12.05422,57485
12.06233,55460
12.07047,48425
12.07858,44874
12.08672,51963
12.09483,55199
12.10295,48304
12.11108,48157
12.11920,51786
12.12733,58608
12.13545,61265
12.14357,65527
12.15170,64559
12.15982,56414
12.16793,53246
12.17607,52535
12.18418,41369
12.19232,44699
12.20043,44371
12.20855,44297
12.21668,47301
12.22480,43516
12.23293,43786
12.24105,42703
12.24917,42924
12.25730,41652
12.26542,38875
12.27355,43654
12.28167,47265
12.28978,40413
12.29792,40811
12.30603,39865
12.31415,43931
12.32228,48585
12.33040,40303
12.33853,42175
12.34665,41792
12.35477,38921
12.36290,39679
12.37102,42355
12.37915,41750
12.38727,42706
12.39538,46539
12.40352,48079
12.41163,58058
12.41975,72796
12.42788,87781
12.43600,96235
12.44413,97305
12.45225,86912
12.46037,78640
12.46850,65178
12.47662,58911
12.48475,57616
12.49287,49223
12.50098,46072
12.50912,47840
12.51723,46355
12.52537,43439
12.53348,46502
12.54160,45954
12.54973,55691
12.55785,61066
12.56597,65749
12.57410,81024
12.58222,83145
12.59035,72732
12.59847,60850
12.60658,52921
12.61472,52009
12.62283,48717
12.63097,48878
12.63908,50953
12.64720,46559
12.65533,45860
12.66345,44453
12.67158,44619
12.67970,41632
12.68782,41078
12.69595,46930
12.70407,39377
12.71218,41795
12.72032,45226
12.72843,51286
12.73657,57772
12.74468,59575
12.75280,64249
12.76093,67498
12.76905,56317
12.77718,49266
12.78530,46072
12.79342,41870
12.80155,40653
12.80967,41078
12.81778,43485
12.82592,36715
12.83403,44884
12.84217,35350
12.85028,47174
12.85840,39728
12.86653,37206
12.87465,37022
12.88278,35201
12.89090,35569
12.89902,36345
12.90715,36660
12.91527,36060
12.92340,34475
12.93152,37633
12.93963,36637
12.94777,36088
12.95588,35269
12.96400,38800
12.97213,43632
12.98025,43250
12.98838,44295
12.99650,47223
13.00462,46791
13.01275,43667
13.02087,43187
13.02900,34617
13.03712,37134
13.04523,37360
13.05337,40127
13.06148,39399
13.06960,37609
13.07773,39635
13.08585,37113
13.09398,37637
13.10210,40922
13.11022,37101
13.11835,37905
13.12647,34848
13.13460,34788
13.14272,37695
13.15083,32862
13.15897,37787
13.16708,43811
13.17522,38022
13.18333,39792
13.19145,38836
13.19958,45480
13.20770,43502
13.21582,43507
13.22395,51530
13.23207,50786
13.24020,47767
13.24832,42144
13.25643,40958
13.26457,42321
13.27268,37470
13.28082,41738
13.28893,36614
13.29705,37626
13.30518,36760
13.31330,36048
13.32143,39749
13.32955,37215
13.33767,35795
13.34580,34587
13.35392,36029
13.36203,38455
13.37017,40096
13.37828,35903
13.38642,31883
13.39453,35432
13.40265,35947
13.41078,41584
13.41890,33975
13.42703,36022
13.43515,30956
13.44327,35040
13.45140,32283
13.45952,33740
13.46763,32336
13.47577,34255
13.48388,34316
13.49202,33889
13.50013,34640
13.50825,35446
13.51638,36055
13.52450,40857
13.53263,39416
13.54075,38894
13.54887,37624
13.55700,38847
13.56512,39053
13.57325,39452
13.58137,35846
13.58948,38602
13.59762,37687
13.60573,39037
13.61385,42641
13.62198,44436
13.63010,47990
13.63823,49701
13.64635,52323
13.65447,45158
13.66260,40032
13.67072,38199
13.67885,34549
13.68697,35054
13.69508,37014
13.70322,33982
13.71133,33098
13.71947,34364
13.72758,30622
13.73570,37090
13.74383,36212
13.75195,45408
13.76007,68920
13.76820,90197
13.77632,122321
13.78445,145691
13.79257,174730
13.80068,195814
13.80882,182460
13.81693,175130
13.82507,177036
13.83318,178423
13.84130,199130
13.84943,200729
13.85755,190720
13.86567,168315
13.87380,130177
13.88192,112102
13.89005,93512
13.89817,79752
13.90628,67644
13.91442,60669
13.92253,62611
13.93067,57128
13.93878,58003
13.94690,59776
13.95503,56513
13.96315,75022
13.97128,98558
13.97940,124762
13.98752,151849
13.99565,178333
14.00377,156474
14.01188,141356
14.02002,113168
14.02813,90214
14.03627,76601
14.04438,65445
14.05250,60290
14.06063,60403
14.06875,59697
14.07688,58230
14.08500,54261
14.09312,57607
14.10125,58459
14.10937,54565
14.11748,51318
14.12562,50590
14.13373,51249
14.14187,48334
14.14998,49905
14.15810,49838
14.16623,51255
14.17435,52155
14.18248,58718
14.19060,58635
14.19872,65783
14.20685,88703
14.21497,109759
14.22310,139271
14.23122,153787
14.23933,155223
14.24747,152416
14.25558,148236
14.26370,143331
14.27183,136697
14.27995,121180
14.28808,107840
14.29620,92546
14.30432,87084
14.31245,77096
14.32057,73331
14.32870,71881
14.33682,71579
14.34493,69724
14.35307,62425
14.36118,64356
14.36932,60525
14.37743,55506
14.38555,51584
14.39368,51539
14.40180,51011
14.40992,57833
14.41805,61786
14.42617,64163
14.43430,63998
14.44242,66521
14.45053,64039
14.45867,52668
14.46678,56733
14.47492,53518
14.48303,47673
14.49115,48756
14.49928,49695
14.50740,43040
14.51552,50401
14.52365,48445
14.53177,49460
14.53990,49240
14.54802,44856
14.55613,46324
14.56427,49064
14.57238,43386
14.58052,45400
14.58863,44712
14.59675,37983
14.60488,41228
14.61300,38241
14.62113,42576
14.62925,36157
14.63737,34740
14.64550,37978
14.65362,32665
14.66173,39600
14.66987,41216
14.67798,41319
14.68612,37574
14.69423,36154
14.70235,35501
14.71048,42509
14.71860,40763
14.72673,37357
14.73485,39069
14.74297,38219
14.75110,39111
14.75922,40148
14.76735,42524
14.77547,39213
14.78358,41339
14.79172,57450
14.79983,109005
14.80795,276639
14.81608,703772
14.82420,1537511
14.83233,2735671
14.84045,3735967
14.84857,4116907
14.85670,3595401
14.86482,2624645
14.87295,1656980
14.88107,997816
14.88918,656111
14.89732,461062
14.90543,368407
14.91355,305697
14.92168,273766
14.92980,248246
14.93793,220520
14.94605,208244
14.95417,186576
14.96230,175794
14.97042,172942
14.97855,157547
14.98667,145610
14.99478,141674
15.00292,141309
15.01103,129968
15.01917,119616
15.02728,121164
15.03540,111431
15.04353,109893
15.05165,106561
15.05977,102718
15.06790,97153
15.07602,97275
15.08415,93838
15.09227,85213
15.10038,80253
15.10852,84466
15.11663,83435
15.12477,78221
15.13288,83623
15.14100,96902
15.14913,95968
15.15725,101200
15.16538,94999
15.17350,89288
15.18162,77324
15.18975,63997
15.19787,60164
15.20598,58717
15.21412,54637
15.22223,49387
15.23037,50626
15.23848,50188
15.24660,51116
15.25473,51314
15.26285,51641
15.27098,44980
15.27910,46993
15.28722,45481
15.29535,46230
15.30347,40106
15.31158,41634
15.31972,42420
15.32783,40050
15.33597,37772
15.34408,38917
15.35220,45832
15.36033,42957
15.36845,40689
15.37658,44414
15.38470,46394
15.39282,44819
15.40095,43501
15.40907,40413
15.41720,43721
15.42532,39291
15.43343,44257
15.44157,39767
15.44968,41279
15.45780,40587
15.46593,41721
15.47405,41597
15.48218,45331
15.49030,55521
15.49842,67609
15.50655,77963
15.51467,79695
15.52280,75668
15.53092,72638
15.53903,71776
15.54717,64524
15.55528,58086
15.56340,55042
15.57153,48813
15.57965,46469
15.58778,50288
15.59590,52957
15.60402,45308
15.61215,44440
15.62027,43291
15.62840,45287
15.63652,42607
15.64463,41422
15.65277,41345
15.66088,42622
15.66902,44135
15.67713,41576
15.68525,37899
15.69338,37066
15.70150,40592
15.70962,40596
15.71775,37186
15.72587,38996
15.73400,38998
15.74212,38858
15.75023,39713
15.75837,49130
15.76648,69615
15.77462,98473
15.78273,169743
15.79085,236248
15.79898,290124
15.80710,313590
15.81523,259857
15.82335,203204
15.83147,137718
15.83960,106787
15.84772,81848
15.85583,76465
15.86397,67460
15.87208,64129
15.88022,60765
15.88833,60570
15.89645,55751
15.90458,58541
15.91270,55742
15.92083,52328
15.92895,57107
15.93707,53879
15.94520,54577
15.95332,50819
15.96143,54796
15.96957,57311
15.97768,65568
15.98582,71416
15.99393,71315
16.00205,84815
16.01018,78244
16.01830,83897
16.02643,80749
16.03455,82348
16.04267,91431
16.05080,88893
16.05892,75113
16.06705,63823
16.07517,62064
16.08328,55937
16.09142,50375
16.09953,56690
16.10765,48580
16.11578,47179
16.12390,46258
16.13203,48568
16.14015,46714
16.14827,50588
16.15640,51682
16.16452,52091
16.17265,54447
16.18077,47674
16.18888,44863
16.19702,47006
16.20513,45930
16.21327,48195
16.22138,41388
16.22950,46315
16.23763,48021
16.24575,42786
16.25387,49306
16.26200,44893
16.27012,44029
16.27825,41422
16.28637,44264
16.29448,46674
16.30262,50386
16.31073,49831
16.31887,49725
16.32698,46417
16.33510,42889
16.34323,50772
16.35135,48546
16.35947,56511
16.36760,63765
16.37572,78720
16.38385,93085
16.39197,89020
16.40008,85639
16.40822,80946
16.41633,66390
16.42447,58681
16.43258,48078
16.44070,51875
16.44883,61078
16.45695,95777
16.46508,175366
16.47320,323652
16.48132,575281
16.48945,799666
16.49757,917396
16.50568,807329
16.51382,615797
16.52193,398010
16.53007,256273
16.53818,174248
16.54630,138283
16.55443,115049
16.56255,103541
16.57068,94172
16.57880,90171
16.58692,85585
16.59505,81179
16.60317,82042
16.61128,81643
16.61942,78854
16.62753,82595
16.63567,80874
16.64378,78028
16.65190,72498
16.66003,65148
16.66815,61329
16.67628,57512
16.68440,58181
16.69252,57680
16.70065,55046
16.70877,53991
16.71690,54551
16.72502,52665
16.73313,49860
16.74127,49048
16.74938,51131
16.75750,54631
16.76563,59711
16.77375,61579
16.78188,56009
16.79000,55313
16.79812,55929
16.80625,50221
16.81437,44797
16.82250,46416
16.83062,41313
16.83873,41391
16.84687,39716
16.85498,41788
16.86312,41846
16.87123,44247
16.87935,44139
16.88748,38529
16.89560,40947
16.90372,37747
16.91185,43436
16.91997,39906
16.92810,36916
16.93622,39113
16.94433,38015
16.95247,39811
16.96058,36712
16.96872,38782
16.97683,39001
16.98495,37207
16.99308,46467
17.00120,40898
17.00933,38711
17.01745,40911
17.02557,37987
17.03370,39573
17.04182,46333
17.04993,44784
17.05807,48722
17.06618,45368
17.07432,46631
17.08243,46285
17.09055,46260
17.09868,43086
17.10680,45490
17.11493,42383
17.12305,47960
17.13117,41068
17.13930,42854
17.14742,41949
17.15553,38977
17.16367,38603
17.17178,46764
17.17992,40416
17.18803,38783
17.19615,40439
17.20428,39636
17.21240,38977
17.22053,40584
17.22865,39968
17.23677,37683
17.24490,40615
17.25302,45738
17.26115,39517
17.26927,40002
17.27738,46011
17.28552,37538
17.29363,40212
17.30175,40318
17.30988,41513
17.31800,41461
17.32613,38718
17.33425,43701
17.34237,39615
17.35050,47869
17.35862,51606
17.36675,50328
17.37487,51003
17.38298,53286
17.39112,51731
17.39923,48224
17.40735,51488
17.41548,53087
17.42360,47336
17.43173,44873
17.43985,50258
17.44797,45989
17.45610,46289
17.46422,51013
17.47235,48078
17.48047,46306
17.48858,43721
17.49672,38672
17.50483,40401
17.51297,40115
17.52108,41373
17.52920,40406
17.53733,40146
17.54545,42565
17.55357,43690
17.56170,49328
17.56982,60970
17.57795,86245
17.58607,134235
17.59418,219701
17.60232,328140
17.61043,447755
17.61857,519261
17.62668,514270
17.63480,448011
17.64293,365095
17.65105,290366
17.65918,242644
17.66730,249328
17.67542,265918
17.68355,257455
17.69167,253496
17.69978,205047
17.70792,163416
17.71603,128480
17.72417,106954
17.73228,92604
17.74040,85860
17.74853,80229
17.75665,77548
17.76478,72790
17.77290,68434
17.78102,66485
17.78915,64761
17.79727,65955
17.80538,71379
17.81352,82669
17.82163,113778
17.82977,139955
17.83788,168283
17.84600,169721
17.85413,152930
17.86225,148509
17.87038,118317
17.87850,106130
17.88662,93920
17.89475,82893
17.90287,68970
17.91100,64847
17.91912,60202
17.92723,57997
17.93537,57526
17.94348,53007
17.95160,54087
17.95973,54766
17.96785,54770
17.97598,49127
17.98410,52054
17.99222,53669
18.00035,48519
18.00847,49750
18.01660,51340
18.02472,53177
18.03283,62177
18.04097,73866
18.04908,80399
18.05722,112804
18.06533,157694
18.07345,338273
18.08158,664595
18.08970,1178861
18.09782,1746231
18.10595,2134654
18.11407,2097843
18.12220,1734159
18.13032,1285060
18.13843,942204
18.14657,669566
18.15468,525462
18.16282,437595
18.17093,381403
18.17905,356498
18.18718,306038
18.19530,285500
18.20342,251542
18.21155,234322
18.21967,207953
18.22780,196025
18.23592,173697
18.24403,171156
18.25217,161115
18.26028,154027
18.26842,141327
18.27653,125517
18.28465,111073
18.29278,98195
18.30090,79574
18.30903,71555
18.31715,66002
18.32527,65119
18.33340,56835
18.34152,55562
18.34963,60205
18.35777,53572
18.36588,55288
18.37402,48098
18.38213,51918
18.39025,49970
18.39838,52239
18.40650,51284
18.41463,55231
18.42275,54235
18.43087,52408
18.43900,52628
18.44712,59051
18.45523,71689
18.46337,88944
18.47148,122533
18.47962,150688
18.48773,182719
18.49585,199350
18.50398,192158
18.51210,165631
18.52023,137620
18.52835,103668
18.53647,84660
18.54460,70767
18.55272,65332
18.56085,58419
18.56897,53764
18.57708,50985
18.58522,54829
18.59333,55762
18.60145,53868
18.60958,54643
18.61770,53028
18.62583,61193
18.63395,60498
18.64207,58661
18.65020,53211
18.65832,53313
18.66645,49174
18.67457,50432
18.68268,43736
18.69082,41556
18.69893,44151
18.70707,41738
18.71518,43237
18.72330,44338
18.73143,35430
18.73955,42796
18.74767,55261
18.75580,87332
18.76392,121145
18.77205,146957
18.78017,170571
18.78828,185252
18.79642,192078
18.80453,200336
18.81267,198395
18.82078,199213
18.82890,203978
18.83703,205422
18.84515,209297
18.85327,206731
18.86140,212988
18.86952,213065
18.87765,205594
18.88577,211399
18.89388,203040
18.90202,205945
18.91013,206943
18.91827,214755
18.92638,213753
18.93450,213822
18.94263,222281
18.95075,212938
18.95888,216795
18.96700,230019
18.97512,217202
18.98325,215794
18.99137,212268
18.99948,204441
19.00762,202555
19.01573,199220
19.02387,198849
19.03198,199517
19.04010,197797
19.04823,196309
19.05635,196408
19.06448,190302
19.07260,194115
19.08072,192270
19.08885,200662
19.09697,213379
19.10510,224484
19.11322,233691
19.12133,245833
19.12947,245031
19.13758,236959
19.14570,219940
19.15383,212585
19.16195,205327
19.17008,210798
19.17820,202627
19.18632,204773
19.19445,209878
19.20257,212036
19.21070,197587
19.21882,203528
19.22693,192975
19.23507,180986
19.24318,180465
19.25130,175626
19.25943,172416
19.26755,176358
19.27568,184073
19.28380,181117
19.29192,194453
19.30005,197093
19.30817,202086
19.31630,204874
19.32442,198827
19.33253,194897
19.34067,183394
19.34878,173910
19.35692,179204
19.36503,194138
19.37315,199832
19.38128,215642
19.38940,226603
19.39752,214583
19.40565,202088
19.41377,183800
19.42190,184639
19.43002,163060
19.43813,153957
19.44627,152530
19.45438,154886
19.46252,153138
19.47063,152830
19.47875,152441
19.48688,149825
19.49500,153211
19.50312,157772
19.51125,171558
19.51937,189818
19.52750,200853
19.53562,218122
19.54373,199510
19.55187,196301
19.55998,167668
19.56812,156989
19.57623,152427
19.58435,146109
19.59248,139080
19.60060,136311
19.60873,124972
19.61685,128825
19.62497,126909
19.63310,133530
19.64122,142948
19.64933,168006
19.65747,217364
19.66558,292186
19.67372,364149
19.68183,455239
19.68995,479786
19.69808,466305
19.70620,405778
19.71433,346238
19.72245,290595
19.73057,255163
19.73870,224201
19.74682,203956
19.75495,193335
19.76307,172667
19.77118,161339
19.77932,153748
19.78743,155387
19.79555,148719
19.80368,145580
19.81180,148952
19.81993,152064
19.82805,157432
19.83617,150150
19.84430,147158
19.85242,212922
19.86055,471567
19.86867,1304654
19.87678,3435214
19.88492,7757626
19.89303,1.460633E+07
19.90115,2.187569E+07
19.90928,2.8025E+07
19.91740,2.97035E+07
19.92553,2.720625E+07
19.93365,2.212051E+07
19.94177,1.591087E+07
19.94990,1.063156E+07
19.95802,7114892
19.96615,5346116
19.97427,4405723
19.98238,3797804
19.99052,3386304
19.99863,3085039
20.00677,2850308
20.01488,2659476
20.02300,2466118
20.03113,2254958
20.03925,2164825
20.04737,1877753
20.05550,1600595
20.06362,1310649
20.07175,1007676
20.07987,786773
20.08798,615760
20.09612,516967
20.10423,453392
20.11237,430184
20.12048,393288
20.12860,388415
20.13673,374814
20.14485,344542
20.15298,336631
20.16110,341253
20.16922,344917
20.17735,349792
20.18547,358793
20.19358,368543
20.20172,347315
20.20983,361713
20.21797,335816
20.22608,337022
20.23420,322511
20.24233,295196
20.25045,294959
20.25858,314872
20.26670,357171
20.27482,426460
20.28295,531837
20.29107,609921
20.29918,637813
20.30732,615543
20.31543,555525
20.32357,458158
20.33168,398355
20.33980,310263
20.34793,265099
20.35605,212020
20.36418,190016
20.37230,159033
20.38042,142221
20.38855,131860
20.39667,125511
20.40480,118273
20.41292,118961
20.42103,113704
20.42917,122369
20.43728,130604
20.44540,139950
20.45353,154810
20.46165,160139
20.46978,158334
20.47790,154266
20.48602,143674
20.49415,136707
20.50227,121269
20.51040,113472
20.51852,107745
20.52663,103999
20.53477,102410
20.54288,105656
20.55102,97579
20.55913,98283
20.56725,97254
20.57538,94088
20.58350,99404
20.59162,96091
20.59975,90066
20.60787,92312
20.61600,91058
20.62412,88543
20.63223,88126
20.64037,84107
20.64848,88411
20.65662,84357
20.66473,80758
20.67285,85397
20.68098,91067
20.68910,84681
20.69722,79921
20.70535,83937
20.71347,81926
20.72160,81417
20.72972,74084
20.73783,79265
20.74597,79856
20.75408,79066
20.76222,77948
20.77033,75816
20.77845,84436
20.78658,92196
20.79470,96493
20.80283,121787
20.81095,153026
20.81907,189404
20.82720,217791
20.83532,228001
20.84343,207246
20.85157,175827
20.85968,143377
20.86782,116497
20.87593,103369
20.88405,88167
20.89218,88344
20.90030,80251
20.90843,81803
20.91655,80656
20.92467,78971
20.93280,80874
20.94092,79110
20.94903,77014
20.95717,78325
20.96528,76222
20.97342,75859
20.98153,76473
20.98965,78803
20.99778,73457
21.00590,71663
21.01403,76939
21.02215,71072
21.03027,71501
21.03840,70196
21.04652,70984
21.05465,75119
21.06277,72215
21.07088,75901
21.07902,75490
21.08713,73424
21.09525,71494
21.10338,67013
21.11150,75595
21.11963,70318
21.12775,67472
21.13587,72539
21.14400,82462
21.15212,90733
21.16025,99511
21.16837,103051
21.17648,106500
21.18462,107454
21.19273,94293
21.20087,89237
21.20898,84617
21.21710,79391
21.22523,79412
21.23335,87922
21.24147,80790
21.24960,71315
21.25772,73537
21.26585,75475
21.27397,71522
21.28208,69554
21.29022,70440
21.29833,64638
21.30647,65823
21.31458,71902
21.32270,67525
21.33083,65543
21.33895,68407
21.34707,68044
21.35520,67466
21.36332,61029
21.37145,69883
21.37957,59664
21.38768,67620
21.39582,70025
21.40393,84053
21.41207,88067
21.42018,97781
21.42830,110172
21.43643,102269
21.44455,95356
21.45268,84862
21.46080,75459
21.46892,71373
21.47705,68327
21.48517,71837
21.49328,67469
21.50142,61620
21.50953,63472
21.51767,67563
21.52578,64689
21.53390,55421
21.54203,57957
21.55015,59670
21.55828,59647
21.56640,57199
21.57452,54759
21.58265,62173
21.59077,64081
21.59890,62838
21.60702,67799
21.61513,62448
21.62327,62493
21.63138,69818
21.63950,72161
21.64763,81698
21.65575,98963
21.66388,93601
21.67200,101008
21.68012,103281
21.68825,92987
21.69637,86440
21.70450,79083
21.71262,71419
21.72073,66557
21.72887,66038
21.73698,58639
21.74510,56032
21.75323,57393
21.76135,55476
21.76948,55998
21.77760,53434
21.78572,51569
21.79385,51921
21.80197,54880
21.81010,51630
21.81822,54294
21.82633,58066
21.83447,63322
21.84258,76612
21.85072,87883
21.85883,94362
21.86695,97826
21.87508,91672
21.88320,85957
21.89132,78374
21.89945,68426
21.90757,60254
21.91570,60227
21.92382,57581
21.93193,55757
21.94007,55155
21.94818,50894
21.95632,46907
21.96443,48945
21.97255,44554
21.98068,46309
21.98880,43356
21.99692,45749
22.00505,41873
22.01317,42165
22.02130,46184
22.02942,47692
22.03753,47493
22.04567,48759
22.05378,47442
22.06192,43273
22.07003,47811
22.07815,45117
22.08628,47388
22.09440,48004
22.10253,47665
22.11065,44094
22.11877,45641
22.12690,44035
22.13502,41384
22.14313,47920
22.15127,43025
22.15938,42351
22.16752,44180
22.17563,48068
22.18375,44556
22.19188,42966
22.20000,43822
22.20813,44004
22.21625,42043
22.22437,45616
22.23250,46163
22.24062,51030
22.24875,59786
22.25687,51821
22.26498,49551
22.27312,54308
22.28123,60740
22.28935,75589
22.29748,78590
22.30560,87089
22.31373,95953
22.32185,111534
22.32997,129947
22.33810,158338
22.34622,163995
22.35435,164924
22.36247,160437
22.37058,149739
22.37872,130346
22.38683,123938
22.39497,128654
22.40308,130528
22.41120,140962
22.41933,156245
22.42745,160703
22.43557,162907
22.44370,159377
22.45182,154141
22.45995,135904
22.46807,124471
22.47618,117715
22.48432,113751
22.49243,121753
22.50057,116463
22.50868,115181
22.51680,119116
22.52493,120151
22.53305,119202
22.54117,112733
22.54930,110787
22.55742,106693
22.56555,107343
22.57367,101100
22.58178,94505
22.58992,95517
22.59803,90342
22.60617,85957
22.61428,88001
22.62240,87221
22.63053,84599
22.63865,82368
22.64678,83119
22.65490,83414
22.66302,84157
22.67115,86496
22.67927,94515
22.68738,101362
22.69552,96044
22.70363,107133
22.71177,112208
22.71988,111591
22.72800,110737
22.73613,102790
22.74425,103721
22.75238,100194
22.76050,84907
22.76862,83839
22.77675,72110
22.78487,71787
22.79298,76649
22.80112,82487
22.80923,90979
22.81737,87762
22.82548,99674
22.83360,95735
22.84173,88837
22.84985,79339
22.85798,77016
22.86610,75709
22.87422,69335
22.88235,74097
22.89047,78124
22.89860,82269
22.90672,83937
22.91483,94527
22.92297,108175
22.93108,131625
22.93920,150166
22.94733,158588
22.95545,161119
22.96358,143420
22.97170,128663
22.97982,121115
22.98795,100795
22.99607,90147
23.00420,88246
23.01232,83124
23.02043,79294
23.02857,76089
23.03668,70754
23.04482,79508
23.05293,96748
23.06105,106103
23.06918,112857
23.07730,120007
23.08542,119144
23.09355,125411
23.10167,125447
23.10980,133944
23.11792,126874
23.12603,129334
23.13417,125502
23.14228,132719
23.15042,134810
23.15853,124671
23.16665,133057
23.17478,129315
23.18290,135842
23.19102,125744
23.19915,128155
23.20727,132201
23.21540,134096
23.22352,126606
23.23163,131109
23.23977,129507
23.24788,147449
23.25602,154342
23.26413,157114
23.27225,175779
23.28038,168394
23.28850,165975
23.29663,149467
23.30475,139265
23.31287,137580
23.32100,128757
23.32912,132821
23.33723,134621
23.34537,142668
23.35348,157231
23.36162,189517
23.36973,232828
23.37785,300316
23.38598,383553
23.39410,490565
23.40223,611519
23.41035,696039
23.41847,802119
23.42660,856634
23.43472,881886
23.44285,869017
23.45097,840749
23.45908,817341
23.46722,767407
23.47533,713631
23.48345,660366
23.49158,602557
23.49970,554444
23.50783,528981
23.51595,485008
23.52407,436596
23.53220,400287
23.54032,388154
23.54845,357574
23.55657,331474
23.56468,331110
23.57282,313152
23.58093,300836
23.58905,306950
23.59718,303493
23.60530,311902
23.61343,315735
23.62155,301445
23.62967,289217
23.63780,288749
23.64592,319250
23.65405,385784
23.66217,488934
23.67028,588861
23.67842,653383
23.68653,649239
23.69467,565592
23.70278,469308
23.71090,370087
23.71903,305931
23.72715,261137
23.73527,218410
23.74340,206942
23.75152,198693
23.75965,221374
23.76777,344128
23.77588,616253
23.78402,1087198
23.79213,1763971
23.80027,2453672
23.80838,2745166
23.81650,2670467
23.82463,2319470
23.83275,1834025
23.84087,1350372
23.84900,1051655
23.85712,801058
23.86525,642006
23.87337,549077
23.88148,474421
23.88962,417736
23.89773,381636
23.90587,348778
23.91398,337784
23.92210,313895
23.93023,306233
23.93835,279155
23.94648,273561
23.95460,255225
23.96272,241726
23.97085,227491
23.97897,217605
23.98708,211834
23.99522,202993
24.00333,195365
24.01147,187040
24.01958,187039
24.02770,185657
24.03583,196970
24.04395,198737
24.05208,202636
24.06020,207575
24.06832,177758
24.07645,181830
24.08457,170583
24.09270,166533
24.10082,152650
24.10893,152189
24.11707,142634
24.12518,139387
24.13330,141402
24.14143,139805
24.14955,150639
24.15768,151156
24.16580,147737
24.17392,144858
24.18205,142493
24.19017,138905
24.19830,135439
24.20642,128863
24.21453,123408
24.22267,118361
24.23078,124554
24.23890,121341
24.24703,113733
24.25515,107378
24.26328,103971
24.27140,104276
24.27952,99649
24.28765,95442
24.29577,96718
24.30390,88663
24.31202,92105
24.32013,90006
24.32827,93786
24.33638,93597
24.34452,92462
24.35263,89737
24.36075,87745
24.36888,83454
24.37700,84808
24.38512,83026
24.39325,87306
24.40137,88724
24.40950,96831
24.41762,105257
24.42573,114294
24.43387,99786
24.44198,97915
24.45012,88754
24.45823,86021
24.46635,85433
24.47448,89440
24.48260,101395
24.49073,101758
24.49885,110595
24.50697,119176
24.51510,135312
24.52322,141898
24.53133,169920
24.53947,184407
24.54758,192971
24.55572,182945
24.56383,165720
24.57195,150010
24.58008,137511
24.58820,129057
24.59633,110874
24.60445,100589
24.61257,94628
24.62070,87480
24.62882,83820
24.63693,84509
24.64507,85381
24.65318,82611
24.66132,82527
24.66943,76106
24.67755,74855
24.68568,77901
24.69380,71082
24.70193,73443
24.71005,73645
24.71817,70849
24.72630,75448
24.73442,102838
24.74255,130889
24.75067,167394
24.75878,173071
24.76692,191075
24.77503,208348
24.78315,205687
24.79128,205697
24.79940,219003
24.80753,217635
24.81565,226795
24.82377,226656
24.83190,219799
24.84002,223286
24.84815,237600
24.85627,265202
24.86438,295079
24.87252,345903
24.88063,408368
24.88875,494678
24.89688,570160
24.90500,605758
24.91313,606126
24.92125,535897
24.92937,457197
24.93750,370402
24.94562,310827
24.95375,275253
24.96187,242434
24.96998,241276
24.97812,233240
24.98623,235843
24.99437,230448
25.00248,225117
25.01060,225174
25.01873,216243
25.02685,207949
25.03497,211538
25.04310,217462
25.05122,204550
25.05935,204804
25.06747,204204
25.07558,199165
25.08372,204461
25.09183,209477
25.09997,214478
25.10808,244152
25.11620,322294
25.12433,493929
25.13245,858703
25.14058,1352128
25.14870,1873379
25.15682,2186351
25.16495,2252428
25.17307,1940672
25.18118,1480790
25.18932,1041938
25.19743,690696
25.20557,467051
25.21368,345994
25.22180,263029
25.22993,234815
25.23805,219687
25.24618,218760
25.25430,228223
25.26242,228012
25.27055,256827
25.27867,264660
25.28678,262603
25.29492,259901
25.30303,246379
25.31117,227847
25.31928,212123
25.32740,197164
25.33553,182123
25.34365,157399
25.35178,145469
25.35990,117202
25.36802,103379
25.37615,97852
25.38427,96236
25.39240,87149
25.40052,84496
25.40863,85763
25.41677,73812
25.42488,79803
25.43300,77066
25.44113,78242
25.44925,74063
25.45738,73362
25.46550,70229
25.47362,70832
25.48175,80262
25.48987,74088
25.49800,73733
25.50612,69928
25.51423,69567
25.52237,67557
25.53048,72506
25.53862,63459
25.54673,64978
25.55485,60510
25.56298,71469
25.57110,65555
25.57922,61103
25.58735,69596
25.59547,64509
25.60360,62433
25.61172,61863
25.61983,61939
25.62797,61726
25.63608,64851
25.64422,61231
25.65233,60237
25.66045,69739
25.66858,68537
25.67670,66084
25.68482,78730
25.69295,65122
25.70107,63612
25.70920,64210
25.71732,67878
25.72543,61130
25.73357,67517
25.74168,87006
25.74982,114526
25.75793,167757
25.76605,208410
25.77418,254886
25.78230,269273
25.79043,277987
25.79855,271127
25.80667,273388
25.81480,284913
25.82292,292159
25.83103,290944
25.83917,293342
25.84728,307758
25.85542,304154
25.86353,294844
25.87165,282890
25.87978,285194
25.88790,291282
25.89603,278513
25.90415,279011
25.91227,282761
25.92040,285290
25.92852,277695
25.93665,269980
25.94477,279174
25.95288,273982
25.96102,280035
25.96913,269800
25.97725,274858
25.98538,257619
25.99350,262573
26.00163,253905
26.00975,261271
26.01787,257152
26.02600,245367
26.03412,240536
26.04225,249671
26.05037,241999
26.05848,239602
26.06662,240870
26.07473,235098
26.08285,239925
26.09098,233458
26.09910,234516
26.10723,233740
26.11535,229655
26.12347,235363
26.13160,227884
26.13972,238037
26.14785,223029
26.15597,229515
26.16408,239135
26.17222,229704
26.18033,230912
26.18847,233701
26.19658,225886
26.20470,215738
26.21283,212005
26.22095,205839
26.22907,214417
26.23720,201592
26.24532,197448
26.25345,195559
26.26157,191138
26.26968,190254
26.27782,182818
26.28593,192470
26.29407,191501
26.30218,187755
26.31030,180853
26.31843,174592
26.32655,171711
26.33467,177487
26.34280,169494
26.35092,177995
26.35905,175258
26.36717,166919
26.37528,168399
26.38342,167960
26.39153,179706
26.39967,180256
26.40778,176458
26.41590,187970
26.42403,182860
26.43215,174476
26.44028,160446
26.44840,162339
26.45652,152761
26.46465,162110
26.47277,155199
26.48088,157572
26.48902,147392
26.49713,151353
26.50527,145905
26.51338,143635
26.52150,140826
26.52963,137670
26.53775,135882
26.54588,131900
26.55400,133859
26.56212,125730
26.57025,123466
26.57837,127340
26.58650,131178
26.59462,124775
26.60273,124722
26.61087,126688
26.61898,119446
26.62710,123769
26.63523,124348
26.64335,120759
26.65148,124092
26.65960,121804
26.66772,131239
26.67585,125411
26.68397,126482
26.69210,129780
26.70022,115917
26.70833,121125
26.71647,111795
26.72458,114911
26.73270,106832
26.74083,108044
26.74895,113072
26.75708,108962
26.76520,103641
26.77332,99840
26.78145,105497
26.78957,97863
26.79770,109434
26.80582,104558
26.81393,95310
26.82207,104527
26.83018,106020
26.83832,113298
26.84643,101304
26.85455,99369
26.86268,96947
26.87080,94800
26.87892,94078
26.88705,98322
26.89517,89156
26.90330,97539
26.91142,88452
26.91953,94052
26.92767,92976
26.93578,86363
26.94392,86415
26.95203,82128
26.96015,84710
26.96828,94046
26.97640,92860
26.98453,114384
26.99265,154103
27.00077,218864
27.00890,334115
27.01702,506695
27.02513,672525
27.03327,787843
27.04138,852326
27.04952,833717
27.05763,736528
27.06575,565959
27.07388,463415
27.08200,380956
27.09013,311635
27.09825,269004
27.10637,240593
27.11450,211469
27.12262,197789
27.13073,185222
27.13887,173692
27.14698,160944
27.15512,154187
27.16323,153982
27.17135,150057
27.17948,144158
27.18760,143407
27.19573,133803
27.20385,139282
27.21197,134127
27.22010,131462
27.22822,123499
27.23635,113099
27.24447,112183
27.25258,108619
27.26072,105754
27.26883,101785
27.27695,95145
27.28508,94323
27.29320,96869
27.30133,89021
27.30945,91465
27.31757,91127
27.32570,91278
27.33382,89171
27.34195,84123
27.35007,90005
27.35818,88893
27.36632,85014
27.37443,88551
27.38255,84261
27.39068,83283
27.39880,80720
27.40693,82076
27.41505,80091
27.42317,78697
27.43130,81444
27.43942,75750
27.44755,75332
27.45567,74624
27.46378,78116
27.47192,73977
27.48003,72282
27.48817,76862
27.49628,71226
27.50440,78722
27.51253,73520
27.52065,71714
27.52877,74702
27.53690,71142
27.54502,70952
27.55315,76259
27.56127,73404
27.56938,69174
27.57752,73036
27.58563,79124
27.59377,80408
27.60188,90513
27.61000,94294
27.61813,88892
27.62625,85736
27.63438,83386
27.64250,75289
27.65062,69081
27.65875,64673
27.66687,61786
27.67498,63362
27.68312,64078
27.69123,60981
27.69937,60298
27.70748,63112
27.71560,63576
27.72373,61575
27.73185,59937
27.73998,63608
27.74810,64532
27.75622,61322
27.76435,53859
27.77247,60187
27.78060,58629
27.78872,71525
27.79683,61542
27.80497,70102
27.81308,61261
27.82120,65719
27.82933,61807
27.83745,65340
27.84558,62562
27.85370,63418
27.86182,58400
27.86995,61025
27.87807,57818
27.88620,68767
27.89432,61472
27.90243,59350
27.91057,58442
27.91868,61487
27.92680,61592
27.93493,53542
27.94305,60084
27.95118,56237
27.95930,57122
27.96742,56338
27.97555,54448
27.98367,51557
27.99180,57435
27.99992,55262
28.00803,56814
28.01617,54742
28.02428,59380
28.03242,61802
28.04053,58211
28.04865,58798
28.05678,61105
28.06490,61004
28.07302,61818
28.08115,59168
28.08927,62466
28.09740,58381
28.10552,66455
28.11363,65810
28.12177,60994
28.12988,58246
28.13802,57263
28.14613,58227
28.15425,57398
28.16238,52234
28.17050,55733
28.17862,57325
28.18675,55346
28.19487,55214
28.20300,62775
28.21112,67499
28.21923,82112
28.22737,87530
28.23548,91455
28.24362,86055
28.25173,79813
28.25985,76602
28.26798,68009
28.27610,64095
28.28423,58107
28.29235,64261
28.30047,59833
28.30860,63564
28.31672,64934
28.32483,74558
28.33297,82128
28.34108,86908
28.34922,96113
28.35733,127657
28.36545,125390
28.37358,143265
28.38170,156869
28.38983,169455
28.39795,170266
28.40607,178708
28.41420,165474
28.42232,160519
28.43045,150226
28.43857,148988
28.44668,135427
28.45482,126361
28.46293,107715
28.47105,106857
28.47918,96735
28.48730,93951
28.49543,91987
28.50355,87833
28.51167,87240
28.51980,84947
28.52792,78350
28.53605,79321
28.54417,82995
28.55228,74212
28.56042,70021
28.56853,74982
28.57665,71556
28.58478,73840
28.59290,71015
28.60103,66724
28.60915,63797
28.61727,71368
28.62540,69068
28.63352,69581
28.64165,72114
28.64977,67142
28.65788,73958
28.66602,78259
28.67413,75479
28.68227,74912
28.69038,74385
28.69850,74847
28.70663,67696
28.71475,62014
28.72287,61436
28.73100,62187
28.73912,60841
28.74725,59700
28.75537,60042
28.76348,60825
28.77162,65846
28.77973,62317
28.78787,67285
28.79598,76098
28.80410,75326
28.81223,76490
28.82035,72044
28.82848,70461
28.83660,72690
28.84472,67975
28.85285,63317
28.86097,64940
28.86908,59350
28.87722,62890
28.88533,68666
28.89347,66788
28.90158,75609
28.90970,72132
28.91783,71342
28.92595,72543
28.93408,68784
28.94220,64787
28.95032,71102
28.95845,79021
28.96657,73408
28.97468,73318
28.98282,72999
28.99093,73875
28.99907,67655
29.00718,63700
29.01530,60547
29.02343,61943
29.03155,59039
29.03968,62031
29.04780,60803
29.05592,57806
29.06405,57810
29.07217,59365
29.08030,58593
29.08842,55959
29.09653,60205
29.10467,59337
29.11278,58672
29.12090,57744
29.12903,58976
29.13715,55544
29.14528,56906
29.15340,56653
29.16152,56143
29.16965,54855
29.17777,60089
29.18590,58108
29.19402,66581
29.20213,68706
29.21027,81029
29.21838,91173
29.22650,95482
29.23463,95677
29.24275,92461
29.25088,82219
29.25900,74755
29.26712,68715
29.27525,69330
29.28337,61183
29.29150,60427
29.29962,52813
29.30773,57426
29.31587,52628
29.32398,56755
29.33212,51806
29.34023,54433
29.34835,57499
29.35648,51262
29.36460,60039
29.37272,48638
29.38085,51387
29.38897,52215
29.39710,53500
29.40522,52596
29.41333,51494
29.42147,50994
29.42958,59470
29.43772,51637
29.44583,54236
29.45395,49787
29.46208,53983
29.47020,52291
29.47833,47311
29.48645,48736
29.49457,53601
29.50270,60160
29.51082,58051
29.51893,57550
29.52707,57576
29.53518,62583
29.54332,59552
29.55143,53254
29.55955,52325
29.56768,54918
29.57580,56402
29.58393,49554
29.59205,49528
29.60017,48281
29.60830,47797
29.61642,49061
29.62453,48804
29.63267,47805
29.64078,52173
29.64892,48089
29.65703,51940
29.66515,49765
29.67328,49285
29.68140,46777
29.68953,54286
29.69765,60832
29.70577,54709
29.71390,49464
29.72202,55538
29.73015,52943
29.73827,48149
29.74638,50009
29.75452,56148
29.76263,54313
29.77075,50344
29.77888,46236
29.78700,46203
29.79513,49162
29.80325,42890
29.81137,49848
29.81950,43637
29.82762,45247
29.83575,45122
29.84387,44846
29.85198,44011
29.86012,47474
29.86823,51958
29.87637,59470
29.88448,72207
29.89260,94446
29.90073,120922
29.90885,149243
29.91697,149651
29.92510,141389
29.93322,116764
29.94135,92613
29.94947,74694
29.95758,62850
29.96572,63138
29.97383,58251
29.98197,61982
29.99008,68946
29.99820,70262
30.00633,74166
30.01445,82011
30.02257,88426
30.03070,91067
30.03882,95367
30.04695,102022
30.05507,95762
30.06318,103994
30.07132,103335
30.07943,103396
30.08757,99276
30.09568,96397
30.10380,94026
30.11193,90791
30.12005,91590
30.12818,85017
30.13630,80708
30.14442,80134
30.15255,78021
30.16067,72877
30.16878,76308
30.17692,77541
30.18503,73259
30.19317,70533
30.20128,64074
30.20940,72987
30.21753,69142
30.22565,62900
30.23378,63411
30.24190,65812
30.25002,64148
30.25815,59662
30.26627,60884
30.27440,60872
30.28252,59374
30.29063,58094
30.29877,54629
30.30688,60966
30.31500,54415
30.32313,55133
30.33125,55024
30.33938,53779
30.34750,54222
30.35562,52300
30.36375,55238
30.37187,57479
30.38000,51546
30.38812,54541
30.39623,56042
30.40437,49863
30.41248,49634
30.42060,56073
30.42873,51047
30.43685,50715
30.44498,55010
30.45310,55073
30.46122,50497
30.46935,53294
30.47747,49032
30.48560,60589
30.49372,57522
30.50183,56100
30.50997,53493
30.51808,56120
30.52622,54712
30.53433,63325
30.54245,58605
30.55058,55016
30.55870,54638
30.56682,52112
30.57495,54766
30.58307,57656
30.59120,55748
30.59932,54659
30.60743,54728
30.61557,55869
30.62368,62779
30.63182,53646
30.63993,54882
30.64805,57768
30.65618,54641
30.66430,56807
30.67242,53208
30.68055,54430
30.68867,52722
30.69680,53983
30.70492,55742
30.71303,55037
30.72117,63249
30.72928,54049
30.73742,56108
30.74553,57637
30.75365,48320
30.76178,48087
30.76990,52595
30.77803,54269
30.78615,64894
30.79427,66095
30.80240,76256
30.81052,83513
30.81863,90723
30.82677,96252
30.83488,86964
30.84302,75563
30.85113,68001
30.85925,60441
30.86738,54483
30.87550,51796
30.88363,51078
30.89175,46576
30.89987,48503
30.90800,49795
30.91612,54537
30.92425,48427
30.93237,48204
30.94048,47015
30.94862,55971
30.95673,50546
30.96485,46756
30.97298,51624
30.98110,48133
30.98923,49283
30.99735,50213
31.00547,49774
31.01360,46287
31.02172,50027
31.02985,56064
31.03797,52634
31.04608,60159
31.05422,56761
31.06233,59641
31.07045,59721
31.07858,67620
31.08670,79075
31.09483,96122
31.10295,125083
31.11107,165402
31.11920,188887
31.12732,189518
31.13545,160085
31.14357,134130
31.15168,96695
31.15982,82697
31.16793,70643
31.17607,60943
31.18418,64644
31.19230,70001
31.20043,65253
31.20855,72452
31.21667,82905
31.22480,85709
31.23292,91995
31.24105,95664
31.24917,90517
31.25728,77885
31.26542,69522
31.27353,66015
31.28167,47731
31.28978,48023
31.29790,51450
31.30603,51832
31.31415,50528
31.32228,52879
31.33040,50928
31.33852,50251
31.34665,53175
31.35477,53137
31.36288,59428
31.37102,66457
31.37913,74935
31.38727,80820
31.39538,84601
31.40350,103508
31.41163,93067
31.41975,94038
31.42788,83168
31.43600,79751
31.44412,76860
31.45225,78589
31.46037,75829
31.46848,73379
31.47662,76556
31.48473,73103
31.49287,75883
31.50098,73275
31.50910,69672
31.51723,76120
31.52535,77057
31.53348,74784
31.54160,72243
31.54972,70243
31.55785,79492
31.56597,76783
31.57410,72983
31.58222,73046
31.59033,73169
31.59847,73273
31.60658,70941
31.61470,70033
31.62283,74765
31.63095,76390
31.63908,75107
31.64720,72736
31.65532,75023
31.66345,71502
31.67157,75970
31.67970,75209
31.68782,75739
31.69593,77820
31.70407,69747
31.71218,69850
31.72030,72588
31.72843,78055
31.73655,66414
31.74468,62938
31.75280,61077
31.76092,66307
31.76905,64833
31.77717,70263
31.78530,68284
31.79342,64219
31.80153,61638
31.80967,67612
31.81778,61567
31.82592,64905
31.83403,67074
31.84215,63614
31.85028,65370
31.85840,70942
31.86652,75031
31.87465,73436
31.88277,70356
31.89090,74708
31.89902,74955
31.90713,69063
31.91527,77703
31.92338,80279
31.93152,79741
31.93963,85645
31.94775,86395
31.95588,84268
31.96400,89609
31.97213,86012
31.98025,95969
31.98837,94063
31.99650,93252
32.00462,94858
32.01273,94670
32.02087,90049
32.02898,89682
32.03712,91019
32.04523,85642
32.05335,82910
32.06148,79015
32.06960,71869
32.07773,82940
32.08585,72939
32.09397,70029
32.10210,69064
32.11022,70591
32.11833,67409
32.12647,65891
32.13458,62483
32.14272,64048
32.15083,64965
32.15895,62241
32.16708,61682
32.17520,60364
32.18333,56109
32.19145,61082
32.19957,61545
32.20770,57624
32.21582,62747
32.22395,52770
32.23207,55692
32.24018,56814
32.24832,58794
32.25643,62285
32.26455,61907
32.27268,63957
32.28080,60519
32.28893,60309
32.29705,59110
32.30517,57160
32.31330,56621
32.32142,51662
32.32955,52855
32.33767,51437
32.34578,53892
32.35392,52746
32.36203,51890
32.37017,54586
32.37828,56265
32.38640,56269
32.39453,52011
32.40265,52862
32.41077,51222
32.41890,58977
32.42702,54188
32.43515,49693
32.44327,50574
32.45138,54134
32.45952,48560
32.46763,51188
32.47577,48157
32.48388,49420
32.49200,52462
32.50013,50980
32.50825,50345
32.51637,51887
32.52450,50364
32.53262,48916
32.54075,52925
32.54887,51149
32.55698,55349
32.56512,52713
32.57323,48520
32.58137,52472
32.58948,48576
32.59760,51241
32.60573,47800
32.61385,48040
32.62198,45957
32.63010,44698
32.63822,56709
32.64635,50120
32.65447,47036
32.66258,49989
32.67072,51634
32.67883,51916
32.68697,56425
32.69508,59606
32.70320,57863
32.71133,59626
32.71945,58527
32.72758,55853
32.73570,51861
32.74382,51676
32.75195,48141
32.76007,51924
32.76820,49385
32.77632,48419
32.78443,48915
32.79257,46026
32.80068,47305
32.80880,47447
32.81693,46083
32.82505,48356
32.83318,51614
32.84130,54611
32.84942,46281
32.85755,45986
32.86567,47909
32.87380,48853
32.88192,48320
32.89003,45232
32.89817,48705
32.90628,46538
32.91440,50297
32.92253,46458
32.93065,49594
32.93878,47227
32.94690,52261
32.95502,48187
32.96315,48788
32.97127,48726
32.97940,50505
32.98752,56305
32.99563,60201
33.00377,60660
33.01188,71216
33.02002,69586
33.02813,62987
33.03625,59484
33.04438,58521
33.05250,56974
33.06062,58052
33.06875,56648
33.07687,59932
33.08500,59801
33.09312,62199
33.10123,64581
33.10937,73276
33.11748,82764
33.12562,91416
33.13373,94659
33.14185,89696
33.14998,78300
33.15810,68817
33.16623,62166
33.17435,55809
33.18247,55600
33.19060,53636
33.19872,51653
33.20683,48609
33.21497,50192
33.22308,51382
33.23122,53756
33.23933,49751
33.24745,45439
33.25558,48758
33.26370,48471
33.27183,49509
33.27995,53710
33.28807,52556
33.29620,49505
33.30432,46573
33.31243,46066
33.32057,46246
33.32868,47577
33.33682,45588
33.34493,47195
33.35305,46515
33.36118,51451
33.36930,48124
33.37743,53866
33.38555,49336
33.39367,52847
33.40180,47637
33.40992,43728
33.41805,49664
33.42617,46920
33.43428,44809
33.44242,44117
33.45053,45470
33.45865,41640
33.46678,46817
33.47490,46919
33.48303,44214
33.49115,46498
33.49927,44971
33.50740,47326
33.51552,45925
33.52365,47174
33.53177,44638
33.53988,46754
33.54802,49858
33.55613,53646
33.56425,56469
33.57238,54450
33.58050,53401
33.58863,52841
33.59675,49942
33.60487,56081
33.61300,50620
33.62112,45220
33.62925,50676
33.63737,45677
33.64548,45475
33.65362,49822
33.66173,48798
33.66987,53418
33.67798,53632
33.68610,50510
33.69423,52825
33.70235,43595
33.71047,48732
33.71860,45252
33.72672,45238
33.73485,48402
33.74297,44616
33.75108,48050
33.75922,45712
33.76733,47626
33.77547,42180
33.78358,43514
33.79170,43559
33.79983,44008
33.80795,44659
33.81608,44944
33.82420,45822
33.83232,50804
33.84045,48281
33.84857,51062
33.85668,45271
33.86482,53386
33.87293,49590
33.88107,51123
33.88918,51427
33.89730,51645
33.90543,48404
33.91355,47798
33.92168,49545
33.92980,52215
33.93792,47531
33.94605,49625
33.95417,45778
33.96228,49136
33.97042,52363
33.97853,47323
33.98667,47199
33.99478,42809
34.00290,45521
34.01103,48471
34.01915,51839
34.02728,43655
34.03540,49592
34.04352,48564
34.05165,48126
34.05977,44703
34.06790,48810
34.07602,47196
34.08413,49844
34.09227,47008
34.10038,45668
34.10850,47097
34.11663,46892
34.12475,48682
34.13288,48789
34.14100,47036
34.14912,47494
34.15725,46067
34.16537,46606
34.17350,44229
34.18162,49104
34.18973,48465
34.19787,45552
34.20598,47008
34.21412,44843
34.22223,47960
34.23035,47797
34.23848,49019
34.24660,46861
34.25472,43116
34.26285,44492
34.27097,44816
34.27910,42512
34.28722,43984
34.29533,46430
34.30347,44447
34.31158,42931
34.31972,49864
34.32783,43762
34.33595,55503
34.34408,48208
34.35220,46482
34.36032,48061
34.36845,45833
34.37657,46778
34.38470,42619
34.39282,45662
34.40093,44448
34.40907,46200
34.41718,45657
34.42532,50879
34.43343,43171
34.44155,44859
34.44968,42353
34.45780,42869
34.46593,47436
34.47405,47576
34.48217,46427
34.49030,46065
34.49842,50916
34.50653,46899
34.51467,47875
34.52278,49554
34.53092,43133
34.53903,48689
34.54715,55351
34.55528,60616
34.56340,63165
34.57153,69389
34.57965,67648
34.58777,65216
34.59590,68202
34.60402,66364
34.61213,62952
34.62027,58512
34.62838,62621
34.63652,58078
34.64463,56981
34.65275,58011
34.66088,54192
34.66900,54172
34.67713,50798
34.68525,51921
34.69337,48652
34.70150,53022
34.70962,50440
34.71775,51056
34.72587,52743
34.73398,49607
34.74212,45894
34.75023,49638
34.75835,52938
34.76648,48484
34.77460,52613
34.78273,50045
34.79085,53410
34.79897,49771
34.80710,53009
34.81522,48495
34.82335,46318
34.83147,55085
34.83958,48858
34.84772,54774
34.85583,49324
34.86397,48000
34.87208,48879
34.88020,51837
34.88833,46700
34.89645,49189
34.90457,47574
34.91270,51407
34.92082,50630
34.92895,52792
34.93707,52037
34.94518,70770
34.95332,83294
34.96143,117668
34.96957,191211
34.97768,259559
34.98580,345107
34.99393,364215
35.00205,338492
35.01017,250618
35.01830,168063
35.02642,112223
35.03455,77043
35.04267,67437
35.05078,66296
35.05892,61622
35.06703,60418
35.07517,56471
35.08328,57335
35.09140,60938
35.09953,55365
35.10765,57536
35.11578,56219
35.12390,51275
35.13202,56201
35.14015,51058
35.14827,52463
35.15638,57243
35.16452,55189
35.17263,58253
35.18077,54486
35.18888,50968
35.19700,55408
35.20513,56279
35.21325,51597
35.22138,54838
35.22950,49568
35.23762,48986
35.24575,53544
35.25387,50892
35.26200,56564
35.27012,57492
35.27823,59090
35.28637,56319
35.29448,53427
35.30260,55983
35.31073,56485
35.31885,57659
35.32698,51111
35.33510,51120
35.34322,46724
35.35135,49121
35.35947,51957
35.36760,48968
35.37572,53494
35.38383,48116
35.39197,46735
35.40008,49347
35.40820,49203
35.41633,54008
35.42445,52192
35.43258,51454
35.44070,55378
35.44882,49704
35.45695,55738
35.46507,54089
35.47320,61481
35.48132,60027
35.48943,56438
35.49757,65396
35.50568,58573
35.51382,59378
35.52193,57206
35.53005,56256
35.53818,56428
35.54630,56997
35.55442,52157
35.56255,51449
35.57067,53460
35.57880,49591
35.58692,52191
35.59503,52220
35.60317,57522
35.61128,54273
35.61942,53896
35.62753,51496
35.63565,51421
35.64378,50168
35.65190,48863
35.66003,47045
35.66815,48110
35.67627,49614
35.68440,54627
35.69252,51341
35.70063,54036
35.70877,56440
35.71688,54978
35.72502,51329
35.73313,52612
35.74125,53541
35.74938,55657
35.75750,55408
35.76563,54836
35.77375,58686
35.78187,63669
35.79000,57890
35.79812,55951
35.80623,53830
35.81437,55733
35.82248,52555
35.83062,55376
35.83873,54226
35.84685,49350
35.85498,54710
35.86310,56189
35.87123,54003
35.87935,48386
35.88747,54518
35.89560,50862
35.90372,49424
35.91185,49167
35.91997,53656
35.92808,54299
35.93622,50227
35.94433,47583
35.95245,47672
35.96058,53638
35.96870,50117
35.97683,51058
35.98495,50726
35.99307,57978
36.00120,51532
36.00932,53662
36.01745,55500
36.02557,56858
36.03368,56860
36.04182,54168
36.04993,52862
36.05805,52744
36.06618,53061
36.07430,56176
36.08243,51324
36.09055,55047
36.09867,54865
36.10680,50822
36.11492,50238
36.12305,53196
36.13117,51379
36.13928,54308
36.14742,53107
36.15553,55297
36.16367,52750
36.17178,53519
36.17990,51071
36.18803,54263
36.19615,54013
36.20427,53423
36.21240,54755
36.22052,49952
36.22865,53667
36.23677,49784
36.24488,51150
36.25302,51705
36.26113,47197
36.26927,52753
36.27738,54927
36.28550,58528
36.29363,50271
36.30175,53611
36.30988,55864
36.31800,52532
36.32612,58883
36.33425,62922
36.34237,61184
36.35048,56731
36.35862,59232
36.36673,58402
36.37487,52008
36.38298,55029
36.39110,57402
36.39923,51472
36.40735,55100
36.41548,61359
36.42360,58806
36.43172,56223
36.43985,52162
36.44797,56292
36.45608,53675
36.46422,51551
36.47233,48543
36.48047,55543
36.48858,52385
36.49670,52481
36.50483,54337
36.51295,49568
36.52108,55148
36.52920,53898
36.53732,53442
36.54545,51095
36.55357,50994
36.56170,54299
36.56982,51825
36.57793,48723
36.58607,49830
36.59418,57294
36.60230,56325
36.61043,50621
36.61855,53361
36.62668,52832
36.63480,52237
36.64292,54384
36.65105,53194
36.65917,54418
36.66730,54692
36.67542,57851
36.68353,55514
36.69167,52620
36.69978,55308
36.70792,53665
36.71603,52831
36.72415,51822
36.73228,63534
36.74040,55948
36.74852,59242
36.75665,54561
36.76477,55686
36.77290,54046
36.78102,55929
36.78913,52405
36.79727,54425
36.80538,54642
36.81352,57438
36.82163,57897
36.82975,64425
36.83788,64531
36.84600,69250
36.85412,67459
36.86225,69243
36.87037,67931
36.87850,64204
36.88662,58426
36.89473,67567
36.90287,71867
36.91098,68353
36.91912,69879
36.92723,70021
36.93535,72726
36.94348,71581
36.95160,74062
36.95973,74600
36.96785,86476
36.97597,87320
36.98410,82362
36.99222,85282
37.00033,79846
37.00847,79139
37.01658,75743
37.02472,80509
37.03283,77200
37.04095,70558
37.04908,69884
37.05720,66106
37.06533,66591
37.07345,71159
37.08157,67884
37.08970,72296
37.09782,69616
37.10593,68386
37.11407,70581
37.12218,67897
37.13032,68742
37.13843,67942
37.14655,68185
37.15468,66907
37.16280,71087
37.17093,70167
37.17905,69818
37.18717,67140
37.19530,67637
37.20342,69953
37.21155,67860
37.21967,73814
37.22778,71446
37.23592,70219
37.24403,67619
37.25215,69518
37.26028,65623
37.26840,66529
37.27653,64109
37.28465,69019
37.29277,65563
37.30090,66387
37.30902,60968
37.31715,68504
37.32527,70615
37.33338,65427
37.34152,63618
37.34963,68477
37.35777,72128
37.36588,69163
37.37400,81347
37.38213,77576
37.39025,73635
37.39837,74318
37.40650,73185
37.41462,73196
37.42275,72900
37.43087,73041
37.43898,68708
37.44712,73321
37.45523,71808
37.46337,68605
37.47148,69494
37.47960,71745
37.48773,66311
