C:\MassHunter\GCMS\1\data\JTB-E02\BACandBLUE\JTB-E18-015-13.D Wed Jun 26 15:27:13 2019
Start of data points
2.09523,61955
2.10335,61002
2.11147,67535
2.11960,69020
2.12772,67442
2.13585,65578
2.14397,63931
2.15208,64990
2.16022,64403
2.16833,66971
2.17647,63519
2.18458,63117
2.19270,66461
2.20083,73700
2.20895,191953
2.21707,649725
2.22520,949626
2.23332,534506
2.24145,301630
2.24957,231564
2.25768,198214
2.26582,186137
2.27393,172558
2.28207,165921
2.29018,150750
2.29830,136430
2.30643,129601
2.31455,120870
2.32268,125222
2.33080,116502
2.33892,112464
2.34705,120116
2.35517,107428
2.36328,110766
2.37142,113359
2.37953,106774
2.38767,112829
2.39578,99833
2.40390,97056
2.41203,100009
2.42015,96362
2.42828,108575
2.43640,143772
2.44452,138502
2.45265,113073
2.46077,102895
2.46888,102809
2.47702,102538
2.48513,102241
2.49327,106749
2.50138,121767
2.50950,148720
2.51763,139361
2.52575,115198
2.53388,113075
2.54200,129509
2.55012,272943
2.55825,514196
2.56637,461414
2.57450,292077
2.58262,205740
2.59073,167122
2.59887,145192
2.60698,132193
2.61510,126720
2.62323,120301
2.63135,110518
2.63948,108752
2.64760,101105
2.65572,109926
2.66385,102270
2.67197,105862
2.68010,96865
2.68822,96639
2.69633,99451
2.70447,100487
2.71258,97335
2.72070,115626
2.72883,194820
2.73695,239238
2.74508,190685
2.75320,145278
2.76132,150160
2.76945,155074
2.77757,147039
2.78570,139790
2.79382,124135
2.80193,112924
2.81007,107824
2.81818,100942
2.82632,102042
2.83443,95830
2.84255,97295
2.85068,91605
2.85880,91972
2.86692,88229
2.87505,91017
2.88317,90261
2.89130,91635
2.89942,89761
2.90753,100722
2.91567,100656
2.92378,95913
2.93192,92159
2.94003,95521
2.94815,98627
2.95628,101704
2.96440,91125
2.97253,93049
2.98065,89291
2.98877,87910
2.99690,88203
3.00502,92918
3.01313,92032
3.02127,104529
3.02938,235036
3.03752,730031
3.04563,1666417
3.05375,3397340
3.06188,4624169
3.07000,3684653
3.07813,2339626
3.08625,1674369
3.09437,1290000
3.10250,1025975
3.11062,857602
3.11875,754876
3.12687,751465
3.13498,975661
3.14312,1550451
3.15123,1703160
3.15935,1269269
3.16748,961262
3.17560,788613
3.18373,677955
3.19185,575662
3.19997,522609
3.20810,458548
3.21622,409488
3.22435,390604
3.23247,400423
3.24058,764504
3.24872,2166863
3.25683,4713540
3.26495,6418617
3.27308,5791920
3.28120,4167001
3.28933,2881057
3.29745,2132790
3.30557,1686274
3.31370,1407937
3.32182,1192041
3.32995,1025688
3.33807,907181
3.34618,813544
3.35432,736200
3.36243,668664
3.37057,621711
3.37868,581462
3.38680,550479
3.39493,531659
3.40305,489833
3.41117,472220
3.41930,474527
3.42742,477886
3.43555,469634
3.44367,446362
3.45178,412489
3.45992,405908
3.46803,380832
3.47617,372060
3.48428,371098
3.49240,377950
3.50053,372646
3.50865,348329
3.51677,337262
3.52490,333426
3.53302,342615
3.54115,332937
3.54927,316941
3.55738,312946
3.56552,306910
3.57363,323155
3.58177,325174
3.58988,329904
3.59800,319331
3.60613,325358
3.61425,600316
3.62238,2024688
3.63050,4925102
3.63862,6303939
3.64675,4778913
3.65487,2961088
3.66298,2079061
3.67112,1658269
3.67923,1405894
3.68737,1237989
3.69548,1090060
3.70360,1007086
3.71173,934043
3.71985,868864
3.72798,806926
3.73610,773500
3.74422,735810
3.75235,815038
3.76047,1306279
3.76858,2173963
3.77672,2423152
3.78483,1923887
3.79297,1389105
3.80108,1120958
3.80920,961629
3.81733,861263
3.82545,772791
3.83358,723692
3.84170,682240
3.84982,647409
3.85795,635878
3.86607,629271
3.87420,721799
3.88232,866101
3.89043,881467
3.89857,822454
3.90668,1070663
3.91480,1878824
3.92293,2686391
3.93105,2510350
3.93918,1755263
3.94730,1421129
3.95542,2677846
3.96355,6147827
3.97167,9297326
3.97980,8671843
3.98792,5437300
3.99603,2919580
4.00417,1781806
4.01228,1270749
4.02042,1013850
4.02853,856596
4.03665,750888
4.04478,683444
4.05290,612131
4.06102,583789
4.06915,534026
4.07727,503400
4.08540,503816
4.09352,533055
4.10163,681600
4.10977,830771
4.11788,837952
4.12602,722613
4.13413,629565
4.14225,559097
4.15038,500419
4.15850,522321
4.16663,1005406
4.17475,3280655
4.18287,8362778
4.19100,1.377611E+07
4.19912,1.583442E+07
4.20723,1.313157E+07
4.21537,8354115
4.22348,5198112
4.23162,3607688
4.23973,2707266
4.24785,2096644
4.25598,1733757
4.26410,1460659
4.27223,1277377
4.28035,1148122
4.28847,1034531
4.29660,973705
4.30472,913507
4.31283,897377
4.32097,870864
4.32908,818675
4.33722,753244
4.34533,681914
4.35345,629616
4.36158,588893
4.36970,562156
4.37783,550132
4.38595,529033
4.39407,516437
4.40220,482546
4.41032,468377
4.41845,458377
4.42657,437858
4.43468,434813
4.44282,422370
4.45093,411406
4.45905,404144
4.46718,385358
4.47530,383434
4.48343,381485
4.49155,369612
4.49967,363427
4.50780,355407
4.51592,356086
4.52405,355777
4.53217,335150
4.54028,335223
4.54842,326529
4.55653,324355
4.56465,325870
4.57278,328634
4.58090,363288
4.58903,516837
4.59715,739850
4.60527,875396
4.61340,800377
4.62152,613013
4.62965,485954
4.63777,410536
4.64588,384535
4.65402,340727
4.66213,336687
4.67027,314119
4.67838,303335
4.68650,287566
4.69463,290819
4.70275,287259
4.71087,282574
4.71900,270568
4.72712,267414
4.73525,255180
4.74337,256936
4.75148,264161
4.75962,287407
4.76773,311372
4.77587,332603
4.78398,315187
4.79210,299252
4.80023,317336
4.80835,332316
4.81648,336533
4.82460,305338
4.83272,294195
4.84085,271165
4.84897,259135
4.85708,257606
4.86522,255446
4.87333,253111
4.88147,249610
4.88958,248923
4.89770,304315
4.90583,523898
4.91395,1147164
4.92208,2274607
4.93020,3366187
4.93832,3794578
4.94645,3357736
4.95457,2530654
4.96268,1809539
4.97082,1357383
4.97893,1084248
4.98707,995841
4.99518,1133646
5.00330,1367306
5.01143,1451125
5.01955,1277277
5.02768,1032767
5.03580,846367
5.04392,755285
5.05205,694521
5.06017,642583
5.06830,601879
5.07642,562687
5.08453,535067
5.09267,505265
5.10078,485996
5.10890,473905
5.11703,498640
5.12515,531396
5.13328,573086
5.14140,552105
5.14952,509697
5.15765,494711
5.16577,500710
5.17390,536570
5.18202,521349
5.19013,489021
5.19827,463390
5.20638,445284
5.21452,427962
5.22263,390517
5.23075,366150
5.23888,345527
5.24700,334944
5.25512,313000
5.26325,315220
5.27137,305025
5.27950,305559
5.28762,311882
5.29573,341577
5.30387,369857
5.31198,391034
5.32012,369423
5.32823,335491
5.33635,315199
5.34448,300236
5.35260,294997
5.36072,297180
5.36885,304741
5.37697,305248
5.38510,293500
5.39322,274437
5.40133,275016
5.40947,261751
5.41758,271608
5.42572,275186
5.43383,256935
5.44195,263870
5.45008,255215
5.45820,246056
5.46633,244791
5.47445,246138
5.48257,264726
5.49070,252630
5.49882,252394
5.50693,247771
5.51507,249163
5.52318,237728
5.53132,278931
5.53943,312188
5.54755,324668
5.55568,312760
5.56380,280563
5.57193,246663
5.58005,239932
5.58817,248782
5.59630,255931
5.60442,261471
5.61253,262035
5.62067,261085
5.62878,251331
5.63692,241632
5.64503,255267
5.65315,280585
5.66128,318606
5.66940,335966
5.67753,310745
5.68565,272369
5.69377,255914
5.70190,233337
5.71002,231275
5.71815,225371
5.72627,215108
5.73438,217844
5.74252,210738
5.75063,207740
5.75875,201211
5.76688,206077
5.77500,201215
5.78313,200858
5.79125,209943
5.79937,200419
5.80750,201067
5.81562,205044
5.82375,202544
5.83187,198683
5.83998,202853
5.84812,193137
5.85623,192381
5.86437,194941
5.87248,193835
5.88060,190605
5.88873,196804
5.89685,205029
5.90497,191340
5.91310,176197
5.92122,167144
5.92935,186329
5.93747,202204
5.94558,234948
5.95372,272436
5.96183,291610
5.96997,283626
5.97808,263700
5.98620,220980
5.99433,187861
6.00245,171528
6.01057,148970
6.01870,146012
6.02682,149545
6.03495,142450
6.04307,138640
6.05118,139182
6.05932,139806
6.06743,127409
6.07557,133913
6.08368,140302
6.09180,166489
6.09993,223725
6.10805,357766
6.11618,475899
6.12430,512633
6.13242,449404
6.14055,339343
6.14867,266214
6.15678,225838
6.16492,216146
6.17303,197266
6.18117,194258
6.18928,195581
6.19740,190340
6.20553,187053
6.21365,183269
6.22178,187666
6.22990,189257
6.23802,191281
6.24615,189899
6.25427,185180
6.26240,183313
6.27052,183051
6.27863,184280
6.28677,176294
6.29488,183718
6.30300,192496
6.31113,177076
6.31925,179095
6.32738,175395
6.33550,177282
6.34362,181213
6.35175,184685
6.35987,186224
6.36800,182195
6.37612,185072
6.38423,191806
6.39237,181814
6.40048,183956
6.40860,179617
6.41673,191517
6.42485,179352
6.43298,192214
6.44110,196206
6.44922,188310
6.45735,197500
6.46547,190813
6.47360,195285
6.48172,197088
6.48983,189422
6.49797,195734
6.50608,197451
6.51422,197416
6.52233,196998
6.53045,205062
6.53858,212526
6.54670,234364
6.55482,260392
6.56295,261411
6.57107,246754
6.57920,223660
6.58732,222936
6.59543,207806
6.60357,209414
6.61168,217938
6.61982,302719
6.62793,563994
6.63605,1086895
6.64418,1559678
6.65230,1637392
6.66043,1318677
6.66855,1001671
6.67667,657169
6.68480,475453
6.69292,385149
6.70103,331943
6.70917,295974
6.71728,268120
6.72542,251396
6.73353,229114
6.74165,221600
6.74978,215693
6.75790,210835
6.76603,196100
6.77415,186110
6.78227,172280
6.79040,169943
6.79852,162352
6.80663,162982
6.81477,169563
6.82288,168439
6.83102,174127
6.83913,190594
6.84725,179702
6.85538,173407
6.86350,147044
6.87163,122474
6.87975,107125
6.88787,96746
6.89600,92802
6.90412,96284
6.91225,92990
6.92037,86792
6.92848,90130
6.93662,101038
6.94473,125311
6.95285,154612
6.96098,167712
6.96910,161555
6.97723,144021
6.98535,122409
6.99347,108015
7.00160,110861
7.00972,101752
7.01785,100649
7.02597,105025
7.03408,94206
7.04222,96975
7.05033,96322
7.05845,99237
7.06658,92867
7.07470,93083
7.08283,91534
7.09095,87738
7.09907,86218
7.10720,85976
7.11532,99842
7.12345,128639
7.13157,169190
7.13968,204532
7.14782,212213
7.15593,183865
7.16407,163114
7.17218,217607
7.18030,427055
7.18843,894033
7.19655,1396050
7.20467,1584083
7.21280,1313712
7.22092,863568
7.22905,506868
7.23717,300667
7.24528,195510
7.25342,139462
7.26153,112547
7.26967,101516
7.27778,98766
7.28590,96741
7.29403,94351
7.30215,111152
7.31028,109960
7.31840,109659
7.32652,110394
7.33465,104109
7.34277,100814
7.35088,96210
7.35902,95587
7.36713,96357
7.37527,104989
7.38338,99307
7.39150,105370
7.39963,94687
7.40775,92216
7.41588,94441
7.42400,86605
7.43212,88689
7.44025,82446
7.44837,83027
7.45648,84660
7.46462,77142
7.47273,76955
7.48087,75784
7.48898,77363
7.49710,81496
7.50523,91610
7.51335,134648
7.52148,193891
7.52960,286687
7.53772,383688
7.54585,439673
7.55397,448655
7.56210,395954
7.57022,304616
7.57833,213522
7.58647,149642
7.59458,116922
7.60270,97682
7.61083,92263
7.61895,86631
7.62708,84993
7.63520,75345
7.64332,74162
7.65145,74274
7.65957,69622
7.66770,68497
7.67582,70839
7.68393,71992
7.69207,73130
7.70018,73135
7.70832,73749
7.71643,72915
7.72455,74131
7.73268,77073
7.74080,78088
7.74892,77019
7.75705,81244
7.76517,84167
7.77330,81425
7.78142,86678
7.78953,91440
7.79767,91433
7.80578,83945
7.81392,83198
7.82203,72206
7.83015,75259
7.83828,73935
7.84640,77252
7.85452,84556
7.86265,92237
7.87077,91495
7.87890,100338
7.88702,95523
7.89513,92998
7.90327,93157
7.91138,113097
7.91952,130842
7.92763,143149
7.93575,141924
7.94388,125164
7.95200,103067
7.96013,97439
7.96825,78699
7.97637,72699
7.98450,69708
7.99262,63778
8.00073,64516
8.00887,66704
8.01698,62933
8.02512,63471
8.03323,65876
8.04135,67916
8.04948,61031
8.05760,64396
8.06573,61008
8.07385,60500
8.08197,62601
8.09010,63886
8.09822,66421
8.10633,64348
8.11447,76226
8.12258,87913
8.13072,102340
8.13883,102477
8.14695,97028
8.15508,85161
8.16320,74039
8.17133,69002
8.17945,66082
8.18757,65654
8.19570,66594
8.20382,64691
8.21195,66586
8.22007,65279
8.22818,67968
8.23632,62423
8.24443,62431
8.25255,58807
8.26068,60026
8.26880,64234
8.27693,59438
8.28505,61247
8.29317,65210
8.30130,67765
8.30942,64797
8.31755,69757
8.32567,63041
8.33378,59827
8.34192,59806
8.35003,64280
8.35817,62153
8.36628,62985
8.37440,61981
8.38253,61738
8.39065,63693
8.39877,57936
8.40690,59935
8.41502,56264
8.42315,53795
8.43127,55979
8.43938,56114
8.44752,54571
8.45563,55516
8.46377,56312
8.47188,54011
8.48000,58064
8.48813,60549
8.49625,73992
8.50438,120933
8.51250,215090
8.52062,318806
8.52875,377383
8.53687,339989
8.54498,247660
8.55312,158485
8.56123,107830
8.56937,87051
8.57748,79883
8.58560,84933
8.59373,78380
8.60185,83751
8.60998,80574
8.61810,82594
8.62622,69065
8.63435,65696
8.64247,66045
8.65058,67286
8.65872,58583
8.66683,64652
8.67497,67784
8.68308,72681
8.69120,73556
8.69933,74506
8.70745,72366
8.71558,64000
8.72370,67931
8.73182,64023
8.73995,82469
8.74807,155264
8.75620,351653
8.76432,685559
8.77243,1073017
8.78057,1310938
8.78868,1275480
8.79680,960537
8.80493,646463
8.81305,401237
8.82118,292425
8.82930,252819
8.83742,231288
8.84555,210114
8.85367,192112
8.86180,170397
8.86992,158981
8.87803,153904
8.88617,144719
8.89428,138399
8.90240,140004
8.91053,138720
8.91865,150020
8.92678,150491
8.93490,160909
8.94302,141663
8.95115,136414
8.95927,128639
8.96740,128061
8.97552,128139
8.98363,123283
8.99177,119911
8.99988,120238
9.00802,108573
9.01613,105008
9.02425,102076
9.03238,100236
9.04050,95905
9.04862,96677
9.05675,100006
9.06487,94044
9.07300,98549
9.08112,103822
9.08923,113826
9.09737,126466
9.10548,134628
9.11362,133914
9.12173,125448
9.12985,113979
9.13798,108195
9.14610,103005
9.15423,98889
9.16235,96857
9.17047,89131
9.17860,93663
9.18672,91310
9.19483,90898
9.20297,88569
9.21108,88311
9.21922,86118
9.22733,82321
9.23545,82053
9.24358,85831
9.25170,85795
9.25983,83050
9.26795,80989
9.27607,83428
9.28420,85129
9.29232,79288
9.30043,79258
9.30857,74817
9.31668,79839
9.32482,75572
9.33293,73083
9.34105,76297
9.34918,71738
9.35730,74587
9.36543,73968
9.37355,72721
9.38167,70663
9.38980,80332
9.39792,85870
9.40605,99717
9.41417,108738
9.42228,120685
9.43042,128684
9.43853,132460
9.44665,125038
9.45478,107777
9.46290,88017
9.47103,85898
9.47915,78189
9.48727,79681
9.49540,82991
9.50352,90462
9.51165,100654
9.51977,104508
9.52788,93992
9.53602,91982
9.54413,78849
9.55227,83416
9.56038,100119
9.56850,121905
9.57663,145798
9.58475,164072
9.59287,159232
9.60100,129657
9.60912,93316
9.61725,76498
9.62537,60439
9.63348,57160
9.64162,58623
9.64973,58958
9.65787,57601
9.66598,55381
9.67410,56305
9.68223,53867
9.69035,51141
9.69847,48240
9.70660,45401
9.71472,49172
9.72285,45593
9.73097,46586
9.73908,43399
9.74722,42016
9.75533,43237
9.76347,44164
9.77158,44963
9.77970,42934
9.78783,44092
9.79595,46575
9.80408,44026
9.81220,45200
9.82032,42767
9.82845,44428
9.83657,46888
9.84468,46741
9.85282,47650
9.86093,48227
9.86907,45812
9.87718,50841
9.88530,44579
9.89343,42847
9.90155,47627
9.90968,51210
9.91780,59246
9.92592,72648
9.93405,96057
9.94217,107323
9.95028,115698
9.95842,109216
9.96653,96704
9.97467,85031
9.98278,76832
9.99090,70045
9.99903,63014
10.00715,62819
10.01528,59850
10.02340,62079
10.03152,53917
10.03965,55703
10.04777,55837
10.05590,55085
10.06402,59482
10.07213,56125
10.08027,55108
10.08838,53076
10.09650,56197
10.10463,54512
10.11275,57965
10.12088,49844
10.12900,50097
10.13712,51077
10.14525,48247
10.15337,46989
10.16150,53326
10.16962,45181
10.17773,50679
10.18587,44912
10.19398,44229
10.20212,48070
10.21023,44503
10.21835,50306
10.22648,55588
10.23460,61677
10.24272,90618
10.25085,175424
10.25897,424828
10.26710,923663
10.27522,1681827
10.28333,2603979
10.29147,3716047
10.29958,5487739
10.30772,8029943
10.31583,1.092129E+07
10.32395,1.264867E+07
10.33208,1.149796E+07
10.34020,8100608
10.34832,4698223
10.35645,2650856
10.36457,1660882
10.37270,1234213
10.38082,953424
10.38893,723337
10.39707,529723
10.40518,416181
10.41332,343413
10.42143,307471
10.42955,291151
10.43768,268140
10.44580,254894
10.45393,239494
10.46205,213824
10.47017,200665
10.47830,180686
10.48642,174298
10.49453,164558
10.50267,153530
10.51078,158794
10.51892,151362
10.52703,141797
10.53515,146507
10.54328,141583
10.55140,135798
10.55953,134421
10.56765,129381
10.57577,127145
10.58390,121808
10.59202,115851
10.60015,113557
10.60827,111153
10.61638,101229
10.62452,96721
10.63263,101916
10.64075,92301
10.64888,89072
10.65700,88417
10.66513,86837
10.67325,90551
10.68137,82286
10.68950,84501
10.69762,87895
10.70575,83482
10.71387,87152
10.72198,83658
10.73012,84628
10.73823,84070
10.74635,77864
10.75448,79479
10.76260,84056
10.77073,75488
10.77885,67544
10.78697,74375
10.79510,71782
10.80322,73183
10.81135,71839
10.81947,74957
10.82758,71318
10.83572,69123
10.84383,63768
10.85197,64764
10.86008,59380
10.86820,63492
10.87633,63032
10.88445,65738
10.89257,59952
10.90070,57940
10.90882,61824
10.91695,61266
10.92507,58008
10.93318,58974
10.94132,55226
10.94943,58859
10.95757,56556
10.96568,60172
10.97380,54967
10.98193,57865
10.99005,57590
10.99817,58462
11.00630,57410
11.01442,59717
11.02255,52827
11.03067,52224
11.03878,52504
11.04692,52942
11.05503,51546
11.06317,53978
11.07128,54611
11.07940,59671
11.08753,58178
11.09565,60136
11.10378,54870
11.11190,51638
11.12002,52607
11.12815,45245
11.13627,47491
11.14438,50720
11.15252,45890
11.16063,50476
11.16877,52049
11.17688,52800
11.18500,54297
11.19313,60710
11.20125,51684
11.20938,49191
11.21750,47006
11.22562,42440
11.23375,41912
11.24187,43247
11.25000,43165
11.25812,41546
11.26623,39521
11.27437,39450
11.28248,43755
11.29060,58735
11.29873,78805
11.30685,125182
11.31498,220477
11.32310,364296
11.33122,499217
11.33935,614931
11.34747,615343
11.35560,517089
11.36372,376992
11.37183,278116
11.37997,206437
11.38808,167614
11.39620,135139
11.40433,123017
11.41245,100380
11.42058,97906
11.42870,86340
11.43682,79663
11.44495,67277
11.45307,71569
11.46120,86481
11.46932,109824
11.47743,152606
11.48557,186284
11.49368,209639
11.50182,199314
11.50993,171968
11.51805,134199
11.52618,118703
11.53430,98456
11.54242,94358
11.55055,84056
11.55867,84573
11.56680,82685
11.57492,82190
11.58303,86784
11.59117,97650
11.59928,115427
11.60742,132856
11.61553,136422
11.62365,127435
11.63178,102540
11.63990,85648
11.64803,72685
11.65615,60111
11.66427,60004
11.67240,59018
11.68052,58735
11.68863,56941
11.69677,63521
11.70488,58028
11.71302,56053
11.72113,56113
11.72925,60050
11.73738,54679
11.74550,52267
11.75363,54264
11.76175,45503
11.76987,45340
11.77800,45991
11.78612,49028
11.79423,48997
11.80237,46309
11.81048,49034
11.81862,49093
11.82673,48700
11.83485,51251
11.84298,46285
11.85110,45373
11.85923,44156
11.86735,42870
11.87547,41734
11.88360,43592
11.89172,43261
11.89985,45937
11.90797,48238
11.91608,51614
11.92422,56791
11.93233,53395
11.94045,50921
11.94858,46760
11.95670,48486
11.96483,46902
11.97295,60702
11.98107,87633
11.98920,127101
11.99732,163868
12.00545,184931
12.01357,173392
12.02168,134242
12.02982,105845
12.03793,81793
12.04607,67674
12.05418,61239
12.06230,57731
12.07043,58215
12.07855,58913
12.08667,60390
12.09480,56281
12.10292,58511
12.11105,62506
12.11917,65053
12.12728,61272
12.13542,65345
12.14353,65862
12.15167,59515
12.15978,56051
12.16790,50379
12.17603,51869
12.18415,50449
12.19227,57043
12.20040,45977
12.20852,49282
12.21665,51438
12.22477,49716
12.23288,47668
12.24102,50022
12.24913,50921
12.25727,48378
12.26538,43257
12.27350,46268
12.28163,45181
12.28975,46443
12.29788,41757
12.30600,44318
12.31412,43220
12.32225,45575
12.33037,41857
12.33848,43198
12.34662,40210
12.35473,42247
12.36287,38606
12.37098,39804
12.37910,43592
12.38723,46265
12.39535,53242
12.40348,64905
12.41160,81335
12.41972,94385
12.42785,94340
12.43597,83131
12.44408,77731
12.45222,66669
12.46033,53996
12.46847,55497
12.47658,55538
12.48470,51624
12.49283,47964
12.50095,48813
12.50908,47103
12.51720,49627
12.52532,60134
12.53345,70395
12.54157,96429
12.54970,123977
12.55782,134686
12.56593,130729
12.57407,114490
12.58218,87746
12.59030,76484
12.59843,65039
12.60655,59581
12.61468,56427
12.62280,53759
12.63092,54821
12.63905,49848
12.64717,48548
12.65530,45574
12.66342,45050
12.67153,46153
12.67967,48987
12.68778,41839
12.69592,40785
12.70403,44276
12.71215,45663
12.72028,45757
12.72840,49594
12.73652,49696
12.74465,48594
12.75277,49922
12.76090,48576
12.76902,42759
12.77713,38002
12.78527,37056
12.79338,40608
12.80152,36453
12.80963,37103
12.81775,39336
12.82588,37652
12.83400,37340
12.84212,33283
12.85025,37308
12.85837,34993
12.86650,34673
12.87462,33491
12.88273,35278
12.89087,35274
12.89898,35525
12.90712,33734
12.91523,35317
12.92335,33850
12.93148,39332
12.93960,35042
12.94773,42556
12.95585,58705
12.96397,76195
12.97210,93242
12.98022,93590
12.98833,86232
12.99647,74022
13.00458,66391
13.01272,52901
13.02083,45735
13.02895,45436
13.03708,42478
13.04520,38175
13.05333,39268
13.06145,41575
13.06957,39387
13.07770,39200
13.08582,40388
13.09395,43338
13.10207,40638
13.11018,40234
13.11832,34031
13.12643,33417
13.13455,39400
13.14268,34377
13.15080,37648
13.15893,39326
13.16705,38078
13.17517,42063
13.18330,42611
13.19142,41723
13.19955,43504
13.20767,47397
13.21578,46131
13.22392,39021
13.23203,44866
13.24015,42559
13.24828,37386
13.25640,39800
13.26453,37962
13.27265,36192
13.28077,34894
13.28890,32675
13.29702,32040
13.30515,34639
13.31327,35284
13.32138,40155
13.32952,31927
13.33763,34762
13.34577,36268
13.35388,35612
13.36200,33667
13.37013,32137
13.37825,35430
13.38637,32876
13.39450,30410
13.40262,30853
13.41075,30980
13.41887,32396
13.42698,32770
13.43512,29872
13.44323,32140
13.45137,29312
13.45948,34458
13.46760,30803
13.47573,33598
13.48385,32430
13.49197,30736
13.50010,33729
13.50822,36154
13.51635,33720
13.52447,34500
13.53258,31502
13.54072,33347
13.54883,32774
13.55697,33469
13.56508,33694
13.57320,38422
13.58133,43602
13.58945,51677
13.59758,77645
13.60570,104140
13.61382,122649
13.62195,138092
13.63007,129323
13.63818,108652
13.64632,81642
13.65443,59941
13.66257,52192
13.67068,47268
13.67880,43512
13.68693,40103
13.69505,36865
13.70318,37943
13.71130,37636
13.71942,44295
13.72755,65440
13.73567,117478
13.74380,259676
13.75192,542317
13.76003,936882
13.76817,1332324
13.77628,1582026
13.78440,1418503
13.79253,1137749
13.80065,834860
13.80878,606156
13.81690,497291
13.82502,466632
13.83315,473719
13.84127,439854
13.84940,402363
13.85752,341428
13.86563,274424
13.87377,224187
13.88188,186353
13.89002,174793
13.89813,152468
13.90625,138351
13.91438,127466
13.92250,125906
13.93062,116306
13.93875,114085
13.94687,113211
13.95500,110182
13.96312,113701
13.97123,119321
13.97937,124959
13.98748,120125
13.99562,119432
14.00373,111964
14.01185,99754
14.01998,97073
14.02810,92994
14.03622,95548
14.04435,87747
14.05247,96439
14.06060,86916
14.06872,85838
14.07683,94475
14.08497,85348
14.09308,84376
14.10122,88527
14.10933,83458
14.11745,79140
14.12558,80707
14.13370,81758
14.14183,91952
14.14995,86043
14.15807,90661
14.16620,100848
14.17432,122799
14.18243,171747
14.19057,255176
14.19868,337383
14.20682,388393
14.21493,379580
14.22305,329824
14.23118,268754
14.23930,216745
14.24743,184648
14.25555,168785
14.26367,144440
14.27180,134196
14.27992,118904
14.28803,110729
14.29617,98938
14.30428,96594
14.31242,90804
14.32053,92169
14.32865,90633
14.33678,84452
14.34490,81109
14.35303,71964
14.36115,68877
14.36927,68093
14.37740,67642
14.38552,80566
14.39365,115318
14.40177,183625
14.40988,285958
14.41802,366180
14.42613,390614
14.43425,324178
14.44238,244825
14.45050,176073
14.45863,126424
14.46675,97960
14.47487,88963
14.48300,80801
14.49112,74905
14.49925,72665
14.50737,68927
14.51548,69669
14.52362,66495
14.53173,66988
14.53987,65604
14.54798,63680
14.55610,60634
14.56423,57368
14.57235,55578
14.58047,52365
14.58860,49357
14.59672,51449
14.60485,52023
14.61297,50941
14.62108,45582
14.62922,46617
14.63733,47827
14.64547,47689
14.65358,49275
14.66170,43887
14.66983,42018
14.67795,39940
14.68607,42720
14.69420,45076
14.70232,40464
14.71045,43867
14.71857,47350
14.72668,46618
14.73482,49638
14.74293,47183
14.75107,54762
14.75918,51460
14.76730,51803
14.77543,59795
14.78355,73215
14.79168,123703
14.79980,280745
14.80792,639318
14.81605,1178892
14.82417,1757542
14.83228,2076949
14.84042,2064435
14.84853,1636782
14.85667,1115021
14.86478,695116
14.87290,461027
14.88103,324853
14.88915,255765
14.89728,206031
14.90540,178021
14.91352,153418
14.92165,145789
14.92977,131958
14.93790,122461
14.94602,116333
14.95413,111536
14.96227,107421
14.97038,102888
14.97850,99472
14.98663,96831
14.99475,90602
15.00288,88878
15.01100,86265
15.01912,81301
15.02725,77138
15.03537,74731
15.04350,77286
15.05162,74938
15.05973,75339
15.06787,64332
15.07598,68276
15.08410,68486
15.09223,64406
15.10035,63412
15.10848,65281
15.11660,64922
15.12472,73599
15.13285,69761
15.14097,75684
15.14910,75531
15.15722,77652
15.16533,70504
15.17347,59795
15.18158,54112
15.18972,53634
15.19783,47999
15.20595,50113
15.21408,46199
15.22220,46415
15.23032,46016
15.23845,45497
15.24657,40655
15.25470,45284
15.26282,43031
15.27093,48325
15.27907,39423
15.28718,41893
15.29532,40711
15.30343,44276
15.31155,39202
15.31968,42055
15.32780,36457
15.33592,42236
15.34405,41204
15.35217,38528
15.36030,41330
15.36842,38435
15.37653,40764
15.38467,35415
15.39278,36734
15.40092,37280
15.40903,39353
15.41715,43688
15.42528,36229
15.43340,38568
15.44153,38406
15.44965,38069
15.45777,42196
15.46590,46343
15.47402,60756
15.48213,76441
15.49027,100747
15.49838,125024
15.50652,132415
15.51463,151281
15.52275,161383
15.53088,180826
15.53900,200068
15.54713,229240
15.55525,222794
15.56337,204316
15.57150,159855
15.57962,119573
15.58775,87598
15.59587,67580
15.60398,64550
15.61212,53968
15.62023,49648
15.62835,53756
15.63648,50399
15.64460,47218
15.65273,45921
15.66085,44574
15.66897,40946
15.67710,40187
15.68522,38712
15.69335,39551
15.70147,38723
15.70958,40494
15.71772,40658
15.72583,40710
15.73395,40644
15.74208,49638
15.75020,57730
15.75833,79768
15.76645,108977
15.77457,164894
15.78270,223919
15.79082,259065
15.79895,238225
15.80707,201636
15.81518,150281
15.82332,110026
15.83143,82090
15.83957,73087
15.84768,66952
15.85580,60343
15.86393,59058
15.87205,56844
15.88017,57081
15.88830,56349
15.89642,55479
15.90455,50422
15.91267,48912
15.92078,53650
15.92892,51506
15.93703,53775
15.94517,55106
15.95328,63725
15.96140,76548
15.96953,89558
15.97765,100078
15.98578,97895
15.99390,92239
16.00202,80311
16.01015,72318
16.01827,71670
16.02638,70181
16.03452,71779
16.04263,71150
16.05077,59980
16.05888,53685
16.06700,55533
16.07513,48606
16.08325,52085
16.09138,49478
16.09950,46789
16.10762,44014
16.11575,46719
16.12387,49054
16.13198,49099
16.14012,54162
16.14823,55350
16.15637,56202
16.16448,52241
16.17260,49562
16.18073,46468
16.18885,47483
16.19698,45704
16.20510,46788
16.21322,48119
16.22135,48574
16.22947,43075
16.23760,43978
16.24572,43715
16.25383,42835
16.26197,41778
16.27008,40712
16.27820,44528
16.28633,47299
16.29445,48441
16.30258,47070
16.31070,47849
16.31882,50925
16.32695,49384
16.33507,49516
16.34320,50165
16.35132,57932
16.35943,68311
16.36757,86822
16.37568,107059
16.38380,101407
16.39193,90483
16.40005,78904
16.40818,66401
16.41630,52644
16.42442,53519
16.43255,50876
16.44067,52760
16.44880,51872
16.45692,62173
16.46503,66078
16.47317,72376
16.48128,78424
16.48942,80803
16.49753,70968
16.50565,58519
16.51378,54567
16.52190,53099
16.53002,46767
16.53815,44703
16.54627,48534
16.55440,49225
16.56252,43851
16.57063,48808
16.57877,51176
16.58688,52486
16.59502,60258
16.60313,65853
16.61125,77220
16.61938,84095
16.62750,79116
16.63563,71956
16.64375,62571
16.65187,58801
16.66000,50619
16.66812,46578
16.67623,46501
16.68437,44585
16.69248,43083
16.70062,43465
16.70873,45081
16.71685,48413
16.72498,43366
16.73310,40266
16.74123,41474
16.74935,42773
16.75747,42370
16.76560,43959
16.77372,41366
16.78183,46478
16.78997,41015
16.79808,38125
16.80622,37850
16.81433,35872
16.82245,36688
16.83058,37738
16.83870,36055
16.84683,37315
16.85495,33053
16.86307,34115
16.87120,35474
16.87932,36496
16.88745,35521
16.89557,37416
16.90368,32447
16.91182,35571
16.91993,36908
16.92805,38082
16.93618,36906
16.94430,35426
16.95243,34293
16.96055,36869
16.96867,36628
16.97680,35923
16.98492,37781
16.99305,35478
17.00117,39510
17.00928,35906
17.01742,38474
17.02553,42040
17.03367,41779
17.04178,45345
17.04990,43653
17.05803,50349
17.06615,45464
17.07427,44264
17.08240,37440
17.09052,39838
17.09865,39530
17.10677,46433
17.11488,41902
17.12302,41492
17.13113,45829
17.13927,43239
17.14738,40866
17.15550,45328
17.16363,44130
17.17175,44392
17.17987,41732
17.18800,41102
17.19612,38579
17.20425,38892
17.21237,39177
17.22048,37946
17.22862,36991
17.23673,38761
17.24487,38395
17.25298,37377
17.26110,36427
17.26923,37459
17.27735,36580
17.28548,35402
17.29360,31306
17.30172,36649
17.30985,37251
17.31797,40655
17.32608,44763
17.33422,49058
17.34233,49957
17.35047,57558
17.35858,59243
17.36670,59469
17.37483,58419
17.38295,52184
17.39108,53779
17.39920,51062
17.40732,51685
17.41545,52055
17.42357,51017
17.43170,52077
17.43982,51084
17.44793,51425
17.45607,47615
17.46418,42598
17.47230,46325
17.48043,44300
17.48855,43515
17.49668,44755
17.50480,39556
17.51292,43082
17.52105,40951
17.52917,38386
17.53730,42878
17.54542,44366
17.55353,47729
17.56167,75069
17.56978,118300
17.57790,190713
17.58603,342691
17.59415,557723
17.60228,736761
17.61040,870630
17.61852,837084
17.62665,696881
17.63477,489700
17.64290,332785
17.65102,231333
17.65913,182016
17.66727,146675
17.67538,137168
17.68352,121713
17.69163,105034
17.69975,95736
17.70788,90121
17.71600,81401
17.72412,80066
17.73225,75880
17.74037,73831
17.74850,64808
17.75662,67081
17.76473,57688
17.77287,62878
17.78098,61219
17.78912,60184
17.79723,62576
17.80535,67500
17.81348,87661
17.82160,100355
17.82972,107022
17.83785,112833
17.84597,109435
17.85410,103552
17.86222,97742
17.87033,87183
17.87847,77791
17.88658,72796
17.89472,67006
17.90283,65566
17.91095,56624
17.91908,54207
17.92720,54651
17.93533,51520
17.94345,50320
17.95157,50435
17.95970,52333
17.96782,47204
17.97593,44837
17.98407,46848
17.99218,45782
18.00032,46207
18.00843,51701
18.01655,56166
18.02468,64401
18.03280,70080
18.04093,75439
18.04905,77922
18.05717,80999
18.06530,91260
18.07342,116039
18.08155,160633
18.08967,213734
18.09778,233919
18.10592,240508
18.11403,216851
18.12215,168952
18.13028,149603
18.13840,133205
18.14653,114626
18.15465,110312
18.16277,104061
18.17090,94156
18.17902,92308
18.18715,85499
18.19527,87164
18.20338,76293
18.21152,72938
18.21963,67906
18.22775,67472
18.23588,67687
18.24400,65292
18.25213,60909
18.26025,63761
18.26837,61943
18.27650,61562
18.28462,55152
18.29275,53577
18.30087,48075
18.30898,46346
18.31712,45923
18.32523,47714
18.33337,43376
18.34148,43665
18.34960,60787
18.35773,76731
18.36585,126829
18.37397,181140
18.38210,216619
18.39022,241908
18.39835,269973
18.40647,282325
18.41458,291569
18.42272,283738
18.43083,310756
18.43897,323969
18.44708,346862
18.45520,387958
18.46333,438388
18.47145,490411
18.47958,551558
18.48770,577786
18.49582,553989
18.50395,496406
18.51207,441884
18.52018,386999
18.52832,338242
18.53643,320075
18.54457,308537
18.55268,292469
18.56080,292276
18.56893,281477
18.57705,282563
18.58518,275757
18.59330,272886
18.60142,285412
18.60955,275390
18.61767,273946
18.62578,271026
18.63392,272667
18.64203,271633
18.65017,266301
18.65828,255989
18.66640,252163
18.67453,239765
18.68265,238945
18.69078,240545
18.69890,230907
18.70702,227152
18.71515,226751
18.72327,224417
18.73140,217430
18.73952,220294
18.74763,214219
18.75577,214863
18.76388,211025
18.77200,217520
18.78013,214256
18.78825,208422
18.79638,201482
18.80450,204522
18.81262,201563
18.82075,201302
18.82887,197428
18.83700,200190
18.84512,190092
18.85323,188597
18.86137,193458
18.86948,188776
18.87760,185364
18.88573,178418
18.89385,180371
18.90198,177025
18.91010,188112
18.91822,182191
18.92635,184514
18.93447,180682
18.94260,182158
18.95072,177280
18.95883,182628
18.96697,190165
18.97508,178620
18.98322,178939
18.99133,169628
18.99945,168040
19.00758,167449
19.01570,157803
19.02382,162060
19.03195,157557
19.04007,156161
19.04820,160172
19.05632,168634
19.06443,182178
19.07257,250910
19.08068,372346
19.08882,571878
19.09693,822662
19.10505,1017574
19.11318,1110548
19.12130,1013047
19.12943,781353
19.13755,563977
19.14567,410715
19.15380,300988
19.16192,251720
19.17003,205879
19.17817,183770
19.18628,180498
19.19442,168033
19.20253,162289
19.21065,156386
19.21878,154036
19.22690,151756
19.23503,151750
19.24315,148859
19.25127,142009
19.25940,136369
19.26752,132876
19.27565,139296
19.28377,131141
19.29188,137802
19.30002,144375
19.30813,142614
19.31625,141112
19.32438,134611
19.33250,127994
19.34063,133079
19.34875,139282
19.35687,161894
19.36500,178223
19.37312,189223
19.38125,206215
19.38937,193155
19.39748,176168
19.40562,157837
19.41373,151778
19.42185,135147
19.42998,124618
19.43810,123460
19.44623,121645
19.45435,120476
19.46247,123385
19.47060,125545
19.47872,141313
19.48685,171193
19.49497,208127
19.50308,258009
19.51122,292501
19.51933,295364
19.52747,253680
19.53558,208890
19.54370,173523
19.55183,144048
19.55995,132785
19.56807,123301
19.57620,116781
19.58432,110518
19.59245,104576
19.60057,105694
19.60868,102487
19.61682,101965
19.62493,104074
19.63307,111838
19.64118,125255
19.64930,147280
19.65743,181093
19.66555,233567
19.67367,253752
19.68180,280296
19.68992,272414
19.69805,264906
19.70617,239649
19.71428,209228
19.72242,183236
19.73053,161325
19.73867,152546
19.74678,135742
19.75490,129687
19.76303,121244
19.77115,121263
19.77928,120461
19.78740,138216
19.79552,145706
19.80365,147048
19.81177,146069
19.81988,137675
19.82802,129748
19.83613,121795
19.84427,110073
19.85238,117359
19.86050,132535
19.86863,195082
19.87675,312467
19.88488,526146
19.89300,772887
19.90112,988134
19.90925,1037909
19.91737,981736
19.92550,850334
19.93362,688627
19.94173,574529
19.94987,478075
19.95798,419843
19.96610,386581
19.97423,360141
19.98235,332484
19.99048,332368
19.99860,319040
20.00672,301635
20.01485,292724
20.02297,277326
20.03110,273035
20.03922,247153
20.04733,237098
20.05547,204084
20.06358,193678
20.07170,174838
20.07983,155244
20.08795,153812
20.09608,151293
20.10420,146865
20.11232,133081
20.12045,124391
20.12857,115479
20.13670,104743
20.14482,104491
20.15293,109946
20.16107,110032
20.16918,121974
20.17732,137076
20.18543,149689
20.19355,158750
20.20168,165127
20.20980,160045
20.21792,146032
20.22605,137578
20.23417,125374
20.24230,130950
20.25042,137246
20.25853,160801
20.26667,196169
20.27478,231981
20.28292,246550
20.29103,257353
20.29915,242227
20.30728,221918
20.31540,183984
20.32353,161353
20.33165,141678
20.33977,120569
20.34790,112022
20.35602,99370
20.36413,90160
20.37227,88619
20.38038,87654
20.38852,77184
20.39663,79494
20.40475,77020
20.41288,74825
20.42100,82566
20.42913,84907
20.43725,92054
20.44537,87775
20.45350,92723
20.46162,94941
20.46973,89390
20.47787,87600
20.48598,81531
20.49412,80489
20.50223,79016
20.51035,72540
20.51848,67595
20.52660,74120
20.53473,71204
20.54285,73183
20.55097,73134
20.55910,70726
20.56722,72510
20.57535,71991
20.58347,70158
20.59158,67271
20.59972,65362
20.60783,63546
20.61595,59701
20.62408,60678
20.63220,60493
20.64033,61520
20.64845,66403
20.65657,72949
20.66470,69286
20.67282,65933
20.68095,62689
20.68907,62819
20.69718,64749
20.70532,61815
20.71343,60382
20.72155,58124
20.72968,62427
20.73780,62695
20.74593,65690
20.75405,64594
20.76217,70679
20.77030,69537
20.77842,81183
20.78655,100555
20.79467,138574
20.80278,199084
20.81092,274799
20.81903,341701
20.82717,365712
20.83528,335231
20.84340,263563
20.85153,189120
20.85965,127209
20.86777,102467
20.87590,88769
20.88402,78188
20.89215,75836
20.90027,78034
20.90838,71380
20.91652,72437
20.92463,72724
20.93277,76034
20.94088,71689
20.94900,72194
20.95713,70365
20.96525,68432
20.97338,64657
20.98150,66304
20.98962,63256
20.99775,67590
21.00587,64030
21.01398,67404
21.02212,70255
21.03023,60616
21.03837,63090
21.04648,67495
21.05460,65228
21.06273,66238
21.07085,62766
21.07898,64575
21.08710,65474
21.09522,59919
21.10335,54949
21.11147,55438
21.11958,59070
21.12772,59339
21.13583,65321
21.14397,72463
21.15208,85163
21.16020,88366
21.16833,96659
21.17645,100775
21.18458,88710
21.19270,82341
21.20082,74431
21.20895,65909
21.21707,62848
21.22520,59251
21.23332,62626
21.24143,55311
21.24957,60701
21.25768,60104
21.26580,58044
21.27393,58255
21.28205,55173
21.29018,53479
21.29830,52864
21.30642,53755
21.31455,54061
21.32267,50637
21.33080,50461
21.33892,50224
21.34703,53327
21.35517,49283
21.36328,48181
21.37142,48730
21.37953,47537
21.38765,51831
21.39578,49680
21.40390,49791
21.41202,55948
21.42015,53625
21.42827,57815
21.43640,55629
21.44452,55070
21.45263,55013
21.46077,50713
21.46888,55214
21.47702,46990
21.48513,48472
21.49325,50333
21.50138,50662
21.50950,49053
21.51762,51391
21.52575,48134
21.53387,48386
21.54200,47739
21.55012,48801
21.55823,47785
21.56637,46393
21.57448,53158
21.58262,56219
21.59073,57322
21.59885,65846
21.60698,71220
21.61510,69865
21.62323,75489
21.63135,76291
21.63947,81426
21.64760,87299
21.65572,92049
21.66383,86358
21.67197,89869
21.68008,93320
21.68822,85591
21.69633,81365
21.70445,81431
21.71258,75044
21.72070,69017
21.72883,63407
21.73695,63033
21.74507,58860
21.75320,62753
21.76132,57232
21.76945,60059
21.77757,59190
21.78568,56112
21.79382,58640
21.80193,55652
21.81005,58571
21.81818,57608
21.82630,69243
21.83443,73855
21.84255,74892
21.85067,74625
21.85880,70099
21.86692,66801
21.87505,64909
21.88317,59231
21.89128,61560
21.89942,51663
21.90753,53018
21.91565,51660
21.92378,55385
21.93190,50259
21.94003,51480
21.94815,45002
21.95627,45803
21.96440,44199
21.97252,41916
21.98065,45036
21.98877,48535
21.99688,58072
22.00502,69386
22.01313,72680
22.02127,74463
22.02938,80859
22.03750,86016
22.04563,90549
22.05375,92298
22.06187,95026
22.07000,88766
22.07812,83307
22.08625,87168
22.09437,90702
22.10248,89453
22.11062,90013
22.11873,87527
22.12687,86534
22.13498,90521
22.14310,95028
22.15123,89645
22.15935,86521
22.16747,84240
22.17560,87132
22.18372,82116
22.19185,81940
22.19997,81194
22.20808,76490
22.21622,79080
22.22433,76872
22.23247,67323
22.24058,63277
22.24870,66158
22.25683,63427
22.26495,60100
22.27308,64566
22.28120,62599
22.28932,70518
22.29745,68552
22.30557,71093
22.31368,68729
22.32182,67753
22.32993,72139
22.33807,65071
22.34618,65619
22.35430,65084
22.36243,62407
22.37055,57709
22.37868,59846
22.38680,64795
22.39492,75529
22.40305,100598
22.41117,121536
22.41930,128998
22.42742,150588
22.43553,137984
22.44367,130033
22.45178,102521
22.45990,89429
22.46803,73061
22.47615,73990
22.48428,73151
22.49240,82593
22.50052,89223
22.50865,104191
22.51677,106260
22.52490,118781
22.53302,132066
22.54113,139667
22.54927,148227
22.55738,143771
22.56550,148462
22.57363,152969
22.58175,150291
22.58988,150344
22.59800,147544
22.60612,145044
22.61425,151687
22.62237,151379
22.63050,148078
22.63862,154067
22.64673,162321
22.65487,152107
22.66298,154509
22.67112,163531
22.67923,157475
22.68735,163512
22.69548,160573
22.70360,166857
22.71172,170458
22.71985,174545
22.72797,171023
22.73610,172678
22.74422,168720
22.75233,162819
22.76047,157560
22.76858,158759
22.77672,155804
22.78483,160750
22.79295,165329
22.80108,184089
22.80920,192568
22.81733,196528
22.82545,193583
22.83357,184819
22.84170,163962
22.84982,158840
22.85793,161931
22.86607,157800
22.87418,151773
22.88232,172297
22.89043,176841
22.89855,190438
22.90668,211396
22.91480,238289
22.92293,265190
22.93105,269083
22.93917,279184
22.94730,244522
22.95542,215605
22.96353,186125
22.97167,170206
22.97978,156028
22.98792,147891
22.99603,143416
23.00415,139113
23.01228,130767
23.02040,122571
23.02853,124640
23.03665,114912
23.04477,117581
23.05290,115704
23.06102,116466
23.06915,118575
23.07727,114686
23.08538,112719
23.09352,110234
23.10163,114083
23.10975,99488
23.11788,102588
23.12600,100517
23.13413,100303
23.14225,101057
23.15037,105608
23.15850,101485
23.16662,96382
23.17475,95355
23.18287,96226
23.19098,94748
23.19912,93422
23.20723,94086
23.21535,92267
23.22348,92871
23.23160,88202
23.23973,97490
23.24785,100823
23.25597,91571
23.26410,103257
23.27222,100291
23.28035,101379
23.28847,99469
23.29658,98861
23.30472,90796
23.31283,91255
23.32097,94626
23.32908,99116
23.33720,105247
23.34533,120384
23.35345,138539
23.36157,172071
23.36970,200340
23.37782,219850
23.38595,248852
23.39407,265904
23.40218,279628
23.41032,289749
23.41843,296148
23.42657,286702
23.43468,285529
23.44280,276529
23.45093,265956
23.45905,267241
23.46718,239604
23.47530,230472
23.48342,222835
23.49155,212155
23.49967,194463
23.50778,186252
23.51592,173215
23.52403,171532
23.53217,158804
23.54028,154047
23.54840,155575
23.55653,152876
23.56465,152664
23.57278,166435
23.58090,193390
23.58902,232043
23.59715,273362
23.60527,313285
23.61338,321121
23.62152,300631
23.62963,250276
23.63777,221570
23.64588,196383
23.65400,197984
23.66213,215760
23.67025,210879
23.67838,200380
23.68650,181257
23.69462,154610
23.70275,129618
23.71087,117971
23.71900,106761
23.72712,97747
23.73523,95964
23.74337,101213
23.75148,146964
23.75960,238772
23.76773,439678
23.77585,802416
23.78398,1308002
23.79210,1780029
23.80022,1970249
23.80835,1947560
23.81647,1726933
23.82460,1375184
23.83272,1106723
23.84083,845923
23.84897,658023
23.85708,537755
23.86522,443190
23.87333,384653
23.88145,340243
23.88958,302514
23.89770,284742
23.90582,265548
23.91395,244545
23.92207,234300
23.93020,223569
23.93832,214373
23.94643,193468
23.95457,185034
23.96268,171871
23.97082,161706
23.97893,148333
23.98705,153245
23.99518,154387
24.00330,156967
24.01142,188246
24.01955,244831
24.02767,324507
24.03580,375650
24.04392,383508
24.05203,351268
24.06017,278574
24.06828,206709
24.07642,163114
24.08453,131486
24.09265,116522
24.10078,108052
24.10890,107171
24.11703,104453
24.12515,102955
24.13327,102426
24.14140,107087
24.14952,105631
24.15763,110428
24.16577,105305
24.17388,110793
24.18202,105929
24.19013,101758
24.19825,103557
24.20638,104685
24.21450,100216
24.22263,99700
24.23075,87726
24.23887,87582
24.24700,84295
24.25512,86606
24.26323,82663
24.27137,74623
24.27948,83416
24.28762,91094
24.29573,123091
24.30385,144186
24.31198,161620
24.32010,166913
24.32823,182880
24.33635,193074
24.34447,195890
24.35260,201830
24.36072,202355
24.36885,213776
24.37697,228016
24.38508,244712
24.39322,271162
24.40133,289744
24.40945,277016
24.41758,265051
24.42570,244589
24.43383,230426
24.44195,219243
24.45007,215562
24.45820,214124
24.46632,208948
24.47445,208233
24.48257,209154
24.49068,217797
24.49882,226245
24.50693,226909
24.51507,232932
24.52318,237490
24.53130,254101
24.53943,257580
24.54755,260872
24.55567,290686
24.56380,287814
24.57192,280267
24.58005,284596
24.58817,263021
24.59628,250838
24.60442,229110
24.61253,221789
24.62067,223071
24.62878,217226
24.63690,216955
24.64503,208850
24.65315,220473
24.66128,211160
24.66940,211204
24.67752,217119
24.68565,219257
24.69377,215536
24.70188,214509
24.71002,212474
24.71813,209131
24.72627,210209
24.73438,208890
24.74250,203305
24.75063,209120
24.75875,203435
24.76688,208702
24.77500,209387
24.78312,207533
24.79125,212567
24.79937,205870
24.80748,205485
24.81562,196412
24.82373,202402
24.83187,213824
24.83998,248215
24.84810,259245
24.85623,312120
24.86435,373803
24.87248,461567
24.88060,555780
24.88872,666496
24.89685,706281
24.90497,678379
24.91310,591567
24.92122,465933
24.92933,365657
24.93747,279998
24.94558,226957
24.95370,196847
24.96183,179345
24.96995,170169
24.97808,163913
24.98620,158617
24.99432,150326
25.00245,150511
25.01057,148931
25.01870,135186
25.02682,124652
25.03493,113467
25.04307,103074
25.05118,97225
25.05930,88371
25.06743,82285
25.07555,85959
25.08368,87790
25.09180,100599
25.09992,139247
25.10805,248094
25.11617,517238
25.12430,989342
25.13242,1736155
25.14053,2461264
25.14867,2942323
25.15678,2965878
25.16492,2500164
25.17303,1789783
25.18115,1154305
25.18928,679617
25.19740,377073
25.20552,229222
25.21365,157862
25.22177,132158
25.22990,120700
25.23802,124869
25.24613,148295
25.25427,183838
25.26238,229466
25.27052,263106
25.27863,276401
25.28675,261791
25.29488,229953
25.30300,194957
25.31113,147205
25.31925,120257
25.32737,103686
25.33550,95023
25.34362,88628
25.35173,86601
25.35987,76589
25.36798,78018
25.37612,68905
25.38423,68357
25.39235,66424
25.40048,67890
25.40860,64596
25.41673,64646
25.42485,67187
25.43297,71934
25.44110,93107
25.44922,118019
25.45733,150264
25.46547,192970
25.47358,213830
25.48172,234771
25.48983,243363
25.49795,247409
25.50608,254126
25.51420,269857
25.52233,259671
25.53045,262938
25.53857,266578
25.54670,262066
25.55482,266934
25.56295,268212
25.57107,259731
25.57918,267214
25.58732,271650
25.59543,264186
25.60355,269401
25.61168,265609
25.61980,261395
25.62793,265829
25.63605,262621
25.64417,260156
25.65230,266325
25.66042,252531
25.66855,258767
25.67667,246632
25.68478,242868
25.69292,243413
25.70103,239624
25.70917,232568
25.71728,230345
25.72540,231211
25.73353,230345
25.74165,228389
25.74977,223439
25.75790,219472
25.76602,213111
25.77415,220377
25.78227,218582
25.79038,210556
25.79852,207964
25.80663,210630
25.81477,213763
25.82288,206598
25.83100,207028
25.83913,202778
25.84725,217413
25.85537,198343
25.86350,195418
25.87162,205740
25.87975,188761
25.88787,189563
25.89598,184209
25.90412,188187
25.91223,184266
25.92037,170700
25.92848,167411
25.93660,173636
25.94473,164377
25.95285,171419
25.96098,162743
25.96910,167070
25.97722,159660
25.98535,162441
25.99347,157343
26.00158,157821
26.00972,152765
26.01783,148103
26.02597,141383
26.03408,141770
26.04220,148748
26.05033,136685
26.05845,144092
26.06658,137222
26.07470,140981
26.08282,144820
26.09095,141903
26.09907,137918
26.10718,140511
26.11532,140189
26.12343,135414
26.13157,137340
26.13968,137284
26.14780,134673
26.15593,139939
26.16405,140869
26.17218,128951
26.18030,131505
26.18842,126122
26.19655,129727
26.20467,119918
26.21280,115201
26.22092,114682
26.22903,110103
26.23717,113519
26.24528,108939
26.25340,112013
26.26153,110020
26.26965,103582
26.27778,114647
26.28590,107215
26.29402,104041
26.30215,96129
26.31027,101192
26.31840,99139
26.32652,95740
26.33463,94094
26.34277,97150
26.35088,96550
26.35902,93598
26.36713,100548
26.37525,105482
26.38338,110782
26.39150,119725
26.39962,122185
26.40775,127714
26.41587,118672
26.42400,120938
26.43212,106064
26.44023,105031
26.44837,95566
26.45648,88125
26.46462,87564
26.47273,96342
26.48085,88696
26.48898,82063
26.49710,81452
26.50522,80508
26.51335,79440
26.52147,82621
26.52960,79787
26.53772,84232
26.54583,75013
26.55397,74009
26.56208,72265
26.57022,76258
26.57833,70479
26.58645,69030
26.59458,73176
26.60270,70287
26.61083,70444
26.61895,68122
26.62707,72348
26.63520,69999
26.64332,71176
26.65143,71300
26.65957,76790
26.66768,78852
26.67582,78139
26.68393,78227
26.69205,74810
26.70018,74367
26.70830,66370
26.71643,68005
26.72455,59781
26.73267,67598
26.74080,64026
26.74892,65302
26.75705,63946
26.76517,63624
26.77328,64409
26.78142,63034
26.78953,63760
26.79765,71089
26.80578,68411
26.81390,73821
26.82203,75340
26.83015,64523
26.83827,68155
26.84640,64266
26.85452,61961
26.86265,60041
26.87077,61845
26.87888,55608
26.88702,58173
26.89513,58398
26.90325,59157
26.91138,54789
26.91950,56720
26.92763,55081
26.93575,58627
26.94387,58198
26.95200,52954
26.96012,63884
26.96825,64758
26.97637,76959
26.98448,106477
26.99262,135921
27.00073,188633
27.00887,270445
27.01698,348497
27.02510,409041
27.03323,424189
27.04135,422121
27.04947,392824
27.05760,350337
27.06572,291149
27.07385,256925
27.08197,214271
27.09008,189317
27.09822,169218
27.10633,155178
27.11447,142285
27.12258,135229
27.13070,121792
27.13883,127419
27.14695,121960
27.15508,112792
27.16320,110651
27.17132,107330
27.17945,110277
27.18757,106908
27.19568,110784
27.20382,103786
27.21193,100818
27.22007,92175
27.22818,90144
27.23630,91234
27.24443,82105
27.25255,77065
27.26068,74438
27.26880,72616
27.27692,72730
27.28505,74051
27.29317,70475
27.30128,71071
27.30942,66703
27.31753,68354
27.32567,66403
27.33378,67528
27.34190,67964
27.35003,63235
27.35815,68606
27.36628,67970
27.37440,63846
27.38252,64792
27.39065,65437
27.39877,65172
27.40690,64801
27.41502,59130
27.42313,63031
27.43127,60772
27.43938,57489
27.44750,57497
27.45563,57814
27.46375,55458
27.47188,57946
27.48000,54373
27.48812,57000
27.49625,61527
27.50437,57117
27.51250,60838
27.52062,61829
27.52873,66479
27.53687,63464
27.54498,61155
27.55310,58127
27.56123,60064
27.56935,65566
27.57748,67463
27.58560,70749
27.59372,81713
27.60185,90052
27.60997,78953
27.61810,79755
27.62622,72295
27.63433,63072
27.64247,63694
27.65058,53920
27.65872,56747
27.66683,56605
27.67495,61194
27.68308,61563
27.69120,67880
27.69932,64753
27.70745,62187
27.71557,59075
27.72370,56772
27.73182,54025
27.73993,50125
27.74807,48344
27.75618,47689
27.76432,48375
27.77243,47080
27.78055,48899
27.78868,51133
27.79680,55454
27.80493,52646
27.81305,53614
27.82117,53123
27.82930,48884
27.83742,52964
27.84553,47764
27.85367,47058
27.86178,49296
27.86992,48553
27.87803,51162
27.88615,44832
27.89428,46118
27.90240,49845
27.91053,47494
27.91865,45820
27.92677,51723
27.93490,48375
27.94302,51183
27.95113,45677
27.95927,47238
27.96738,46710
27.97552,46148
27.98363,41437
27.99175,45940
27.99988,53583
28.00800,50407
28.01613,52702
28.02425,57078
28.03237,66399
28.04050,78147
28.04862,83295
28.05675,86340
28.06487,82596
28.07298,76737
28.08112,68031
28.08923,64601
28.09735,57650
28.10548,57509
28.11360,46636
28.12173,51694
28.12985,50751
28.13797,46524
28.14610,43388
28.15422,44953
28.16235,42961
28.17047,46301
28.17858,51325
28.18672,58657
28.19483,56536
28.20297,69830
28.21108,82895
28.21920,81212
28.22733,80956
28.23545,79134
28.24357,75168
28.25170,67567
28.25982,63883
28.26795,60138
28.27607,51731
28.28418,48735
28.29232,47146
28.30043,50299
28.30857,63760
28.31668,70978
28.32480,82170
28.33293,93788
28.34105,107579
28.34917,119782
28.35730,135953
28.36542,148902
28.37355,160693
28.38167,169469
28.38978,175294
28.39792,182738
28.40603,176347
28.41417,173799
28.42228,174169
28.43040,155903
28.43853,147552
28.44665,138954
28.45478,131466
28.46290,123032
28.47102,119321
28.47915,111114
28.48727,102048
28.49538,100454
28.50352,99281
28.51163,94027
28.51977,91845
28.52788,86392
28.53600,75931
28.54413,79611
28.55225,74429
28.56038,77560
28.56850,68520
28.57662,66861
28.58475,67491
28.59287,69658
28.60098,67328
28.60912,69113
28.61723,67854
28.62537,66887
28.63348,67811
28.64160,68127
28.64973,73894
28.65785,73772
28.66598,73463
28.67410,71585
28.68222,68309
28.69035,64352
28.69847,64971
28.70660,63937
28.71472,60191
28.72283,56634
28.73097,63574
28.73908,62457
28.74720,66584
28.75533,70018
28.76345,78171
28.77158,83007
28.77970,79225
28.78782,78203
28.79595,83912
28.80407,76653
28.81220,69996
28.82032,64545
28.82843,63271
28.83657,62740
28.84468,63946
28.85282,60101
28.86093,62666
28.86905,61963
28.87718,61910
28.88530,65177
28.89342,78123
28.90155,78145
28.90967,73153
28.91780,71987
28.92592,65729
28.93403,60632
28.94217,61245
28.95028,60166
28.95842,60337
28.96653,62251
28.97465,61324
28.98278,57393
28.99090,53879
28.99902,51940
29.00715,54380
29.01527,54627
29.02340,53490
29.03152,49118
29.03963,55415
29.04777,48918
29.05588,51554
29.06402,55227
29.07213,53715
29.08025,55189
29.08838,60586
29.09650,57729
29.10463,54174
29.11275,53253
29.12087,50878
29.12900,52937
29.13712,46789
29.14523,48484
29.15337,47054
29.16148,47308
29.16962,49241
29.17773,54821
29.18585,62081
29.19398,69445
29.20210,82659
29.21023,96611
29.21835,98162
29.22647,104573
29.23460,96484
29.24272,94008
29.25085,89810
29.25897,90722
29.26708,88399
29.27522,91201
29.28333,82707
29.29145,75699
29.29958,67114
29.30770,61880
29.31583,54524
29.32395,51028
29.33207,50739
29.34020,53016
29.34832,46570
29.35645,47222
29.36457,42735
29.37268,43323
29.38082,44609
29.38893,44334
29.39705,44732
29.40518,49740
29.41330,48080
29.42143,47312
29.42955,47772
29.43767,47868
29.44580,48110
29.45392,47788
29.46205,48132
29.47017,47370
29.47828,48216
29.48642,47500
29.49453,51164
29.50267,52994
29.51078,55542
29.51890,47509
29.52703,47766
29.53515,48066
29.54327,47683
29.55140,40871
29.55952,44042
29.56765,44686
29.57577,47227
29.58388,43983
29.59202,42494
29.60013,38907
29.60827,43428
29.61638,39959
29.62450,45273
29.63263,44828
29.64075,42308
29.64887,46256
29.65700,41487
29.66512,42440
29.67325,50457
29.68137,48028
29.68948,54899
29.69762,50725
29.70573,57793
29.71387,50836
29.72198,48718
29.73010,50257
29.73823,49660
29.74635,42560
29.75448,44656
29.76260,45854
29.77072,38730
29.77885,39874
29.78697,40192
29.79508,37868
29.80322,37554
29.81133,38120
29.81947,40350
29.82758,39379
29.83570,40127
29.84383,42724
29.85195,41466
29.86008,49189
29.86820,55315
29.87632,71156
29.88445,102778
29.89257,136264
29.90070,159941
29.90882,165093
29.91693,149813
29.92507,121241
29.93318,97676
29.94130,75794
29.94943,68349
29.95755,61436
29.96568,61063
29.97380,68091
29.98192,80595
29.99005,80951
29.99817,89179
30.00630,91765
30.01442,96874
30.02253,104857
30.03067,97501
30.03878,96638
30.04692,109942
30.05503,105294
30.06315,106460
30.07128,107006
30.07940,101966
30.08752,98116
30.09565,102343
30.10377,100954
30.11190,100601
30.12002,92449
30.12813,90136
30.13627,89111
30.14438,83945
30.15252,84197
30.16063,84153
30.16875,79129
30.17688,75293
30.18500,73524
30.19312,76805
30.20125,74912
30.20937,73409
30.21750,71979
30.22562,72311
30.23373,65830
30.24187,60086
30.24998,59264
30.25812,58337
30.26623,55911
30.27435,55088
30.28248,58769
30.29060,51426
30.29873,53297
30.30685,55467
30.31497,51101
30.32310,53108
30.33122,52513
30.33933,52829
30.34747,51913
30.35558,51120
30.36372,52649
30.37183,51485
30.37995,55612
30.38808,49535
30.39620,52036
30.40433,48750
30.41245,47921
30.42057,44181
30.42870,45439
30.43682,49120
30.44493,46300
30.45307,45227
30.46118,43505
30.46932,45311
30.47743,45248
30.48555,45806
30.49368,51589
30.50180,48639
30.50993,52021
30.51805,44896
30.52617,40282
30.53430,44269
30.54242,44411
30.55055,42988
30.55867,45299
30.56678,45823
30.57492,50110
30.58303,49123
30.59115,45735
30.59928,45377
30.60740,42755
30.61553,45261
30.62365,41311
30.63177,40541
30.63990,44429
30.64802,45011
30.65615,41132
30.66427,46159
30.67238,41320
30.68052,38804
30.68863,39419
30.69677,42842
30.70488,41664
30.71300,47143
30.72113,48827
30.72925,44020
30.73737,41922
30.74550,47790
30.75362,44608
30.76175,44925
30.76987,47613
30.77798,54348
30.78612,68426
30.79423,88545
30.80237,96987
30.81048,110600
30.81860,115902
30.82673,102643
30.83485,84025
30.84297,78701
30.85110,63212
30.85922,53335
30.86735,51538
30.87547,50128
30.88358,51161
30.89172,52358
30.89983,52001
30.90797,45174
30.91608,54344
30.92420,53818
30.93233,55424
30.94045,59917
30.94858,56899
30.95670,64235
30.96482,62142
30.97295,59030
30.98107,56387
30.98918,57697
30.99732,58397
31.00543,61162
31.01357,61522
31.02168,60766
31.02980,60303
31.03793,62133
31.04605,63520
31.05418,65872
31.06230,70788
31.07042,68447
31.07855,69184
31.08667,71696
31.09480,80479
31.10292,85344
31.11103,86707
31.11917,81181
31.12728,82043
31.13540,79082
31.14353,76323
31.15165,72889
31.15978,73227
31.16790,67909
31.17602,73540
31.18415,75029
31.19227,85990
31.20040,99949
31.20852,121377
31.21663,126984
31.22477,137293
31.23288,143858
31.24100,136932
31.24913,117709
31.25725,105664
31.26538,83942
31.27350,76326
31.28162,68831
31.28975,64205
31.29787,63908
31.30600,66293
31.31412,63597
31.32223,59543
31.33037,63433
31.33848,61734
31.34662,63953
31.35473,64589
31.36285,58856
31.37098,65855
31.37910,63642
31.38722,70841
31.39535,66686
31.40347,65122
31.41160,65103
31.41972,62510
31.42783,62833
31.43597,55309
31.44408,57240
31.45222,55511
31.46033,58240
31.46845,60056
31.47658,60840
31.48470,58088
31.49282,54939
31.50095,56677
31.50907,57491
31.51720,59606
31.52532,61431
31.53343,59092
31.54157,60790
31.54968,59935
31.55782,61424
31.56593,58566
31.57405,58406
31.58218,57674
31.59030,59641
31.59843,58878
31.60655,52850
31.61467,50840
31.62280,51343
31.63092,51997
31.63903,54800
31.64717,52371
31.65528,55172
31.66342,60462
31.67153,61433
31.67965,54851
31.68778,56866
31.69590,55763
31.70403,53192
31.71215,50334
31.72027,48284
31.72840,48608
31.73652,50280
31.74465,50066
31.75277,53810
31.76088,46468
31.76902,51159
31.77713,48974
31.78525,47789
31.79338,45606
31.80150,49098
31.80963,52447
31.81775,52530
31.82587,47640
31.83400,51720
31.84212,50807
31.85025,49941
31.85837,49838
31.86648,51821
31.87462,50950
31.88273,55778
31.89085,62213
31.89898,65287
31.90710,67990
31.91523,68075
31.92335,78085
31.93147,83353
31.93960,82449
31.94772,86440
31.95585,93562
31.96397,90811
31.97208,104021
31.98022,99199
31.98833,94643
31.99647,95546
32.00458,95565
32.01270,96434
32.02083,100784
32.02895,94664
32.03707,96273
32.04520,85450
32.05332,85944
32.06145,80451
32.06957,82476
32.07768,79788
32.08582,79266
32.09393,75825
32.10207,73398
32.11018,71442
32.11830,63666
32.12643,63500
32.13455,58966
32.14268,60169
32.15080,58019
32.15892,58023
32.16705,60365
32.17517,61314
32.18328,55560
32.19142,54746
32.19953,52082
32.20767,54848
32.21578,56217
32.22390,52344
32.23203,53195
32.24015,51280
32.24828,55840
32.25640,53148
32.26452,58905
32.27265,54579
32.28077,53726
32.28888,55317
32.29702,55017
32.30513,59012
32.31327,52424
32.32138,53504
32.32950,52999
32.33763,49691
32.34575,45691
32.35388,54300
32.36200,52680
32.37012,50648
32.37825,51041
32.38637,45829
32.39450,49154
32.40262,47419
32.41073,50603
32.41887,48909
32.42698,47109
32.43510,45011
32.44323,49842
32.45135,48494
32.45948,46238
32.46760,44963
32.47572,45388
32.48385,44186
32.49197,47917
32.50010,47646
32.50822,42679
32.51633,44105
32.52447,48836
32.53258,48623
32.54072,47116
32.54883,47615
32.55695,48522
32.56508,46458
32.57320,45515
32.58132,45034
32.58945,47140
32.59757,43118
32.60570,45350
32.61382,44772
32.62193,43267
32.63007,44991
32.63818,47401
32.64632,53286
32.65443,54902
32.66255,56011
32.67068,62018
32.67880,61458
32.68692,54964
32.69505,51293
32.70317,54861
32.71130,53218
32.71942,50151
32.72753,48961
32.73567,48524
32.74378,45141
32.75192,48456
32.76003,45976
32.76815,46299
32.77628,42306
32.78440,42788
32.79253,43101
32.80065,43778
32.80877,43890
32.81690,46731
32.82502,46457
32.83313,40745
32.84127,42772
32.84938,43351
32.85752,42917
32.86563,43574
32.87375,42242
32.88188,45481
32.89000,48147
32.89813,43541
32.90625,48096
32.91437,47107
32.92250,49305
32.93062,46152
32.93873,41773
32.94687,45154
32.95498,43099
32.96312,42143
32.97123,46728
32.97935,51299
32.98748,57867
32.99560,60361
33.00373,64166
33.01185,65135
33.01997,66422
33.02810,65527
33.03622,56757
33.04435,52078
33.05247,54234
33.06058,53547
33.06872,57568
33.07683,59444
33.08495,62531
33.09308,69023
33.10120,71198
33.10933,74604
33.11745,78257
33.12557,74420
33.13370,69084
33.14182,67165
33.14995,61569
33.15807,56283
33.16618,51739
33.17432,48606
33.18243,51554
33.19057,49901
33.19868,53040
33.20680,48154
33.21493,48755
33.22305,49159
33.23117,44445
33.23930,46116
33.24742,47335
33.25555,44970
33.26367,46145
33.27178,43475
33.27992,46477
33.28803,48104
33.29617,50100
33.30428,42517
33.31240,43209
33.32053,43266
33.32865,44921
33.33677,44685
33.34490,46485
33.35302,45746
33.36115,53730
33.36927,45733
33.37738,48029
33.38552,47295
33.39363,45273
33.40177,47076
33.40988,46791
33.41800,45824
33.42613,43987
33.43425,44465
33.44238,45426
33.45050,41231
33.45862,42492
33.46675,44445
33.47487,43852
33.48298,44401
33.49112,42469
33.49923,42784
33.50737,41826
33.51548,42997
33.52360,43261
33.53173,46822
33.53985,51402
33.54798,49946
33.55610,49847
33.56422,56566
33.57235,53672
33.58047,51873
33.58860,47647
33.59672,45918
33.60483,41065
33.61297,46532
33.62108,44704
33.62920,46657
33.63733,47424
33.64545,47840
33.65358,47978
33.66170,49247
33.66982,49194
33.67795,47432
33.68607,49539
33.69420,46529
33.70232,42376
33.71043,42160
33.71857,44424
33.72668,42917
33.73480,42796
33.74293,42718
33.75105,45989
33.75918,43115
33.76730,45203
33.77542,46931
33.78355,42937
33.79167,41749
33.79980,43402
33.80792,43390
33.81603,46452
33.82417,49188
33.83228,42221
33.84042,49727
33.84853,45560
33.85665,50761
33.86478,44420
33.87290,50704
33.88102,46864
33.88915,46744
33.89727,43661
33.90540,43809
33.91352,45015
33.92163,45699
33.92977,45943
33.93788,44317
33.94602,48097
33.95413,40834
33.96225,45539
33.97038,44448
33.97850,44015
33.98662,38346
33.99475,42992
34.00287,42039
34.01100,42349
34.01912,41904
34.02723,44648
34.03537,44510
34.04348,46254
34.05162,45708
34.05973,40327
34.06785,45506
34.07598,46705
34.08410,45752
34.09223,44190
34.10035,43676
34.10847,44080
34.11660,45794
34.12472,46708
34.13283,47140
34.14097,46097
34.14908,45711
34.15722,48015
34.16533,47068
34.17345,44806
34.18158,43138
34.18970,45765
34.19783,44167
34.20595,41685
34.21407,43918
34.22220,46086
34.23032,46664
34.23845,47059
34.24657,43814
34.25468,46583
34.26282,48502
34.27093,47244
34.27905,46583
34.28718,46674
34.29530,45328
34.30343,44592
34.31155,47023
34.31967,47096
34.32780,44791
34.33592,44767
34.34405,49656
34.35217,47578
34.36028,44957
34.36842,45976
34.37653,45493
34.38465,47052
34.39278,43332
34.40090,47291
34.40903,47953
34.41715,47858
34.42527,42661
34.43340,43924
34.44152,41684
34.44965,40839
34.45777,45676
34.46588,43655
34.47402,44421
34.48213,46875
34.49027,47333
34.49838,46177
34.50650,49473
34.51463,59930
34.52275,66350
34.53087,75084
34.53900,78887
34.54712,87557
34.55525,92373
34.56337,95217
34.57148,87749
34.57962,82890
34.58773,85027
34.59587,78887
34.60398,78558
34.61210,76682
34.62023,67937
34.62835,65466
34.63648,62500
34.64460,62647
34.65272,60183
34.66085,61566
34.66897,59066
34.67708,57338
34.68522,57203
34.69333,56577
34.70147,51998
34.70958,51567
34.71770,55842
34.72583,53941
34.73395,52180
34.74208,52514
34.75020,54170
34.75832,50735
34.76645,56066
34.77457,53316
34.78268,56257
34.79082,52266
34.79893,51225
34.80707,52816
34.81518,49609
34.82330,48350
34.83143,52544
34.83955,51312
34.84768,51628
34.85580,56108
34.86392,51054
34.87205,50101
34.88017,50970
34.88830,49153
34.89642,50604
34.90453,47872
34.91267,53192
34.92078,53984
34.92890,55360
34.93703,54543
34.94515,54032
34.95328,58541
34.96140,58967
34.96952,58099
34.97765,60662
34.98577,56702
34.99390,57156
35.00202,55324
35.01013,48741
35.01827,49839
35.02638,52107
35.03450,50651
35.04263,49596
35.05075,52250
35.05888,53473
35.06700,47515
35.07512,50320
35.08325,48354
35.09137,51534
35.09950,46873
35.10762,47978
35.11573,46015
35.12387,45796
35.13198,49539
35.14012,49105
35.14823,51413
35.15635,50312
35.16448,51231
35.17260,53137
35.18072,49242
35.18885,45397
35.19697,46623
35.20510,50356
35.21322,49406
35.22133,45367
35.22947,48022
35.23758,47238
35.24572,47833
35.25383,47554
35.26195,45309
35.27008,46842
35.27820,48369
35.28633,48406
35.29445,47285
35.30257,50643
35.31070,46769
35.31882,47927
35.32693,43161
35.33507,49658
35.34318,47593
35.35132,45370
35.35943,50324
35.36755,51231
35.37568,46501
35.38380,49243
35.39193,52253
35.40005,52403
35.40817,52663
35.41630,57336
35.42442,57972
35.43255,61894
35.44067,60509
35.44878,59935
35.45692,59022
35.46503,56861
35.47315,57054
35.48128,51871
35.48940,52291
35.49753,55049
35.50565,54915
35.51377,59773
35.52190,54439
35.53002,48119
35.53815,52126
35.54627,47456
35.55438,46253
35.56252,50308
35.57063,47758
35.57875,51821
35.58688,47039
35.59500,53135
35.60313,51562
35.61125,47232
35.61937,49996
35.62750,51830
35.63562,52690
35.64375,51485
35.65187,50994
35.65998,51684
35.66812,51343
35.67623,51000
35.68437,53477
35.69248,52858
35.70060,52063
35.70873,50089
35.71685,51948
35.72497,49607
35.73310,47551
35.74122,53117
35.74935,51277
35.75747,59241
35.76558,62187
35.77372,58479
35.78183,56292
35.78997,56966
35.79808,53808
35.80620,51127
35.81433,47564
35.82245,49719
35.83057,48555
35.83870,47762
35.84682,49702
35.85495,45724
35.86307,50560
35.87118,49888
35.87932,51589
35.88743,50776
35.89557,50642
35.90368,49820
35.91180,47869
35.91993,50815
35.92805,48764
35.93618,50262
35.94430,47846
35.95242,50456
35.96055,46939
35.96867,51160
35.97678,48494
35.98492,50739
35.99303,50316
36.00117,50534
36.00928,55022
36.01740,55355
36.02553,58806
36.03365,51347
36.04178,51428
36.04990,58148
36.05802,54637
36.06615,49574
36.07427,56171
36.08240,44378
36.09052,51746
36.09863,50156
36.10677,53515
36.11488,54836
36.12300,50743
36.13113,55117
36.13925,58064
36.14738,56283
36.15550,56298
36.16362,53036
36.17175,49878
36.17987,51649
36.18800,53824
36.19612,53069
36.20423,50933
36.21237,46522
36.22048,49716
36.22860,45283
36.23673,50655
36.24485,50678
36.25298,49219
36.26110,52228
36.26922,49868
36.27735,51985
36.28547,59942
36.29360,59810
36.30172,61594
36.30983,67434
36.31797,65925
36.32608,61125
36.33422,61642
36.34233,57468
36.35045,51260
36.35858,54956
36.36670,52686
36.37482,56647
36.38295,53212
36.39107,52856
36.39920,50229
36.40732,53884
36.41543,50029
36.42357,53475
36.43168,56699
36.43982,52348
36.44793,50701
36.45605,49758
36.46418,54579
36.47230,51759
36.48043,53810
36.48855,53265
36.49667,58974
36.50480,64131
36.51292,60816
36.52103,58573
36.52917,55465
36.53728,58758
36.54542,55563
36.55353,60719
36.56165,61315
36.56978,54950
36.57790,57990
36.58603,59186
36.59415,53826
36.60227,57676
36.61040,54606
36.61852,58777
36.62663,60304
36.63477,60676
36.64288,57455
36.65102,59953
36.65913,61184
36.66725,58216
36.67538,57655
36.68350,55724
36.69163,55646
36.69975,54918
36.70787,58693
36.71600,61513
36.72412,57469
36.73225,55559
36.74037,56214
36.74848,57297
36.75662,57356
36.76473,61832
36.77285,51692
36.78098,56310
36.78910,57649
36.79723,54381
36.80535,58350
36.81347,60284
36.82160,58260
36.82972,55898
36.83785,58367
36.84597,59745
36.85408,56183
36.86222,53950
36.87033,54250
36.87845,56330
36.88658,59029
36.89470,55544
36.90283,56737
36.91095,54896
36.91907,59537
36.92720,57307
36.93532,58916
36.94345,60945
36.95157,66835
36.95968,72213
36.96782,72731
36.97593,73937
36.98407,72222
36.99218,70155
37.00030,65821
37.00843,64466
37.01655,62328
37.02467,59133
37.03280,57809
37.04092,56279
37.04905,58188
37.05717,61333
37.06528,58605
37.07342,60067
37.08153,59274
37.08967,58468
37.09778,59896
37.10590,63518
37.11403,59823
37.12215,54555
37.13028,59304
37.13840,57434
37.14652,57002
37.15465,61358
37.16277,59780
37.17088,60193
37.17902,58714
37.18713,61012
37.19527,59085
37.20338,61929
37.21150,58165
37.21963,57715
37.22775,57655
37.23588,57812
37.24400,59812
37.25212,58224
37.26025,53344
37.26837,54496
37.27648,51663
37.28462,55483
37.29273,55602
37.30087,58819
37.30898,63550
37.31710,61683
37.32523,65789
37.33335,76431
37.34148,86477
37.34960,91501
37.35772,98674
37.36585,92622
37.37397,90739
37.38210,87081
37.39022,80546
37.39833,79154
37.40647,83109
37.41458,78548
37.42270,76780
37.43083,74541
37.43895,72806
37.44708,69725
37.45520,68722
37.46332,70199
37.47145,67778
37.47957,70067
37.48770,66894
