C:\MassHunter\GCMS\1\data\JTB-E18\JTB-E18-029-08.D Tue Oct 01 15:19:09 2019
Start of data points
2.09528,128887
2.10340,129295
2.11153,129893
2.11965,128295
2.12777,129046
2.13590,122555
2.14402,115792
2.15215,120655
2.16027,114956
2.16838,115899
2.17652,111856
2.18463,108617
2.19277,109290
2.20088,107144
2.20900,103546
2.21713,103282
2.22525,101871
2.23337,100861
2.24150,100249
2.24962,97383
2.25775,97752
2.26587,124009
2.27398,586142
2.28212,2002028
2.29023,1567062
2.29837,711634
2.30648,477611
2.31460,369749
2.32273,331745
2.33085,292047
2.33898,275984
2.34710,262725
2.35522,222746
2.36335,210485
2.37147,202163
2.37958,212052
2.38772,332385
2.39583,300414
2.40397,214657
2.41208,203241
2.42020,190756
2.42833,197074
2.43645,192767
2.44458,177923
2.45270,192187
2.46082,172344
2.46895,168422
2.47707,167238
2.48518,158902
2.49332,179514
2.50143,219004
2.50957,179432
2.51768,167707
2.52580,163708
2.53393,158939
2.54205,150072
2.55018,166884
2.55830,241953
2.56642,387815
2.57455,341884
2.58267,253405
2.59080,223894
2.59892,205090
2.60703,225005
2.61517,356941
2.62328,440633
2.63140,375802
2.63953,275943
2.64765,223711
2.65578,210198
2.66390,201980
2.67202,196468
2.68015,241155
2.68827,257093
2.69640,198031
2.70452,178163
2.71263,158308
2.72077,166121
2.72888,177783
2.73700,169084
2.74513,160317
2.75325,165662
2.76138,151428
2.76950,155946
2.77762,164462
2.78575,209320
2.79387,268762
2.80200,227642
2.81012,197056
2.81823,221936
2.82637,391582
2.83448,937179
2.84262,1113876
2.85073,626176
2.85885,366735
2.86698,350523
2.87510,298129
2.88322,247415
2.89135,211376
2.89947,195337
2.90760,187660
2.91572,178722
2.92383,170895
2.93197,158675
2.94008,154574
2.94822,146757
2.95633,149404
2.96445,146402
2.97258,150542
2.98070,144591
2.98883,159769
2.99695,175895
3.00507,198024
3.01320,192713
3.02132,219858
3.02943,425120
3.03757,870262
3.04568,1267187
3.05382,2876435
3.06193,8037884
3.07005,1.0561E+07
3.07818,6805039
3.08630,3326341
3.09443,2442515
3.10255,2361460
3.11067,2436003
3.11880,2436063
3.12692,1800036
3.13503,1266459
3.14317,1025306
3.15128,847876
3.15942,738999
3.16753,672735
3.17565,673534
3.18378,684378
3.19190,872936
3.20003,1254752
3.20815,1145416
3.21627,869787
3.22440,718264
3.23252,662028
3.24065,597385
3.24877,521768
3.25688,470909
3.26502,433154
3.27313,401794
3.28125,396820
3.28938,607467
3.29750,1495676
3.30563,3113884
3.31375,4170428
3.32187,3699886
3.33000,2660925
3.33812,1915942
3.34625,1510117
3.35437,1249045
3.36248,1081666
3.37062,1058139
3.37873,1239996
3.38687,1428432
3.39498,1275092
3.40310,1275893
3.41123,2301882
3.41935,3896260
3.42747,3885211
3.43560,2453116
3.44372,1393196
3.45185,984295
3.45997,820028
3.46808,738974
3.47622,681938
3.48433,633677
3.49247,580289
3.50058,539124
3.50870,505861
3.51683,472613
3.52495,479514
3.53307,487627
3.54120,463154
3.54932,448963
3.55745,426079
3.56557,396759
3.57368,405840
3.58182,421791
3.58993,399031
3.59807,382507
3.60618,360835
3.61430,412774
3.62243,748625
3.63055,1717471
3.63868,2851325
3.64680,2771425
3.65492,1846231
3.66305,1154417
3.67117,1413403
3.67928,2886292
3.68742,3890330
3.69553,3097455
3.70367,1938892
3.71178,1397921
3.71990,1155741
3.72803,993115
3.73615,894174
3.74428,834627
3.75240,786603
3.76052,735006
3.76865,694038
3.77677,662968
3.78488,640845
3.79302,600058
3.80113,607515
3.80927,720047
3.81738,986483
3.82550,1129304
3.83363,957274
3.84175,740564
3.84988,650761
3.85800,580000
3.86612,548419
3.87425,506987
3.88237,477767
3.89050,469810
3.89862,458555
3.90673,446673
3.91487,443624
3.92298,516635
3.93110,606809
3.93923,630416
3.94735,629117
3.95548,882210
3.96360,1633195
3.97172,2233876
3.97985,1964735
3.98797,1293244
3.99610,961783
4.00422,1399306
4.01233,2645294
4.02047,3508291
4.02858,2963719
4.03672,1860597
4.04483,1114230
4.05295,839247
4.06108,701541
4.06920,607171
4.07732,554177
4.08545,508719
4.09357,471503
4.10170,443625
4.10982,398651
4.11793,401028
4.12607,385785
4.13418,385512
4.14232,483115
4.15043,685184
4.15855,827793
4.16668,749526
4.17480,608644
4.18292,500349
4.19105,445247
4.19917,402224
4.20730,407787
4.21542,834163
4.22353,2938021
4.23167,7676794
4.23978,1.261512E+07
4.24792,1.379532E+07
4.25603,1.06185E+07
4.26415,6806001
4.27228,4624588
4.28040,3411634
4.28853,2582655
4.29665,2065952
4.30477,1671610
4.31290,1389564
4.32102,1214099
4.32913,1038975
4.33727,944170
4.34538,876382
4.35352,828188
4.36163,781580
4.36975,738682
4.37788,678950
4.38600,628963
4.39413,582773
4.40225,556144
4.41037,527849
4.41850,511509
4.42662,475713
4.43475,471870
4.44287,464154
4.45098,459367
4.45912,456442
4.46723,450496
4.47535,436089
4.48348,409495
4.49160,395645
4.49973,382852
4.50785,381402
4.51597,362205
4.52410,349669
4.53222,347419
4.54035,342359
4.54847,329208
4.55658,326817
4.56472,319181
4.57283,316348
4.58095,308721
4.58908,295608
4.59720,289844
4.60533,295122
4.61345,289421
4.62157,304794
4.62970,380874
4.63782,503222
4.64595,612686
4.65407,582441
4.66218,465374
4.67032,378891
4.67843,342843
4.68657,324920
4.69468,307963
4.70280,298198
4.71093,276304
4.71905,276186
4.72717,264932
4.73530,256546
4.74342,255411
4.75155,257460
4.75967,243592
4.76778,255662
4.77592,244900
4.78403,232975
4.79217,248725
4.80028,296826
4.80840,355688
4.81653,375566
4.82465,343261
4.83278,312457
4.84090,296351
4.84902,286826
4.85715,285890
4.86527,266791
4.87338,267048
4.88152,255352
4.88963,242293
4.89777,242990
4.90588,241183
4.91400,241543
4.92213,288551
4.93025,411859
4.93838,689104
4.94650,1061840
4.95462,1273511
4.96275,1274027
4.97087,1066645
4.97898,844645
4.98712,679771
4.99523,583661
5.00337,522870
5.01148,472998
5.01960,464374
5.02773,487541
5.03585,639401
5.04398,821971
5.05210,891381
5.06022,790995
5.06835,652311
5.07647,576579
5.08460,510201
5.09272,487569
5.10083,504099
5.10897,530484
5.11708,571698
5.12520,572452
5.13333,532323
5.14145,471292
5.14958,431949
5.15770,434271
5.16582,452138
5.17395,498287
5.18207,555619
5.19020,573801
5.19832,564611
5.20643,535200
5.21457,492226
5.22268,449400
5.23080,414073
5.23893,382413
5.24705,369395
5.25518,345739
5.26330,346514
5.27142,317002
5.27955,302994
5.28767,297577
5.29580,306986
5.30392,292128
5.31203,278164
5.32017,275722
5.32828,279683
5.33642,280241
5.34453,289499
5.35265,287365
5.36078,281699
5.36890,276000
5.37702,254935
5.38515,266678
5.39327,278300
5.40140,275495
5.40952,279805
5.41763,265918
5.42577,253782
5.43388,242332
5.44202,233576
5.45013,236600
5.45825,240815
5.46638,244743
5.47450,237126
5.48263,227831
5.49075,222977
5.49887,218827
5.50700,226599
5.51512,224027
5.52323,220969
5.53137,223713
5.53948,219575
5.54762,223678
5.55573,222583
5.56385,247787
5.57198,254263
5.58010,275513
5.58823,271577
5.59635,256650
5.60447,235792
5.61260,231071
5.62072,224273
5.62883,224136
5.63697,229162
5.64508,228910
5.65322,220619
5.66133,219484
5.66945,217033
5.67758,214839
5.68570,229124
5.69383,246032
5.70195,259986
5.71007,263433
5.71820,279453
5.72632,295474
5.73445,312513
5.74257,294500
5.75068,286666
5.75882,287604
5.76693,297046
5.77505,303210
5.78318,298362
5.79130,286359
5.79943,287255
5.80755,368938
5.81567,584140
5.82380,976097
5.83192,1414192
5.84005,1592520
5.84817,1415240
5.85628,1033042
5.86442,715237
5.87253,498132
5.88067,382532
5.88878,341077
5.89690,300213
5.90503,306217
5.91315,362764
5.92127,501492
5.92940,665615
5.93752,771519
5.94565,726094
5.95377,610908
5.96188,492967
5.97002,552474
5.97813,741248
5.98627,904018
5.99438,945400
6.00250,770299
6.01063,551785
6.01875,412632
6.02687,329130
6.03500,291513
6.04312,265023
6.05125,244439
6.05937,233610
6.06748,225816
6.07562,220733
6.08373,201419
6.09187,207649
6.09998,204174
6.10810,195151
6.11623,195334
6.12435,202857
6.13248,235661
6.14060,314634
6.14872,384093
6.15685,387800
6.16497,348580
6.17308,305704
6.18122,267542
6.18933,257520
6.19747,259724
6.20558,271661
6.21370,274664
6.22183,252896
6.22995,227384
6.23808,215777
6.24620,215320
6.25432,210399
6.26245,213131
6.27057,218596
6.27868,225469
6.28682,213429
6.29493,207299
6.30307,205684
6.31118,213147
6.31930,224144
6.32743,233714
6.33555,261929
6.34368,291828
6.35180,297988
6.35992,272138
6.36805,262830
6.37617,259571
6.38430,246786
6.39242,240270
6.40053,238437
6.40867,236197
6.41678,243568
6.42490,232606
6.43303,238676
6.44115,234444
6.44928,240474
6.45740,238618
6.46552,258245
6.47365,247857
6.48177,254126
6.48990,254535
6.49802,267830
6.50613,259619
6.51427,254261
6.52238,273322
6.53052,267098
6.53863,269199
6.54675,272742
6.55488,274830
6.56300,278558
6.57112,284201
6.57925,307566
6.58737,324476
6.59550,319565
6.60362,297144
6.61173,292400
6.61987,279426
6.62798,282315
6.63612,284520
6.64423,292332
6.65235,386642
6.66048,654430
6.66860,1070721
6.67672,1359068
6.68485,1270451
6.69297,1003521
6.70110,760877
6.70922,622614
6.71733,511809
6.72547,419760
6.73358,353104
6.74172,317212
6.74983,247648
6.75795,228437
6.76608,207914
6.77420,211282
6.78233,246195
6.79045,339083
6.79857,556594
6.80670,902699
6.81482,1209335
6.82293,1259500
6.83107,1063033
6.83918,750712
6.84732,469544
6.85543,312586
6.86355,222222
6.87168,199982
6.87980,171506
6.88793,159239
6.89605,145733
6.90417,139177
6.91230,133954
6.92042,132081
6.92855,157049
6.93667,203361
6.94478,291997
6.95292,412540
6.96103,500626
6.96915,515746
6.97728,459196
6.98540,360165
6.99353,263693
7.00165,205249
7.00977,166469
7.01790,137744
7.02602,133795
7.03415,131971
7.04227,134870
7.05038,129918
7.05852,137711
7.06663,131180
7.07475,126219
7.08288,124660
7.09100,117509
7.09913,111555
7.10725,105647
7.11537,106202
7.12350,98585
7.13162,107081
7.13975,101892
7.14787,119827
7.15598,137159
7.16412,155648
7.17223,176637
7.18037,198577
7.18848,209984
7.19660,223103
7.20473,255571
7.21285,308109
7.22097,513878
7.22910,839243
7.23722,1142337
7.24535,1121377
7.25347,875880
7.26158,606642
7.26972,416147
7.27783,305100
7.28597,242013
7.29408,203643
7.30220,190525
7.31033,217220
7.31845,284308
7.32657,341215
7.33470,385111
7.34282,361842
7.35095,321674
7.35907,244692
7.36718,193199
7.37532,156801
7.38343,139664
7.39157,132787
7.39968,134972
7.40780,148890
7.41593,169846
7.42405,195037
7.43218,239927
7.44030,260817
7.44842,256826
7.45655,229984
7.46467,188568
7.47278,161701
7.48092,134438
7.48903,117730
7.49717,116699
7.50528,106980
7.51340,113365
7.52153,131239
7.52965,170309
7.53778,236714
7.54590,309388
7.55402,378002
7.56215,417257
7.57027,388964
7.57840,325442
7.58652,245408
7.59463,188838
7.60277,150685
7.61088,135095
7.61900,122415
7.62713,118817
7.63525,113153
7.64338,109850
7.65150,104730
7.65962,104326
7.66775,100381
7.67587,100127
7.68400,96525
7.69212,94841
7.70023,96320
7.70837,95925
7.71648,97918
7.72462,98072
7.73273,93668
7.74085,92976
7.74898,93346
7.75710,97502
7.76522,93145
7.77335,93646
7.78147,94419
7.78960,88966
7.79772,99496
7.80583,94391
7.81397,94159
7.82208,94294
7.83022,97633
7.83833,89397
7.84645,86553
7.85458,87796
7.86270,90273
7.87082,92527
7.87895,93251
7.88707,102044
7.89520,96583
7.90332,92211
7.91143,92051
7.91957,90920
7.92768,94475
7.93582,101799
7.94393,116030
7.95205,112987
7.96018,115940
7.96830,111023
7.97643,97921
7.98455,89802
7.99267,82972
8.00080,84520
8.00892,80181
8.01703,76048
8.02517,75524
8.03328,79409
8.04142,84230
8.04953,74857
8.05765,75755
8.06578,80452
8.07390,78379
8.08203,73878
8.09015,74602
8.09827,69227
8.10640,69155
8.11452,73196
8.12263,72485
8.13077,79140
8.13888,81278
8.14702,90638
8.15513,99476
8.16325,93053
8.17138,85410
8.17950,82112
8.18763,73547
8.19575,72071
8.20387,70494
8.21200,70610
8.22012,72931
8.22825,72220
8.23637,75291
8.24448,71493
8.25262,73431
8.26073,72104
8.26885,69887
8.27698,68369
8.28510,65244
8.29323,69513
8.30135,73728
8.30947,70809
8.31760,72447
8.32572,80215
8.33385,77888
8.34197,74297
8.35008,76866
8.35822,65413
8.36633,68622
8.37447,63476
8.38258,62068
8.39070,65310
8.39883,68143
8.40695,65959
8.41507,67831
8.42320,66508
8.43132,63191
8.43945,62301
8.44757,69431
8.45568,61575
8.46382,60659
8.47193,61670
8.48007,63043
8.48818,63927
8.49630,65791
8.50443,66785
8.51255,66292
8.52067,77489
8.52880,87304
8.53692,121965
8.54505,174345
8.55317,221465
8.56128,212144
8.56942,179896
8.57753,132757
8.58567,106538
8.59378,85968
8.60190,85669
8.61003,76120
8.61815,79346
8.62628,76040
8.63440,72148
8.64252,68074
8.65065,70049
8.65877,71415
8.66688,69662
8.67502,69703
8.68313,68856
8.69127,70926
8.69938,69517
8.70750,68641
8.71563,75258
8.72375,81536
8.73188,109539
8.74000,172326
8.74812,252591
8.75625,312995
8.76437,329601
8.77250,292653
8.78062,242281
8.78873,182822
8.79687,149068
8.80498,130163
8.81310,115090
8.82123,124061
8.82935,126547
8.83748,126317
8.84560,123133
8.85372,119323
8.86185,121783
8.86997,108770
8.87810,109971
8.88622,106577
8.89433,104540
8.90247,101799
8.91058,99084
8.91870,102012
8.92683,100507
8.93495,104456
8.94308,103662
8.95120,111719
8.95932,118895
8.96745,115700
8.97557,102925
8.98370,103127
8.99182,105022
8.99993,101611
9.00807,95525
9.01618,93825
9.02432,90223
9.03243,88036
9.04055,86629
9.04868,91092
9.05680,88276
9.06492,89180
9.07305,90364
9.08117,87903
9.08930,84607
9.09742,90538
9.10553,94799
9.11367,105496
9.12178,102193
9.12992,107139
9.13803,100453
9.14615,92223
9.15428,92986
9.16240,86720
9.17052,82127
9.17865,80980
9.18677,82391
9.19490,76453
9.20302,78490
9.21113,77574
9.21927,76222
9.22738,76501
9.23552,77869
9.24363,79699
9.25175,76596
9.25988,77456
9.26800,76553
9.27613,73879
9.28425,72614
9.29237,79144
9.30050,74976
9.30862,78600
9.31673,75885
9.32487,75648
9.33298,78975
9.34112,76570
9.34923,81326
9.35735,78042
9.36548,80380
9.37360,68712
9.38173,71927
9.38985,73541
9.39797,76808
9.40610,85767
9.41422,90724
9.42235,106911
9.43047,110375
9.43858,118536
9.44672,113228
9.45483,107826
9.46295,95569
9.47108,87031
9.47920,78022
9.48733,76149
9.49545,72498
9.50357,74593
9.51170,82935
9.51982,84183
9.52795,80978
9.53607,77919
9.54418,72144
9.55232,62091
9.56043,60988
9.56855,56534
9.57668,60242
9.58480,53104
9.59293,53498
9.60105,52552
9.60917,53837
9.61730,50312
9.62542,49735
9.63355,49088
9.64167,45129
9.64978,47994
9.65792,44238
9.66603,49924
9.67417,49267
9.68228,52412
9.69040,48443
9.69853,52754
9.70665,50599
9.71477,49628
9.72290,48398
9.73102,46464
9.73915,48896
9.74727,45397
9.75538,44336
9.76352,48758
9.77163,45835
9.77977,43970
9.78788,48929
9.79600,44893
9.80413,49650
9.81225,44375
9.82038,50235
9.82850,48201
9.83662,47484
9.84475,50179
9.85287,47619
9.86098,46709
9.86912,49288
9.87723,49547
9.88537,48568
9.89348,45402
9.90160,47962
9.90973,45168
9.91785,48399
9.92598,49768
9.93410,59415
9.94222,79362
9.95035,91750
9.95847,102538
9.96658,109187
9.97472,90109
9.98283,80071
9.99097,73202
9.99908,62470
10.00720,62613
10.01533,58106
10.02345,52113
10.03158,49338
10.03970,52543
10.04782,52140
10.05595,53700
10.06407,49828
10.07220,51516
10.08032,52398
10.08843,51772
10.09657,50619
10.10468,49243
10.11280,50719
10.12093,52768
10.12905,49385
10.13718,49052
10.14530,49271
10.15342,46255
10.16155,47021
10.16967,44733
10.17780,43900
10.18592,44913
10.19403,46786
10.20217,48175
10.21028,46242
10.21842,43488
10.22653,48693
10.23465,58838
10.24278,56947
10.25090,66117
10.25902,79845
10.26715,119142
10.27527,223526
10.28340,444194
10.29152,797675
10.29963,1184060
10.30777,1681818
10.31588,2444006
10.32402,3636858
10.33213,4736737
10.34025,5176664
10.34838,4419516
10.35650,3186928
10.36462,2079073
10.37275,1383345
10.38087,953963
10.38900,658046
10.39712,466009
10.40523,336305
10.41337,248029
10.42148,212121
10.42962,184783
10.43773,178716
10.44585,164395
10.45398,157532
10.46210,151268
10.47023,140604
10.47835,136236
10.48647,134102
10.49460,127230
10.50272,127512
10.51083,132306
10.51897,118825
10.52708,114313
10.53522,106514
10.54333,101517
10.55145,93462
10.55958,89762
10.56770,86848
10.57583,90295
10.58395,87548
10.59207,87242
10.60020,83723
10.60832,82408
10.61643,84384
10.62457,80244
10.63268,78401
10.64082,80560
10.64893,76608
10.65705,73656
10.66518,68954
10.67330,72722
10.68143,75780
10.68955,80484
10.69767,76318
10.70580,79932
10.71392,77459
10.72205,75683
10.73017,68927
10.73828,67099
10.74642,66995
10.75453,69477
10.76265,63711
10.77078,62446
10.77890,61832
10.78703,63560
10.79515,63201
10.80327,64321
10.81140,61721
10.81952,64987
10.82765,60012
10.83577,56117
10.84388,57737
10.85202,57554
10.86013,55675
10.86827,54977
10.87638,51611
10.88450,55452
10.89263,52840
10.90075,57082
10.90887,48634
10.91700,55184
10.92512,54837
10.93325,53852
10.94137,55558
10.94948,56746
10.95762,52965
10.96573,56089
10.97387,53201
10.98198,55500
10.99010,55410
10.99823,58812
11.00635,54909
11.01447,51870
11.02260,51609
11.03072,53167
11.03885,50958
11.04697,53434
11.05508,49656
11.06322,53202
11.07133,58774
11.07947,64850
11.08758,70946
11.09570,74541
11.10383,73132
11.11195,72684
11.12008,75077
11.12820,66924
11.13632,68411
11.14445,67666
11.15257,72554
11.16068,68956
11.16882,66003
11.17693,72548
11.18507,74036
11.19318,69860
11.20130,73174
11.20943,77391
11.21755,68678
11.22568,65678
11.23380,65873
11.24192,66992
11.25005,72796
11.25817,92381
11.26630,118149
11.27442,163586
11.28253,207687
11.29067,245544
11.29878,259606
11.30690,285960
11.31503,339254
11.32315,450349
11.33128,583161
11.33940,708735
11.34752,732196
11.35565,649336
11.36377,513495
11.37190,377916
11.38002,275470
11.38813,216040
11.39627,185814
11.40438,167743
11.41250,153911
11.42063,137353
11.42875,136362
11.43688,122217
11.44500,120222
11.45312,108607
11.46125,103999
11.46937,100243
11.47750,106394
11.48562,107002
11.49373,118527
11.50187,134460
11.50998,136063
11.51812,138380
11.52623,137244
11.53435,141701
11.54248,133718
11.55060,131098
11.55872,122180
11.56685,103186
11.57497,93922
11.58310,88371
11.59122,87003
11.59933,88327
11.60747,99609
11.61558,108081
11.62372,110262
11.63183,113318
11.63995,102285
11.64808,97117
11.65620,89122
11.66432,83789
11.67245,83963
11.68057,83909
11.68870,87833
11.69682,97935
11.70493,100759
11.71307,110755
11.72118,115996
11.72932,117897
11.73743,116589
11.74555,110520
11.75368,98904
11.76180,89141
11.76993,86340
11.77805,77634
11.78617,77427
11.79430,83142
11.80242,78700
11.81053,74950
11.81867,80474
11.82678,72573
11.83492,69547
11.84303,64358
11.85115,65615
11.85928,66140
11.86740,62460
11.87553,56013
11.88365,59411
11.89177,57974
11.89990,60558
11.90802,70993
11.91615,75506
11.92427,93381
11.93238,101628
11.94052,100341
11.94863,108277
11.95675,91360
11.96488,71837
11.97300,69060
11.98113,62312
11.98925,63063
11.99737,72334
12.00550,72250
12.01362,80069
12.02175,77292
12.02987,73176
12.03798,69099
12.04612,62867
12.05423,59867
12.06235,62009
12.07048,61241
12.07860,61872
12.08673,65885
12.09485,62720
12.10297,61293
12.11110,63884
12.11922,59204
12.12735,61603
12.13547,62522
12.14358,66317
12.15172,58680
12.15983,55519
12.16797,51357
12.17608,48619
12.18420,48713
12.19233,47485
12.20045,48815
12.20857,49556
12.21670,49443
12.22482,49313
12.23295,52082
12.24107,48768
12.24918,54518
12.25732,55714
12.26543,54281
12.27357,51094
12.28168,47924
12.28980,51773
12.29793,54893
12.30605,51812
12.31418,49297
12.32230,50246
12.33042,50717
12.33855,48821
12.34667,53580
12.35478,51087
12.36292,50437
12.37103,50721
12.37917,51981
12.38728,53877
12.39540,56400
12.40353,66609
12.41165,83463
12.41978,103749
12.42790,110500
12.43602,107070
12.44415,93628
12.45227,75660
12.46038,67754
12.46852,66124
12.47663,59661
12.48477,58241
12.49288,55037
12.50100,55052
12.50913,53000
12.51725,52983
12.52538,49794
12.53350,51905
12.54162,59121
12.54975,71756
12.55787,73788
12.56600,90853
12.57412,92795
12.58223,89727
12.59037,77841
12.59848,68135
12.60660,59790
12.61473,61020
12.62285,54209
12.63098,54904
12.63910,51781
12.64722,49408
12.65535,49936
12.66347,49862
12.67160,49244
12.67972,51033
12.68783,45179
12.69597,45479
12.70408,44962
12.71220,41907
12.72033,46307
12.72845,45818
12.73658,50225
12.74470,48990
12.75282,45389
12.76095,53655
12.76907,51832
12.77720,57366
12.78532,58569
12.79343,57956
12.80157,67953
12.80968,58039
12.81782,57226
12.82593,47424
12.83405,43721
12.84218,50500
12.85030,47763
12.85842,49012
12.86655,49128
12.87467,46391
12.88280,43422
12.89092,46642
12.89903,43505
12.90717,42937
12.91528,49682
12.92342,53398
12.93153,63887
12.93965,86857
12.94778,114871
12.95590,146572
12.96403,168362
12.97215,188496
12.98027,177962
12.98840,152285
12.99652,132771
13.00463,118087
13.01277,99999
13.02088,100224
13.02902,94999
13.03713,86334
13.04525,84973
13.05338,76282
13.06150,71809
13.06963,66955
13.07775,65537
13.08587,63616
13.09400,58299
13.10212,58385
13.11025,52654
13.11837,57170
13.12648,52591
13.13462,51585
13.14273,48428
13.15085,48130
13.15898,53157
13.16710,46843
13.17523,48622
13.18335,55171
13.19147,50859
13.19960,49829
13.20772,50094
13.21585,52190
13.22397,52884
13.23208,55161
13.24022,64501
13.24833,67794
13.25645,73138
13.26458,79460
13.27270,80031
13.28083,76577
13.28895,69860
13.29707,63672
13.30520,66839
13.31332,74397
13.32145,77174
13.32957,72781
13.33768,72990
13.34582,67211
13.35393,65226
13.36207,56472
13.37018,58117
13.37830,55642
13.38643,51701
13.39455,54580
13.40267,55064
13.41080,50489
13.41892,52987
13.42705,49902
13.43517,47398
13.44328,49827
13.45142,43976
13.45953,46341
13.46767,45526
13.47578,44102
13.48390,45728
13.49203,44109
13.50015,43569
13.50827,45287
13.51640,45951
13.52452,46939
13.53265,53884
13.54077,61957
13.54888,63412
13.55702,65270
13.56513,66024
13.57327,68364
13.58138,68793
13.58950,73981
13.59763,87098
13.60575,96826
13.61388,112482
13.62200,125963
13.63012,143983
13.63825,129989
13.64637,121708
13.65448,99850
13.66262,90211
13.67073,73843
13.67887,69067
13.68698,63553
13.69510,65054
13.70323,64249
13.71135,61128
13.71948,62227
13.72760,59084
13.73572,54425
13.74385,57556
13.75197,68955
13.76010,72836
13.76822,81221
13.77633,104963
13.78447,113547
13.79258,129009
13.80070,137686
13.80883,158014
13.81695,180978
13.82508,203504
13.83320,220907
13.84132,221406
13.84945,191468
13.85757,157737
13.86570,130374
13.87382,113394
13.88193,103926
13.89007,103511
13.89818,101371
13.90630,94163
13.91443,97605
13.92255,86013
13.93068,82456
13.93880,71809
13.94692,71801
13.95505,72639
13.96317,69814
13.97130,68908
13.97942,71818
13.98753,66858
13.99567,65986
14.00378,61763
14.01192,62689
14.02003,61739
14.02815,62139
14.03628,59059
14.04440,55712
14.05252,53908
14.06065,54135
14.06877,56537
14.07690,48367
14.08502,50762
14.09313,52216
14.10127,46547
14.10938,44931
14.11752,46508
14.12563,52195
14.13375,57324
14.14188,76547
14.15000,105039
14.15813,135376
14.16625,153595
14.17437,163839
14.18250,150564
14.19062,136894
14.19873,121794
14.20687,112417
14.21498,101419
14.22312,102434
14.23123,90206
14.23935,91045
14.24748,90163
14.25560,87009
14.26373,82356
14.27185,83514
14.27997,77000
14.28810,68468
14.29622,66015
14.30433,63744
14.31247,57342
14.32058,54326
14.32872,50694
14.33683,49207
14.34495,45152
14.35308,48149
14.36120,45949
14.36933,44929
14.37745,44948
14.38557,45936
14.39370,54647
14.40182,73916
14.40995,90502
14.41807,129872
14.42618,142523
14.43432,139059
14.44243,122730
14.45055,98917
14.45868,82980
14.46680,69268
14.47493,57073
14.48305,56245
14.49117,55470
14.49930,51285
14.50742,51328
14.51555,49632
14.52367,49392
14.53178,50372
14.53992,49187
14.54803,53820
14.55615,48787
14.56428,43414
14.57240,47377
14.58053,46812
14.58865,47672
14.59677,42980
14.60490,41911
14.61302,40798
14.62115,39645
14.62927,41616
14.63738,43823
14.64552,42428
14.65363,39283
14.66177,43193
14.66988,40474
14.67800,41972
14.68613,41753
14.69425,41576
14.70237,42098
14.71050,40447
14.71862,39448
14.72675,45138
14.73487,43214
14.74298,41860
14.75112,41174
14.75923,43223
14.76737,44322
14.77548,41197
14.78360,47734
14.79173,75378
14.79985,125728
14.80798,262017
14.81610,481808
14.82422,746445
14.83235,945746
14.84047,943707
14.84858,759997
14.85672,526436
14.86483,339893
14.87297,224254
14.88108,167587
14.88920,142325
14.89733,117346
14.90545,101596
14.91358,96575
14.92170,95256
14.92982,91390
14.93795,83311
14.94607,79342
14.95418,71240
14.96232,70104
14.97043,71335
14.97857,65451
14.98668,62290
14.99480,64447
15.00293,63255
15.01105,63447
15.01918,67128
15.02730,60745
15.03542,59674
15.04355,61127
15.05167,56597
15.05980,57585
15.06792,50642
15.07603,53927
15.08417,51674
15.09228,52478
15.10040,48684
15.10853,49161
15.11665,49096
15.12478,49355
15.13290,50876
15.14102,54075
15.14915,55082
15.15727,48926
15.16540,51527
15.17352,44314
15.18163,46055
15.18977,47220
15.19788,45657
15.20602,40428
15.21413,42875
15.22225,41569
15.23038,38627
15.23850,45431
15.24662,37776
15.25475,39508
15.26287,40509
15.27100,36409
15.27912,40303
15.28723,36300
15.29537,34140
15.30348,39089
15.31162,37447
15.31973,39394
15.32785,40085
15.33598,35217
15.34410,35228
15.35222,36858
15.36035,37577
15.36847,39409
15.37660,37332
15.38472,37434
15.39283,37712
15.40097,39758
15.40908,40652
15.41722,34378
15.42533,37713
15.43345,38526
15.44158,35874
15.44970,37963
15.45783,47892
15.46595,60331
15.47407,83216
15.48220,106982
15.49032,130514
15.49843,153802
15.50657,159894
15.51468,154916
15.52282,135082
15.53093,109367
15.53905,94901
15.54718,86391
15.55530,70808
15.56343,67435
15.57155,61880
15.57967,60388
15.58780,48202
15.59592,47244
15.60403,46714
15.61217,45710
15.62028,47885
15.62842,45497
15.63653,40445
15.64465,45071
15.65278,42552
15.66090,45831
15.66903,41380
15.67715,41627
15.68527,40447
15.69340,36390
15.70152,37678
15.70965,37051
15.71777,42182
15.72588,38267
15.73402,39060
15.74213,42013
15.75025,45421
15.75838,49652
15.76650,64211
15.77463,83360
15.78275,98556
15.79087,104833
15.79900,103199
15.80712,90657
15.81525,80582
15.82337,65747
15.83148,59216
15.83962,53629
15.84773,48763
15.85587,48213
15.86398,47308
15.87210,43908
15.88023,45597
15.88835,47144
15.89647,44123
15.90460,41212
15.91272,45006
15.92085,45802
15.92897,47615
15.93708,42193
15.94522,40799
15.95333,40608
15.96147,38591
15.96958,43612
15.97770,42157
15.98583,46184
15.99395,43536
16.00207,46810
16.01020,49032
16.01832,50458
16.02645,49465
16.03457,49873
16.04268,46073
16.05082,48256
16.05893,42883
16.06707,45143
16.07518,40253
16.08330,37193
16.09143,40640
16.09955,39191
16.10768,39972
16.11580,40400
16.12392,41742
16.13205,40398
16.14017,44948
16.14828,42524
16.15642,43540
16.16453,43166
16.17267,38877
16.18078,40688
16.18890,41773
16.19703,41982
16.20515,43329
16.21328,43673
16.22140,42524
16.22952,42008
16.23765,40052
16.24577,41984
16.25390,36805
16.26202,37825
16.27013,40451
16.27827,42702
16.28638,42866
16.29450,44963
16.30263,46219
16.31075,42939
16.31888,40951
16.32700,43990
16.33512,42838
16.34325,43476
16.35137,43069
16.35950,41965
16.36762,44718
16.37573,41882
16.38387,40040
16.39198,47294
16.40010,40423
16.40823,40394
16.41635,41969
16.42448,44503
16.43260,38772
16.44072,43740
16.44885,51206
16.45697,65087
16.46510,84043
16.47322,114656
16.48133,129372
16.48947,134062
16.49758,118841
16.50572,96163
16.51383,76857
16.52195,64134
16.53008,57226
16.53820,50057
16.54632,52117
16.55445,47674
16.56257,48258
16.57070,48162
16.57882,45613
16.58693,46332
16.59507,45334
16.60318,46439
16.61132,45554
16.61943,44487
16.62755,42546
16.63568,40861
16.64380,43239
16.65193,45530
16.66005,39803
16.66817,37719
16.67630,37978
16.68442,38525
16.69253,41348
16.70067,40297
16.70878,37740
16.71692,39312
16.72503,37685
16.73315,36026
16.74128,41671
16.74940,38830
16.75753,43439
16.76565,40422
16.77377,41109
16.78190,33454
16.79002,39663
16.79813,38971
16.80627,37639
16.81438,37733
16.82252,41990
16.83063,36193
16.83875,39581
16.84688,40314
16.85500,38506
16.86313,38285
16.87125,37106
16.87937,39628
16.88750,36449
16.89562,37167
16.90375,37039
16.91187,35524
16.91998,35710
16.92812,37489
16.93623,39705
16.94435,37819
16.95248,35637
16.96060,32796
16.96873,35941
16.97685,39831
16.98497,35697
16.99310,40215
17.00122,43554
17.00935,37983
17.01747,39565
17.02558,39882
17.03372,37864
17.04183,37145
17.04995,43358
17.05808,37868
17.06620,40715
17.07433,49801
17.08245,52863
17.09057,61998
17.09870,70847
17.10682,74546
17.11495,76986
17.12307,73951
17.13118,71449
17.13932,63755
17.14743,62237
17.15557,58134
17.16368,56387
17.17180,47950
17.17993,46248
17.18805,43826
17.19617,42392
17.20430,43607
17.21242,40037
17.22055,40129
17.22867,36630
17.23678,37267
17.24492,39877
17.25303,38088
17.26117,38845
17.26928,40284
17.27740,39250
17.28553,39494
17.29365,37947
17.30178,34198
17.30990,37627
17.31802,40775
17.32615,42599
17.33427,45186
17.34238,45736
17.35052,47456
17.35863,48055
17.36677,48248
17.37488,48338
17.38300,47872
17.39113,50189
17.39925,54390
17.40738,48668
17.41550,55919
17.42362,55281
17.43175,50682
17.43987,53739
17.44798,48111
17.45612,44691
17.46423,46330
17.47237,42954
17.48048,42229
17.48860,43008
17.49673,39695
17.50485,42987
17.51298,51477
17.52110,53152
17.52922,58433
17.53735,63160
17.54547,71927
17.55360,72855
17.56172,82280
17.56983,92877
17.57797,112669
17.58608,125696
17.59420,147067
17.60233,164745
17.61045,165585
17.61858,155709
17.62670,126867
17.63482,107575
17.64295,91364
17.65107,78046
17.65920,75432
17.66732,67261
17.67543,64452
17.68357,65216
17.69168,60447
17.69982,60169
17.70793,57011
17.71605,60401
17.72418,57360
17.73230,57900
17.74042,63673
17.74855,55997
17.75667,53909
17.76480,50710
17.77292,49623
17.78103,48165
17.78917,48101
17.79728,48058
17.80542,49609
17.81353,49685
17.82165,56269
17.82978,54096
17.83790,57372
17.84602,60248
17.85415,65195
17.86227,62854
17.87040,60199
17.87852,56330
17.88663,52977
17.89477,48370
17.90288,49445
17.91102,44417
17.91913,41719
17.92725,48024
17.93538,45015
17.94350,43327
17.95163,40397
17.95975,45579
17.96787,41463
17.97600,41853
17.98412,43736
17.99223,40693
18.00037,41169
18.00848,46849
18.01662,53046
18.02473,58756
18.03285,68353
18.04098,69704
18.04910,72252
18.05723,88354
18.06535,121133
18.07347,212054
18.08160,348351
18.08972,474872
18.09783,582139
18.10597,562208
18.11408,471068
18.12222,358088
18.13033,259641
18.13845,196695
18.14658,163461
18.15470,148681
18.16283,133931
18.17095,115582
18.17907,105390
18.18720,96618
18.19532,92267
18.20345,91249
18.21157,89189
18.21968,81524
18.22782,80771
18.23593,73872
18.24405,75290
18.25218,70860
18.26030,76869
18.26843,79005
18.27655,88046
18.28467,100994
18.29280,106474
18.30092,116907
18.30905,121278
18.31717,127984
18.32528,121478
18.33342,127433
18.34153,124380
18.34967,132633
18.35778,132267
18.36590,135815
18.37403,135898
18.38215,134559
18.39027,132968
18.39840,139786
18.40652,130504
18.41465,131454
18.42277,137501
18.43088,142936
18.43902,150499
18.44713,147656
18.45527,153148
18.46338,160283
18.47150,164698
18.47963,163365
18.48775,158616
18.49588,154535
18.50400,143066
18.51212,135435
18.52025,123556
18.52837,117408
18.53648,112457
18.54462,105341
18.55273,107714
18.56087,104388
18.56898,108509
18.57710,108781
18.58523,106270
18.59335,111871
18.60148,106250
18.60960,114686
18.61772,113304
18.62585,120209
18.63397,114442
18.64208,107681
18.65022,106172
18.65833,105269
18.66647,98657
18.67458,93920
18.68270,94679
18.69083,90222
18.69895,92616
18.70708,92272
18.71520,80074
18.72332,81793
18.73145,82533
18.73957,81665
18.74770,79361
18.75582,78606
18.76393,76625
18.77207,73867
18.78018,74133
18.78830,71938
18.79643,70904
18.80455,67759
18.81268,73250
18.82080,70278
18.82892,70037
18.83705,66266
18.84517,61164
18.85330,67202
18.86142,64614
18.86953,64917
18.87767,70977
18.88578,72639
18.89390,70319
18.90203,68492
18.91015,65635
18.91828,71596
18.92640,70470
18.93452,71699
18.94265,67511
18.95077,69484
18.95890,64222
18.96702,67347
18.97513,63515
18.98327,60345
18.99138,60071
18.99952,60088
19.00763,63784
19.01575,65478
19.02388,63386
19.03200,60328
19.04012,59912
19.04825,59373
19.05637,56236
19.06450,64643
19.07262,58261
19.08073,65062
19.08887,70443
19.09698,80645
19.10512,79843
19.11323,80028
19.12135,79282
19.12948,79417
19.13760,86076
19.14573,85914
19.15385,81553
19.16197,85694
19.17010,89880
19.17822,77624
19.18633,71242
19.19447,72241
19.20258,64445
19.21072,61821
19.21883,61602
19.22695,53199
19.23508,56385
19.24320,56081
19.25133,54189
19.25945,52342
19.26757,55261
19.27570,61269
19.28382,62886
19.29193,59549
19.30007,59284
19.30818,61616
19.31632,55939
19.32443,55921
19.33255,54167
19.34068,55989
19.34880,57500
19.35693,60957
19.36505,61007
19.37317,67939
19.38130,69100
19.38942,67969
19.39755,59884
19.40567,61183
19.41378,57234
19.42192,55688
19.43003,58597
19.43815,68518
19.44628,92283
19.45440,112341
19.46253,125713
19.47065,133266
19.47877,114344
19.48690,101177
19.49502,88508
19.50315,75668
19.51127,67777
19.51938,64987
19.52752,62565
19.53563,70931
19.54377,59888
19.55188,62866
19.56000,56757
19.56813,55546
19.57625,51065
19.58437,48380
19.59250,47140
19.60062,44852
19.60875,46744
19.61687,47686
19.62498,53790
19.63312,64317
19.64123,85443
19.64937,107213
19.65748,127537
19.66560,133930
19.67373,133892
19.68185,136653
19.68997,118362
19.69810,107280
19.70622,92315
19.71435,83171
19.72247,76024
19.73058,73373
19.73872,64972
19.74683,67833
19.75497,66722
19.76308,67528
19.77120,67939
19.77933,74649
19.78745,80662
19.79558,82022
19.80370,82128
19.81182,77129
19.81995,73106
19.82807,68390
19.83618,69834
19.84432,63551
19.85243,72173
19.86057,89391
19.86868,141447
19.87680,225690
19.88493,352439
19.89305,477078
19.90118,571671
19.90930,598949
19.91742,509933
19.92555,404503
19.93367,287108
19.94178,219569
19.94992,176301
19.95803,155112
19.96617,142236
19.97428,134455
19.98240,135052
19.99053,120833
19.99865,112970
20.00678,111210
20.01490,112336
20.02302,109993
20.03115,99734
20.03927,97462
20.04740,102333
20.05552,94321
20.06363,95568
20.07177,104317
20.07988,103522
20.08800,108375
20.09613,96541
20.10425,98706
20.11238,84381
20.12050,73940
20.12862,76056
20.13675,79605
20.14487,98741
20.15300,123656
20.16112,172794
20.16923,228421
20.17737,282028
20.18548,321592
20.19362,340358
20.20173,321406
20.20985,277252
20.21798,239471
20.22610,203568
20.23422,192546
20.24235,211342
20.25047,239379
20.25860,269492
20.26672,286768
20.27483,294557
20.28297,271318
20.29108,229967
20.29922,177215
20.30733,153991
20.31545,119016
20.32358,97488
20.33170,88703
20.33982,81186
20.34795,74031
20.35607,69034
20.36420,64930
20.37232,63569
20.38043,64484
20.38857,61441
20.39668,62462
20.40482,63608
20.41293,66817
20.42105,66293
20.42918,68481
20.43730,65865
20.44543,65557
20.45355,65767
20.46167,64223
20.46980,59991
20.47792,58341
20.48603,56759
20.49417,54504
20.50228,52871
20.51042,49253
20.51853,47737
20.52665,46168
20.53478,49755
20.54290,50092
20.55103,47096
20.55915,51614
20.56727,46591
20.57540,48382
20.58352,49222
20.59165,46339
20.59977,47401
20.60788,43464
20.61602,53761
20.62413,44969
20.63225,48589
20.64038,46159
20.64850,49341
20.65663,52628
20.66475,46093
20.67287,45127
20.68100,50392
20.68912,51041
20.69725,46276
20.70537,46751
20.71348,46686
20.72162,47741
20.72973,49358
20.73785,45860
20.74598,46922
20.75410,51483
20.76223,49228
20.77035,53828
20.77847,55098
20.78660,76817
20.79472,94787
20.80285,120596
20.81097,134760
20.81908,149461
20.82722,141223
20.83533,123537
20.84347,105379
20.85158,79613
20.85970,66902
20.86783,60839
20.87595,59588
20.88407,56470
20.89220,59065
20.90032,59067
20.90845,60521
20.91657,59418
20.92468,58768
20.93282,62538
20.94093,65064
20.94907,59010
20.95718,52332
20.96530,53650
20.97343,48332
20.98155,46003
20.98968,45838
20.99780,49251
21.00592,47296
21.01405,44839
21.02217,47988
21.03028,51015
21.03842,50827
21.04653,49605
21.05467,50406
21.06278,49262
21.07090,46579
21.07903,48116
21.08715,47163
21.09528,43611
21.10340,47093
21.11152,47442
21.11965,49366
21.12777,52543
21.13588,58789
21.14402,64206
21.15213,74685
21.16027,77994
21.16838,77567
21.17650,75538
21.18463,68278
21.19275,60793
21.20088,53126
21.20900,54771
21.21712,55742
21.22525,49498
21.23337,57772
21.24150,52735
21.24962,56538
21.25773,53850
21.26587,50887
21.27398,53368
21.28210,53108
21.29023,50692
21.29835,49201
21.30648,54287
21.31460,49899
21.32272,50332
21.33085,53490
21.33897,47620
21.34710,49838
21.35522,49262
21.36333,50781
21.37147,48047
21.37958,53235
21.38770,54377
21.39583,50362
21.40395,56666
21.41208,61291
21.42020,60311
21.42832,60737
21.43645,56173
21.44457,50379
21.45270,49683
21.46082,47800
21.46893,51853
21.47707,49541
21.48518,50953
21.49332,44458
21.50143,45557
21.50955,47019
21.51768,46889
21.52580,51025
21.53392,46085
21.54205,45436
21.55017,46063
21.55830,44648
21.56642,48749
21.57453,50248
21.58267,55146
21.59078,60650
21.59892,67003
21.60703,67993
21.61515,68554
21.62328,69056
21.63140,66554
21.63953,58153
21.64765,57626
21.65577,55594
21.66390,52858
21.67202,52318
21.68013,56584
21.68827,55866
21.69638,52160
21.70452,49440
21.71263,54432
21.72075,48003
21.72888,47550
21.73700,44886
21.74513,45136
21.75325,42555
21.76137,46106
21.76950,51012
21.77762,49810
21.78573,55386
21.79387,57144
21.80198,58299
21.81012,56311
21.81823,55853
21.82635,52608
21.83448,50547
21.84260,47475
21.85073,47622
21.85885,48314
21.86697,45439
21.87510,45890
21.88322,45982
21.89135,47670
21.89947,43193
21.90758,39308
21.91572,46107
21.92383,40836
21.93195,42448
21.94008,40655
21.94820,45337
21.95633,41897
21.96445,47972
21.97257,52898
21.98070,65185
21.98882,65782
21.99695,70304
22.00507,72538
22.01318,73754
22.02132,76877
22.02943,71964
22.03757,70111
22.04568,73465
22.05380,77354
22.06193,78927
22.07005,76494
22.07817,74385
22.08630,72257
22.09442,75279
22.10255,76075
22.11067,73475
22.11878,74661
22.12692,67296
22.13503,67691
22.14317,66525
22.15128,67334
22.15940,65588
22.16753,63485
22.17565,65939
22.18377,68483
22.19190,59979
22.20002,64538
22.20815,59390
22.21627,60781
22.22438,57272
22.23252,56769
22.24063,55500
22.24877,57442
22.25688,53469
22.26500,55326
22.27313,58591
22.28125,60805
22.28938,62187
22.29750,58272
22.30562,57454
22.31375,55770
22.32187,58889
22.32998,56716
22.33812,53094
22.34623,50305
22.35437,52937
22.36248,51640
22.37060,51219
22.37873,54226
22.38685,58431
22.39498,60948
22.40310,71501
22.41122,72585
22.41935,75175
22.42747,73655
22.43558,66553
22.44372,63559
22.45183,60318
22.45997,64649
22.46808,57283
22.47620,54393
22.48433,57709
22.49245,66412
22.50058,65007
22.50870,65776
22.51682,69082
22.52495,63602
22.53307,65457
22.54120,60035
22.54932,57274
22.55743,46869
22.56557,51502
22.57368,46309
22.58180,44519
22.58993,48655
22.59805,41867
22.60618,42019
22.61430,42808
22.62242,42624
22.63055,41292
22.63867,39990
22.64680,41274
22.65492,43420
22.66303,47947
22.67117,45740
22.67928,46645
22.68742,56032
22.69553,67127
22.70365,75783
22.71178,79124
22.71990,79796
22.72802,73557
22.73615,67243
22.74427,58647
22.75240,58455
22.76052,55489
22.76863,54776
22.77677,54538
22.78488,61193
22.79302,67002
22.80113,71026
22.80925,71569
22.81738,71363
22.82550,71644
22.83362,60029
22.84175,57758
22.84987,57581
22.85800,60393
22.86612,61946
22.87423,68073
22.88237,72595
22.89048,78779
22.89862,83580
22.90673,93598
22.91485,97972
22.92298,109281
22.93110,112028
22.93923,107313
22.94735,104284
22.95547,95273
22.96360,89930
22.97172,76426
22.97983,69651
22.98797,65184
22.99608,58471
23.00422,58561
23.01233,51345
23.02045,52910
23.02858,49512
23.03670,48753
23.04483,49233
23.05295,46561
23.06107,48710
23.06920,49400
23.07732,51549
23.08545,44696
23.09357,45913
23.10168,46529
23.10982,48298
23.11793,42670
23.12605,44815
23.13418,42082
23.14230,39437
23.15043,45316
23.15855,39858
23.16667,41977
23.17480,42545
23.18292,41220
23.19105,42390
23.19917,38839
23.20728,37402
23.21542,41873
23.22353,41936
23.23165,42945
23.23978,40837
23.24790,43812
23.25603,45479
23.26415,40801
23.27227,41504
23.28040,43856
23.28852,47650
23.29665,48975
23.30477,42579
23.31288,43010
23.32102,42195
23.32913,48955
23.33727,49459
23.34538,57041
23.35350,64121
23.36163,65379
23.36975,57047
23.37787,62724
23.38600,62774
23.39412,54817
23.40225,50858
23.41037,55339
23.41848,48335
23.42662,49970
23.43473,49878
23.44287,44726
23.45098,43010
23.45910,43696
23.46723,38449
23.47535,38153
23.48348,43024
23.49160,40903
23.49972,43184
23.50785,39574
23.51597,42785
23.52408,39119
23.53222,44031
23.54033,40346
23.54847,46237
23.55658,48725
23.56470,58757
23.57283,67631
23.58095,75656
23.58908,93137
23.59720,94501
23.60532,102154
23.61345,93752
23.62157,84780
23.62968,74617
23.63782,66939
23.64593,59646
23.65407,59311
23.66218,62931
23.67030,62971
23.67843,66319
23.68655,60624
23.69468,53554
23.70280,55976
23.71092,54185
23.71905,54905
23.72717,62638
23.73530,86459
23.74342,154256
23.75153,343751
23.75967,757605
23.76778,1512076
23.77590,2556382
23.78403,3295925
23.79215,3448428
23.80028,3064734
23.80840,2528324
23.81652,1905306
23.82465,1413239
23.83277,1072114
23.84090,797743
23.84902,647011
23.85713,527121
23.86527,445335
23.87338,399741
23.88152,352812
23.88963,321933
23.89775,297320
23.90588,265657
23.91400,260237
23.92212,238188
23.93025,223377
23.93837,215910
23.94650,203086
23.95462,193070
23.96273,178073
23.97087,167905
23.97898,170609
23.98712,158868
23.99523,150708
24.00335,149730
24.01148,150870
24.01960,145798
24.02772,142064
24.03585,143901
24.04397,138994
24.05210,133789
24.06022,133975
24.06833,121523
24.07647,120297
24.08458,113067
24.09272,121313
24.10083,110605
24.10895,109910
24.11708,108013
24.12520,112165
24.13333,107927
24.14145,112927
24.14957,111015
24.15770,121293
24.16582,117778
24.17393,115113
24.18207,113642
24.19018,118729
24.19832,118010
24.20643,111002
24.21455,106887
24.22268,106061
24.23080,98591
24.23893,89632
24.24705,86920
24.25517,83221
24.26330,81647
24.27142,81979
24.27953,70280
24.28767,72513
24.29578,76148
24.30392,73314
24.31203,76927
24.32015,82508
24.32828,93856
24.33640,110365
24.34453,114537
24.35265,124004
24.36077,115482
24.36890,100215
24.37702,91585
24.38515,75263
24.39327,68569
24.40138,63360
24.40952,63363
24.41763,62706
24.42575,62936
24.43388,69786
24.44200,72656
24.45013,75858
24.45825,77486
24.46637,80194
24.47450,86533
24.48262,76448
24.49075,77742
24.49887,76767
24.50698,80547
24.51512,76670
24.52323,78379
24.53137,85257
24.53948,92199
24.54760,100918
24.55573,101532
24.56385,99715
24.57197,90694
24.58010,82654
24.58822,75618
24.59635,72014
24.60447,68170
24.61258,63356
24.62072,65300
24.62883,60434
24.63697,57160
24.64508,59037
24.65320,57127
24.66133,54484
24.66945,55071
24.67757,58522
24.68570,57178
24.69382,60907
24.70195,55012
24.71007,57199
24.71818,54002
24.72632,56046
24.73443,54799
24.74257,52977
24.75068,55336
24.75880,52686
24.76693,56976
24.77505,55392
24.78318,54887
24.79130,56386
24.79942,55430
24.80755,56699
24.81567,59511
24.82378,60801
24.83192,67542
24.84003,72736
24.84817,81512
24.85628,88514
24.86440,107426
24.87253,130113
24.88065,148580
24.88878,156916
24.89690,150002
24.90502,133091
24.91315,108807
24.92127,91347
24.92940,79842
24.93752,61328
24.94563,67238
24.95377,61901
24.96188,58632
24.97000,69539
24.97813,68338
24.98625,82383
24.99438,83974
25.00250,84432
25.01062,88118
25.01875,89500
25.02687,87867
25.03500,81406
25.04312,85433
25.05123,86588
25.05937,86596
25.06748,79353
25.07560,89783
25.08373,85554
25.09185,89837
25.09998,115337
25.10810,164062
25.11622,259152
25.12435,397306
25.13247,556608
25.14060,713698
25.14872,740830
25.15683,679984
25.16497,534901
25.17308,385092
25.18122,265728
25.18933,184282
25.19745,144143
25.20558,119942
25.21370,111692
25.22182,100227
25.22995,103322
25.23807,107356
25.24620,130184
25.25432,150005
25.26243,178163
25.27057,188386
25.27868,176677
25.28682,162532
25.29493,133322
25.30305,114623
25.31118,97115
25.31930,88874
25.32742,81719
25.33555,74588
25.34367,71462
25.35180,70328
25.35992,70184
25.36803,64162
25.37617,63506
25.38428,66284
25.39242,58353
25.40053,58671
25.40865,62403
25.41678,60584
25.42490,58085
25.43303,59486
25.44115,58390
25.44927,61399
25.45740,57445
25.46552,52195
25.47363,54642
25.48177,54575
25.48988,52172
25.49802,54800
25.50613,51785
25.51425,55458
25.52238,52507
25.53050,51168
25.53863,53317
25.54675,54112
25.55487,48667
25.56300,48375
25.57112,52073
25.57925,51108
25.58737,49886
25.59548,48913
25.60362,50871
25.61173,51067
25.61985,51159
25.62798,52355
25.63610,50090
25.64423,47850
25.65235,50484
25.66047,49458
25.66860,49029
25.67672,49907
25.68485,51121
25.69297,52304
25.70108,54505
25.70922,53535
25.71733,50647
25.72545,46276
25.73358,46531
25.74170,44958
25.74983,46804
25.75795,44327
25.76607,49885
25.77420,47861
25.78232,44031
25.79045,45347
25.79857,48822
25.80668,53441
25.81482,46245
25.82293,51752
25.83107,51963
25.83918,50052
25.84730,48778
25.85543,50500
25.86355,49991
25.87167,47976
25.87980,43906
25.88792,48264
25.89605,42470
25.90417,45362
25.91228,43976
25.92042,42903
25.92853,44416
25.93667,44828
25.94478,42825
25.95290,41159
25.96103,43471
25.96915,43150
25.97728,44442
25.98540,37002
25.99352,41450
26.00165,41572
26.00977,39971
26.01788,44889
26.02602,39414
26.03413,40625
26.04227,40246
26.05038,40517
26.05850,44604
26.06663,43447
26.07475,40407
26.08288,43074
26.09100,47820
26.09912,43824
26.10725,47000
26.11537,47145
26.12348,48541
26.13162,49275
26.13973,50003
26.14787,51017
26.15598,50962
26.16410,50431
26.17223,52226
26.18035,47242
26.18848,49237
26.19660,47477
26.20472,41873
26.21285,43295
26.22097,43643
26.22910,39245
26.23722,45703
26.24533,42446
26.25347,39110
26.26158,44022
26.26970,39614
26.27783,42955
26.28595,43489
26.29408,41841
26.30220,41085
26.31032,37585
26.31845,40924
26.32657,37851
26.33470,39509
26.34282,46066
26.35093,50734
26.35907,58556
26.36718,66536
26.37532,83556
26.38343,94193
26.39155,98196
26.39968,110271
26.40780,95649
26.41592,83693
26.42405,76705
26.43217,58507
26.44030,49218
26.44842,54366
26.45653,46944
26.46467,41809
26.47278,47741
26.48092,46415
26.48903,43643
26.49715,40501
26.50528,40113
26.51340,40976
26.52152,39300
26.52965,42730
26.53777,37436
26.54590,36705
26.55402,37865
26.56213,35661
26.57027,42517
26.57838,41991
26.58652,38931
26.59463,34843
26.60275,40991
26.61088,38957
26.61900,39373
26.62713,37957
26.63525,36318
26.64337,41034
26.65150,39473
26.65962,48342
26.66773,41782
26.67587,44112
26.68398,43296
26.69212,41831
26.70023,44227
26.70835,42311
26.71648,39690
26.72460,39618
26.73273,40355
26.74085,39282
26.74897,40574
26.75710,38440
26.76522,38468
26.77333,40320
26.78147,41394
26.78958,41868
26.79772,45142
26.80583,44228
26.81395,41779
26.82208,45377
26.83020,41117
26.83833,37846
26.84645,41006
26.85457,38254
26.86270,40237
26.87082,40615
26.87895,40123
26.88707,38527
26.89518,38733
26.90332,42688
26.91143,37298
26.91955,36924
26.92768,40300
26.93580,42633
26.94393,53075
26.95205,69040
26.96017,109281
26.96830,176423
26.97642,284734
26.98455,427876
26.99267,563242
27.00078,685439
27.00892,744212
27.01703,715067
27.02517,619119
27.03328,505805
27.04140,394544
27.04953,311854
27.05765,241899
27.06577,200107
27.07390,173787
27.08202,154294
27.09015,132050
27.09827,121814
27.10638,111781
27.11452,104078
27.12263,99880
27.13077,93647
27.13888,88200
27.14700,91050
27.15513,89393
27.16325,92474
27.17137,94007
27.17950,93780
27.18762,86150
27.19575,82785
27.20387,81642
27.21198,69224
27.22012,69543
27.22823,68741
27.23637,65546
27.24448,62559
27.25260,64534
27.26073,63017
27.26885,61042
27.27698,53991
27.28510,55945
27.29322,55736
27.30135,50707
27.30947,54962
27.31758,51557
27.32572,55682
27.33383,54362
27.34197,49887
27.35008,51951
27.35820,54847
27.36633,51009
27.37445,53834
27.38258,50395
27.39070,52021
27.39882,55008
27.40695,51063
27.41507,51289
27.42320,49044
27.43132,47945
27.43943,46992
27.44757,47301
27.45568,51109
27.46380,46825
27.47193,48456
27.48005,44756
27.48818,46521
27.49630,48889
27.50442,44770
27.51255,47482
27.52067,46568
27.52880,47350
27.53692,43702
27.54503,47112
27.55317,47623
27.56128,45319
27.56940,46810
27.57753,48289
27.58565,51368
27.59378,48391
27.60190,52870
27.61002,48910
27.61815,44652
27.62627,47314
27.63440,47443
27.64252,44885
27.65063,46143
27.65877,48765
27.66688,53597
27.67502,52406
27.68313,53140
27.69125,56861
27.69938,49751
27.70750,50620
27.71562,52681
27.72375,48798
27.73187,54502
27.74000,49955
27.74812,55362
27.75623,53323
27.76437,54199
27.77248,51863
27.78062,48033
27.78873,49256
27.79685,43634
27.80498,46040
27.81310,45420
27.82122,41157
27.82935,42024
27.83747,46740
27.84560,41988
27.85372,44635
27.86183,39707
27.86997,40581
27.87808,37679
27.88622,36580
27.89433,39373
27.90245,41111
27.91058,40170
27.91870,39192
27.92683,38545
27.93495,39450
27.94307,38749
27.95120,40023
27.95932,41747
27.96743,42390
27.97557,47398
27.98368,47305
27.99182,51041
27.99993,48685
28.00805,52239
28.01618,63539
28.02430,66707
28.03243,75905
28.04055,77398
28.04867,76571
28.05680,76538
28.06492,70412
28.07305,63612
28.08117,57356
28.08928,56154
28.09742,53410
28.10553,57110
28.11365,59403
28.12178,54281
28.12990,51835
28.13803,54057
28.14615,51824
28.15427,47918
28.16240,48461
28.17052,44392
28.17865,42662
28.18677,46246
28.19488,45065
28.20302,47772
28.21113,44541
28.21925,46619
28.22738,48552
28.23550,52826
28.24363,48375
28.25175,50190
28.25987,57240
28.26800,74468
28.27612,94080
28.28425,119303
28.29237,152496
28.30048,179953
28.30862,203781
28.31673,229457
28.32487,227222
28.33298,225931
28.34110,222530
28.34923,200880
28.35735,193294
28.36547,169335
28.37360,155205
28.38172,136867
28.38985,127649
28.39797,114756
28.40608,103977
28.41422,104001
28.42233,87884
28.43047,79780
28.43858,80546
28.44670,73650
28.45483,70555
28.46295,70330
28.47108,67401
28.47920,70241
28.48732,70104
28.49545,63267
28.50357,58782
28.51168,60000
28.51982,69001
28.52793,55459
28.53607,53162
28.54418,49607
28.55230,48609
28.56043,50691
28.56855,50246
28.57668,48573
28.58480,52319
28.59292,52289
28.60105,53106
28.60917,53165
28.61728,50239
28.62542,51842
28.63353,51565
28.64167,51781
28.64978,56896
28.65790,52668
28.66603,52217
28.67415,50971
28.68228,53267
28.69040,54619
28.69852,62054
28.70665,68436
28.71477,70310
28.72290,68693
28.73102,64999
28.73913,57802
28.74727,55030
28.75538,46897
28.76350,47040
28.77163,42377
28.77975,43695
28.78788,43716
28.79600,45594
28.80412,47725
28.81225,44692
28.82037,47513
28.82850,43556
28.83662,46378
28.84473,45196
28.85287,45490
28.86098,46156
28.86910,41826
28.87723,47331
28.88535,51480
28.89348,52490
28.90160,45012
28.90972,49397
28.91785,46235
28.92597,43714
28.93410,48420
28.94222,43201
28.95033,47202
28.95847,46363
28.96658,48792
28.97472,44522
28.98283,42437
28.99095,39184
28.99908,37620
29.00720,40388
29.01532,42125
29.02345,44644
29.03157,40105
29.03970,40794
29.04782,42546
29.05593,44042
29.06407,45006
29.07218,41755
29.08032,42479
29.08843,44057
29.09655,42679
29.10468,44150
29.11280,40508
29.12093,42131
29.12905,40031
29.13717,40408
29.14530,39247
29.15342,42716
29.16153,41268
29.16967,37749
29.17778,40172
29.18592,42243
29.19403,46618
29.20215,48805
29.21028,50386
29.21840,51103
29.22653,52067
29.23465,57969
29.24277,58727
29.25090,59646
29.25902,59536
29.26715,63772
29.27527,55602
29.28338,53356
29.29152,45894
29.29963,46570
29.30775,45413
29.31588,43064
29.32400,39216
29.33213,39557
29.34025,39407
29.34837,37844
29.35650,39645
29.36462,35198
29.37275,39447
29.38087,34708
29.38898,37556
29.39712,39961
29.40523,38824
29.41335,42083
29.42148,40225
29.42960,43901
29.43773,42556
29.44585,39933
29.45397,40687
29.46210,36462
29.47022,37596
29.47835,42368
29.48647,43100
29.49458,41433
29.50272,41601
29.51083,39313
29.51897,44411
29.52708,42316
29.53520,38886
29.54333,36720
29.55145,37109
29.55957,40120
29.56770,40934
29.57582,43079
29.58395,43087
29.59207,48101
29.60018,42577
29.60832,43593
29.61643,40198
29.62457,41090
29.63268,42086
29.64080,41484
29.64893,40693
29.65705,39805
29.66517,33529
29.67330,37067
29.68142,39484
29.68955,41632
29.69767,39162
29.70578,40399
29.71392,38551
29.72203,42262
29.73017,40404
29.73828,38750
29.74640,40295
29.75453,41975
29.76265,35341
29.77078,39248
29.77890,37575
29.78702,38339
29.79515,37042
29.80327,35593
29.81138,35400
29.81952,38676
29.82763,37013
29.83577,35785
29.84388,34878
29.85200,36412
29.86013,38628
29.86825,41609
29.87638,42653
29.88450,53909
29.89262,63729
29.90075,73336
29.90887,84153
29.91700,92521
29.92512,94116
29.93323,103531
29.94137,114555
29.94948,109571
29.95760,111992
29.96573,120644
29.97385,122076
29.98198,114973
29.99010,117168
29.99822,107680
30.00635,105287
30.01447,95409
30.02260,100007
30.03072,87629
30.03883,82365
30.04697,79578
30.05508,76578
30.06320,71574
30.07133,73270
30.07945,64197
30.08758,68010
30.09570,65182
30.10382,60512
30.11195,59369
30.12007,59443
30.12820,60509
30.13632,56982
30.14443,55412
30.15257,52902
30.16068,54655
30.16882,51868
30.17693,54340
30.18505,51202
30.19318,52138
30.20130,51414
30.20942,51967
30.21755,50189
30.22567,47026
30.23380,47979
30.24192,45501
30.25003,45717
30.25817,45029
30.26628,47903
30.27442,46230
30.28253,44456
30.29065,43755
30.29878,44407
30.30690,46062
30.31503,39876
30.32315,41953
30.33127,42616
30.33940,41737
30.34752,41934
30.35563,42083
30.36377,38614
30.37188,41031
30.38002,41456
30.38813,38176
30.39625,41025
30.40438,42837
30.41250,42168
30.42063,39101
30.42875,38980
30.43687,39795
30.44500,41189
30.45312,39439
30.46123,39874
30.46937,39277
30.47748,38533
30.48562,40284
30.49373,38909
30.50185,36814
30.50998,42012
30.51810,38765
30.52623,40943
30.53435,41507
30.54247,41921
30.55060,42419
30.55872,36995
30.56685,39325
30.57497,41076
30.58308,43221
30.59122,40606
30.59933,42216
30.60745,41254
30.61558,41823
30.62370,37762
30.63183,40228
30.63995,36296
30.64807,37660
30.65620,40034
30.66432,38662
30.67245,36119
30.68057,39710
30.68868,40166
30.69682,38328
30.70493,37183
30.71305,36839
30.72118,38282
30.72930,37819
30.73743,37686
30.74555,41320
30.75367,39351
30.76180,37421
30.76992,40796
30.77805,47076
30.78617,60990
30.79428,62241
30.80242,70275
30.81053,71792
30.81867,65952
30.82678,60585
30.83490,53102
30.84303,46815
30.85115,42841
30.85927,41830
30.86740,44463
30.87552,42918
30.88365,42813
30.89177,47501
30.89988,39401
30.90802,37465
30.91613,41172
30.92427,39825
30.93238,37138
30.94050,37980
30.94863,35588
30.95675,34299
30.96488,37549
30.97300,39050
30.98112,39467
30.98925,36801
30.99737,40315
31.00548,37187
31.01362,40301
31.02173,38696
31.02987,36692
31.03798,37361
31.04610,39710
31.05423,38859
31.06235,40707
31.07048,42601
31.07860,39083
31.08672,44622
31.09485,46846
31.10297,46299
31.11108,48190
31.11922,45548
31.12733,46811
31.13547,44614
31.14358,41546
31.15170,41114
31.15983,42829
31.16795,51684
31.17608,58568
31.18420,72285
31.19232,89308
31.20045,105971
31.20857,117869
31.21670,117155
31.22482,110134
31.23293,98086
31.24107,81912
31.24918,64902
31.25730,52614
31.26543,48553
31.27355,42426
31.28168,42408
31.28980,39577
31.29792,40047
31.30605,41106
31.31417,39978
31.32230,39083
31.33042,39749
31.33853,46316
31.34667,39852
31.35478,41520
31.36292,39580
31.37103,41678
31.37915,40821
31.38728,38101
31.39540,40461
31.40352,36852
31.41165,40203
31.41977,36123
31.42790,37584
31.43602,40937
31.44413,38618
31.45227,38885
31.46038,38995
31.46852,41977
31.47663,40467
31.48475,42159
31.49288,40383
31.50100,37781
31.50912,42160
31.51725,40899
31.52537,47903
31.53350,43463
31.54162,42937
31.54973,41083
31.55787,41832
31.56598,42543
31.57412,43667
31.58223,40009
31.59035,38773
31.59848,39376
31.60660,37480
31.61473,36580
31.62285,42060
31.63097,41371
31.63910,40393
31.64722,39802
31.65533,44525
31.66347,42355
31.67158,42353
31.67972,49531
31.68783,45794
31.69595,45528
31.70408,47777
31.71220,47334
31.72033,44528
31.72845,40581
31.73657,40194
31.74470,43108
31.75282,37495
31.76095,39257
31.76907,39395
31.77718,36749
31.78532,39732
31.79343,38756
31.80155,41337
31.80968,40849
31.81780,43149
31.82593,41242
31.83405,47006
31.84217,54222
31.85030,60063
31.85842,69809
31.86655,77424
31.87467,81918
31.88278,89233
31.89092,84183
31.89903,85279
31.90715,88788
31.91528,84316
31.92340,78167
31.93153,77948
31.93965,74914
31.94777,74401
31.95590,74226
31.96402,73592
31.97215,66891
31.98027,62600
31.98838,59684
31.99652,57835
32.00463,58007
32.01277,55465
32.02088,59012
32.02900,55535
32.03713,52735
32.04525,52090
32.05337,47626
32.06150,46713
32.06962,47198
32.07775,49828
32.08587,44505
32.09398,44697
32.10212,44332
32.11023,44344
32.11837,44766
32.12648,40262
32.13460,40473
32.14273,41329
32.15085,41014
32.15897,42312
32.16710,43034
32.17522,39023
32.18335,41670
32.19147,40047
32.19958,39814
32.20772,42552
32.21583,42185
32.22397,39536
32.23208,41683
32.24020,39933
32.24833,41796
32.25645,45564
32.26458,43220
32.27270,43050
32.28082,43074
32.28895,41530
32.29707,42004
32.30518,40674
32.31332,44096
32.32143,42186
32.32957,43282
32.33768,43547
32.34580,44082
32.35393,43962
32.36205,40512
32.37018,41329
32.37830,45376
32.38642,42899
32.39455,39355
32.40267,39596
32.41080,40651
32.41892,38221
32.42703,38545
32.43517,36691
32.44328,39247
32.45140,37986
32.45953,34303
32.46765,36649
32.47578,39343
32.48390,39223
32.49202,39000
32.50015,37979
32.50827,38714
32.51640,39993
32.52452,38279
32.53263,39034
32.54077,39721
32.54888,39302
32.55700,43309
32.56513,43107
32.57325,45787
32.58138,46777
32.58950,54752
32.59762,59427
32.60575,60269
32.61387,61568
32.62200,54947
32.63012,46040
32.63823,43832
32.64637,41948
32.65448,38566
32.66262,42807
32.67073,38155
32.67885,42657
32.68698,39386
32.69510,44482
32.70322,41396
32.71135,44014
32.71947,39988
32.72760,39872
32.73572,42247
32.74383,40586
32.75197,37640
32.76008,38061
32.76822,36898
32.77633,37742
32.78445,37789
32.79258,39505
32.80070,38970
32.80883,38417
32.81695,39618
32.82507,37567
32.83320,39648
32.84132,44714
32.84943,37774
32.85757,39474
32.86568,44381
32.87382,47905
32.88193,44516
32.89005,52035
32.89818,53219
32.90630,50979
32.91443,53298
32.92255,49432
32.93067,45446
32.93880,49070
32.94692,40438
32.95503,44109
32.96317,43382
32.97128,44837
32.97942,49542
32.98753,50513
32.99565,52133
33.00378,54168
33.01190,50262
33.02003,54753
33.02815,47794
33.03627,45111
33.04440,43148
33.05252,42450
33.06065,46029
33.06877,47453
33.07688,46698
33.08502,53855
33.09313,47746
33.10125,52049
33.10938,52232
33.11750,59480
33.12563,60944
33.13375,54600
33.14187,51222
33.15000,49893
33.15812,46113
33.16625,44181
33.17437,44104
33.18248,42816
33.19062,43451
33.19873,41457
33.20685,45035
33.21498,41008
33.22310,44624
33.23123,40605
33.23935,42183
33.24747,40425
33.25560,41069
33.26372,41572
33.27185,42760
33.27997,43030
33.28808,43020
33.29622,41509
33.30433,41852
33.31247,44373
33.32058,39791
33.32870,39359
33.33683,45180
33.34495,41649
33.35307,41358
33.36120,45424
33.36932,38689
33.37745,39319
33.38557,38598
33.39368,36927
33.40182,40435
33.40993,41256
33.41807,44412
33.42618,38465
33.43430,40386
33.44243,40484
33.45055,45573
33.45868,41354
33.46680,41511
33.47492,40762
33.48305,37781
33.49117,40733
33.49928,44009
33.50742,43472
33.51553,39440
33.52367,42653
33.53178,41993
33.53990,44867
33.54803,44769
33.55615,41291
33.56428,42647
33.57240,42154
33.58052,44169
33.58865,40988
33.59677,41299
33.60488,44457
33.61302,41472
33.62113,43817
33.62927,39838
33.63738,46855
33.64550,46019
33.65363,49822
33.66175,45522
33.66988,48704
33.67800,42463
33.68612,46526
33.69425,43684
33.70237,46965
33.71050,44900
33.71862,48035
33.72673,49791
33.73487,44944
33.74298,47382
33.75110,49589
33.75923,50727
33.76735,53852
33.77548,53471
33.78360,59175
33.79172,47907
33.79985,52625
33.80797,54724
33.81610,45954
33.82422,51772
33.83233,51980
33.84047,51905
33.84858,48880
33.85672,48064
33.86483,50486
33.87295,53713
33.88108,55280
33.88920,55521
33.89732,54851
33.90545,52525
33.91357,52021
33.92170,51856
33.92982,52345
33.93793,50206
33.94607,50270
33.95418,48334
33.96232,48193
33.97043,49255
33.97855,48706
33.98668,43881
33.99480,49233
34.00292,46528
34.01105,47332
34.01917,47170
34.02730,46246
34.03542,46800
34.04353,44640
34.05167,47290
34.05978,47359
34.06792,46093
34.07603,47908
34.08415,45607
34.09228,45980
34.10040,42506
34.10853,47976
34.11665,43274
34.12477,46307
34.13290,45155
34.14102,46082
34.14913,47768
34.15727,47556
34.16538,45959
34.17352,42498
34.18163,44131
34.18975,45580
34.19788,44426
34.20600,46341
34.21413,42847
34.22225,42178
34.23037,46030
34.23850,39990
34.24662,41599
34.25473,46194
34.26287,45907
34.27098,41890
34.27912,47360
34.28723,45622
34.29535,42259
34.30348,42196
34.31160,45232
34.31973,46541
34.32785,46359
34.33597,41520
34.34410,47109
34.35222,45142
34.36035,41731
34.36847,46179
34.37658,44349
34.38472,44386
34.39283,43958
34.40095,47582
34.40908,44821
34.41720,52162
34.42533,43939
34.43345,50002
34.44157,48654
34.44970,54804
34.45782,65328
34.46595,75085
34.47407,86900
34.48218,90798
34.49032,91582
34.49843,97397
34.50657,91923
34.51468,92560
34.52280,83043
34.53093,76590
34.53905,76712
34.54717,77150
34.55530,77142
34.56342,70847
34.57155,69832
34.57967,66461
34.58778,69583
34.59592,66569
34.60403,67610
34.61217,67599
34.62028,63425
34.62840,59949
34.63653,66558
34.64465,62807
34.65278,64416
34.66090,63379
34.66902,57090
34.67715,59479
34.68527,58777
34.69338,57570
34.70152,58797
34.70963,57437
34.71777,59242
34.72588,57086
34.73400,55864
34.74213,56972
34.75025,53108
34.75838,54943
34.76650,53565
34.77462,52882
34.78275,53424
34.79087,54466
34.79898,57192
34.80712,50714
34.81523,50915
34.82337,49476
34.83148,48835
34.83960,46245
34.84773,52673
34.85585,51694
34.86398,47695
34.87210,51067
34.88022,49857
34.88835,52821
34.89647,51615
34.90460,51647
34.91272,47730
34.92083,51184
34.92897,46992
34.93708,52598
34.94520,55998
34.95333,52945
34.96145,50645
34.96958,51995
34.97770,51320
34.98582,52692
34.99395,54058
35.00207,45470
35.01020,52517
35.01832,45024
35.02643,46210
35.03457,52603
35.04268,49629
35.05080,47172
35.05893,46085
35.06705,52739
35.07518,50287
35.08330,51089
35.09142,50512
35.09955,49356
35.10767,49042
35.11580,46998
35.12392,46716
35.13203,46661
35.14017,47529
35.14828,52439
35.15642,50356
35.16453,52292
35.17265,50851
35.18078,51587
35.18890,45213
35.19702,45178
35.20515,49954
35.21327,48931
35.22140,47727
35.22952,50037
35.23763,46879
35.24577,48277
35.25388,48550
35.26202,53567
35.27013,50747
35.27825,50489
35.28638,46596
35.29450,51237
35.30263,47638
35.31075,51937
35.31887,46971
35.32700,48117
35.33512,51761
35.34323,49414
35.35137,48463
35.35948,54229
35.36762,48965
35.37573,54247
35.38385,52724
35.39198,61760
35.40010,62463
35.40823,65695
35.41635,73225
35.42447,75377
35.43260,67577
35.44072,70348
35.44883,64891
35.45697,59372
35.46508,59497
35.47322,58064
35.48133,58525
35.48945,58649
35.49758,52051
35.50570,53116
35.51383,51916
35.52195,53464
35.53007,51443
35.53820,50602
35.54632,54590
35.55445,52478
35.56257,52440
35.57068,53883
35.57882,55334
35.58693,60325
35.59505,53933
35.60318,55824
35.61130,55827
35.61943,57923
35.62755,55164
35.63567,52208
35.64380,52301
35.65192,50837
35.66005,51194
35.66817,55215
35.67628,54632
35.68442,52970
35.69253,54506
35.70067,56976
35.70878,55177
35.71690,54704
35.72503,57573
35.73315,49326
35.74127,55035
35.74940,51741
35.75752,56612
35.76565,54776
35.77377,53570
35.78188,55377
35.79002,53045
35.79813,53204
35.80627,58170
35.81438,56475
35.82250,53685
35.83063,51269
35.83875,50585
35.84687,54245
35.85500,53368
35.86312,57261
35.87125,55463
35.87937,59871
35.88748,53415
35.89562,58204
35.90373,54958
35.91187,53255
35.91998,53402
35.92810,55778
35.93623,55925
35.94435,57950
35.95248,58832
35.96060,54085
35.96872,55512
35.97685,58333
35.98497,57864
35.99308,59488
36.00122,59077
36.00933,63491
36.01747,69084
36.02558,63241
36.03370,62832
36.04183,65175
36.04995,66788
36.05808,62309
36.06620,62213
36.07432,63599
36.08245,61439
36.09057,59822
36.09868,63944
36.10682,63862
36.11493,65037
36.12307,65345
36.13118,67124
36.13930,66257
36.14743,61576
36.15555,62940
36.16368,69017
36.17180,65731
36.17992,64307
36.18805,62267
36.19617,64423
36.20430,63853
36.21242,73056
36.22053,70641
36.22867,78481
36.23678,81847
36.24490,85604
36.25303,94278
36.26115,86727
36.26928,81435
36.27740,75444
36.28552,70177
36.29365,73050
36.30177,72451
36.30990,68510
36.31802,65521
36.32613,64415
36.33427,66154
36.34238,65183
36.35052,64909
36.35863,64532
36.36675,63053
36.37488,70655
36.38300,69025
36.39112,69502
36.39925,71152
36.40737,73616
36.41550,69343
36.42362,69396
36.43173,71843
36.43987,69431
36.44798,69510
36.45612,68253
36.46423,69614
36.47235,68210
36.48048,73046
36.48860,72913
36.49672,69184
36.50485,70299
36.51297,71738
36.52110,70386
36.52922,68893
36.53733,69468
36.54547,71770
36.55358,69855
36.56172,71075
36.56983,74220
36.57795,74226
36.58608,72493
36.59420,75957
36.60233,76029
36.61045,76583
36.61857,73699
36.62670,73845
36.63482,73634
36.64293,73176
36.65107,72004
36.65918,72859
36.66732,74416
36.67543,73239
36.68355,73115
36.69168,74219
36.69980,75804
36.70793,76178
36.71605,74127
36.72417,71705
36.73230,74238
36.74042,73803
36.74855,71161
36.75667,74568
36.76478,82908
36.77292,75054
36.78103,72418
36.78915,74742
36.79728,77084
36.80540,74159
36.81353,73620
36.82165,71492
36.82977,69963
36.83790,72307
36.84602,71186
36.85415,69072
36.86227,68875
36.87038,75773
36.87852,74016
36.88663,74203
36.89475,74322
36.90288,75056
36.91100,70417
36.91913,74097
36.92725,76889
36.93537,81088
36.94350,81241
36.95162,85747
36.95975,78517
36.96787,81817
36.97598,81115
36.98412,88799
36.99223,87759
37.00037,90898
37.00848,88091
37.01660,101295
37.02473,104711
37.03285,103955
37.04097,102080
37.04910,97247
37.05722,90795
37.06535,89224
37.07347,85089
37.08158,81823
37.08972,83339
37.09783,82487
37.10597,84895
37.11408,79027
37.12220,77284
37.13033,84379
37.13845,81181
37.14658,83127
37.15470,82388
37.16282,78528
37.17095,80397
37.17907,87511
37.18718,75923
37.19532,80618
37.20343,81995
37.21157,88110
37.21968,80554
37.22780,80448
37.23593,79933
37.24405,89110
37.25218,93763
37.26030,98021
37.26842,102674
37.27655,113720
37.28467,119772
37.29278,118930
37.30092,118751
37.30903,113949
37.31717,118628
37.32528,102153
37.33340,99378
37.34153,98647
37.34965,91670
37.35778,96343
37.36590,95236
37.37402,89985
37.38215,85139
37.39027,87614
37.39840,87639
37.40652,89320
37.41463,87575
37.42277,89465
37.43088,88123
37.43900,85556
37.44713,87242
37.45525,88068
37.46338,88443
37.47150,89346
37.47962,88006
37.48775,93291
