C:\MassHunter\GCMS\1\data\JTB-E02\BACandBLUE\JTB-E18-008-08.D Wed May 15 12:32:12 2019
Start of data points
2.09532	114010
2.10343	114610
2.11157	108989
2.11968	111068
2.12780	112859
2.13593	108798
2.14405	109103
2.15217	110945
2.16030	107325
2.16842	108051
2.17655	105328
2.18467	103813
2.19278	102276
2.20092	97967
2.20903	97745
2.21717	92353
2.22528	97573
2.23340	96527
2.24153	99053
2.24965	99187
2.25777	98409
2.26590	97421
2.27402	249643
2.28215	1487702
2.29027	2247825
2.29838	1081868
2.30652	593958
2.31463	456566
2.32277	390940
2.33088	350173
2.33900	325161
2.34713	303787
2.35525	278472
2.36338	266222
2.37150	257676
2.37962	237742
2.38775	226550
2.39587	230564
2.40398	210945
2.41212	217431
2.42023	208599
2.42837	217433
2.43648	211419
2.44460	211623
2.45273	207147
2.46085	198774
2.46898	198086
2.47710	186065
2.48522	184986
2.49335	198005
2.50147	223083
2.50960	208084
2.51772	196730
2.52583	187110
2.53397	187822
2.54208	183292
2.55020	173497
2.55833	195408
2.56645	275105
2.57458	330139
2.58270	264608
2.59082	228118
2.59895	210774
2.60707	227644
2.61520	467902
2.62332	700578
2.63143	485203
2.63957	327436
2.64768	277487
2.65580	237160
2.66393	218789
2.67205	211595
2.68018	196591
2.68830	192852
2.69642	190576
2.70455	184640
2.71267	177547
2.72080	175723
2.72892	175910
2.73703	167917
2.74517	173800
2.75328	164821
2.76142	166493
2.76953	159857
2.77765	201245
2.78578	789675
2.79390	2411408
2.80202	2497096
2.81015	1343205
2.81827	862533
2.82640	738357
2.83452	614579
2.84263	500276
2.85077	442163
2.85888	379467
2.86702	352196
2.87513	323257
2.88325	298019
2.89138	277910
2.89950	272396
2.90762	250504
2.91575	245806
2.92387	231769
2.93200	228078
2.94012	215035
2.94823	209495
2.95637	204624
2.96448	207203
2.97262	221797
2.98073	213724
2.98885	201165
2.99698	203761
3.00510	206685
3.01323	207130
3.02135	201257
3.02947	193810
3.03760	192419
3.04572	180302
3.05383	175460
3.06197	178774
3.07008	178249
3.07822	183599
3.08633	288870
3.09445	989296
3.10258	2108164
3.11070	2859419
3.11883	3428588
3.12695	2669155
3.13507	1619528
3.14320	1149929
3.15132	923542
3.15945	747356
3.16757	649892
3.17568	626755
3.18382	670869
3.19193	997945
3.20005	1943813
3.20818	2251124
3.21630	1589757
3.22443	1106616
3.23255	906800
3.24067	785097
3.24880	677009
3.25692	590468
3.26505	527312
3.27317	482606
3.28128	448285
3.28942	451241
3.29753	730271
3.30565	1856494
3.31378	3987654
3.32190	5396700
3.33003	4967732
3.33815	3819119
3.34627	2966453
3.35440	2434117
3.36252	2068086
3.37065	1806213
3.37877	1633551
3.38688	1481339
3.39502	1389916
3.40313	1315626
3.41127	1212990
3.41938	1140342
3.42750	1090879
3.43563	1063608
3.44375	1047989
3.45187	1009272
3.46000	958583
3.46812	916930
3.47625	913567
3.48437	888763
3.49248	873058
3.50062	854588
3.50873	811321
3.51687	811718
3.52498	776826
3.53310	788028
3.54123	793498
3.54935	804458
3.55748	767635
3.56560	756456
3.57372	834890
3.58185	994820
3.58997	1056852
3.59808	910527
3.60622	815179
3.61433	766834
3.62247	750522
3.63058	736030
3.63870	722862
3.64683	704586
3.65495	703327
3.66308	850085
3.67120	2749495
3.67932	1.040765E+07
3.68745	2.018457E+07
3.69557	2.063251E+07
3.70368	1.326037E+07
3.71182	8094149
3.71993	6022873
3.72807	4948129
3.73618	4207910
3.74430	3716731
3.75243	3311169
3.76055	3004844
3.76868	2767353
3.77680	2534741
3.78492	2362808
3.79305	2199326
3.80117	2088615
3.80930	2160814
3.81742	2632805
3.82553	3111321
3.83367	2903507
3.84178	2354148
3.84990	2001795
3.85803	1828903
3.86615	1683944
3.87428	1600698
3.88240	1512893
3.89052	1459103
3.89865	1371981
3.90677	1309458
3.91490	1289811
3.92302	1351468
3.93113	1512322
3.93927	1634433
3.94738	1586868
3.95550	1735999
3.96363	2779334
3.97175	4424190
3.97988	4862809
3.98800	3687253
3.99612	2639670
4.00425	3417272
4.01237	7737486
4.02050	1.369897E+07
4.02862	1.50649E+07
4.03673	1.062722E+07
4.04487	5977327
4.05298	3723919
4.06112	2693896
4.06923	2177239
4.07735	1854281
4.08548	1648819
4.09360	1514456
4.10172	1386257
4.10985	1297505
4.11797	1212846
4.12610	1147730
4.13422	1095824
4.14233	1041292
4.15047	1040275
4.15858	1017685
4.16672	987923
4.17483	969938
4.18295	951664
4.19108	926769
4.19920	897858
4.20733	902644
4.21545	1409202
4.22357	3954296
4.23170	9958231
4.23982	1.614753E+07
4.24793	1.771628E+07
4.25607	1.358222E+07
4.26418	7977555
4.27232	5128111
4.28043	3775198
4.28855	2999399
4.29668	2469325
4.30480	2117382
4.31293	1843666
4.32105	1653207
4.32917	1527909
4.33730	1450381
4.34542	1375877
4.35353	1313179
4.36167	1326562
4.36978	1435440
4.37792	1455648
4.38603	1349899
4.39415	1208054
4.40228	1092159
4.41040	1003070
4.41853	963435
4.42665	910055
4.43477	859816
4.44290	847195
4.45102	830176
4.45915	821450
4.46727	788572
4.47538	773734
4.48352	765187
4.49163	740307
4.49975	727215
4.50788	710644
4.51600	711498
4.52413	698104
4.53225	705212
4.54037	680961
4.54850	689069
4.55662	695322
4.56475	680690
4.57287	658619
4.58098	635507
4.58912	601623
4.59723	611219
4.60537	610066
4.61348	603580
4.62160	618054
4.62973	724305
4.63785	965137
4.64597	1304456
4.65410	1469365
4.66222	1279373
4.67035	1015551
4.67847	847175
4.68658	804728
4.69472	754182
4.70283	711910
4.71097	654780
4.71908	602171
4.72720	586101
4.73533	562954
4.74345	556742
4.75157	532311
4.75970	538092
4.76782	514508
4.77595	505322
4.78407	512458
4.79218	534338
4.80032	559596
4.80843	655850
4.81657	701938
4.82468	659465
4.83280	612729
4.84093	585494
4.84905	619740
4.85718	633675
4.86530	631821
4.87342	604598
4.88155	567416
4.88967	526997
4.89778	511060
4.90592	501801
4.91403	481162
4.92217	477544
4.93028	481319
4.93840	520670
4.94653	707508
4.95465	1186378
4.96278	1982214
4.97090	2716092
4.97902	2918351
4.98715	2694999
4.99527	2256872
5.00340	1878606
5.01152	1625119
5.01963	1470711
5.02777	1383219
5.03588	1389965
5.04400	1493007
5.05213	1502909
5.06025	1434432
5.06838	1305852
5.07650	1196689
5.08462	1115604
5.09275	1065094
5.10087	1026527
5.10900	1000561
5.11712	963949
5.12523	949795
5.13337	907288
5.14148	905435
5.14960	881011
5.15773	939540
5.16585	1032730
5.17398	1137511
5.18210	1141966
5.19022	1063465
5.19835	1007701
5.20647	1021332
5.21460	1078114
5.22272	1108544
5.23083	1036803
5.23897	969412
5.24708	896733
5.25522	843458
5.26333	797649
5.27145	749881
5.27958	721854
5.28770	702951
5.29582	686327
5.30395	677961
5.31207	684737
5.32020	659019
5.32832	662826
5.33643	684214
5.34457	677389
5.35268	670198
5.36082	665759
5.36893	666587
5.37705	629810
5.38518	644230
5.39330	664420
5.40142	697792
5.40955	723886
5.41767	723793
5.42580	683994
5.43392	643176
5.44203	623541
5.45017	642467
5.45828	669503
5.46642	702151
5.47453	677989
5.48265	648209
5.49078	604874
5.49890	563617
5.50703	565964
5.51515	544501
5.52327	548939
5.53140	547914
5.53952	543320
5.54763	553060
5.55577	599955
5.56388	754221
5.57202	1036837
5.58013	1305887
5.58825	1390391
5.59638	1198458
5.60450	946831
5.61263	751765
5.62075	665804
5.62887	619784
5.63700	597154
5.64512	576870
5.65325	559735
5.66137	551719
5.66948	554711
5.67762	522869
5.68573	542208
5.69385	557655
5.70198	574943
5.71010	559378
5.71823	564480
5.72635	552111
5.73447	527616
5.74260	518312
5.75072	495280
5.75885	481510
5.76697	473157
5.77508	476171
5.78322	474616
5.79133	465626
5.79945	464055
5.80758	451306
5.81570	453119
5.82383	459765
5.83195	448755
5.84007	451900
5.84820	448618
5.85632	446912
5.86445	438428
5.87257	435519
5.88068	435158
5.88882	440924
5.89693	440052
5.90507	423764
5.91318	390148
5.92130	377312
5.92943	379301
5.93755	364364
5.94567	349958
5.95380	359675
5.96192	382436
5.97005	442096
5.97817	579749
5.98628	762892
5.99442	891465
6.00253	867746
6.01067	732331
6.01878	573606
6.02690	468568
6.03503	417018
6.04315	379620
6.05128	363422
6.05940	349539
6.06752	344547
6.07565	338431
6.08377	337846
6.09188	332054
6.10002	329292
6.10813	321633
6.11627	316857
6.12438	336068
6.13250	409392
6.14063	562820
6.14875	773531
6.15688	878558
6.16500	781308
6.17312	627139
6.18125	498237
6.18937	430319
6.19748	393767
6.20562	383088
6.21373	357470
6.22187	347104
6.22998	353153
6.23810	354022
6.24623	355753
6.25435	372278
6.26248	416111
6.27060	459904
6.27872	424844
6.28685	399081
6.29497	353502
6.30310	341922
6.31122	332869
6.31933	332282
6.32747	326601
6.33558	346491
6.34370	364301
6.35183	376185
6.35995	355043
6.36808	336560
6.37620	317679
6.38432	321747
6.39245	313116
6.40057	317531
6.40870	310877
6.41682	299277
6.42493	293750
6.43307	283886
6.44118	299013
6.44930	287293
6.45743	296008
6.46555	293786
6.47368	293595
6.48180	286014
6.48992	283754
6.49805	278184
6.50617	290637
6.51430	287651
6.52242	287933
6.53053	284607
6.53867	283862
6.54678	277250
6.55492	289257
6.56303	337758
6.57115	467647
6.57928	734977
6.58740	991917
6.59552	1044651
6.60365	851144
6.61177	607222
6.61990	441071
6.62802	377113
6.63613	358066
6.64427	331534
6.65238	363534
6.66052	560041
6.66863	923628
6.67675	1286048
6.68488	1297508
6.69300	1003271
6.70113	661328
6.70925	460462
6.71737	376325
6.72550	355650
6.73362	333753
6.74173	314816
6.74987	326542
6.75798	323183
6.76612	309035
6.77423	300948
6.78235	306504
6.79048	303618
6.79860	294559
6.80673	274307
6.81485	268583
6.82297	251795
6.83110	265765
6.83922	258670
6.84733	279011
6.85547	323230
6.86358	356282
6.87172	392252
6.87983	355151
6.88795	314223
6.89608	243106
6.90420	196562
6.91233	167849
6.92045	158687
6.92857	157983
6.93670	143272
6.94482	145098
6.95295	148465
6.96107	156064
6.96918	159150
6.97732	180143
6.98543	208450
6.99355	200112
7.00168	191707
7.00980	165078
7.01793	162296
7.02605	157639
7.03417	155495
7.04230	171663
7.05042	203231
7.05855	262486
7.06667	316574
7.07478	337528
7.08292	319640
7.09103	279121
7.09917	225263
7.10728	186810
7.11540	171412
7.12353	160094
7.13165	157260
7.13977	156579
7.14790	177051
7.15602	221013
7.16415	278271
7.17227	317050
7.18038	314211
7.18852	254862
7.19663	211332
7.20477	196156
7.21288	275349
7.22100	552022
7.22913	1222566
7.23725	2063078
7.24537	2489380
7.25350	2191305
7.26162	1485454
7.26975	888027
7.27787	600798
7.28598	437513
7.29412	335286
7.30223	242846
7.31037	191135
7.31848	177486
7.32660	184911
7.33473	191814
7.34285	188789
7.35098	182353
7.35910	171052
7.36722	168210
7.37535	154982
7.38347	160826
7.39158	159937
7.39972	148626
7.40783	151262
7.41597	146781
7.42408	143953
7.43220	140236
7.44033	134828
7.44845	137677
7.45658	139753
7.46470	150558
7.47282	143429
7.48095	146571
7.48907	138211
7.49718	142044
7.50532	141382
7.51343	194074
7.52157	330694
7.52968	683902
7.53780	1421516
7.54593	2536265
7.55405	3864570
7.56218	4829582
7.57030	5075246
7.57842	4459773
7.58655	3318735
7.59467	2187778
7.60280	1380552
7.61092	856199
7.61903	589476
7.62717	438576
7.63528	355446
7.64340	297593
7.65153	259940
7.65965	228348
7.66778	207029
7.67590	182196
7.68402	180564
7.69215	162025
7.70027	165021
7.70840	163339
7.71652	170823
7.72463	174587
7.73277	157511
7.74088	153534
7.74902	148878
7.75713	147012
7.76525	160330
7.77338	186035
7.78150	195947
7.78962	214700
7.79775	217520
7.80587	236600
7.81400	248223
7.82212	247665
7.83023	228654
7.83837	210316
7.84648	204644
7.85462	195402
7.86273	218028
7.87085	243290
7.87898	277053
7.88710	318976
7.89523	352668
7.90335	316637
7.91147	283305
7.91960	228000
7.92772	209611
7.93583	207806
7.94397	217451
7.95208	238421
7.96022	237872
7.96833	221311
7.97645	193141
7.98458	177784
7.99270	154815
8.00083	143539
8.00895	138193
8.01707	137496
8.02520	141921
8.03332	141437
8.04143	146157
8.04957	140347
8.05768	141400
8.06582	144057
8.07393	140181
8.08205	140474
8.09018	128566
8.09830	129880
8.10643	130060
8.11455	129836
8.12267	126234
8.13080	136879
8.13892	153597
8.14705	171713
8.15517	195140
8.16328	194573
8.17142	183982
8.17953	162323
8.18765	139997
8.19578	136528
8.20390	139238
8.21203	133021
8.22015	127038
8.22827	123076
8.23640	121617
8.24452	122952
8.25265	117681
8.26077	118739
8.26888	116520
8.27702	118350
8.28513	115949
8.29325	120927
8.30138	124765
8.30950	134392
8.31763	148167
8.32575	163542
8.33387	164255
8.34200	153207
8.35012	137940
8.35825	130121
8.36637	115874
8.37448	117796
8.38262	122689
8.39073	119770
8.39887	116762
8.40698	112261
8.41510	110372
8.42323	111433
8.43135	105629
8.43947	104580
8.44760	108019
8.45572	108382
8.46385	108407
8.47197	107565
8.48008	103495
8.48822	112028
8.49633	108806
8.50447	105485
8.51258	108272
8.52070	112644
8.52883	130229
8.53695	180674
8.54508	267011
8.55320	337889
8.56132	381618
8.56945	342913
8.57757	263562
8.58568	198530
8.59382	162174
8.60193	143414
8.61007	147470
8.61818	147393
8.62630	141125
8.63443	133073
8.64255	125815
8.65068	124422
8.65880	119173
8.66692	115020
8.67505	113774
8.68317	111876
8.69128	120240
8.69942	119801
8.70753	126574
8.71567	123498
8.72378	114965
8.73190	112633
8.74003	108556
8.74815	113870
8.75628	133195
8.76440	208458
8.77252	376921
8.78065	634191
8.78877	928089
8.79690	1109443
8.80502	1057785
8.81313	893323
8.82127	679987
8.82938	534351
8.83750	457824
8.84563	439851
8.85375	463540
8.86188	480716
8.87000	474776
8.87812	466079
8.88625	460510
8.89437	434340
8.90250	421834
8.91062	403483
8.91873	407061
8.92687	392719
8.93498	398923
8.94312	410030
8.95123	420141
8.95935	415496
8.96748	420638
8.97560	416913
8.98372	416136
8.99185	414960
8.99997	412957
9.00810	380768
9.01622	352541
9.02433	334912
9.03247	329079
9.04058	302961
9.04872	289517
9.05683	286160
9.06495	276430
9.07308	288109
9.08120	285476
9.08932	284574
9.09745	298874
9.10557	332360
9.11370	389175
9.12182	425839
9.12993	434457
9.13807	402176
9.14618	346021
9.15432	303596
9.16243	272162
9.17055	258854
9.17868	242943
9.18680	235100
9.19493	223230
9.20305	225043
9.21117	225670
9.21930	228779
9.22742	229308
9.23553	230715
9.24367	223310
9.25178	229656
9.25992	217297
9.26803	215148
9.27615	207181
9.28428	202509
9.29240	202655
9.30053	200291
9.30865	198399
9.31677	193326
9.32490	185286
9.33302	191210
9.34113	185527
9.34927	184567
9.35738	189966
9.36552	184935
9.37363	186741
9.38175	183098
9.38988	196993
9.39800	199083
9.40613	214271
9.41425	247760
9.42237	287956
9.43050	364316
9.43862	417130
9.44675	439767
9.45487	427123
9.46298	374626
9.47112	292026
9.47923	244484
9.48735	209191
9.49548	194059
9.50360	195449
9.51173	205835
9.51985	238416
9.52797	251943
9.53610	280439
9.54422	269022
9.55235	239379
9.56047	204712
9.56858	170420
9.57672	152918
9.58483	152641
9.59297	156096
9.60108	149305
9.60920	141191
9.61733	127432
9.62545	111779
9.63357	101094
9.64170	101007
9.64982	100063
9.65795	103890
9.66607	101459
9.67418	106040
9.68232	100174
9.69043	97378
9.69857	94217
9.70668	89392
9.71480	90009
9.72293	92413
9.73105	86745
9.73917	87214
9.74730	86304
9.75542	86117
9.76355	86339
9.77167	83435
9.77978	85388
9.78792	77743
9.79603	80087
9.80417	79780
9.81228	80740
9.82040	76725
9.82853	76651
9.83665	82887
9.84478	77615
9.85290	78723
9.86102	78685
9.86915	83678
9.87727	86308
9.88538	87939
9.89352	82840
9.90163	83857
9.90977	80027
9.91788	90864
9.92600	108121
9.93413	149152
9.94225	221391
9.95038	319658
9.95850	406219
9.96662	457190
9.97475	408214
9.98287	322996
9.99100	230103
9.99912	170515
10.00723	155811
10.01537	129115
10.02348	131051
10.03160	117163
10.03973	108611
10.04785	110301
10.05598	97837
10.06410	103522
10.07222	110443
10.08035	114588
10.08847	114037
10.09660	112751
10.10472	118486
10.11283	107778
10.12097	110984
10.12908	107392
10.13720	102227
10.14533	98725
10.15345	101350
10.16158	96318
10.16970	94639
10.17782	93169
10.18595	90429
10.19407	86630
10.20220	90774
10.21032	89059
10.21843	87657
10.22657	94946
10.23468	99984
10.24282	101635
10.25093	105641
10.25905	140456
10.26718	217957
10.27530	452804
10.28342	993443
10.29155	1929788
10.29967	3103966
10.30780	4380388
10.31592	5949639
10.32403	8300266
10.33217	1.156286E+07
10.34028	1.445931E+07
10.34842	1.484623E+07
10.35653	1.294531E+07
10.36465	9793201
10.37278	7427567
10.38090	5799751
10.38903	4489990
10.39715	3131464
10.40527	2036955
10.41340	1298066
10.42152	863903
10.42963	677247
10.43777	594745
10.44588	618249
10.45402	651201
10.46213	643022
10.47025	632639
10.47838	567437
10.48650	517491
10.49463	468584
10.50275	434928
10.51087	394678
10.51900	364104
10.52712	342538
10.53523	326185
10.54337	313474
10.55148	302029
10.55962	289277
10.56773	273641
10.57585	267897
10.58398	262501
10.59210	252191
10.60023	240433
10.60835	244871
10.61647	223669
10.62460	217444
10.63272	212172
10.64085	206451
10.64897	196506
10.65708	193102
10.66522	184078
10.67333	184467
10.68145	193216
10.68958	187291
10.69770	205937
10.70583	210591
10.71395	203202
10.72207	196787
10.73020	186747
10.73832	179895
10.74645	168558
10.75457	165101
10.76268	162416
10.77082	160937
10.77893	161928
10.78705	156435
10.79518	169797
10.80330	168873
10.81143	186941
10.81955	184138
10.82767	195872
10.83580	179745
10.84392	164837
10.85205	145481
10.86017	136697
10.86828	131770
10.87642	123597
10.88453	122813
10.89267	123857
10.90078	115318
10.90890	120421
10.91703	120973
10.92515	118584
10.93327	114684
10.94140	118355
10.94952	114430
10.95765	116540
10.96577	115965
10.97388	123712
10.98202	120799
10.99013	130493
10.99827	142502
11.00638	153012
11.01450	156801
11.02263	152142
11.03075	141292
11.03888	130266
11.04700	122311
11.05512	113358
11.06325	116350
11.07137	126797
11.07948	131808
11.08762	145153
11.09573	160147
11.10387	158748
11.11198	157666
11.12010	143210
11.12823	128400
11.13635	122491
11.14448	108046
11.15260	98903
11.16072	110987
11.16885	101253
11.17697	111097
11.18508	109122
11.19322	114075
11.20133	106023
11.20947	101753
11.21758	97860
11.22570	94461
11.23383	84477
11.24195	83589
11.25008	84232
11.25820	86021
11.26632	84949
11.27445	78284
11.28257	84353
11.29070	93042
11.29882	135316
11.30693	268884
11.31507	601006
11.32318	1255815
11.33130	2270822
11.33943	3292954
11.34755	3944879
11.35568	3933620
11.36380	3229210
11.37192	2303448
11.38005	1502596
11.38817	955609
11.39630	676611
11.40442	561735
11.41253	527580
11.42067	492056
11.42878	445865
11.43692	411492
11.44503	356062
11.45315	316416
11.46128	295014
11.46940	263386
11.47752	260341
11.48565	258878
11.49377	293807
11.50190	315995
11.51002	312608
11.51813	298963
11.52627	271844
11.53438	241798
11.54252	214136
11.55063	189936
11.55875	185392
11.56688	195116
11.57500	182487
11.58312	185199
11.59125	186190
11.59937	184386
11.60750	212926
11.61562	241550
11.62373	257800
11.63187	267102
11.63998	235053
11.64812	206882
11.65623	170785
11.66435	152856
11.67248	138296
11.68060	138165
11.68873	143094
11.69685	149016
11.70497	153073
11.71310	155806
11.72122	146405
11.72933	139581
11.73747	128302
11.74558	122502
11.75372	116796
11.76183	115943
11.76995	112714
11.77808	108985
11.78620	108459
11.79433	109096
11.80245	101906
11.81057	100808
11.81870	102786
11.82682	100302
11.83493	99258
11.84307	104033
11.85118	94225
11.85932	90803
11.86743	94962
11.87555	93527
11.88368	88958
11.89180	89333
11.89993	84798
11.90805	84045
11.91617	90771
11.92430	94601
11.93242	98195
11.94055	105059
11.94867	98623
11.95678	95065
11.96492	85785
11.97303	86209
11.98115	87376
11.98928	94198
11.99740	116003
12.00553	140612
12.01365	169332
12.02177	184077
12.02990	185315
12.03802	171159
12.04615	152500
12.05427	137070
12.06238	137593
12.07052	124045
12.07863	140152
12.08677	146752
12.09488	174466
12.10300	244266
12.11113	384362
12.11925	639391
12.12737	953569
12.13550	1263124
12.14362	1349022
12.15175	1237550
12.15987	974499
12.16798	628683
12.17612	388284
12.18423	258975
12.19237	236076
12.20048	214369
12.20860	220429
12.21673	219491
12.22485	215463
12.23298	207052
12.24110	188193
12.24922	186053
12.25735	184655
12.26547	176377
12.27358	174588
12.28172	164260
12.28983	155126
12.29797	146880
12.30608	146747
12.31420	137787
12.32233	131266
12.33045	132312
12.33858	126141
12.34670	125918
12.35482	127429
12.36295	121982
12.37107	125059
12.37918	114666
12.38732	122504
12.39543	127805
12.40357	134364
12.41168	155581
12.41980	178759
12.42793	199291
12.43605	208802
12.44418	200565
12.45230	193395
12.46042	179042
12.46855	163614
12.47667	151400
12.48480	149693
12.49292	144799
12.50103	140618
12.50917	136192
12.51728	136326
12.52540	125480
12.53353	123982
12.54165	131336
12.54978	141902
12.55790	152086
12.56602	153844
12.57415	159754
12.58227	155351
12.59040	146735
12.59852	135955
12.60663	128514
12.61477	128324
12.62288	119440
12.63100	120850
12.63913	112995
12.64725	115517
12.65538	111614
12.66350	100188
12.67162	100578
12.67975	92873
12.68787	91823
12.69600	89645
12.70412	91765
12.71223	91627
12.72037	93636
12.72848	101723
12.73662	100955
12.74473	105446
12.75285	105133
12.76098	94095
12.76910	91995
12.77722	93052
12.78535	90047
12.79347	87353
12.80160	85406
12.80972	79805
12.81783	80731
12.82597	77706
12.83408	74226
12.84222	69659
12.85033	73515
12.85845	69777
12.86658	76418
12.87470	69523
12.88283	70105
12.89095	72331
12.89907	66166
12.90720	71659
12.91532	70564
12.92343	67941
12.93157	63169
12.93968	67987
12.94782	67385
12.95593	73028
12.96405	79683
12.97218	93133
12.98030	113835
12.98843	123945
12.99655	123928
13.00467	115649
13.01280	103285
13.02092	87774
13.02903	78116
13.03717	77521
13.04528	73007
13.05342	71621
13.06153	73116
13.06965	73134
13.07778	68177
13.08590	75608
13.09403	71640
13.10215	72694
13.11027	70230
13.11840	65213
13.12652	71095
13.13465	64836
13.14277	69810
13.15088	69705
13.15902	68818
13.16713	76033
13.17525	70198
13.18338	72588
13.19150	75943
13.19963	80766
13.20775	79781
13.21587	88501
13.22400	89802
13.23212	84985
13.24025	87226
13.24837	85452
13.25648	81241
13.26462	78066
13.27273	70493
13.28087	71162
13.28898	70108
13.29710	71381
13.30523	68014
13.31335	66856
13.32147	60888
13.32960	66306
13.33772	65268
13.34585	66788
13.35397	63996
13.36208	67207
13.37022	67023
13.37833	69755
13.38647	63142
13.39458	64717
13.40270	60944
13.41083	66419
13.41895	64082
13.42707	68055
13.43520	63366
13.44332	64328
13.45145	65774
13.45957	63567
13.46768	72838
13.47582	75043
13.48393	72937
13.49207	70191
13.50018	70027
13.50830	59441
13.51643	69952
13.52455	65339
13.53268	66613
13.54080	65193
13.54892	69460
13.55705	63275
13.56517	71411
13.57328	70783
13.58142	80970
13.58953	83091
13.59767	90109
13.60578	85495
13.61390	92677
13.62203	89655
13.63015	86011
13.63828	83521
13.64640	79830
13.65452	69080
13.66265	68151
13.67077	65292
13.67888	60228
13.68702	58978
13.69513	63387
13.70327	58675
13.71138	57228
13.71950	58904
13.72763	57158
13.73575	68464
13.74388	77478
13.75200	107457
13.76012	163679
13.76825	262363
13.77637	376965
13.78450	485337
13.79262	526876
13.80073	536804
13.80887	521778
13.81698	551785
13.82510	625427
13.83323	709007
13.84135	770524
13.84948	742770
13.85760	659770
13.86572	527961
13.87385	414980
13.88197	338477
13.89010	280218
13.89822	241088
13.90633	210986
13.91447	197253
13.92258	175364
13.93072	174349
13.93883	170435
13.94695	161298
13.95508	157885
13.96320	155933
13.97132	161068
13.97945	159383
13.98757	173004
13.99570	171005
14.00382	172565
14.01193	173313
14.02007	169239
14.02818	161367
14.03632	154480
14.04443	159293
14.05255	157584
14.06068	155732
14.06880	159354
14.07692	156884
14.08505	152343
14.09317	157574
14.10130	154972
14.10942	148113
14.11753	143349
14.12567	140739
14.13378	140358
14.14192	150006
14.15003	163983
14.15815	169696
14.16628	177494
14.17440	189134
14.18253	202526
14.19065	235923
14.19877	318589
14.20690	416643
14.21502	544415
14.22313	612224
14.23127	637643
14.23938	637767
14.24752	601454
14.25563	565663
14.26375	505902
14.27188	457404
14.28000	422968
14.28813	363272
14.29625	335119
14.30437	300428
14.31250	270592
14.32062	262577
14.32875	249068
14.33687	236371
14.34498	223872
14.35312	205543
14.36123	184697
14.36935	162596
14.37748	139053
14.38560	124453
14.39373	111697
14.40185	109678
14.40997	114404
14.41810	122443
14.42622	119232
14.43435	116324
14.44247	113963
14.45058	117292
14.45872	116738
14.46683	113934
14.47495	116141
14.48308	122216
14.49120	123793
14.49933	116678
14.50745	111640
14.51557	115003
14.52370	107911
14.53182	108199
14.53995	107076
14.54807	102755
14.55618	99980
14.56432	96811
14.57243	90174
14.58057	89570
14.58868	87371
14.59680	82599
14.60493	80827
14.61305	84234
14.62117	76761
14.62930	73536
14.63742	76841
14.64555	72947
14.65367	77077
14.66178	68186
14.66992	73232
14.67803	76521
14.68617	72725
14.69428	73328
14.70240	71361
14.71053	77197
14.71865	76053
14.72677	75240
14.73490	78718
14.74302	75595
14.75115	86851
14.75927	89485
14.76738	83407
14.77552	83505
14.78363	95455
14.79177	144868
14.79988	305125
14.80800	782824
14.81613	1867832
14.82425	3499511
14.83238	5231637
14.84050	6411376
14.84862	6253748
14.85675	5000633
14.86487	3309994
14.87298	1983612
14.88112	1204301
14.88923	809134
14.89737	600383
14.90548	492243
14.91360	436151
14.92173	385058
14.92985	364021
14.93798	336799
14.94610	310570
14.95422	280628
14.96235	260415
14.97047	249646
14.97860	233104
14.98672	220053
14.99483	210574
15.00297	198875
15.01108	203747
15.01920	196924
15.02733	193830
15.03545	185433
15.04358	180161
15.05170	179180
15.05982	168480
15.06795	162222
15.07607	154114
15.08420	146222
15.09232	149491
15.10043	146180
15.10857	144381
15.11668	137791
15.12480	136697
15.13293	144004
15.14105	149175
15.14918	161812
15.15730	160637
15.16542	146635
15.17355	123676
15.18167	112804
15.18980	102927
15.19792	95752
15.20603	91170
15.21417	93928
15.22228	84699
15.23042	85913
15.23853	85636
15.24665	87090
15.25478	81221
15.26290	79769
15.27102	80601
15.27915	80326
15.28727	77381
15.29540	71705
15.30352	72420
15.31163	68515
15.31977	70404
15.32788	70084
15.33602	67591
15.34413	69714
15.35225	69508
15.36038	73300
15.36850	71405
15.37663	68702
15.38475	68246
15.39287	70206
15.40100	67678
15.40912	65143
15.41723	59649
15.42537	68448
15.43348	68186
15.44162	66291
15.44973	69891
15.45785	81527
15.46598	103133
15.47410	153211
15.48223	230665
15.49035	351497
15.49847	480265
15.50660	562648
15.51472	585146
15.52283	541411
15.53097	450601
15.53908	369476
15.54722	304329
15.55533	251839
15.56345	215518
15.57158	177789
15.57970	151488
15.58783	133786
15.59595	117303
15.60407	112294
15.61220	105820
15.62032	94211
15.62845	91059
15.63657	93759
15.64468	90792
15.65282	87857
15.66093	82762
15.66905	82042
15.67718	81377
15.68530	78146
15.69343	80787
15.70155	75589
15.70967	71871
15.71780	69609
15.72592	70516
15.73405	69141
15.74217	72348
15.75028	80140
15.75842	95123
15.76653	134326
15.77467	202293
15.78278	300111
15.79090	395390
15.79903	430575
15.80715	408623
15.81527	323381
15.82340	241175
15.83152	171856
15.83965	144762
15.84777	126358
15.85588	116195
15.86402	110860
15.87213	104868
15.88027	100481
15.88838	102693
15.89650	96633
15.90463	95619
15.91275	93600
15.92087	95979
15.92900	89419
15.93712	92212
15.94525	84719
15.95337	88936
15.96148	90315
15.96962	97528
15.97773	101944
15.98587	98049
15.99398	103355
16.00210	102422
16.01023	111732
16.01835	117134
16.02648	120578
16.03460	132612
16.04272	135139
16.05085	124611
16.05897	117570
16.06708	114787
16.07522	111934
16.08333	111160
16.09147	107334
16.09958	102226
16.10770	100905
16.11583	102255
16.12395	105347
16.13208	109435
16.14020	106465
16.14832	111517
16.15645	122610
16.16457	115146
16.17268	106830
16.18082	104260
16.18893	94067
16.19707	91578
16.20518	92026
16.21330	91127
16.22143	88429
16.22955	92394
16.23768	89156
16.24580	84107
16.25392	80702
16.26205	82250
16.27017	85841
16.27830	88651
16.28642	98419
16.29453	100122
16.30267	114172
16.31078	115273
16.31890	106833
16.32703	107585
16.33515	102147
16.34328	94562
16.35140	95504
16.35952	101413
16.36765	111866
16.37577	119804
16.38390	126141
16.39202	129464
16.40013	118622
16.40827	104274
16.41638	98682
16.42452	88843
16.43263	88729
16.44075	100228
16.44888	128711
16.45700	229023
16.46512	410919
16.47325	745892
16.48137	1114830
16.48950	1307910
16.49762	1270932
16.50573	1036111
16.51387	715215
16.52198	440330
16.53012	299149
16.53823	209065
16.54635	180697
16.55448	157709
16.56260	142666
16.57072	133126
16.57885	125810
16.58697	118626
16.59510	128088
16.60322	125816
16.61133	125147
16.61947	120269
16.62758	120570
16.63572	112528
16.64383	107471
16.65195	106363
16.66008	102643
16.66820	100456
16.67633	96385
16.68445	90485
16.69257	91876
16.70070	86469
16.70882	87259
16.71693	86671
16.72507	83240
16.73318	80633
16.74132	81522
16.74943	77980
16.75755	84487
16.76568	91761
16.77380	89692
16.78193	94588
16.79005	81425
16.79817	80730
16.80630	76598
16.81442	74227
16.82255	71715
16.83067	66086
16.83878	68949
16.84692	67357
16.85503	68340
16.86315	63913
16.87128	65873
16.87940	69892
16.88753	68624
16.89565	65146
16.90377	63284
16.91190	72003
16.92002	65706
16.92815	73909
16.93627	71153
16.94438	66606
16.95252	68271
16.96063	66635
16.96875	66428
16.97688	66405
16.98500	68588
16.99313	66367
17.00125	71633
17.00937	71410
17.01750	71167
17.02562	71653
17.03375	67857
17.04187	69854
17.04998	73131
17.05812	79188
17.06623	76183
17.07437	79786
17.08248	75921
17.09060	72043
17.09873	73255
17.10685	79517
17.11497	76022
17.12310	82203
17.13122	76888
17.13935	81976
17.14747	82993
17.15558	79273
17.16372	78607
17.17183	80161
17.17997	77752
17.18808	80120
17.19620	70609
17.20433	69628
17.21245	65387
17.22057	64606
17.22870	66850
17.23682	69187
17.24495	67449
17.25307	61663
17.26118	64217
17.26932	61641
17.27743	66267
17.28557	62970
17.29368	62432
17.30180	63159
17.30993	63853
17.31805	64102
17.32618	76173
17.33430	88481
17.34242	98421
17.35055	111039
17.35867	114425
17.36678	122150
17.37492	121286
17.38303	125111
17.39117	124548
17.39928	129887
17.40740	125818
17.41553	123998
17.42365	128174
17.43178	128271
17.43990	122119
17.44802	117311
17.45615	110386
17.46427	108992
17.47240	98237
17.48052	92539
17.48863	90352
17.49677	86616
17.50488	82557
17.51300	83594
17.52113	81581
17.52925	79638
17.53738	82257
17.54550	82700
17.55362	86844
17.56175	96340
17.56987	120810
17.57800	168470
17.58612	244689
17.59423	382510
17.60237	533659
17.61048	672658
17.61862	698561
17.62673	635522
17.63485	508460
17.64298	359159
17.65110	268724
17.65922	220991
17.66735	191211
17.67547	175666
17.68360	165829
17.69172	161304
17.69983	154718
17.70797	151191
17.71608	147313
17.72422	154915
17.73233	146442
17.74045	142947
17.74858	139922
17.75670	136696
17.76482	123224
17.77295	122715
17.78107	115085
17.78920	106681
17.79732	110735
17.80543	115714
17.81357	125715
17.82168	147856
17.82982	165737
17.83793	176398
17.84605	182061
17.85418	181391
17.86230	181069
17.87043	172820
17.87855	166046
17.88667	150683
17.89480	128905
17.90292	120736
17.91103	96004
17.91917	93408
17.92728	84168
17.93542	82695
17.94353	81565
17.95165	84594
17.95978	82793
17.96790	80449
17.97603	74693
17.98415	76163
17.99227	74253
18.00040	76448
18.00852	81878
18.01663	88683
18.02477	103127
18.03288	128589
18.04102	151712
18.04913	166634
18.05725	196527
18.06538	294961
18.07350	519533
18.08163	929047
18.08975	1393319
18.09787	1772090
18.10600	1913148
18.11412	1735051
18.12225	1296284
18.13037	939573
18.13848	682102
18.14662	527112
18.15473	442159
18.16285	383359
18.17098	338270
18.17910	313800
18.18723	292839
18.19535	257446
18.20347	231998
18.21160	215076
18.21972	197671
18.22785	190724
18.23597	186809
18.24408	164980
18.25222	159914
18.26033	160338
18.26847	152898
18.27658	137042
18.28470	129887
18.29283	115220
18.30095	102325
18.30907	90645
18.31720	83416
18.32532	90074
18.33345	76165
18.34157	75576
18.34968	73124
18.35782	71615
18.36593	74009
18.37407	72589
18.38218	72039
18.39030	74888
18.39843	72799
18.40655	78987
18.41467	91263
18.42280	106242
18.43092	128026
18.43905	148293
18.44717	173058
18.45528	197310
18.46342	209896
18.47153	227924
18.47967	248720
18.48778	265693
18.49590	252481
18.50403	235142
18.51215	200129
18.52028	162393
18.52840	127537
18.53652	116808
18.54465	98538
18.55277	94855
18.56088	87210
18.56902	84638
18.57713	86026
18.58527	89836
18.59338	94885
18.60150	98207
18.60963	106089
18.61775	115743
18.62588	114986
18.63400	122311
18.64212	118774
18.65025	117329
18.65837	108567
18.66650	98327
18.67462	88994
18.68273	85936
18.69087	82187
18.69898	77966
18.70710	78484
18.71523	77198
18.72335	72467
18.73148	75166
18.73960	71518
18.74772	69255
18.75585	65903
18.76397	69944
18.77210	65656
18.78022	69487
18.78833	66660
18.79647	63298
18.80458	67640
18.81270	68672
18.82083	66973
18.82895	65793
18.83708	70351
18.84520	65498
18.85332	68177
18.86145	73522
18.86957	80063
18.87770	86114
18.88582	93734
18.89393	93236
18.90207	91534
18.91018	85934
18.91832	79305
18.92643	84509
18.93455	80414
18.94268	91565
18.95080	99861
18.95892	116575
18.96705	133955
18.97517	147004
18.98330	151873
18.99142	156688
18.99953	159321
19.00767	156121
19.01578	154140
19.02392	156019
19.03203	162604
19.04015	160482
19.04828	155037
19.05640	163837
19.06452	172190
19.07265	197193
19.08077	270888
19.08890	371448
19.09702	529719
19.10513	665228
19.11327	767743
19.12138	726499
19.12952	639534
19.13763	522205
19.14575	401092
19.15388	323285
19.16200	271355
19.17013	248551
19.17825	235624
19.18637	218881
19.19450	207215
19.20262	198111
19.21073	193985
19.21887	189165
19.22698	186126
19.23512	172464
19.24323	176766
19.25135	165473
19.25948	165981
19.26760	164458
19.27573	167515
19.28385	176526
19.29197	178406
19.30010	192942
19.30822	201905
19.31635	197999
19.32447	199852
19.33258	198634
19.34072	201301
19.34883	194941
19.35695	209898
19.36508	223274
19.37320	244890
19.38133	259008
19.38945	260603
19.39757	252319
19.40570	214996
19.41382	193305
19.42195	191054
19.43007	176899
19.43818	169657
19.44632	157587
19.45443	163468
19.46255	167504
19.47068	168268
19.47880	182902
19.48693	220310
19.49505	275844
19.50317	383013
19.51130	521649
19.51942	636957
19.52755	687624
19.53567	640838
19.54378	509158
19.55192	384884
19.56003	284642
19.56817	226721
19.57628	200903
19.58440	187733
19.59253	168858
19.60065	168421
19.60877	157829
19.61690	149777
19.62502	154690
19.63315	169402
19.64127	213968
19.64938	294724
19.65752	429786
19.66563	624517
19.67377	778688
19.68188	911553
19.69000	927159
19.69813	881208
19.70625	753869
19.71438	621051
19.72250	527697
19.73062	446194
19.73875	386818
19.74687	344933
19.75498	291924
19.76312	268084
19.77123	251286
19.77937	254367
19.78748	267892
19.79560	277813
19.80373	297632
19.81185	297149
19.81998	274953
19.82810	256542
19.83622	222360
19.84435	205080
19.85247	208288
19.86058	260061
19.86872	433837
19.87683	819467
19.88497	1485052
19.89308	2356050
19.90120	3138645
19.90933	3474094
19.91745	3282927
19.92558	2633267
19.93370	1953980
19.94182	1345100
19.94995	958877
19.95807	754645
19.96620	663670
19.97432	584256
19.98243	524836
19.99057	490959
19.99868	459094
20.00680	422432
20.01493	408790
20.02305	384084
20.03118	374917
20.03930	366231
20.04742	334037
20.05555	320850
20.06367	317866
20.07180	347839
20.07992	370967
20.08803	402913
20.09617	400505
20.10428	376704
20.11240	344510
20.12053	284495
20.12865	261473
20.13678	232975
20.14490	255354
20.15302	343708
20.16115	523613
20.16927	804975
20.17740	1226921
20.18552	1650371
20.19363	2035683
20.20177	2167609
20.20988	2083109
20.21802	1820743
20.22613	1528929
20.23425	1263772
20.24238	1079166
20.25050	1085921
20.25862	1216784
20.26675	1436681
20.27487	1697279
20.28300	1823385
20.29112	1873962
20.29923	1735877
20.30737	1514497
20.31548	1171080
20.32362	909710
20.33173	677943
20.33985	505823
20.34798	391679
20.35610	316264
20.36423	265956
20.37235	237740
20.38047	208593
20.38860	201535
20.39672	177241
20.40483	170271
20.41297	177626
20.42108	184490
20.42922	196665
20.43733	220839
20.44545	250019
20.45358	266179
20.46170	267642
20.46983	254716
20.47795	253388
20.48607	212800
20.49420	189974
20.50232	166251
20.51043	152822
20.51857	137008
20.52668	132417
20.53482	134522
20.54293	126788
20.55105	120336
20.55918	122387
20.56730	116545
20.57543	117029
20.58355	110859
20.59167	112480
20.59980	112102
20.60792	104918
20.61605	101812
20.62417	107558
20.63228	106727
20.64042	115313
20.64853	113542
20.65665	115887
20.66478	123572
20.67290	112685
20.68103	112917
20.68915	106251
20.69727	97093
20.70540	97805
20.71352	91137
20.72165	92904
20.72977	94036
20.73788	88540
20.74602	92667
20.75413	98140
20.76227	101938
20.77038	103801
20.77850	125185
20.78663	155092
20.79475	221581
20.80287	330437
20.81100	478097
20.81912	622063
20.82725	676990
20.83537	626529
20.84348	507112
20.85162	361718
20.85973	250290
20.86787	188175
20.87598	150683
20.88410	130552
20.89223	123325
20.90035	124699
20.90847	127758
20.91660	142058
20.92472	154903
20.93285	161587
20.94097	171779
20.94908	174130
20.95722	157213
20.96533	150383
20.97347	134612
20.98158	126956
20.98970	112999
20.99783	106681
21.00595	107189
21.01408	103258
21.02220	99192
21.03032	102627
21.03845	104085
21.04657	109014
21.05468	104705
21.06282	103785
21.07093	101183
21.07907	97797
21.08718	96759
21.09530	96199
21.10343	94940
21.11155	91310
21.11968	101730
21.12780	99346
21.13592	111309
21.14405	138825
21.15217	190583
21.16030	230756
21.16842	267799
21.17653	268468
21.18467	243281
21.19278	204537
21.20090	169624
21.20903	141604
21.21715	127315
21.22528	118903
21.23340	107755
21.24152	104528
21.24965	106962
21.25777	109121
21.26590	110450
21.27402	111630
21.28213	108189
21.29027	109429
21.29838	107394
21.30650	99278
21.31463	98019
21.32275	94185
21.33088	96527
21.33900	93693
21.34712	90080
21.35525	93981
21.36337	95781
21.37150	93406
21.37962	95593
21.38773	104393
21.39587	137511
21.40398	162686
21.41212	190623
21.42023	217257
21.42835	211218
21.43648	187776
21.44460	165344
21.45272	142247
21.46085	125051
21.46897	119074
21.47710	113494
21.48522	102960
21.49333	93118
21.50147	100258
21.50958	97728
21.51772	92770
21.52583	88562
21.53395	90272
21.54208	92599
21.55020	94154
21.55832	87504
21.56645	91377
21.57457	98124
21.58270	96722
21.59082	105031
21.59893	109686
21.60707	115968
21.61518	117701
21.62332	130004
21.63143	156586
21.63955	171407
21.64768	195738
21.65580	219790
21.66393	215833
21.67205	204333
21.68017	186890
21.68830	174263
21.69642	157163
21.70453	139600
21.71267	122763
21.72078	113679
21.72892	106356
21.73703	105995
21.74515	101851
21.75328	97812
21.76140	96186
21.76953	104224
21.77765	106885
21.78577	101678
21.79390	106945
21.80202	108618
21.81015	115957
21.81827	125803
21.82638	142430
21.83452	172097
21.84263	199608
21.85075	195870
21.85888	197948
21.86700	191065
21.87513	161896
21.88325	133789
21.89137	117609
21.89950	109073
21.90762	106854
21.91575	99281
21.92387	93947
21.93198	99596
21.94012	89318
21.94823	88506
21.95635	89765
21.96448	80197
21.97260	83073
21.98073	73825
21.98885	77659
21.99697	76503
22.00510	74188
22.01322	76548
22.02135	76964
22.02947	74656
22.03758	83836
22.04572	79381
22.05383	80438
22.06197	82576
22.07008	81165
22.07820	75689
22.08633	74590
22.09445	82200
22.10257	82536
22.11070	81475
22.11882	75885
22.12695	76282
22.13507	74190
22.14318	83242
22.15132	75485
22.15943	82795
22.16757	81393
22.17568	74835
22.18380	77863
22.19193	71839
22.20005	74754
22.20818	80968
22.21630	86441
22.22442	93754
22.23255	99233
22.24067	103131
22.24878	100558
22.25692	100062
22.26503	92035
22.27317	96414
22.28128	93092
22.28940	90171
22.29753	101662
22.30565	104458
22.31378	103038
22.32190	110828
22.33002	110252
22.33815	106508
22.34627	109766
22.35438	106825
22.36252	106391
22.37063	99126
22.37877	104847
22.38688	112085
22.39500	126730
22.40313	156460
22.41125	201835
22.41938	224568
22.42750	242828
22.43562	241416
22.44375	213082
22.45187	190820
22.46000	166955
22.46812	139276
22.47623	134094
22.48437	139881
22.49248	149080
22.50060	157379
22.50873	178407
22.51685	182260
22.52498	186775
22.53310	174051
22.54122	154936
22.54935	137420
22.55747	120904
22.56560	114517
22.57372	110292
22.58183	96713
22.58997	95629
22.59808	91873
22.60620	87343
22.61433	81129
22.62245	76345
22.63058	79127
22.63870	77875
22.64682	78557
22.65495	80416
22.66307	77868
22.67120	82135
22.67932	90275
22.68743	82949
22.69557	92377
22.70368	99509
22.71182	107009
22.71993	109287
22.72805	110729
22.73618	105392
22.74430	107879
22.75242	93534
22.76055	90219
22.76867	85170
22.77680	88698
22.78492	95842
22.79303	99240
22.80117	111291
22.80928	123936
22.81742	138943
22.82553	149104
22.83365	143407
22.84178	143305
22.84990	147587
22.85803	152030
22.86615	168109
22.87427	198291
22.88240	225437
22.89052	259768
22.89863	276684
22.90677	298394
22.91488	317829
22.92302	359986
22.93113	388782
22.93925	400424
22.94738	409794
22.95550	385868
22.96363	360411
22.97175	330649
22.97987	301012
22.98800	273907
22.99612	253760
23.00423	238500
23.01237	215246
23.02048	193475
23.02862	179355
23.03673	164645
23.04485	158351
23.05298	156219
23.06110	158132
23.06923	155563
23.07735	159864
23.08547	157186
23.09360	156290
23.10172	157783
23.10985	145122
23.11797	143107
23.12608	137178
23.13422	131774
23.14233	126176
23.15045	131471
23.15858	126304
23.16670	127110
23.17483	130318
23.18295	123573
23.19107	125144
23.19920	125842
23.20732	117443
23.21545	113622
23.22357	120165
23.23168	112375
23.23982	114088
23.24793	118496
23.25607	120886
23.26418	127916
23.27230	124226
23.28043	130454
23.28855	133114
23.29667	114360
23.30480	119953
23.31292	116267
23.32105	114949
23.32917	118167
23.33728	132601
23.34542	153900
23.35353	178113
23.36167	219822
23.36978	252886
23.37790	281700
23.38603	298384
23.39415	311471
23.40227	310999
23.41040	304962
23.41852	301738
23.42665	309841
23.43477	297278
23.44288	286406
23.45102	272065
23.45913	270190
23.46727	247801
23.47538	235658
23.48350	216067
23.49163	209406
23.49975	197717
23.50788	189271
23.51600	180341
23.52412	170347
23.53225	175216
23.54037	174730
23.54848	176450
23.55662	176476
23.56473	203670
23.57287	236768
23.58098	276543
23.58910	345415
23.59723	406974
23.60535	459727
23.61348	470124
23.62160	434151
23.62972	355675
23.63785	286751
23.64597	245795
23.65408	213403
23.66222	199257
23.67033	194552
23.67847	195248
23.68658	179181
23.69470	168413
23.70283	159270
23.71095	145604
23.71908	135606
23.72720	131410
23.73532	132715
23.74345	147050
23.75157	204645
23.75970	410046
23.76782	881336
23.77593	1770311
23.78407	3009966
23.79218	4122765
23.80030	4747176
23.80843	4538944
23.81655	3769438
23.82468	2930486
23.83280	2155767
23.84092	1613728
23.84905	1189704
23.85717	933347
23.86530	773403
23.87342	650699
23.88153	563534
23.88967	493187
23.89778	455523
23.90592	429608
23.91403	401964
23.92215	387280
23.93028	362602
23.93840	330028
23.94652	317951
23.95465	283871
23.96277	275089
23.97090	256768
23.97902	245839
23.98713	234523
23.99527	223314
24.00338	220183
24.01152	215151
24.01963	222648
24.02775	234532
24.03588	249155
24.04400	257366
24.05213	245488
24.06025	238110
24.06837	215715
24.07650	196299
24.08462	186320
24.09273	166179
24.10087	170842
24.10898	160506
24.11712	164475
24.12523	170229
24.13335	181730
24.14148	198833
24.14960	209313
24.15773	224234
24.16585	222034
24.17397	210543
24.18210	212549
24.19022	204935
24.19833	201575
24.20647	217492
24.21458	217042
24.22272	224098
24.23083	208925
24.23895	197460
24.24708	178424
24.25520	166354
24.26333	146809
24.27145	136635
24.27957	126925
24.28770	130486
24.29582	121712
24.30395	124016
24.31207	129086
24.32018	126764
24.32832	129634
24.33643	124091
24.34455	124232
24.35268	117192
24.36080	116858
24.36893	125668
24.37705	139929
24.38517	171576
24.39330	232726
24.40142	336325
24.40955	404778
24.41767	424805
24.42578	366275
24.43392	286701
24.44203	212175
24.45015	168998
24.45828	142886
24.46640	148816
24.47453	152005
24.48265	170376
24.49077	181530
24.49890	190199
24.50702	196824
24.51515	204944
24.52327	209895
24.53138	214416
24.53952	209324
24.54763	214997
24.55577	232744
24.56388	240757
24.57200	237687
24.58013	239321
24.58825	223762
24.59637	210132
24.60450	208871
24.61262	205859
24.62075	199369
24.62887	189652
24.63698	187078
24.64512	190537
24.65323	196363
24.66137	200910
24.66948	199433
24.67760	202148
24.68573	206779
24.69385	201382
24.70198	198008
24.71010	192986
24.71822	185319
24.72635	186561
24.73447	189211
24.74258	185722
24.75072	191913
24.75883	190569
24.76697	182033
24.77508	186833
24.78320	194664
24.79133	194108
24.79945	200970
24.80758	194865
24.81570	192198
24.82382	192694
24.83195	202301
24.84007	221837
24.84818	258654
24.85632	301745
24.86443	369484
24.87257	489094
24.88068	607802
24.88880	742478
24.89693	777672
24.90505	778921
24.91318	686088
24.92130	549954
24.92942	415185
24.93755	306633
24.94567	252070
24.95380	203980
24.96192	181415
24.97003	169525
24.97817	168425
24.98628	162409
24.99440	162459
25.00253	160886
25.01065	152865
25.01878	158305
25.02690	157564
25.03502	148812
25.04315	151524
25.05127	152784
25.05940	148001
25.06752	151710
25.07563	154474
25.08377	151365
25.09188	164519
25.10002	207659
25.10813	319759
25.11625	602552
25.12438	1154115
25.13250	2025084
25.14062	2978412
25.14875	3629212
25.15687	3933769
25.16500	3562059
25.17312	2690591
25.18123	1783726
25.18937	1096828
25.19748	680632
25.20562	455295
25.21373	324467
25.22185	259409
25.22998	233643
25.23810	221879
25.24622	238031
25.25435	273825
25.26247	294638
25.27060	324216
25.27872	339572
25.28683	323007
25.29497	305774
25.30308	279544
25.31122	256205
25.31933	246294
25.32745	238791
25.33558	218206
25.34370	211562
25.35183	193009
25.35995	173635
25.36807	160914
25.37620	153174
25.38432	140751
25.39243	134516
25.40057	132765
25.40868	124076
25.41682	123083
25.42493	122340
25.43305	121449
25.44118	120212
25.44930	119389
25.45743	119714
25.46555	126904
25.47367	126250
25.48180	131528
25.48992	136816
25.49803	132444
25.50617	130603
25.51428	123480
25.52242	116805
25.53053	107134
25.53865	104207
25.54678	101127
25.55490	97339
25.56303	97656
25.57115	95606
25.57927	97437
25.58740	97520
25.59552	94728
25.60365	88305
25.61177	90964
25.61988	91093
25.62802	88463
25.63613	89089
25.64425	84166
25.65238	84794
25.66050	89683
25.66863	95397
25.67675	97537
25.68487	101100
25.69300	96849
25.70112	101381
25.70925	97705
25.71737	94836
25.72548	92020
25.73362	88686
25.74173	87621
25.74987	81562
25.75798	82261
25.76610	83768
25.77423	79206
25.78235	86865
25.79047	89444
25.79860	88710
25.80672	90093
25.81485	94798
25.82297	88813
25.83108	88695
25.83922	94658
25.84733	110649
25.85547	117468
25.86358	131686
25.87170	145163
25.87983	149801
25.88795	151766
25.89607	151144
25.90420	149010
25.91232	152261
25.92045	153729
25.92857	156172
25.93668	156850
25.94482	155937
25.95293	152828
25.96107	152564
25.96918	156964
25.97730	151819
25.98543	152564
25.99355	161899
26.00168	151386
26.00980	147514
26.01792	153076
26.02605	143603
26.03417	143159
26.04228	143816
26.05042	152309
26.05853	156282
26.06667	152786
26.07478	154440
26.08290	151592
26.09103	160355
26.09915	161466
26.10728	159036
26.11540	161811
26.12352	170656
26.13165	184363
26.13977	194273
26.14790	204095
26.15602	212897
26.16413	205533
26.17227	200030
26.18038	192799
26.18850	176559
26.19663	170973
26.20475	156362
26.21288	151713
26.22100	143078
26.22912	136232
26.23725	143833
26.24537	135246
26.25350	129931
26.26162	137009
26.26973	135194
26.27787	134854
26.28598	132622
26.29410	133263
26.30223	123567
26.31035	118710
26.31848	116045
26.32660	116500
26.33472	119908
26.34285	122819
26.35097	146850
26.35910	173922
26.36722	250337
26.37533	358430
26.38347	531765
26.39158	681201
26.39972	820311
26.40783	865832
26.41595	786538
26.42408	661951
26.43220	497506
26.44032	367229
26.44845	260896
26.45657	197193
26.46470	167617
26.47282	146243
26.48093	129897
26.48907	125197
26.49718	117707
26.50532	117366
26.51343	109765
26.52155	112859
26.52968	107580
26.53780	105212
26.54593	104792
26.55405	103616
26.56217	104114
26.57030	97246
26.57842	102087
26.58653	102350
26.59467	94613
26.60278	97152
26.61092	89654
26.61903	93412
26.62715	94220
26.63528	95230
26.64340	92814
26.65153	90816
26.65965	94112
26.66777	93592
26.67590	97728
26.68402	100162
26.69213	88276
26.70027	92776
26.70838	84932
26.71652	88987
26.72463	90588
26.73275	85598
26.74088	88866
26.74900	92468
26.75713	88597
26.76525	91136
26.77337	89902
26.78150	86708
26.78962	93322
26.79775	90536
26.80587	92945
26.81398	100243
26.82212	92823
26.83023	90701
26.83835	94641
26.84648	94525
26.85460	94175
26.86273	100895
26.87085	105772
26.87897	102850
26.88710	99657
26.89522	96491
26.90335	94501
26.91147	86668
26.91958	85255
26.92772	86213
26.93583	80940
26.94395	80287
26.95208	82457
26.96020	97580
26.96833	120439
26.97645	173032
26.98457	305750
26.99270	546609
27.00082	958875
27.00895	1543633
27.01707	2337627
27.02518	3027136
27.03332	3212254
27.04143	3019733
27.04957	2580861
27.05768	1968596
27.06580	1498720
27.07393	1145656
27.08205	900848
27.09017	710461
27.09830	585797
27.10642	508725
27.11455	435258
27.12267	399030
27.13078	381649
27.13892	338111
27.14703	318300
27.15517	308822
27.16328	297700
27.17140	304032
27.17953	309105
27.18765	322365
27.19578	339943
27.20390	329247
27.21202	305267
27.22015	285765
27.22827	256708
27.23638	241270
27.24452	221885
27.25263	214419
27.26077	193981
27.26888	185483
27.27700	175746
27.28513	165570
27.29325	168532
27.30138	162655
27.30950	155312
27.31762	156147
27.32575	149026
27.33387	147635
27.34198	151451
27.35012	147734
27.35823	144843
27.36637	140018
27.37448	145363
27.38260	140269
27.39073	144435
27.39885	139819
27.40698	132582
27.41510	125422
27.42322	130228
27.43135	115439
27.43947	129078
27.44760	125368
27.45572	124217
27.46383	114423
27.47197	114350
27.48008	114015
27.48820	112912
27.49633	109816
27.50445	104261
27.51258	108936
27.52070	106325
27.52882	116432
27.53695	117316
27.54507	116555
27.55320	117385
27.56132	116051
27.56943	115778
27.57757	119561
27.58568	126208
27.59382	138812
27.60193	148448
27.61005	152740
27.61818	150559
27.62630	148633
27.63442	136743
27.64255	125842
27.65067	121875
27.65880	112515
27.66692	113909
27.67503	112719
27.68317	109802
27.69128	108294
27.69942	112723
27.70753	104808
27.71565	107085
27.72378	99282
27.73190	94441
27.74002	96516
27.74815	90873
27.75627	86435
27.76440	90843
27.77252	90353
27.78063	95570
27.78877	93047
27.79688	96889
27.80502	99043
27.81313	97414
27.82125	93396
27.82938	99132
27.83750	94608
27.84563	96522
27.85375	96614
27.86187	91756
27.87000	88635
27.87812	89223
27.88623	90450
27.89437	80602
27.90248	82687
27.91062	88508
27.91873	83918
27.92685	77800
27.93498	83015
27.94310	76563
27.95123	80359
27.95935	81386
27.96747	81366
27.97560	79870
27.98372	87747
27.99183	83393
27.99997	82666
28.00808	86735
28.01622	96760
28.02433	107182
28.03245	117675
28.04058	137969
28.04870	142407
28.05683	153014
28.06495	140518
28.07307	129105
28.08120	120304
28.08932	110127
28.09745	105586
28.10557	98125
28.11368	88785
28.12182	88081
28.12993	83666
28.13805	80692
28.14618	78282
28.15430	77584
28.16243	82598
28.17055	75604
28.17867	81587
28.18680	86903
28.19492	100013
28.20305	120441
28.21117	135178
28.21928	149323
28.22742	149399
28.23553	146120
28.24367	133255
28.25178	125033
28.25990	105636
28.26803	101175
28.27615	96952
28.28427	90253
28.29240	95679
28.30052	115889
28.30865	142564
28.31677	167661
28.32488	222061
28.33302	288609
28.34113	372652
28.34927	467467
28.35738	566240
28.36550	652497
28.37363	700081
28.38175	745390
28.38988	752382
28.39800	740773
28.40612	696229
28.41425	645418
28.42237	591561
28.43048	528149
28.43862	476230
28.44673	415076
28.45487	370641
28.46298	337497
28.47110	298912
28.47923	280751
28.48735	265912
28.49548	243491
28.50360	236247
28.51172	230782
28.51985	221925
28.52797	200117
28.53608	195361
28.54422	173747
28.55233	161586
28.56047	161612
28.56858	157966
28.57670	143629
28.58483	140016
28.59295	141137
28.60108	140417
28.60920	139610
28.61732	146917
28.62545	144762
28.63357	151715
28.64170	159864
28.64982	168009
28.65793	183841
28.66607	187417
28.67418	192279
28.68230	184863
28.69043	168846
28.69855	155499
28.70668	147892
28.71480	140125
28.72292	122168
28.73105	115005
28.73917	116200
28.74730	118257
28.75542	138251
28.76353	159113
28.77167	189175
28.77978	224452
28.78790	252059
28.79603	236483
28.80415	213246
28.81228	184209
28.82040	153921
28.82852	132520
28.83665	129826
28.84477	119411
28.85290	116559
28.86102	110869
28.86913	109997
28.87727	113260
28.88538	110183
28.89352	117225
28.90163	120497
28.90975	120057
28.91788	116274
28.92600	114794
28.93412	114494
28.94225	109532
28.95037	110071
28.95850	114607
28.96662	118090
28.97473	116003
28.98287	113664
28.99098	106716
28.99912	106512
29.00723	105085
29.01535	95918
29.02348	95142
29.03160	96403
29.03973	90652
29.04785	96540
29.05597	92370
29.06410	87388
29.07222	91812
29.08033	89539
29.08847	96046
29.09658	95327
29.10472	91263
29.11283	89492
29.12095	89830
29.12908	96765
29.13720	86175
29.14533	86062
29.15345	87383
29.16157	89716
29.16970	90241
29.17782	90257
29.18593	95896
29.19407	109217
29.20218	118395
29.21032	124089
29.21843	132144
29.22655	142529
29.23468	144687
29.24280	145306
29.25093	162014
29.25905	180252
29.26717	196880
29.27530	190359
29.28342	185625
29.29155	162177
29.29967	138851
29.30778	119278
29.31592	106309
29.32403	96016
29.33215	89726
29.34028	91670
29.34840	94090
29.35653	81937
29.36465	82583
29.37277	81468
29.38090	83736
29.38902	82258
29.39715	79116
29.40527	84365
29.41338	90376
29.42152	86542
29.42963	88100
29.43777	85426
29.44588	88166
29.45400	80404
29.46213	81064
29.47025	89011
29.47837	89625
29.48650	105378
29.49462	116657
29.50275	119831
29.51087	132324
29.51898	130639
29.52712	128832
29.53523	115517
29.54337	109866
29.55148	97343
29.55960	91904
29.56773	82533
29.57585	81862
29.58397	79846
29.59210	76220
29.60022	74424
29.60835	75740
29.61647	83359
29.62458	81934
29.63272	80785
29.64083	82797
29.64897	83967
29.65708	88303
29.66520	75568
29.67333	77414
29.68145	76948
29.68958	78339
29.69770	87281
29.70582	84804
29.71395	81745
29.72207	79516
29.73018	81682
29.73832	84360
29.74643	80446
29.75457	75407
29.76268	71041
29.77080	72157
29.77893	69990
29.78705	70072
29.79518	73950
29.80330	72640
29.81142	65405
29.81955	67889
29.82767	69489
29.83578	65606
29.84392	65214
29.85203	64683
29.86017	64660
29.86828	72054
29.87640	82292
29.88453	93532
29.89265	102443
29.90078	117075
29.90890	123130
29.91702	118554
29.92515	118489
29.93327	105931
29.94140	102531
29.94952	109437
29.95763	118844
29.96577	137830
29.97388	160103
29.98200	196336
29.99013	232972
29.99825	263839
30.00638	292354
30.01450	343583
30.02262	370076
30.03075	398142
30.03887	397624
30.04700	398505
30.05512	410379
30.06323	415795
30.07137	407348
30.07948	389078
30.08762	378348
30.09573	354768
30.10385	322256
30.11198	305530
30.12010	301090
30.12822	272231
30.13635	263728
30.14447	250459
30.15260	230620
30.16072	224741
30.16883	206564
30.17697	197376
30.18508	200905
30.19322	190595
30.20133	183658
30.20945	179134
30.21758	177341
30.22570	167971
30.23382	169124
30.24195	145145
30.25007	134996
30.25820	125708
30.26632	122101
30.27443	124992
30.28257	116111
30.29068	111525
30.29882	112489
30.30693	114345
30.31505	106554
30.32318	107518
30.33130	104738
30.33943	106143
30.34755	106277
30.35567	104104
30.36380	105328
30.37192	100108
30.38003	99328
30.38817	90019
30.39628	94276
30.40442	97462
30.41253	94074
30.42065	88005
30.42878	95147
30.43690	88702
30.44503	95920
30.45315	85984
30.46127	88086
30.46940	86343
30.47752	86875
30.48565	89740
30.49377	89822
30.50188	84533
30.51002	90033
30.51813	82244
30.52625	84386
30.53438	85010
30.54250	85839
30.55063	84420
30.55875	83302
30.56687	88377
30.57500	84496
30.58312	83556
30.59125	80553
30.59937	82440
30.60748	84410
30.61562	83054
30.62373	73947
30.63185	78431
30.63998	78483
30.64810	82480
30.65623	79303
30.66435	74518
30.67247	72689
30.68060	77045
30.68872	76019
30.69685	75881
30.70497	76595
30.71308	73195
30.72122	68781
30.72933	73193
30.73747	79976
30.74558	75354
30.75370	76601
30.76183	78004
30.76995	77594
30.77807	88914
30.78620	94429
30.79432	114804
30.80245	135838
30.81057	149799
30.81868	160883
30.82682	154369
30.83493	139895
30.84307	119837
30.85118	105076
30.85930	92244
30.86743	91397
30.87555	90099
30.88367	91045
30.89180	87625
30.89992	88010
30.90805	83244
30.91617	82951
30.92428	79547
30.93242	76872
30.94053	80591
30.94867	74225
30.95678	73939
30.96490	77904
30.97303	77918
30.98115	80558
30.98928	80937
30.99740	72790
31.00552	71257
31.01365	76558
31.02177	81344
31.02988	74550
31.03802	78593
31.04613	79225
31.05427	76408
31.06238	81324
31.07050	87462
31.07863	90704
31.08675	114254
31.09488	132341
31.10300	154691
31.11112	172981
31.11925	169272
31.12737	151615
31.13550	140011
31.14362	129517
31.15173	117062
31.15987	113970
31.16798	116100
31.17610	123703
31.18423	135745
31.19235	165428
31.20048	215999
31.20860	278621
31.21672	341894
31.22485	367223
31.23297	390675
31.24110	360042
31.24922	302334
31.25733	236920
31.26547	180431
31.27358	145118
31.28170	123914
31.28983	115627
31.29795	102041
31.30608	98760
31.31420	99153
31.32232	97976
31.33045	104084
31.33857	102995
31.34670	97204
31.35482	101548
31.36293	94241
31.37107	94535
31.37918	97231
31.38732	91460
31.39543	93251
31.40355	92897
31.41168	94149
31.41980	98798
31.42792	98693
31.43605	93917
31.44417	94865
31.45230	87522
31.46042	88536
31.46853	87017
31.47667	82330
31.48478	85838
31.49292	93846
31.50103	93173
31.50915	91668
31.51728	98846
31.52540	95062
31.53353	95604
31.54165	91866
31.54977	96701
31.55790	91019
31.56602	92790
31.57413	90140
31.58227	86850
31.59038	88226
31.59852	86467
31.60663	85723
31.61475	83724
31.62288	81910
31.63100	79831
31.63913	89577
31.64725	89426
31.65537	90232
31.66350	93857
31.67162	93385
31.67973	89385
31.68787	87343
31.69598	90648
31.70412	88671
31.71223	84816
31.72035	77167
31.72848	76511
31.73660	73259
31.74473	75686
31.75285	71705
31.76097	77198
31.76910	72830
31.77722	76887
31.78535	86044
31.79347	87984
31.80158	92022
31.80972	93362
31.81783	93995
31.82595	92643
31.83408	90684
31.84220	86628
31.85033	88587
31.85845	86690
31.86657	89031
31.87470	94229
31.88282	99373
31.89095	107724
31.89907	109917
31.90718	131761
31.91532	150738
31.92343	177695
31.93157	214971
31.93968	248606
31.94780	287167
31.95593	325784
31.96405	363306
31.97217	382505
31.98030	398141
31.98842	408741
31.99655	404384
32.00467	412579
32.01278	390414
32.02092	369351
32.02903	338731
32.03717	323854
32.04528	293575
32.05340	270737
32.06153	263249
32.06965	254249
32.07777	244603
32.08590	234002
32.09402	226066
32.10215	208020
32.11027	193677
32.11838	183959
32.12652	168337
32.13463	154958
32.14277	145873
32.15088	146125
32.15900	140422
32.16713	132340
32.17525	134682
32.18338	124689
32.19150	125544
32.19962	126329
32.20775	119839
32.21587	123076
32.22398	123681
32.23212	115826
32.24023	118195
32.24837	109594
32.25648	112749
32.26460	120517
32.27273	114802
32.28085	111786
32.28898	112908
32.29710	110398
32.30522	103181
32.31335	106028
32.32147	105010
32.32958	108995
32.33772	103545
32.34583	105481
32.35397	105744
32.36208	107423
32.37020	101359
32.37833	100262
32.38645	98190
32.39458	96021
32.40270	91209
32.41082	90202
32.41895	93016
32.42707	89255
32.43520	93037
32.44332	82321
32.45143	84198
32.45957	87403
32.46768	86817
32.47580	89856
32.48393	89533
32.49205	86877
32.50018	86077
32.50830	83723
32.51642	82118
32.52455	86965
32.53267	76864
32.54080	87345
32.54892	82396
32.55703	86145
32.56517	90152
32.57328	83151
32.58142	83740
32.58953	81241
32.59765	78831
32.60578	78237
32.61390	76795
32.62202	78297
32.63015	76997
32.63827	81847
32.64640	96439
32.65452	103501
32.66263	126735
32.67077	152913
32.67888	166851
32.68702	170360
32.69513	155890
32.70325	136107
32.71138	125610
32.71950	119289
32.72762	111804
32.73575	110040
32.74387	106447
32.75200	101857
32.76012	92861
32.76823	90952
32.77637	82447
32.78448	80464
32.79262	84041
32.80073	78218
32.80885	81489
32.81698	85133
32.82510	74073
32.83323	78619
32.84135	80155
32.84947	82194
32.85760	80513
32.86572	77905
32.87383	79695
32.88197	88114
32.89008	88943
32.89822	92553
32.90633	90967
32.91445	91895
32.92258	88358
32.93070	91639
32.93883	89164
32.94695	82642
32.95507	80106
32.96320	81437
32.97132	83848
32.97945	82508
32.98757	93869
32.99568	105844
33.00382	109805
33.01193	109877
33.02005	106555
33.02818	100694
33.03630	96863
33.04443	86234
33.05255	85487
33.06067	83582
33.06880	94106
33.07692	99362
33.08505	113343
33.09317	121216
33.10128	128137
33.10942	141516
33.11753	144915
33.12565	148771
33.13378	148097
33.14190	130614
33.15003	114635
33.15815	104920
33.16627	94536
33.17440	90299
33.18252	88065
33.19065	98749
33.19877	89442
33.20688	94386
33.21502	101719
33.22313	108480
33.23127	103143
33.23938	90881
33.24750	88946
33.25563	84132
33.26375	87260
33.27187	92554
33.28000	86490
33.28812	83029
33.29625	85444
33.30437	82380
33.31248	82565
33.32062	82983
33.32873	84270
33.33687	83606
33.34498	85268
33.35310	89537
33.36123	83109
33.36935	86275
33.37747	87596
33.38560	91045
33.39372	78180
33.40185	78005
33.40997	77297
33.41808	75492
33.42622	74863
33.43433	75492
33.44247	74449
33.45058	73402
33.45870	73248
33.46683	74452
33.47495	74285
33.48308	74919
33.49120	75686
33.49932	75993
33.50745	85175
33.51557	87460
33.52368	81183
33.53182	80392
33.53993	81862
33.54807	86192
33.55618	88654
33.56430	83500
33.57243	80597
33.58055	80558
33.58868	81218
33.59680	81935
33.60492	73631
33.61305	77052
33.62117	79077
33.62930	77682
33.63742	80839
33.64553	79193
33.65367	82209
33.66178	88456
33.66990	82854
33.67803	83164
33.68615	85163
33.69428	80078
33.70240	76958
33.71052	75305
33.71865	78527
33.72677	75917
33.73490	75283
33.74302	74757
33.75113	72235
33.75927	73331
33.76738	70472
33.77552	73312
33.78363	67409
33.79175	77143
33.79988	73474
33.80800	68820
33.81612	70453
33.82425	74160
33.83237	77898
33.84050	81186
33.84862	84413
33.85673	87536
33.86487	86805
33.87298	82791
33.88112	83567
33.88923	84388
33.89735	88198
33.90548	84870
33.91360	92583
33.92172	87154
33.92985	87775
33.93797	87620
33.94610	90558
33.95422	86029
33.96233	85097
33.97047	76811
33.97858	74309
33.98672	78188
33.99483	78025
34.00295	76458
34.01108	76631
34.01920	75798
34.02733	77054
34.03545	74727
34.04357	80941
34.05170	78174
34.05982	76632
34.06793	74282
34.07607	72849
34.08418	76479
34.09232	73726
34.10043	72653
34.10855	78787
34.11668	72934
34.12480	72029
34.13293	76668
34.14105	76133
34.14917	76708
34.15730	71741
34.16542	74616
34.17353	79338
34.18167	77760
34.18978	78546
34.19792	83958
34.20603	79633
34.21415	78824
34.22228	83728
34.23040	77481
34.23853	79015
34.24665	78379
34.25477	81283
34.26290	82710
34.27102	75928
34.27915	75202
34.28727	73810
34.29538	72142
34.30352	80770
34.31163	79179
34.31975	76302
34.32788	75398
34.33600	77222
34.34413	75349
34.35225	83839
34.36037	80672
34.36850	83247
34.37662	74781
34.38475	75564
34.39287	78905
34.40098	77086
34.40912	75011
34.41723	76742
34.42537	72237
34.43348	73373
34.44160	71302
34.44973	78335
34.45785	71852
34.46597	79047
34.47410	75555
34.48222	75159
34.49035	81763
34.49847	87321
34.50658	101418
34.51472	128037
34.52283	172333
34.53097	229146
34.53908	293402
34.54720	364212
34.55533	399696
34.56345	433615
34.57157	425971
34.57970	411172
34.58782	376802
34.59595	338046
34.60407	303224
34.61218	275647
34.62032	252571
34.62843	219824
34.63657	201121
34.64468	186859
34.65280	179854
34.66093	169698
34.66905	159903
34.67718	146820
34.68530	152307
34.69342	145700
34.70155	141342
34.70967	132465
34.71778	133871
34.72592	136069
34.73403	125457
34.74217	134567
34.75028	120659
34.75840	121023
34.76653	116685
34.77465	115473
34.78278	118687
34.79090	115056
34.79902	118966
34.80715	109888
34.81527	112792
34.82340	105533
34.83152	108387
34.83963	106291
34.84777	105504
34.85588	105677
34.86400	103258
34.87213	100945
34.88025	100138
34.88838	102876
34.89650	103386
34.90462	102967
34.91275	100824
34.92087	102376
34.92900	105336
34.93712	106449
34.94523	110574
34.95337	107535
34.96148	110584
34.96960	109093
34.97773	120056
34.98585	112498
34.99398	112736
35.00210	112160
35.01022	106590
35.01835	107992
35.02647	103587
35.03460	107251
35.04272	106334
35.05083	110873
35.05897	106043
35.06708	101894
35.07522	107168
35.08333	100741
35.09145	97160
35.09958	101168
35.10770	93090
35.11582	92761
35.12395	91402
35.13207	92478
35.14020	98949
35.14832	100193
35.15643	102800
35.16457	108263
35.17268	106321
35.18082	106601
35.18893	105682
35.19705	95048
35.20518	94321
35.21330	84950
35.22142	87444
35.22955	90503
35.23767	88988
35.24580	87365
35.25392	92321
35.26203	94050
35.27017	93627
35.27828	103838
35.28642	99995
35.29453	90787
35.30265	97711
35.31078	93936
35.31890	88147
35.32703	87385
35.33515	88225
35.34327	85809
35.35140	82711
35.35952	90957
35.36763	90038
35.37577	91567
35.38388	88908
35.39202	98284
35.40013	99197
35.40825	110933
35.41638	117276
35.42450	116383
35.43263	120631
35.44075	126891
35.44887	123460
35.45700	126712
35.46512	120895
35.47325	119595
35.48137	118614
35.48948	112624
35.49762	104879
35.50573	102509
35.51385	99332
35.52198	95064
35.53010	91735
35.53823	93264
35.54635	89555
35.55447	94091
35.56260	96327
35.57072	87464
35.57885	88306
35.58697	98435
35.59508	88853
35.60322	93827
35.61133	91013
35.61945	87308
35.62758	83542
35.63570	82279
35.64383	84569
35.65195	84909
35.66007	95882
35.66820	97281
35.67632	108442
35.68445	116212
35.69257	113801
35.70068	116680
35.70882	117570
35.71693	101933
35.72507	101466
35.73318	107766
35.74130	97861
35.74943	107135
35.75755	109466
35.76567	113171
35.77380	114137
35.78192	113022
35.79005	106470
35.79817	106050
35.80628	105294
35.81442	99452
35.82253	94905
35.83067	91350
35.83878	93753
35.84690	93138
35.85503	91936
35.86315	91656
35.87128	90425
35.87940	95296
35.88752	91091
35.89565	85846
35.90377	91376
35.91188	91505
35.92002	89304
35.92813	86333
35.93627	87739
35.94438	92703
35.95250	83468
35.96063	85878
35.96875	89088
35.97688	87377
35.98500	93317
35.99312	92443
36.00125	105630
36.00937	103583
36.01748	107851
36.02562	111166
36.03373	115036
36.04187	107421
36.04998	106529
36.05810	105865
36.06623	100782
36.07435	99172
36.08248	98197
36.09060	94703
36.09872	96973
36.10685	89978
36.11497	94805
36.12310	87170
36.13122	90440
36.13933	97755
36.14747	98175
36.15558	97202
36.16370	98140
36.17183	98015
36.17995	92471
36.18808	93657
36.19620	95559
36.20432	95324
36.21245	90647
36.22057	86962
36.22870	88868
36.23682	88424
36.24493	94584
36.25307	91554
36.26118	91170
36.26930	92398
36.27743	92301
36.28555	99974
36.29368	100750
36.30180	117631
36.30992	140477
36.31805	157438
36.32617	173923
36.33430	161928
36.34242	148655
36.35053	131337
36.35867	125410
36.36678	118165
36.37492	109671
36.38303	113573
36.39115	112264
36.39928	107014
36.40740	103525
36.41552	106001
36.42365	106796
36.43177	102344
36.43990	100621
36.44802	95062
36.45613	98039
36.46427	98299
36.47238	95614
36.48052	94482
36.48863	94956
36.49675	97252
36.50488	98436
36.51300	98612
36.52113	93344
36.52925	94400
36.53737	96648
36.54550	92352
36.55362	88531
36.56173	86295
36.56987	86814
36.57798	87192
36.58612	83742
36.59423	89986
36.60235	89102
36.61048	88380
36.61860	94235
36.62673	92394
36.63485	101671
36.64297	104177
36.65110	107722
36.65922	112106
36.66733	117742
36.67547	114931
36.68358	114877
36.69172	104706
36.69983	104980
36.70795	100333
36.71608	97016
36.72420	95728
36.73233	99361
36.74045	102964
36.74857	102534
36.75670	98648
36.76482	97902
36.77295	101102
36.78107	94666
36.78918	99387
36.79732	94820
36.80543	88622
36.81355	91719
36.82168	92025
36.82980	94547
36.83793	96118
36.84605	91292
36.85417	92477
36.86230	91279
36.87042	91878
36.87855	99129
36.88667	97147
36.89478	100046
36.90292	99029
36.91103	100883
36.91917	101940
36.92728	93593
36.93540	100299
36.94353	97123
36.95165	106189
36.95977	110933
36.96790	112912
36.97602	114608
36.98415	114167
36.99227	107310
37.00038	105862
37.00852	108720
37.01663	103855
37.02477	98713
37.03288	96815
37.04100	99997
37.04913	94745
37.05725	94248
37.06537	96321
37.07350	104293
37.08162	97647
37.08975	103293
37.09787	102159
37.10598	107221
37.11412	107448
37.12223	109450
37.13037	108346
37.13848	106538
37.14660	113702
37.15473	110287
37.16285	107893
37.17098	107263
37.17910	107752
37.18722	111111
37.19535	99396
37.20347	106029
37.21158	100923
37.21972	103795
37.22783	98705
37.23597	103325
37.24408	97799
37.25220	97686
37.26033	96723
37.26845	97507
37.27658	99477
37.28470	95836
37.29282	100887
37.30095	110621
37.30907	110470
37.31720	119944
37.32532	159358
37.33343	189246
37.34157	241025
37.34968	280513
37.35780	331365
37.36593	340261
37.37405	348657
37.38218	324435
37.39030	300206
37.39842	261243
37.40655	241228
37.41467	235705
37.42280	209132
37.43092	202746
37.43903	198484
37.44717	189820
37.45528	177982
37.46340	179894
37.47153	174006
37.47965	170125
37.48778	162133
