C:\MassHunter\GCMS\1\data\JTB-E18\JTB-E18-029-09.D Tue Oct 01 16:18:54 2019
Start of data points
2.09522	145678
2.10333	142443
2.11147	143762
2.11958	134383
2.12772	133295
2.13583	134946
2.14395	134568
2.15208	132913
2.16020	125642
2.16833	121536
2.17645	124176
2.18457	118636
2.19270	120998
2.20082	117274
2.20893	112896
2.21707	109753
2.22518	112266
2.23332	106369
2.24143	106625
2.24955	103956
2.25768	117912
2.26580	162709
2.27393	636430
2.28205	1542639
2.29017	1247404
2.29830	635166
2.30642	445415
2.31453	356392
2.32267	316705
2.33078	293455
2.33892	284747
2.34703	255451
2.35515	232237
2.36328	214774
2.37140	201930
2.37953	242525
2.38765	344755
2.39577	269739
2.40390	205182
2.41202	194590
2.42015	194553
2.42827	201297
2.43638	183466
2.44452	179300
2.45263	184177
2.46075	173437
2.46888	167868
2.47700	159052
2.48513	166083
2.49325	190860
2.50137	207196
2.50950	177523
2.51762	169730
2.52575	167050
2.53387	158082
2.54198	153278
2.55012	177546
2.55823	230061
2.56637	272286
2.57448	213753
2.58260	186609
2.59073	191208
2.59885	169258
2.60697	204439
2.61510	290881
2.62322	315379
2.63135	255793
2.63947	205771
2.64758	176722
2.65572	177189
2.66383	174416
2.67197	186250
2.68008	248392
2.68820	224515
2.69633	184468
2.70445	164481
2.71257	155085
2.72070	155546
2.72882	156869
2.73695	149259
2.74507	152335
2.75318	151203
2.76132	143804
2.76943	144727
2.77757	166682
2.78568	243871
2.79380	301108
2.80193	243494
2.81005	229327
2.81818	294299
2.82630	609737
2.83442	1172522
2.84255	1077626
2.85067	590594
2.85878	397771
2.86692	368087
2.87503	299327
2.88317	242064
2.89128	205087
2.89940	187473
2.90753	179382
2.91565	174942
2.92378	168931
2.93190	146392
2.94002	147849
2.94815	148059
2.95627	144687
2.96438	145153
2.97252	136945
2.98063	137798
2.98877	149714
2.99688	170940
3.00500	184888
3.01313	187544
3.02125	237513
3.02938	532441
3.03750	988980
3.04562	1483351
3.05375	4082059
3.06187	9101471
3.07000	9571633
3.07812	5638982
3.08623	3000482
3.09437	2328232
3.10248	2221483
3.11060	2530239
3.11873	2394257
3.12685	1653431
3.13498	1125954
3.14310	884572
3.15122	710292
3.15935	606952
3.16747	606296
3.17560	673602
3.18372	806826
3.19183	1371648
3.19997	1878646
3.20808	1532810
3.21622	1084857
3.22433	882962
3.23245	770271
3.24058	644825
3.24870	550180
3.25682	486093
3.26495	435429
3.27307	408556
3.28120	489312
3.28932	1094236
3.29743	2933127
3.30557	5252913
3.31368	5885733
3.32182	4626541
3.32993	3203355
3.33805	2243673
3.34618	1722874
3.35430	1374073
3.36243	1139165
3.37055	1147148
3.37867	1318059
3.38680	1377423
3.39492	1208365
3.40303	1413893
3.41117	2730239
3.41928	4023057
3.42742	3464328
3.43553	2090684
3.44365	1289261
3.45178	929190
3.45990	769763
3.46803	671034
3.47615	609985
3.48427	539593
3.49240	482237
3.50052	440114
3.50863	419717
3.51677	384662
3.52488	396598
3.53302	419459
3.54113	399424
3.54925	377992
3.55738	349051
3.56550	330346
3.57363	321801
3.58175	316673
3.58987	306743
3.59800	292453
3.60612	294536
3.61425	406624
3.62237	917293
3.63048	2062057
3.63862	2950763
3.64673	2526380
3.65485	1616197
3.66298	1430151
3.67110	3369715
3.67923	6866899
3.68735	7666770
3.69547	5063674
3.70360	2974430
3.71172	2065187
3.71985	1634987
3.72797	1380405
3.73608	1202258
3.74422	1089368
3.75233	974015
3.76045	914184
3.76858	843114
3.77670	783404
3.78483	736303
3.79295	695791
3.80107	715284
3.80920	905671
3.81732	1190277
3.82545	1189485
3.83357	933829
3.84168	747590
3.84982	636863
3.85793	577110
3.86607	535316
3.87418	512625
3.88230	478523
3.89043	471943
3.89855	455648
3.90667	443291
3.91480	488675
3.92292	648440
3.93105	823956
3.93917	792956
3.94728	726894
3.95542	1031737
3.96353	1663660
3.97167	1905287
3.97978	1459877
3.98790	928352
3.99603	844352
4.00415	1443949
4.01228	2476021
4.02040	2808807
4.02852	2027232
4.03665	1167216
4.04477	735738
4.05288	555891
4.06102	489263
4.06913	437205
4.07727	403429
4.08538	386275
4.09350	358129
4.10163	334536
4.10975	317897
4.11788	310697
4.12600	324386
4.13412	536489
4.14225	1364370
4.15037	2726685
4.15848	3211868
4.16662	2490746
4.17473	1656042
4.18287	1160519
4.19098	889521
4.19910	700148
4.20723	707645
4.21535	1588039
4.22348	4845498
4.23160	1.031671E+07
4.23972	1.497185E+07
4.24785	1.516237E+07
4.25597	1.078695E+07
4.26410	6431264
4.27222	4129987
4.28033	2889705
4.28847	2154720
4.29658	1695828
4.30470	1383550
4.31283	1175975
4.32095	1018252
4.32908	899534
4.33720	833676
4.34532	795907
4.35345	803590
4.36157	786526
4.36970	741809
4.37782	660893
4.38593	578164
4.39407	547952
4.40218	503312
4.41032	467784
4.41843	448562
4.42655	432191
4.43468	420204
4.44280	421477
4.45092	397773
4.45905	402461
4.46717	396577
4.47530	388004
4.48342	374553
4.49153	365199
4.49967	349799
4.50778	335996
4.51592	314620
4.52403	318370
4.53215	311554
4.54028	310613
4.54840	305087
4.55652	296087
4.56465	290550
4.57277	287374
4.58090	282304
4.58902	265316
4.59713	265962
4.60527	266517
4.61338	270047
4.62152	346690
4.62963	539996
4.63775	812369
4.64588	947557
4.65400	813704
4.66213	595416
4.67025	432746
4.67837	372188
4.68650	340171
4.69462	321741
4.70273	283955
4.71087	272932
4.71898	258616
4.72712	245995
4.73523	253185
4.74335	236985
4.75148	237248
4.75960	226337
4.76773	219521
4.77585	215195
4.78397	224484
4.79210	248221
4.80022	306523
4.80833	379214
4.81647	363997
4.82458	320713
4.83272	289475
4.84083	287494
4.84895	292275
4.85708	278263
4.86520	269309
4.87333	248194
4.88145	238931
4.88957	235709
4.89770	230651
4.90582	224085
4.91395	268611
4.92207	446842
4.93018	882849
4.93832	1618415
4.94643	2354896
4.95455	2634335
4.96268	2277985
4.97080	1722906
4.97893	1231981
4.98705	938918
4.99517	736345
5.00330	604586
5.01142	552267
5.01955	532300
5.02767	681909
5.03578	1029313
5.04392	1315290
5.05203	1254030
5.06017	984910
5.06828	786570
5.07640	649137
5.08453	580478
5.09265	545184
5.10077	534891
5.10890	559757
5.11702	584332
5.12515	578797
5.13327	519438
5.14138	475944
5.14952	444944
5.15763	481977
5.16577	552529
5.17388	595740
5.18200	613018
5.19013	618138
5.19825	609216
5.20637	595410
5.21450	545863
5.22262	492579
5.23075	434162
5.23887	393440
5.24698	379343
5.25512	338574
5.26323	313006
5.27137	293698
5.27948	293954
5.28760	278476
5.29573	276600
5.30385	260514
5.31198	247039
5.32010	249676
5.32822	266315
5.33635	265497
5.34447	266255
5.35258	256905
5.36072	254022
5.36883	242356
5.37697	245308
5.38508	256864
5.39320	272581
5.40133	271808
5.40945	263649
5.41758	239178
5.42570	234284
5.43382	218129
5.44195	220828
5.45007	230350
5.45820	237538
5.46632	228309
5.47443	213856
5.48257	206236
5.49068	195070
5.49880	205786
5.50693	199589
5.51505	209174
5.52318	203521
5.53130	203543
5.53942	198945
5.54755	204530
5.55567	222410
5.56380	259363
5.57192	302214
5.58003	312697
5.58817	290760
5.59628	251152
5.60440	223357
5.61253	210887
5.62065	208996
5.62878	205928
5.63690	209168
5.64502	199869
5.65315	202792
5.66127	196548
5.66940	191371
5.67752	206587
5.68563	217182
5.69377	232009
5.70188	246883
5.71002	250164
5.71813	259940
5.72625	283005
5.73438	266543
5.74250	252556
5.75062	250712
5.75875	249341
5.76687	267201
5.77500	262805
5.78312	258384
5.79123	249195
5.79937	273636
5.80748	384560
5.81562	643926
5.82373	1009210
5.83185	1320454
5.83998	1380417
5.84810	1125863
5.85623	808951
5.86435	555482
5.87247	404558
5.88060	310240
5.88872	269705
5.89683	259347
5.90497	280865
5.91308	349589
5.92122	477437
5.92933	622237
5.93745	649315
5.94558	583055
5.95370	487974
5.96183	454695
5.96995	552210
5.97807	734223
5.98620	841704
5.99432	785613
6.00243	595322
6.01057	430355
6.01868	315268
6.02682	259615
6.03493	220844
6.04305	203421
6.05118	189355
6.05930	180490
6.06743	170216
6.07555	167388
6.08367	163314
6.09180	158881
6.09992	158915
6.10805	160196
6.11617	167288
6.12428	214007
6.13242	321666
6.14053	485252
6.14865	563667
6.15678	555935
6.16490	435590
6.17303	321462
6.18115	274077
6.18927	251130
6.19740	255308
6.20552	254099
6.21365	244372
6.22177	220691
6.22988	201381
6.23802	193393
6.24613	197207
6.25425	204105
6.26238	207142
6.27050	202291
6.27863	200808
6.28675	198433
6.29487	183625
6.30300	191546
6.31112	195529
6.31925	203317
6.32737	214134
6.33548	230603
6.34362	246483
6.35173	237487
6.35987	228917
6.36798	222469
6.37610	218374
6.38423	216344
6.39235	217387
6.40047	214055
6.40860	209062
6.41672	222165
6.42485	212202
6.43297	219662
6.44108	217252
6.44922	218391
6.45733	218855
6.46547	211289
6.47358	224820
6.48170	222220
6.48983	227346
6.49795	234566
6.50608	248278
6.51420	242794
6.52232	238944
6.53045	239309
6.53857	246288
6.54668	260829
6.55482	259615
6.56293	269214
6.57107	298894
6.57918	331967
6.58730	350782
6.59543	325622
6.60355	302202
6.61168	272192
6.61980	283492
6.62792	276966
6.63605	278342
6.64417	313178
6.65228	501105
6.66042	950141
6.66853	1421114
6.67667	1612098
6.68478	1380295
6.69290	985372
6.70103	690155
6.70915	518343
6.71728	419816
6.72540	339935
6.73352	275091
6.74165	225101
6.74977	206901
6.75790	193443
6.76602	177321
6.77413	166351
6.78227	164587
6.79038	174747
6.79850	194145
6.80663	260764
6.81475	422047
6.82288	658874
6.83100	900753
6.83912	1025121
6.84725	946155
6.85537	717028
6.86350	487097
6.87162	321631
6.87973	228672
6.88787	168450
6.89598	142476
6.90412	127316
6.91223	118630
6.92035	110550
6.92848	106843
6.93660	100383
6.94472	112290
6.95285	128002
6.96097	178365
6.96910	260350
6.97722	355791
6.98533	432739
6.99347	463939
7.00158	403162
7.00972	320987
7.01783	238572
7.02595	179108
7.03408	148373
7.04220	126880
7.05032	111144
7.05845	112053
7.06657	111701
7.07470	110858
7.08282	112150
7.09093	118691
7.09907	109780
7.10718	99597
7.11532	93417
7.12343	92186
7.13155	94947
7.13968	101853
7.14780	124270
7.15593	144571
7.16405	156338
7.17217	171780
7.18030	185489
7.18842	319037
7.19653	668123
7.20467	1174241
7.21278	1541923
7.22092	1436103
7.22903	1045129
7.23715	623683
7.24528	378302
7.25340	244473
7.26153	178250
7.26965	160919
7.27777	157592
7.28590	164768
7.29402	161879
7.30213	147959
7.31027	143937
7.31838	128494
7.32652	137232
7.33463	172710
7.34275	224201
7.35088	277946
7.35900	316567
7.36713	319734
7.37525	267239
7.38337	213340
7.39150	166139
7.39962	132991
7.40775	114326
7.41587	107923
7.42398	104724
7.43212	114025
7.44023	128100
7.44835	157714
7.45648	190502
7.46460	217207
7.47273	216470
7.48085	197382
7.48897	167694
7.49710	138700
7.50522	111544
7.51335	101577
7.52147	99958
7.52958	115636
7.53772	147704
7.54583	211821
7.55397	310510
7.56208	415903
7.57020	491257
7.57833	500247
7.58645	437500
7.59457	342914
7.60270	239614
7.61082	173766
7.61895	128285
7.62707	112625
7.63518	94838
7.64332	93740
7.65143	84904
7.65957	84215
7.66768	87640
7.67580	82868
7.68393	77172
7.69205	80687
7.70017	82091
7.70830	84206
7.71642	78999
7.72455	79134
7.73267	80907
7.74078	79542
7.74892	74120
7.75703	80730
7.76517	77836
7.77328	76979
7.78140	73459
7.78953	78239
7.79765	83885
7.80578	82048
7.81390	86920
7.82202	80209
7.83015	88324
7.83827	77835
7.84638	73752
7.85452	79474
7.86263	78030
7.87077	85243
7.87888	89979
7.88700	99765
7.89513	102085
7.90325	102186
7.91138	92930
7.91950	87852
7.92762	91527
7.93575	107840
7.94387	113332
7.95200	122992
7.96012	116166
7.96823	104042
7.97637	87667
7.98448	83374
7.99260	72769
8.00073	70909
8.00885	66812
8.01698	64390
8.02510	64128
8.03322	67378
8.04135	68074
8.04947	68726
8.05760	63406
8.06572	64764
8.07383	62667
8.08197	63247
8.09008	60676
8.09820	60135
8.10633	64580
8.11445	67013
8.12258	66166
8.13070	72120
8.13882	80788
8.14695	91370
8.15507	93541
8.16320	98590
8.17132	86156
8.17943	79466
8.18757	70653
8.19568	66364
8.20382	64445
8.21193	63261
8.22005	60340
8.22818	64913
8.23630	61722
8.24442	63464
8.25255	63882
8.26067	60553
8.26880	62448
8.27692	58572
8.28503	61254
8.29317	58502
8.30128	59251
8.30942	62955
8.31753	63966
8.32565	68924
8.33378	70066
8.34190	67111
8.35002	65489
8.35815	68114
8.36627	61416
8.37440	63731
8.38252	63098
8.39063	58244
8.39877	55349
8.40688	54140
8.41502	57915
8.42313	54987
8.43125	55482
8.43938	56919
8.44750	55508
8.45563	59313
8.46375	55822
8.47187	54995
8.48000	56099
8.48812	60778
8.49623	55138
8.50437	64637
8.51248	78673
8.52062	121210
8.52873	175707
8.53685	213113
8.54498	216966
8.55310	177059
8.56123	121951
8.56935	92337
8.57747	73468
8.58560	66475
8.59372	72160
8.60185	65500
8.60997	67387
8.61808	66420
8.62622	66707
8.63433	64419
8.64245	60220
8.65058	61111
8.65870	59399
8.66683	61223
8.67495	61667
8.68307	64118
8.69120	60365
8.69932	65579
8.70745	70195
8.71557	75220
8.72368	104059
8.73182	182621
8.73993	348188
8.74807	552505
8.75618	721263
8.76430	721319
8.77243	596753
8.78055	413881
8.78867	273442
8.79680	191131
8.80492	151033
8.81305	134560
8.82117	122151
8.82928	120702
8.83742	114782
8.84553	104610
8.85367	108393
8.86178	100790
8.86990	105374
8.87803	98894
8.88615	86284
8.89427	85700
8.90240	85528
8.91052	89453
8.91865	92113
8.92677	95276
8.93488	98658
8.94302	103823
8.95113	96581
8.95927	95445
8.96738	94327
8.97550	90858
8.98363	89001
8.99175	94520
8.99988	94308
9.00800	85061
9.01612	82940
9.02425	83256
9.03237	78191
9.04048	76940
9.04862	79888
9.05673	75477
9.06487	72034
9.07298	69834
9.08110	75318
9.08923	78124
9.09735	88994
9.10548	99275
9.11360	108050
9.12172	123866
9.12985	113540
9.13797	104378
9.14608	94708
9.15422	86711
9.16233	84274
9.17047	73825
9.17858	72745
9.18670	72913
9.19483	68020
9.20295	68645
9.21108	66267
9.21920	68294
9.22732	68951
9.23545	66874
9.24357	67140
9.25170	68880
9.25982	63837
9.26793	67001
9.27607	66407
9.28418	60905
9.29230	64310
9.30043	65796
9.30855	65887
9.31668	68326
9.32480	59834
9.33292	61642
9.34105	65146
9.34917	67059
9.35730	69019
9.36542	59852
9.37353	59675
9.38167	62021
9.38978	59410
9.39792	61799
9.40603	67607
9.41415	77727
9.42228	100217
9.43040	113230
9.43852	128782
9.44665	142883
9.45477	133688
9.46290	110873
9.47102	94300
9.47913	79985
9.48727	68480
9.49538	66253
9.50352	69576
9.51163	73636
9.51975	80033
9.52788	78693
9.53600	70426
9.54412	65619
9.55225	56765
9.56037	54413
9.56850	50053
9.57662	46354
9.58473	44872
9.59287	44357
9.60098	47933
9.60912	45600
9.61723	43767
9.62535	41524
9.63348	44079
9.64160	46387
9.64973	42902
9.65785	42797
9.66597	42565
9.67410	44882
9.68222	44065
9.69033	40514
9.69847	40938
9.70658	44504
9.71472	41847
9.72283	39925
9.73095	45013
9.73908	43047
9.74720	41327
9.75533	44646
9.76345	41838
9.77157	38559
9.77970	40814
9.78782	37318
9.79595	36278
9.80407	41577
9.81218	40018
9.82032	40350
9.82843	40682
9.83655	39335
9.84468	41859
9.85280	45970
9.86093	40117
9.86905	40793
9.87717	41128
9.88530	41104
9.89342	37182
9.90155	40617
9.90967	38438
9.91778	42260
9.92592	47870
9.93403	62277
9.94215	78194
9.95028	92234
9.95840	104890
9.96653	95647
9.97465	91745
9.98277	85416
9.99090	68121
9.99902	59734
10.00715	53459
10.01527	52133
10.02338	46908
10.03152	45870
10.03963	46605
10.04777	45703
10.05588	45532
10.06400	45163
10.07213	46934
10.08025	46002
10.08837	43546
10.09650	46299
10.10462	45036
10.11275	42582
10.12087	38131
10.12898	42434
10.13712	42840
10.14523	43176
10.15337	43903
10.16148	45518
10.16960	39918
10.17773	40574
10.18585	37917
10.19397	38505
10.20210	38226
10.21022	41974
10.21835	40484
10.22647	44968
10.23458	47108
10.24272	54040
10.25083	74311
10.25897	142659
10.26708	292818
10.27520	608643
10.28333	1090445
10.29145	1652403
10.29958	2417612
10.30770	3595415
10.31582	5177463
10.32395	6657632
10.33207	6906247
10.34018	5717482
10.34832	3958036
10.35643	2487133
10.36457	1798358
10.37268	1520322
10.38080	1293486
10.38893	987051
10.39705	709049
10.40518	461360
10.41330	321964
10.42142	260457
10.42955	228351
10.43767	214726
10.44580	187694
10.45392	169242
10.46203	157006
10.47017	141609
10.47828	124471
10.48640	120490
10.49453	111075
10.50265	112560
10.51078	117268
10.51890	109604
10.52702	108073
10.53515	102829
10.54327	94674
10.55140	90221
10.55952	90457
10.56763	93737
10.57577	91452
10.58388	90054
10.59200	86492
10.60013	84583
10.60825	80301
10.61638	81504
10.62450	74645
10.63262	73134
10.64075	72368
10.64887	68838
10.65700	68271
10.66512	65224
10.67323	68818
10.68137	69255
10.68948	69145
10.69762	73342
10.70573	73041
10.71385	78605
10.72198	78559
10.73010	77512
10.73822	68946
10.74635	67699
10.75447	66843
10.76260	64584
10.77072	58945
10.77883	59506
10.78697	59332
10.79508	60973
10.80322	63546
10.81133	67833
10.81945	69462
10.82758	66476
10.83570	56921
10.84383	56060
10.85195	54083
10.86007	50272
10.86820	49831
10.87632	55535
10.88443	50411
10.89257	50184
10.90068	53922
10.90882	51208
10.91693	48465
10.92505	50690
10.93318	48733
10.94130	53733
10.94943	48548
10.95755	51931
10.96567	48206
10.97380	50994
10.98192	52317
10.99003	53414
10.99817	50537
11.00628	53742
11.01442	53306
11.02253	54889
11.03065	50310
11.03878	49294
11.04690	56149
11.05503	47177
11.06315	44119
11.07127	49729
11.07940	52137
11.08752	56971
11.09565	59338
11.10377	57165
11.11188	62364
11.12002	61526
11.12813	59793
11.13625	59708
11.14438	57460
11.15250	54408
11.16063	50199
11.16875	48796
11.17687	50534
11.18500	46542
11.19312	55104
11.20125	54119
11.20937	56062
11.21748	51722
11.22562	46223
11.23373	47327
11.24185	45384
11.24998	51294
11.25810	53785
11.26623	67731
11.27435	87490
11.28247	120122
11.29060	162102
11.29872	206346
11.30685	263325
11.31497	372169
11.32308	556804
11.33122	854865
11.33933	1145606
11.34747	1286289
11.35558	1213649
11.36370	987527
11.37183	707600
11.37995	502842
11.38807	370060
11.39620	268580
11.40432	220960
11.41245	183670
11.42057	142716
11.42868	130555
11.43682	104710
11.44493	95898
11.45307	89355
11.46118	81462
11.46930	77179
11.47743	81931
11.48555	89989
11.49368	98434
11.50180	101229
11.50992	102164
11.51805	100690
11.52617	104015
11.53428	107792
11.54242	108859
11.55053	111037
11.55867	103629
11.56678	97561
11.57490	89190
11.58303	91827
11.59115	92853
11.59928	103224
11.60740	112132
11.61552	116894
11.62365	114989
11.63177	99168
11.63988	85678
11.64802	74806
11.65613	67722
11.66427	63636
11.67238	59622
11.68050	63497
11.68863	66738
11.69675	73593
11.70488	81915
11.71300	83958
11.72112	86524
11.72925	91463
11.73737	88011
11.74550	87808
11.75362	79085
11.76173	77364
11.76987	67152
11.77798	69066
11.78610	59433
11.79423	58387
11.80235	63843
11.81048	61120
11.81860	58174
11.82672	54854
11.83485	53797
11.84297	51572
11.85110	49453
11.85922	50519
11.86733	51884
11.87547	49102
11.88358	51615
11.89172	43576
11.89983	47451
11.90795	48463
11.91608	60295
11.92420	66706
11.93232	77784
11.94045	84154
11.94857	81575
11.95670	76056
11.96482	66197
11.97293	63953
11.98107	63963
11.98918	69413
11.99732	69512
12.00543	73374
12.01355	74259
12.02168	67055
12.02980	64888
12.03792	54918
12.04605	55002
12.05417	51470
12.06230	52792
12.07042	57836
12.07853	55577
12.08667	61610
12.09478	60416
12.10292	58146
12.11103	51982
12.11915	50636
12.12728	59704
12.13540	56469
12.14353	60372
12.15165	53330
12.15977	55171
12.16790	50583
12.17602	44058
12.18413	44137
12.19227	46026
12.20038	46058
12.20852	45775
12.21663	40363
12.22475	43079
12.23288	42360
12.24100	44911
12.24913	46668
12.25725	46483
12.26537	44143
12.27350	43158
12.28162	44827
12.28975	44096
12.29787	43060
12.30598	42841
12.31412	46051
12.32223	41935
12.33035	38924
12.33848	39684
12.34660	36556
12.35473	36941
12.36285	39288
12.37097	41669
12.37910	40817
12.38722	46939
12.39535	59549
12.40347	74498
12.41158	95245
12.41972	113695
12.42783	109092
12.43595	93861
12.44408	79173
12.45220	66818
12.46033	56362
12.46845	51090
12.47657	49441
12.48470	50689
12.49282	46932
12.50095	45289
12.50907	46066
12.51718	44725
12.52532	41299
12.53343	52072
12.54157	65909
12.54968	81906
12.55780	96265
12.56593	102138
12.57405	94603
12.58217	84477
12.59030	69697
12.59842	59955
12.60655	55840
12.61467	52195
12.62278	51415
12.63092	50860
12.63903	45769
12.64717	41652
12.65528	40974
12.66340	44137
12.67153	40217
12.67965	38654
12.68777	39277
12.69590	37334
12.70402	36022
12.71215	40549
12.72027	39159
12.72838	45107
12.73652	40792
12.74463	47444
12.75277	40000
12.76088	38268
12.76900	38320
12.77713	43534
12.78525	46747
12.79338	47205
12.80150	54011
12.80962	51404
12.81775	50744
12.82587	48948
12.83398	45398
12.84212	44798
12.85023	46707
12.85837	44239
12.86648	45337
12.87460	40502
12.88273	42707
12.89085	38706
12.89898	39139
12.90710	39112
12.91522	39210
12.92335	40712
12.93147	43919
12.93960	60318
12.94772	77301
12.95583	102037
12.96397	131001
12.97208	150449
12.98020	158558
12.98833	156452
12.99645	139261
13.00458	126431
13.01270	122427
13.02082	117758
13.02895	110705
13.03707	99466
13.04520	87590
13.05332	80291
13.06143	70844
13.06957	64228
13.07768	60557
13.08580	54738
13.09393	51925
13.10205	46184
13.11018	47149
13.11830	47619
13.12642	42720
13.13455	43064
13.14267	45385
13.15080	44231
13.15892	42037
13.16703	43977
13.17517	40552
13.18328	44389
13.19142	44123
13.19953	43345
13.20765	43815
13.21578	42049
13.22390	43606
13.23202	45388
13.24015	51095
13.24827	54483
13.25640	59125
13.26452	62190
13.27263	68967
13.28077	70197
13.28888	65428
13.29702	65740
13.30513	65487
13.31325	65038
13.32138	73270
13.32950	67471
13.33763	69544
13.34575	69535
13.35387	65303
13.36200	59204
13.37012	59942
13.37823	55422
13.38637	54001
13.39448	51314
13.40262	50473
13.41073	49140
13.41885	44587
13.42698	43220
13.43510	45892
13.44323	42909
13.45135	42936
13.45947	44772
13.46760	42891
13.47572	44826
13.48383	40518
13.49197	41311
13.50008	43020
13.50822	42177
13.51633	41399
13.52445	42571
13.53258	47979
13.54070	51304
13.54883	49962
13.55695	55043
13.56507	60067
13.57320	66995
13.58132	64075
13.58945	73341
13.59757	90057
13.60568	114207
13.61382	134360
13.62193	141200
13.63005	150856
13.63818	141010
13.64630	122674
13.65443	99884
13.66255	88523
13.67067	83034
13.67880	74633
13.68692	71784
13.69505	65489
13.70317	64510
13.71128	61197
13.71942	58275
13.72753	57056
13.73565	53414
13.74378	57284
13.75190	69273
13.76003	81637
13.76815	99414
13.77627	118496
13.78440	140837
13.79252	161126
13.80065	167122
13.80877	190580
13.81688	226071
13.82502	263216
13.83313	289568
13.84127	295157
13.84938	248311
13.85750	205922
13.86563	158966
13.87375	123699
13.88187	99594
13.89000	93025
13.89812	85451
13.90625	81659
13.91437	80541
13.92248	81572
13.93062	79400
13.93873	73603
13.94687	69391
13.95498	69656
13.96310	70258
13.97123	67340
13.97935	72589
13.98748	65532
13.99560	65310
14.00372	61651
14.01185	58523
14.01997	64334
14.02808	59591
14.03622	57364
14.04433	60020
14.05247	56917
14.06058	54111
14.06870	52810
14.07683	52092
14.08495	52087
14.09308	48225
14.10120	52977
14.10932	49210
14.11745	53881
14.12557	63569
14.13368	82403
14.14182	118655
14.14993	184164
14.15807	230606
14.16618	269816
14.17430	246716
14.18243	202119
14.19055	160610
14.19868	132366
14.20680	121620
14.21492	103585
14.22305	96559
14.23117	88292
14.23930	93205
14.24742	86526
14.25553	86492
14.26367	75745
14.27178	76492
14.27990	69673
14.28803	62811
14.29615	56128
14.30428	58591
14.31240	56617
14.32052	52163
14.32865	46623
14.33677	44962
14.34490	45146
14.35302	46204
14.36113	43718
14.36927	43744
14.37738	45896
14.38552	48732
14.39363	71224
14.40175	106725
14.40988	141418
14.41800	174414
14.42612	193122
14.43425	167154
14.44237	141244
14.45050	105823
14.45862	78103
14.46673	69370
14.47487	63338
14.48298	58337
14.49112	52062
14.49923	55069
14.50735	49402
14.51548	46307
14.52360	50900
14.53172	45885
14.53985	44741
14.54797	50783
14.55610	45165
14.56422	48432
14.57233	43640
14.58047	41503
14.58858	39087
14.59672	42048
14.60483	39875
14.61295	42380
14.62108	39476
14.62920	40462
14.63733	39007
14.64545	36341
14.65357	36598
14.66170	37596
14.66982	34014
14.67793	36090
14.68607	37870
14.69418	36892
14.70232	38854
14.71043	40188
14.71855	39580
14.72668	39111
14.73480	38578
14.74293	35805
14.75105	37068
14.75917	36779
14.76730	39733
14.77542	45008
14.78353	59772
14.79167	116964
14.79978	258744
14.80792	541505
14.81603	983410
14.82415	1382274
14.83228	1545645
14.84040	1375816
14.84853	1004219
14.85665	663078
14.86477	405234
14.87290	258774
14.88102	200003
14.88915	151428
14.89727	132519
14.90538	117913
14.91352	104640
14.92163	97150
14.92975	92126
14.93788	88540
14.94600	83674
14.95413	82063
14.96225	74319
14.97037	76506
14.97850	71810
14.98662	72740
14.99475	68764
15.00287	63335
15.01098	71437
15.01912	64433
15.02723	62664
15.03537	64723
15.04348	62912
15.05160	58991
15.05973	57310
15.06785	57628
15.07597	55516
15.08410	51394
15.09222	50435
15.10035	49311
15.10847	48794
15.11658	49580
15.12472	50493
15.13283	51616
15.14097	52763
15.14908	51745
15.15720	54742
15.16533	51577
15.17345	42430
15.18158	45329
15.18970	45320
15.19782	44679
15.20595	47097
15.21407	42263
15.22218	43159
15.23032	40716
15.23843	41338
15.24657	37740
15.25468	40146
15.26280	37131
15.27093	42725
15.27905	36936
15.28718	40684
15.29530	35497
15.30342	37860
15.31155	37206
15.31967	35388
15.32778	34139
15.33592	37314
15.34403	35997
15.35217	36096
15.36028	36202
15.36840	35441
15.37653	40742
15.38465	41359
15.39278	36242
15.40090	35706
15.40902	35050
15.41715	37367
15.42527	36185
15.43340	35427
15.44152	37829
15.44963	39392
15.45777	50084
15.46588	61207
15.47400	92395
15.48213	131875
15.49025	180305
15.49838	218575
15.50650	240360
15.51462	228872
15.52275	201280
15.53087	164453
15.53900	135659
15.54712	104645
15.55523	88673
15.56337	78305
15.57148	63444
15.57960	56518
15.58773	57711
15.59585	53763
15.60398	47316
15.61210	48625
15.62022	42093
15.62835	43273
15.63647	41974
15.64460	42695
15.65272	40743
15.66083	38087
15.66897	39779
15.67708	38278
15.68522	38848
15.69333	44275
15.70145	38695
15.70958	41253
15.71770	37403
15.72582	37342
15.73395	42323
15.74207	45010
15.75020	46050
15.75832	66420
15.76643	85902
15.77457	124821
15.78268	144196
15.79082	154208
15.79893	137592
15.80705	113682
15.81518	89482
15.82330	70750
15.83143	62338
15.83955	56100
15.84767	53858
15.85580	51092
15.86392	45262
15.87203	49007
15.88017	53775
15.88828	48395
15.89642	48473
15.90453	45789
15.91265	47100
15.92078	44805
15.92890	42239
15.93703	44436
15.94515	41480
15.95327	44201
15.96140	44318
15.96952	40634
15.97763	44385
15.98577	44673
15.99388	47442
16.00202	47684
16.01013	44139
16.01825	50559
16.02638	51629
16.03450	48242
16.04263	50217
16.05075	44184
16.05887	42488
16.06700	41616
16.07512	41458
16.08325	39702
16.09137	36741
16.09948	38757
16.10762	39644
16.11573	38880
16.12385	41326
16.13198	42456
16.14010	45842
16.14823	45458
16.15635	48379
16.16447	44788
16.17260	44355
16.18072	37358
16.18885	40603
16.19697	37885
16.20508	40213
16.21322	40970
16.22133	41844
16.22947	35076
16.23758	36967
16.24570	37818
16.25383	37204
16.26195	37909
16.27007	39336
16.27820	43814
16.28632	47642
16.29445	47398
16.30257	42688
16.31068	45565
16.31882	48512
16.32693	45452
16.33507	42839
16.34318	39046
16.35130	39060
16.35943	37905
16.36755	39558
16.37567	39989
16.38380	42185
16.39192	39102
16.40005	43718
16.40817	40537
16.41628	39776
16.42442	42211
16.43253	39706
16.44067	45211
16.44878	59892
16.45690	90913
16.46503	129978
16.47315	167762
16.48128	190175
16.48940	182450
16.49752	150877
16.50565	113618
16.51377	89444
16.52188	69797
16.53002	59428
16.53813	55177
16.54627	50924
16.55438	54275
16.56250	53766
16.57063	48943
16.57875	53087
16.58688	49545
16.59500	49151
16.60312	48061
16.61125	46098
16.61937	45637
16.62748	44416
16.63562	41952
16.64373	40646
16.65187	41919
16.65998	40382
16.66810	42066
16.67623	40193
16.68435	39043
16.69248	39979
16.70060	34497
16.70872	36193
16.71685	36339
16.72497	36381
16.73310	40137
16.74122	35619
16.74933	37909
16.75747	37540
16.76558	39924
16.77370	41547
16.78183	37341
16.78995	36844
16.79808	35893
16.80620	35325
16.81432	35910
16.82245	35972
16.83057	38082
16.83870	37490
16.84682	36476
16.85493	38308
16.86307	33964
16.87118	37933
16.87932	34963
16.88743	38763
16.89555	38883
16.90368	36738
16.91180	37447
16.91992	35029
16.92805	35938
16.93617	36818
16.94430	36067
16.95242	37556
16.96053	35606
16.96867	36165
16.97678	36820
16.98492	38784
16.99303	42597
17.00115	37447
17.00928	37594
17.01740	37416
17.02552	40403
17.03365	39376
17.04177	40408
17.04990	40603
17.05802	44212
17.06613	46898
17.07427	44513
17.08238	46995
17.09052	51134
17.09863	62182
17.10675	64960
17.11488	72417
17.12300	69818
17.13113	64494
17.13925	63723
17.14737	57563
17.15550	48159
17.16362	50674
17.17173	46518
17.17987	43666
17.18798	40892
17.19612	40957
17.20423	42396
17.21235	37188
17.22048	37657
17.22860	37270
17.23673	39962
17.24485	39573
17.25297	39447
17.26110	35740
17.26922	37685
17.27735	36192
17.28547	36256
17.29358	34782
17.30172	35341
17.30983	35644
17.31795	39043
17.32608	44901
17.33420	43633
17.34233	46598
17.35045	47992
17.35857	50135
17.36670	47094
17.37482	52334
17.38295	48839
17.39107	48577
17.39918	51127
17.40732	52182
17.41543	53644
17.42355	51972
17.43168	51871
17.43980	49815
17.44793	47283
17.45605	46314
17.46417	44905
17.47230	38964
17.48042	42993
17.48855	37426
17.49667	38365
17.50478	43463
17.51292	44787
17.52103	49135
17.52917	56179
17.53728	66199
17.54540	72488
17.55353	88983
17.56165	97340
17.56977	116207
17.57790	143415
17.58602	177553
17.59415	211791
17.60227	226306
17.61038	223548
17.61852	195289
17.62663	156938
17.63477	126796
17.64288	96887
17.65100	85853
17.65913	74540
17.66725	72713
17.67537	67997
17.68350	64063
17.69162	63938
17.69975	62680
17.70787	61296
17.71598	57947
17.72412	61419
17.73223	59146
17.74037	56907
17.74848	56524
17.75660	53424
17.76473	53316
17.77285	50480
17.78098	46004
17.78910	49912
17.79722	48631
17.80535	51334
17.81347	50904
17.82158	58282
17.82972	54911
17.83783	61503
17.84597	62490
17.85408	70974
17.86220	71910
17.87033	68503
17.87845	68575
17.88658	59755
17.89470	52923
17.90282	54354
17.91095	48075
17.91907	43562
17.92720	44612
17.93532	44078
17.94343	45852
17.95157	44558
17.95968	41478
17.96780	38509
17.97593	40240
17.98405	39900
17.99218	43677
18.00030	46676
18.00842	46491
18.01655	59053
18.02467	67449
18.03280	73894
18.04092	85795
18.04903	103641
18.05717	141235
18.06528	207581
18.07340	348321
18.08153	560463
18.08965	773548
18.09778	886919
18.10590	770612
18.11402	616576
18.12215	441982
18.13027	311384
18.13840	226815
18.14652	187606
18.15463	162349
18.16277	149553
18.17088	127644
18.17902	122198
18.18713	111012
18.19525	102643
18.20338	94444
18.21150	95847
18.21962	90835
18.22775	91789
18.23587	97983
18.24400	116146
18.25212	131743
18.26023	140461
18.26837	149287
18.27648	146150
18.28462	151369
18.29273	146933
18.30085	149010
18.30898	153546
18.31710	149625
18.32523	139785
18.33335	146038
18.34147	134297
18.34960	144106
18.35772	142137
18.36583	138376
18.37397	143521
18.38208	142723
18.39022	142841
18.39833	144945
18.40645	149108
18.41458	146734
18.42270	152042
18.43083	162288
18.43895	161096
18.44707	171092
18.45520	186403
18.46332	192789
18.47143	191670
18.47957	191816
18.48768	177678
18.49582	172263
18.50393	157857
18.51205	140254
18.52018	130394
18.52830	119877
18.53643	117926
18.54455	115664
18.55267	111662
18.56080	111047
18.56892	103998
18.57705	112035
18.58517	110465
18.59328	115531
18.60142	115346
18.60953	115130
18.61765	116400
18.62578	128578
18.63390	118620
18.64203	113937
18.65015	106303
18.65827	97843
18.66640	94937
18.67452	95658
18.68265	89166
18.69077	86536
18.69888	87746
18.70702	86688
18.71513	83087
18.72327	79412
18.73138	76614
18.73950	75260
18.74763	78740
18.75575	77495
18.76387	75457
18.77200	74113
18.78012	71435
18.78825	72930
18.79637	72658
18.80448	67974
18.81262	68077
18.82073	66538
18.82887	67647
18.83698	65801
18.84510	66966
18.85323	66054
18.86135	71589
18.86947	71202
18.87760	72255
18.88572	72562
18.89385	72114
18.90197	75989
18.91008	69964
18.91822	75263
18.92633	71745
18.93447	68138
18.94258	65669
18.95070	69857
18.95883	69755
18.96695	62874
18.97508	62026
18.98320	60108
18.99132	61684
18.99945	61957
19.00757	58450
19.01568	64394
19.02382	62187
19.03193	63402
19.04007	64570
19.04818	59731
19.05630	57019
19.06443	56329
19.07255	62605
19.08068	68003
19.08880	72205
19.09692	80760
19.10505	83368
19.11317	80565
19.12128	77390
19.12942	83124
19.13753	79384
19.14567	87480
19.15378	91735
19.16190	89365
19.17003	89863
19.17815	83682
19.18628	81215
19.19440	73285
19.20252	65890
19.21065	64375
19.21877	59569
19.22690	58527
19.23502	54397
19.24313	55491
19.25127	51593
19.25938	51749
19.26750	57098
19.27563	55009
19.28375	58515
19.29188	57943
19.30000	62939
19.30812	59479
19.31625	58087
19.32437	54685
19.33250	55291
19.34062	54756
19.34873	60939
19.35687	64822
19.36498	71054
19.37312	74905
19.38123	74160
19.38935	71053
19.39748	65814
19.40560	62080
19.41372	56912
19.42185	56542
19.42997	68726
19.43810	99264
19.44622	122805
19.45433	157321
19.46247	170001
19.47058	166087
19.47872	145132
19.48683	114219
19.49495	84519
19.50308	75536
19.51120	71856
19.51932	72399
19.52745	71262
19.53557	67143
19.54370	67739
19.55182	61417
19.55993	61305
19.56807	56676
19.57618	57206
19.58432	53629
19.59243	50069
19.60055	49403
19.60868	52085
19.61680	48485
19.62493	53817
19.63305	65381
19.64117	76244
19.64930	90081
19.65742	106019
19.66553	116436
19.67367	114011
19.68178	109710
19.68992	107786
19.69803	98195
19.70615	90458
19.71428	82063
19.72240	80586
19.73053	68929
19.73865	72382
19.74677	69243
19.75490	71718
19.76302	71953
19.77115	69680
19.77927	79627
19.78738	89669
19.79552	92596
19.80363	93736
19.81175	89320
19.81988	78349
19.82800	73805
19.83613	67931
19.84425	66138
19.85237	73673
19.86050	103384
19.86862	155761
19.87675	268939
19.88487	391577
19.89298	535249
19.90112	601958
19.90923	596741
19.91735	492223
19.92548	364016
19.93360	268059
19.94173	202795
19.94985	169380
19.95797	151041
19.96610	128304
19.97422	116878
19.98235	118710
19.99047	118294
19.99858	112501
20.00672	113400
20.01483	113571
20.02297	99048
20.03108	97614
20.03920	93219
20.04733	91352
20.05545	102390
20.06357	104774
20.07170	124835
20.07982	126899
20.08795	129282
20.09607	121428
20.10418	105497
20.11232	88889
20.12043	81354
20.12857	79427
20.13668	80458
20.14480	96625
20.15293	136806
20.16105	179594
20.16917	243645
20.17730	314531
20.18542	379339
20.19355	390245
20.20167	376179
20.20978	328701
20.21792	256086
20.22603	209095
20.23417	190362
20.24228	203650
20.25040	238490
20.25853	274618
20.26665	292411
20.27478	294386
20.28290	266905
20.29102	229773
20.29915	179338
20.30727	145348
20.31538	112706
20.32352	91650
20.33163	78314
20.33977	68128
20.34788	62937
20.35600	61498
20.36413	61359
20.37225	55841
20.38038	56552
20.38850	53713
20.39662	61561
20.40475	62094
20.41287	64102
20.42100	64474
20.42912	64598
20.43723	59370
20.44537	63213
20.45348	58357
20.46160	59788
20.46973	62487
20.47785	58922
20.48598	56376
20.49410	52941
20.50222	53581
20.51035	49941
20.51847	48429
20.52660	50147
20.53472	53602
20.54283	47391
20.55097	45564
20.55908	45063
20.56720	45345
20.57533	46225
20.58345	44947
20.59158	47840
20.59970	47218
20.60782	45220
20.61595	45922
20.62407	48015
20.63220	53789
20.64032	50064
20.64843	50238
20.65657	46470
20.66468	47766
20.67282	47418
20.68093	46706
20.68905	43808
20.69718	43284
20.70530	42704
20.71342	44790
20.72155	42857
20.72967	45624
20.73780	47446
20.74592	49498
20.75403	50808
20.76217	54625
20.77028	60187
20.77842	64796
20.78653	88293
20.79465	120906
20.80278	161148
20.81090	201342
20.81903	214406
20.82715	188828
20.83527	155155
20.84340	116801
20.85152	88010
20.85963	73309
20.86777	62185
20.87588	57774
20.88402	59404
20.89213	60429
20.90025	61928
20.90838	66154
20.91650	64449
20.92463	62226
20.93275	63547
20.94087	67181
20.94900	63129
20.95712	59046
20.96523	50739
20.97337	52615
20.98148	45932
20.98962	49110
20.99773	51747
21.00585	46150
21.01398	47763
21.02210	49293
21.03023	50339
21.03835	51589
21.04647	45748
21.05460	48135
21.06272	47982
21.07085	46220
21.07897	51063
21.08708	48073
21.09522	51254
21.10333	46165
21.11145	46912
21.11958	47412
21.12770	56195
21.13583	63819
21.14395	77978
21.15207	86087
21.16020	90285
21.16832	92107
21.17645	76955
21.18457	70877
21.19268	66931
21.20082	62290
21.20893	59279
21.21705	59944
21.22518	60003
21.23330	60475
21.24143	57377
21.24955	59141
21.25767	58864
21.26580	51521
21.27392	55601
21.28205	56186
21.29017	52893
21.29828	50050
21.30642	52894
21.31453	53562
21.32267	53880
21.33078	54369
21.33890	48896
21.34703	49768
21.35515	49238
21.36327	48997
21.37140	53253
21.37952	50910
21.38765	51330
21.39577	61951
21.40388	64832
21.41202	64393
21.42013	62114
21.42827	62788
21.43638	59571
21.44450	56580
21.45263	54077
21.46075	54624
21.46888	50196
21.47700	51033
21.48512	55771
21.49325	50637
21.50137	48929
21.50948	48767
21.51762	51399
21.52573	49144
21.53387	50506
21.54198	46455
21.55010	46105
21.55823	49344
21.56635	47140
21.57448	54426
21.58260	59412
21.59072	62316
21.59885	66690
21.60697	67401
21.61510	63656
21.62322	63191
21.63133	56715
21.63947	57420
21.64758	55898
21.65570	54508
21.66383	55119
21.67195	58504
21.68008	56034
21.68820	52748
21.69632	51688
21.70445	50081
21.71257	44466
21.72070	46820
21.72882	46765
21.73693	47234
21.74507	45661
21.75318	47411
21.76130	46764
21.76943	46767
21.77755	50962
21.78568	53838
21.79380	54427
21.80192	60173
21.81005	49096
21.81817	55222
21.82630	49580
21.83442	51652
21.84253	45940
21.85067	46239
21.85878	44847
21.86692	50458
21.87503	50108
21.88315	46769
21.89128	46768
21.89940	47120
21.90752	54489
21.91565	60023
21.92377	72916
21.93190	81199
21.94002	89592
21.94813	96788
21.95627	92209
21.96438	96154
21.97252	96377
21.98063	98332
21.98875	103667
21.99688	97085
22.00500	99145
22.01312	96134
22.02125	97490
22.02937	99177
22.03750	98633
22.04562	99175
22.05373	92125
22.06187	92162
22.06998	88868
22.07812	93742
22.08623	85029
22.09435	87925
22.10248	87371
22.11060	82696
22.11873	79641
22.12685	75994
22.13497	75819
22.14310	74286
22.15122	71060
22.15933	72582
22.16747	70387
22.17558	73643
22.18372	69915
22.19183	69694
22.19995	65565
22.20808	66120
22.21620	64504
22.22433	60284
22.23245	58828
22.24057	62271
22.24870	60156
22.25682	62231
22.26495	60512
22.27307	67377
22.28118	67056
22.28932	63840
22.29743	63840
22.30555	62215
22.31368	62498
22.32180	67086
22.32993	61286
22.33805	61495
22.34617	60811
22.35430	52932
22.36242	55977
22.37055	55185
22.37867	54934
22.38678	62250
22.39492	73804
22.40303	85467
22.41115	91084
22.41928	92966
22.42740	89565
22.43553	83153
22.44365	74855
22.45177	64874
22.45990	63593
22.46802	66480
22.47615	59796
22.48427	65678
22.49238	74437
22.50052	78820
22.50863	78349
22.51677	73154
22.52488	72830
22.53300	66904
22.54113	63875
22.54925	58663
22.55737	53608
22.56550	55932
22.57362	50444
22.58175	49771
22.58987	48246
22.59798	47192
22.60612	46197
22.61423	44340
22.62237	43100
22.63048	42647
22.63860	47078
22.64673	44623
22.65485	46058
22.66298	49075
22.67110	48979
22.67922	59584
22.68735	64417
22.69547	75058
22.70358	86415
22.71172	93807
22.71983	96206
22.72797	89103
22.73608	79314
22.74420	68026
22.75233	60476
22.76045	58352
22.76858	59442
22.77670	65452
22.78482	69331
22.79295	80217
22.80107	92035
22.80918	89069
22.81732	94531
22.82543	85108
22.83357	73181
22.84168	69128
22.84980	64795
22.85793	62125
22.86605	69234
22.87418	75979
22.88230	84624
22.89042	87940
22.89855	102459
22.90667	105098
22.91480	118184
22.92292	133006
22.93103	130305
22.93917	122755
22.94728	108902
22.95540	96273
22.96353	87933
22.97165	80258
22.97978	66196
22.98790	63838
22.99602	62177
23.00415	58725
23.01227	54753
23.02040	54178
23.02852	53111
23.03663	48760
23.04477	52370
23.05288	49032
23.06100	49302
23.06913	54754
23.07725	47650
23.08538	46275
23.09350	46860
23.10162	48918
23.10975	48950
23.11787	44321
23.12600	46562
23.13412	43419
23.14223	42835
23.15037	43319
23.15848	42374
23.16662	43864
23.17473	44227
23.18285	41528
23.19098	42532
23.19910	43643
23.20722	39721
23.21535	38561
23.22347	43815
23.23160	44729
23.23972	43783
23.24783	42531
23.25597	48941
23.26408	48463
23.27222	46765
23.28033	50052
23.28845	48768
23.29658	45013
23.30470	45706
23.31283	42642
23.32095	47826
23.32907	50737
23.33720	57165
23.34532	58869
23.35343	68605
23.36157	70271
23.36968	72813
23.37782	71776
23.38593	67556
23.39405	62776
23.40218	58817
23.41030	57935
23.41843	55120
23.42655	49079
23.43467	49326
23.44280	43138
23.45092	48005
23.45903	44596
23.46717	45658
23.47528	43540
23.48342	46024
23.49153	43365
23.49965	42602
23.50778	43538
23.51590	45092
23.52403	46199
23.53215	43546
23.54027	45642
23.54840	44106
23.55652	50843
23.56465	58537
23.57277	76658
23.58088	90066
23.58902	102286
23.59713	114925
23.60525	117478
23.61338	108810
23.62150	98142
23.62963	88019
23.63775	76395
23.64587	68582
23.65400	72320
23.66212	70630
23.67025	69551
23.67837	65612
23.68648	62926
23.69462	62816
23.70273	73856
23.71087	84256
23.71898	92434
23.72710	111460
23.73523	128071
23.74335	221472
23.75147	420360
23.75960	823234
23.76772	1524190
23.77585	2267228
23.78397	2730541
23.79208	2870155
23.80022	2515262
23.80833	2027375
23.81647	1520944
23.82458	1174805
23.83270	897311
23.84083	697586
23.84895	564907
23.85707	471940
23.86520	406074
23.87332	360059
23.88145	328208
23.88957	293181
23.89768	279861
23.90582	256972
23.91393	244424
23.92207	219095
23.93018	209652
23.93830	201272
23.94643	191187
23.95455	183159
23.96268	176043
23.97080	158843
23.97892	156685
23.98705	150282
23.99517	150358
24.00328	143208
24.01142	144459
24.01953	144785
24.02767	149388
24.03578	146832
24.04390	136970
24.05203	133433
24.06015	124938
24.06828	125215
24.07640	121180
24.08452	111814
24.09265	110580
24.10077	114435
24.10890	109978
24.11702	107978
24.12513	110723
24.13327	106891
24.14138	118447
24.14950	125919
24.15763	119094
24.16575	118842
24.17388	113812
24.18200	109269
24.19012	117718
24.19825	111123
24.20637	109000
24.21450	96232
24.22262	92071
24.23073	90134
24.23887	85881
24.24698	79890
24.25510	78179
24.26323	78183
24.27135	72138
24.27948	73130
24.28760	70362
24.29572	75370
24.30385	73156
24.31197	78733
24.32010	88129
24.32822	103207
24.33633	130726
24.34447	136295
24.35258	136466
24.36072	129953
24.36883	104505
24.37695	87391
24.38508	76919
24.39320	69486
24.40132	66318
24.40945	64650
24.41757	65775
24.42570	65097
24.43382	68140
24.44193	69485
24.45007	70007
24.45818	74703
24.46632	78972
24.47443	79406
24.48255	80132
24.49068	77455
24.49880	73915
24.50692	75218
24.51505	79199
24.52317	77793
24.53130	89050
24.53942	102356
24.54753	107965
24.55567	113273
24.56378	116988
24.57192	107753
24.58003	97734
24.58815	80711
24.59628	78387
24.60440	66397
24.61253	62937
24.62065	58992
24.62877	57176
24.63690	63806
24.64502	61285
24.65313	57985
24.66127	57494
24.66938	57346
24.67752	54414
24.68563	57309
24.69375	55248
24.70188	55104
24.71000	55353
24.71813	53405
24.72625	57204
24.73437	53320
24.74250	51747
24.75062	55267
24.75875	62517
24.76687	54837
24.77498	57614
24.78312	60259
24.79123	63173
24.79935	57860
24.80748	61778
24.81560	66143
24.82373	68587
24.83185	76037
24.83997	81647
24.84810	98593
24.85622	115684
24.86435	142542
24.87247	160880
24.88058	193014
24.88872	196455
24.89683	183795
24.90495	171615
24.91308	148703
24.92120	138207
24.92933	127719
24.93745	127680
24.94557	129670
24.95370	120850
24.96182	129774
24.96995	119614
24.97807	123209
24.98618	124629
24.99432	126465
25.00243	117469
25.01057	121381
25.01868	112610
25.02680	115892
25.03493	110852
25.04305	110014
25.05117	107643
25.05930	104190
25.06742	107342
25.07555	104069
25.08367	111743
25.09178	129071
25.09992	162599
25.10803	246724
25.11617	411294
25.12428	647629
25.13240	945265
25.14053	1190355
25.14865	1205457
25.15678	1003143
25.16490	745293
25.17302	501231
25.18115	322737
25.18927	215623
25.19738	171502
25.20552	136185
25.21363	119143
25.22177	116949
25.22988	121230
25.23800	136756
25.24613	174420
25.25425	201383
25.26238	234151
25.27050	244899
25.27862	229644
25.28675	209944
25.29487	171341
25.30298	146192
25.31112	118023
25.31923	99565
25.32737	92405
25.33548	90767
25.34360	80881
25.35173	73307
25.35985	72323
25.36798	72337
25.37610	69203
25.38422	71860
25.39235	67138
25.40047	65125
25.40860	66758
25.41672	65672
25.42483	62721
25.43297	70122
25.44108	62569
25.44920	61024
25.45733	57472
25.46545	59273
25.47358	62425
25.48170	62465
25.48982	58774
25.49795	60826
25.50607	55698
25.51420	56603
25.52232	58973
25.53043	58754
25.53857	54621
25.54668	52446
25.55480	53972
25.56293	59410
25.57105	56526
25.57918	55272
25.58730	56178
25.59542	54181
25.60355	52979
25.61167	52379
25.61980	50120
25.62792	53265
25.63603	53784
25.64417	50270
25.65228	50070
25.66042	51630
25.66853	56399
25.67665	55881
25.68478	56836
25.69290	57737
25.70102	55067
25.70915	54178
25.71727	52276
25.72540	52028
25.73352	50389
25.74163	50202
25.74977	48952
25.75788	51924
25.76602	54799
25.77413	48882
25.78225	46795
25.79038	51254
25.79850	50258
25.80663	48002
25.81475	44851
25.82287	49358
25.83100	51170
25.83912	48915
25.84723	49553
25.85537	49046
25.86348	54616
25.87162	50703
25.87973	44127
25.88785	48242
25.89598	43524
25.90410	42941
25.91223	43545
25.92035	41319
25.92847	46653
25.93660	42570
25.94472	48572
25.95283	44348
25.96097	46166
25.96908	45187
25.97722	45062
25.98533	43724
25.99345	41904
26.00158	43385
26.00970	43790
26.01783	42900
26.02595	46270
26.03407	45676
26.04220	43889
26.05032	44706
26.05845	44433
26.06657	48086
26.07468	45034
26.08282	44912
26.09093	47742
26.09905	44693
26.10718	45458
26.11530	47551
26.12343	49757
26.13155	50164
26.13967	54233
26.14780	53738
26.15592	52205
26.16405	48769
26.17217	51380
26.18028	49774
26.18842	46424
26.19653	47605
26.20467	45413
26.21278	45870
26.22090	46487
26.22903	46071
26.23715	42337
26.24527	49233
26.25340	47815
26.26152	42153
26.26965	45281
26.27777	43396
26.28588	40846
26.29402	42893
26.30213	45150
26.31027	41681
26.31838	41091
26.32650	43905
26.33463	44308
26.34275	47067
26.35087	54660
26.35900	66758
26.36712	75903
26.37525	92622
26.38337	111037
26.39148	119145
26.39962	121920
26.40773	113578
26.41587	101333
26.42398	80569
26.43210	68313
26.44023	55002
26.44835	55699
26.45648	45076
26.46460	50188
26.47272	46624
26.48085	48806
26.48897	53715
26.49708	48949
26.50522	45216
26.51333	42437
26.52147	43831
26.52958	46725
26.53770	40613
26.54583	42194
26.55395	46084
26.56208	43186
26.57020	39350
26.57832	40530
26.58645	40015
26.59457	42150
26.60268	40352
26.61082	35795
26.61893	41012
26.62707	41004
26.63518	41658
26.64330	40885
26.65143	41058
26.65955	45763
26.66768	42829
26.67580	41729
26.68392	47321
26.69205	44576
26.70017	44430
26.70830	40489
26.71642	42355
26.72453	46285
26.73267	43487
26.74078	44133
26.74890	43921
26.75703	45571
26.76515	41923
26.77328	42537
26.78140	41670
26.78952	45112
26.79765	45261
26.80577	46389
26.81390	44473
26.82202	45454
26.83013	45300
26.83827	42438
26.84638	42077
26.85452	40053
26.86263	42333
26.87075	40921
26.87888	39672
26.88700	46101
26.89512	43823
26.90325	39788
26.91137	40394
26.91950	37299
26.92762	42166
26.93573	43321
26.94387	51487
26.95198	68859
26.96012	108214
26.96823	168416
26.97635	250241
26.98448	360206
26.99260	464961
27.00073	559055
27.00885	593972
27.01697	548979
27.02510	476646
27.03322	388474
27.04133	307614
27.04947	243654
27.05758	201579
27.06572	163928
27.07383	145808
27.08195	126936
27.09008	118132
27.09820	105655
27.10633	96578
27.11445	93268
27.12257	89705
27.13070	85671
27.13882	81678
27.14693	83346
27.15507	87650
27.16318	89185
27.17132	89020
27.17943	88932
27.18755	84318
27.19568	80235
27.20380	73749
27.21193	69749
27.22005	66142
27.22817	61884
27.23630	59313
27.24442	57285
27.25255	59821
27.26067	52227
27.26878	57272
27.27692	56570
27.28503	54705
27.29315	57419
27.30128	51263
27.30940	54803
27.31753	55578
27.32565	52665
27.33377	54764
27.34190	51932
27.35002	52530
27.35815	51091
27.36627	51566
27.37438	47449
27.38252	48604
27.39063	48670
27.39875	47343
27.40688	47844
27.41500	49189
27.42313	45865
27.43125	45177
27.43937	46729
27.44750	47967
27.45562	46444
27.46375	46513
27.47187	49467
27.47998	46694
27.48812	48543
27.49623	43993
27.50437	40142
27.51248	47563
27.52060	47943
27.52873	48158
27.53685	48032
27.54497	45497
27.55310	46231
27.56122	45779
27.56935	45477
27.57747	49353
27.58558	52732
27.59372	52687
27.60183	53750
27.60997	53073
27.61808	49307
27.62620	47156
27.63433	47193
27.64245	49054
27.65058	42220
27.65870	51162
27.66682	53989
27.67495	54907
27.68307	57696
27.69118	60148
27.69932	59176
27.70743	54645
27.71557	51433
27.72368	50808
27.73180	51151
27.73993	54120
27.74805	52111
27.75618	54030
27.76430	54637
27.77242	54796
27.78055	53667
27.78867	50490
27.79678	47540
27.80492	47011
27.81303	45042
27.82117	45470
27.82928	42799
27.83740	42498
27.84553	43677
27.85365	43492
27.86178	41357
27.86990	40085
27.87802	41094
27.88615	42857
27.89427	43370
27.90240	40882
27.91052	36510
27.91863	35357
27.92677	40701
27.93488	40484
27.94300	38958
27.95113	44778
27.95925	43473
27.96738	45322
27.97550	47389
27.98362	49048
27.99175	53642
27.99987	59594
28.00800	59364
28.01612	67874
28.02423	75725
28.03237	83171
28.04048	91975
28.04862	100538
28.05673	89611
28.06485	83362
28.07298	69141
28.08110	67460
28.08922	58868
28.09735	63442
28.10547	63295
28.11360	65763
28.12172	65997
28.12983	59162
28.13797	60628
28.14608	52443
28.15422	50811
28.16233	47575
28.17045	45384
28.17858	47408
28.18670	46178
28.19482	47855
28.20295	51467
28.21107	49553
28.21920	53690
28.22732	53843
28.23543	53423
28.24357	54732
28.25168	55160
28.25982	64493
28.26793	79838
28.27605	111526
28.28418	134002
28.29230	166000
28.30043	196122
28.30855	219262
28.31667	240721
28.32480	259157
28.33292	246368
28.34103	236437
28.34917	223921
28.35728	197920
28.36542	177536
28.37353	163613
28.38165	135915
28.38978	129769
28.39790	124141
28.40603	108181
28.41415	95149
28.42227	89303
28.43040	79285
28.43852	81440
28.44663	77945
28.45477	73361
28.46288	75356
28.47102	67986
28.47913	72020
28.48725	70356
28.49538	65270
28.50350	69705
28.51163	63668
28.51975	61842
28.52787	62313
28.53600	60265
28.54412	53425
28.55225	58272
28.56037	54042
28.56848	53499
28.57662	51414
28.58473	49698
28.59285	61466
28.60098	51550
28.60910	54265
28.61723	55769
28.62535	54756
28.63347	55666
28.64160	58169
28.64972	56012
28.65785	56163
28.66597	56309
28.67408	53845
28.68222	60667
28.69033	61985
28.69847	71171
28.70658	68248
28.71470	73093
28.72283	76069
28.73095	67121
28.73907	58893
28.74720	53764
28.75532	49761
28.76345	46473
28.77157	44284
28.77968	45635
28.78782	46410
28.79593	48894
28.80407	49290
28.81218	48382
28.82030	47108
28.82843	48062
28.83655	49063
28.84467	44281
28.85280	45127
28.86092	43946
28.86905	47404
28.87717	53609
28.88528	49346
28.89342	52092
28.90153	50595
28.90967	51472
28.91778	50739
28.92590	51815
28.93403	53409
28.94215	48709
28.95028	49005
28.95840	50148
28.96652	48079
28.97465	44310
28.98277	43037
28.99088	43716
28.99902	42301
29.00713	42812
29.01527	42201
29.02338	40692
29.03150	43323
29.03963	42762
29.04775	45258
29.05588	42549
29.06400	48417
29.07212	46351
29.08025	48160
29.08837	42002
29.09650	43062
29.10462	39815
29.11273	43196
29.12087	41103
29.12898	43600
29.13710	40425
29.14523	42447
29.15335	42647
29.16148	39923
29.16960	41582
29.17772	40529
29.18585	43086
29.19397	50938
29.20210	47810
29.21022	54504
29.21833	58080
29.22647	59904
29.23458	60165
29.24270	63332
29.25083	70028
29.25895	69055
29.26708	68005
29.27520	61306
29.28332	57371
29.29145	55331
29.29957	47166
29.30770	46894
29.31582	46711
29.32393	40756
29.33207	44973
29.34018	40309
29.34832	38170
29.35643	41841
29.36455	41657
29.37268	40525
29.38080	41844
29.38892	42041
29.39705	41561
29.40517	41031
29.41330	43035
29.42142	42861
29.42953	44427
29.43767	41207
29.44578	40782
29.45392	41453
29.46203	41668
29.47015	39543
29.47828	37109
29.48640	39850
29.49452	39816
29.50265	43694
29.51077	45379
29.51890	42105
29.52702	37797
29.53513	40508
29.54327	39489
29.55138	38242
29.55952	39113
29.56763	40627
29.57575	44670
29.58388	49034
29.59200	46790
29.60013	52947
29.60825	49960
29.61637	48923
29.62450	43641
29.63262	45178
29.64073	40971
29.64887	39196
29.65698	41759
29.66512	41110
29.67323	38911
29.68135	40935
29.68948	42126
29.69760	38207
29.70573	42827
29.71385	41815
29.72197	36368
29.73010	40429
29.73822	45333
29.74635	42468
29.75447	40925
29.76258	42011
29.77072	40308
29.77883	35757
29.78695	35187
29.79508	38758
29.80320	35414
29.81133	34259
29.81945	37423
29.82757	41757
29.83570	38652
29.84382	37130
29.85195	37355
29.86007	44257
29.86818	42450
29.87632	54318
29.88443	61370
29.89255	71594
29.90068	87650
29.90880	93365
29.91693	102722
29.92505	110231
29.93317	114234
29.94130	117067
29.94942	134483
29.95755	131655
29.96567	138837
29.97378	135284
29.98192	127328
29.99003	134452
29.99817	127407
30.00628	117497
30.01440	111514
30.02253	107026
30.03065	94072
30.03877	94358
30.04690	85110
30.05502	79390
30.06315	81039
30.07127	78217
30.07938	74412
30.08752	73048
30.09563	74955
30.10377	63536
30.11188	66511
30.12000	60042
30.12813	62034
30.13625	59085
30.14438	57143
30.15250	59008
30.16062	59120
30.16875	54826
30.17687	58949
30.18498	63094
30.19312	59291
30.20123	57920
30.20937	58581
30.21748	55231
30.22560	49910
30.23373	49238
30.24185	48193
30.24998	44743
30.25810	46428
30.26622	49908
30.27435	46171
30.28247	47989
30.29058	47386
30.29872	49493
30.30683	45745
30.31497	40116
30.32308	52230
30.33120	46399
30.33933	41572
30.34745	46643
30.35558	45344
30.36370	45573
30.37182	43437
30.37995	43886
30.38807	39327
30.39620	41712
30.40432	43044
30.41243	42522
30.42057	43665
30.42868	42418
30.43680	41697
30.44493	42151
30.45305	42625
30.46118	46483
30.46930	42742
30.47742	42638
30.48555	41277
30.49367	44529
30.50180	39239
30.50992	39480
30.51803	43046
30.52617	46434
30.53428	43097
30.54242	41906
30.55053	37923
30.55865	41900
30.56678	37655
30.57490	39156
30.58302	41783
30.59115	41508
30.59927	44493
30.60740	43232
30.61552	40309
30.62363	39829
30.63177	39906
30.63988	42036
30.64802	41219
30.65613	41668
30.66425	41732
30.67238	38687
30.68050	39907
30.68862	43145
30.69675	38245
30.70487	40643
30.71300	40874
30.72112	38744
30.72923	39194
30.73737	41088
30.74548	42220
30.75362	42798
30.76173	40505
30.76985	49773
30.77798	58614
30.78610	62467
30.79423	70969
30.80235	73309
30.81047	69855
30.81860	72630
30.82672	63846
30.83483	54440
30.84297	49783
30.85108	47859
30.85922	43993
30.86733	44738
30.87545	44757
30.88358	41862
30.89170	47599
30.89983	42124
30.90795	42010
30.91607	41339
30.92420	36866
30.93232	42188
30.94043	38075
30.94857	40671
30.95668	40606
30.96482	39435
30.97293	38836
30.98105	40877
30.98918	41270
30.99730	39986
31.00543	37710
31.01355	37944
31.02167	45021
31.02980	40413
31.03792	38508
31.04605	38257
31.05417	39280
31.06228	40567
31.07042	41234
31.07853	42681
31.08665	45352
31.09478	48099
31.10290	52663
31.11103	51193
31.11915	46907
31.12727	46728
31.13540	46908
31.14352	43523
31.15165	45504
31.15977	46300
31.16788	56282
31.17602	66682
31.18413	84218
31.19227	108578
31.20038	133182
31.20850	140354
31.21663	146566
31.22475	129765
31.23287	113936
31.24100	89351
31.24912	72066
31.25725	56619
31.26537	47771
31.27348	46342
31.28162	47619
31.28973	46597
31.29787	45108
31.30598	41174
31.31410	43813
31.32223	44116
31.33035	40799
31.33847	38609
31.34660	43627
31.35472	46172
31.36285	40831
31.37097	44081
31.37908	40492
31.38722	39346
31.39533	39862
31.40347	38818
31.41158	42837
31.41970	41368
31.42783	37461
31.43595	40596
31.44408	37921
31.45220	39412
31.46032	43040
31.46845	42608
31.47657	41776
31.48468	44077
31.49282	49279
31.50093	46137
31.50907	44489
31.51718	47269
31.52530	44309
31.53343	47549
31.54155	46277
31.54968	48014
31.55780	45494
31.56592	46238
31.57405	43901
31.58217	51678
31.59030	43403
31.59842	45403
31.60653	41919
31.61467	40262
31.62278	38800
31.63090	40976
31.63903	39209
31.64715	40109
31.65528	43139
31.66340	41253
31.67152	46691
31.67965	51354
31.68777	50958
31.69590	53151
31.70402	50386
31.71213	51165
31.72027	49065
31.72838	47652
31.73650	41363
31.74463	33389
31.75275	38536
31.76088	39074
31.76900	39889
31.77712	37410
31.78525	37979
31.79337	43930
31.80150	42959
31.80962	47289
31.81773	41218
31.82587	45314
31.83398	47161
31.84212	56264
31.85023	66610
31.85835	69000
31.86648	79966
31.87460	83024
31.88272	87448
31.89085	97697
31.89897	92911
31.90710	94737
31.91522	92155
31.92333	86415
31.93147	78463
31.93958	78294
31.94772	76736
31.95583	71634
31.96395	72975
31.97208	64552
31.98020	62130
31.98832	61972
31.99645	63717
32.00457	60714
32.01270	61550
32.02082	62958
32.02893	58030
32.03707	52331
32.04518	57711
32.05332	49595
32.06143	53618
32.06955	48925
32.07768	46097
32.08580	49200
32.09393	45949
32.10205	44921
32.11017	47340
32.11830	46807
32.12642	45921
32.13453	46584
32.14267	46513
32.15078	44549
32.15892	45396
32.16703	43349
32.17515	43048
32.18328	45656
32.19140	45107
32.19953	39024
32.20765	44392
32.21577	45064
32.22390	41327
32.23202	42121
32.24015	44870
32.24827	47374
32.25638	45156
32.26452	46055
32.27263	45429
32.28075	45676
32.28888	45279
32.29700	40742
32.30513	43843
32.31325	44284
32.32137	44679
32.32950	45733
32.33762	47849
32.34575	49133
32.35387	48434
32.36198	45220
32.37012	47482
32.37823	49486
32.38637	42191
32.39448	45755
32.40260	47023
32.41073	45569
32.41885	45487
32.42697	41640
32.43510	38195
32.44322	39860
32.45135	38949
32.45947	39349
32.46758	42127
32.47572	41240
32.48383	42815
32.49197	40329
32.50008	42624
32.50820	43198
32.51633	40196
32.52445	41813
32.53257	40942
32.54070	41921
32.54882	42142
32.55695	43993
32.56507	46415
32.57318	46103
32.58132	51960
32.58943	57374
32.59757	59743
32.60568	61248
32.61380	63724
32.62193	59188
32.63005	52889
32.63818	47509
32.64630	49405
32.65442	43467
32.66255	45289
32.67067	41003
32.67878	41824
32.68692	43855
32.69503	46521
32.70317	45603
32.71128	42795
32.71940	44365
32.72753	42273
32.73565	41678
32.74378	39915
32.75190	39932
32.76002	47136
32.76815	45123
32.77627	42500
32.78438	44089
32.79252	45515
32.80063	40293
32.80877	41951
32.81688	42982
32.82500	41462
32.83313	43452
32.84125	38972
32.84938	42059
32.85750	46484
32.86562	44174
32.87375	46053
32.88187	49174
32.89000	52046
32.89812	53814
32.90623	56212
32.91437	51471
32.92248	53091
32.93060	48035
32.93873	44419
32.94685	47313
32.95498	43958
32.96310	47500
32.97122	52638
32.97935	57016
32.98747	62845
32.99560	69730
33.00372	68050
33.01183	64259
33.01997	59621
33.02808	55283
33.03622	51004
33.04433	50884
33.05245	45412
33.06058	50728
33.06870	46253
33.07682	48972
33.08495	54522
33.09307	59105
33.10120	58088
33.10932	62132
33.11743	60485
33.12557	59843
33.13368	55817
33.14182	48626
33.14993	45670
33.15805	48177
33.16618	48453
33.17430	47337
33.18242	44898
33.19055	45152
33.19867	46029
33.20680	45943
33.21492	44523
33.22303	43267
33.23117	47015
33.23928	42197
33.24742	45251
33.25553	41958
33.26365	45884
33.27178	41049
33.27990	45244
33.28803	50299
33.29615	46209
33.30427	43766
33.31240	46407
33.32052	46858
33.32863	50021
33.33677	40005
33.34488	43645
33.35302	47162
33.36113	42741
33.36925	44799
33.37738	46190
33.38550	43956
33.39363	47629
33.40175	41713
33.40987	42630
33.41800	39426
33.42612	42494
33.43425	44320
33.44237	41307
33.45048	41248
33.45862	42624
33.46673	43338
33.47485	43631
33.48298	42771
33.49110	42121
33.49923	42776
33.50735	45748
33.51547	44909
33.52360	44946
33.53172	48938
33.53985	46015
33.54797	47067
33.55608	47474
33.56422	47355
33.57233	44730
33.58045	44765
33.58858	47232
33.59670	41718
33.60483	43872
33.61295	43130
33.62107	44168
33.62920	43754
33.63732	44443
33.64545	48519
33.65357	48903
33.66168	46331
33.66982	44756
33.67793	44802
33.68607	44183
33.69418	45523
33.70230	41748
33.71043	48024
33.71855	45729
33.72667	45886
33.73480	44885
33.74292	46763
33.75105	44323
33.75917	48814
33.76728	46846
33.77542	47656
33.78353	47634
33.79167	47741
33.79978	47973
33.80790	50174
33.81603	52143
33.82415	44301
33.83227	49452
33.84040	48766
33.84852	46294
33.85665	50018
33.86477	47342
33.87288	54629
33.88102	50973
33.88913	55784
33.89727	56246
33.90538	51139
33.91350	51384
33.92163	54803
33.92975	48871
33.93788	48958
33.94600	47286
33.95412	52333
33.96225	48146
33.97037	49320
33.97848	45189
33.98662	47233
33.99473	48843
34.00287	51372
34.01098	44900
34.01910	48736
34.02723	49806
34.03535	48537
34.04348	50392
34.05160	47059
34.05972	53332
34.06785	46386
34.07597	43528
34.08410	45822
34.09222	43455
34.10033	47264
34.10847	45479
34.11658	49950
34.12470	47094
34.13283	45202
34.14095	43776
34.14908	50747
34.15720	47554
34.16532	50749
34.17345	43182
34.18157	44914
34.18970	45051
34.19782	49320
34.20593	45384
34.21407	44954
34.22218	44313
34.23030	43086
34.23843	45384
34.24655	42641
34.25468	43636
34.26280	48455
34.27092	43650
34.27905	43253
34.28717	42959
34.29530	47776
34.30342	48348
34.31153	48865
34.31967	51134
34.32778	47739
34.33592	48295
34.34403	45180
34.35215	48428
34.36028	44574
34.36840	43945
34.37652	48834
34.38465	43567
34.39277	46649
34.40090	47350
34.40902	45660
34.41713	45637
34.42527	43933
34.43338	45479
34.44152	49777
34.44963	51934
34.45775	67803
34.46588	77895
34.47400	87451
34.48213	99798
34.49025	96896
34.49837	101130
34.50650	97404
34.51462	89450
34.52273	86244
34.53087	81344
34.53898	77684
34.54712	73520
34.55523	71727
34.56335	64758
34.57148	67409
34.57960	62715
34.58773	64005
34.59585	60975
34.60397	60550
34.61210	64078
34.62022	60299
34.62833	61892
34.63647	62403
34.64458	58766
34.65272	56048
34.66083	58357
34.66895	58707
34.67708	55174
34.68520	55726
34.69333	56456
34.70145	55275
34.70957	53971
34.71770	51876
34.72582	51473
34.73395	55671
34.74207	56289
34.75018	56908
34.75832	58430
34.76643	51649
34.77455	54506
34.78268	54267
34.79080	53871
34.79893	50859
34.80705	55579
34.81517	50650
34.82330	50696
34.83142	47188
34.83955	52410
34.84767	53815
34.85578	54333
34.86392	47456
34.87203	46731
34.88017	47524
34.88828	49130
34.89640	48578
34.90453	51875
34.91265	52083
34.92077	50858
34.92890	52989
34.93702	50798
34.94515	53507
34.95327	53415
34.96138	58787
34.96952	54219
34.97763	53695
34.98577	52465
34.99388	51201
35.00200	47512
35.01013	47598
35.01825	51232
35.02637	51765
35.03450	53146
35.04262	53026
35.05075	49782
35.05887	50461
35.06698	49414
35.07512	51310
35.08323	54963
35.09137	47086
35.09948	53697
35.10760	50609
35.11573	52746
35.12385	50100
35.13198	49965
35.14010	48255
35.14822	52284
35.15635	48928
35.16447	48859
35.17258	48379
35.18072	49369
35.18883	55574
35.19697	51023
35.20508	47463
35.21320	45747
35.22133	49295
35.22945	50694
35.23758	49427
35.24570	49257
35.25382	52054
35.26195	53376
35.27007	53733
35.27818	51689
35.28632	53561
35.29443	48989
35.30257	51538
35.31068	53661
35.31880	50339
35.32693	54270
35.33505	51979
35.34318	48736
35.35130	47117
35.35942	48870
35.36755	53952
35.37567	59710
35.38380	60601
35.39192	61672
35.40003	62850
35.40817	70547
35.41628	76927
35.42440	71995
35.43253	71564
35.44065	72112
35.44878	66770
35.45690	62769
35.46502	64350
35.47315	58631
35.48127	61603
35.48940	59353
35.49752	58966
35.50563	57035
35.51377	56200
35.52188	60240
35.53002	57470
35.53813	56322
35.54625	57211
35.55438	53758
35.56250	54463
35.57062	58397
35.57875	54275
35.58687	54829
35.59500	56168
35.60312	58354
35.61123	57683
35.61937	52738
35.62748	55972
35.63562	56136
35.64373	51553
35.65185	58279
35.65998	52274
35.66810	55264
35.67622	56777
35.68435	52742
35.69247	57356
35.70060	53017
35.70872	54866
35.71683	54970
35.72497	52203
35.73308	53292
35.74122	59537
35.74933	56048
35.75745	59464
35.76558	54750
35.77370	63273
35.78183	56655
35.78995	52764
35.79807	50399
35.80620	52130
35.81432	54758
35.82243	55849
35.83057	55869
35.83868	52461
35.84682	56247
35.85493	54221
35.86305	55533
35.87118	50864
35.87930	59821
35.88743	54746
35.89555	56546
35.90367	55933
35.91180	54432
35.91992	56575
35.92805	51047
35.93617	54971
35.94428	56223
35.95242	57199
35.96053	55407
35.96865	53696
35.97678	57835
35.98490	54587
35.99303	53276
36.00115	58550
36.00927	58441
36.01740	56547
36.02552	55962
36.03365	56753
36.04177	61855
36.04988	57259
36.05802	59363
36.06613	55566
36.07425	54693
36.08238	56011
36.09050	56244
36.09863	58265
36.10675	55124
36.11487	61432
36.12300	55510
36.13112	55318
36.13925	54519
36.14737	60201
36.15548	60247
36.16362	56902
36.17173	53820
36.17987	58646
36.18798	57639
36.19610	58787
36.20423	52593
36.21235	60905
36.22047	62537
36.22860	65221
36.23672	73680
36.24485	80697
36.25297	79797
36.26108	77737
36.26922	76354
36.27733	70319
36.28547	66355
36.29358	61888
36.30170	65148
36.30983	54431
36.31795	59230
36.32607	63123
36.33420	60719
36.34232	63470
36.35045	62845
36.35857	59854
36.36668	61620
36.37482	63934
36.38293	59749
36.39107	56952
36.39918	61096
36.40730	60762
36.41543	61016
36.42355	61370
36.43168	61107
36.43980	62759
36.44792	57703
36.45605	59808
36.46417	58491
36.47228	60401
36.48042	61102
36.48853	62050
36.49667	68094
36.50478	61512
36.51290	64291
36.52103	61363
36.52915	61492
36.53728	60438
36.54540	61705
36.55352	59887
36.56165	61415
36.56977	62106
36.57790	66520
36.58602	65562
36.59413	63008
36.60227	70294
36.61038	70122
36.61850	68907
36.62663	69495
36.63475	62959
36.64288	65522
36.65100	65868
36.65912	64390
36.66725	65131
36.67537	62066
36.68350	65575
36.69162	68456
36.69973	63441
36.70787	67559
36.71598	70173
36.72410	68909
36.73223	72318
36.74035	69282
36.74848	71443
36.75660	62369
36.76472	67557
36.77285	67644
36.78097	73108
36.78910	71144
36.79722	69544
36.80533	67903
36.81347	72375
36.82158	74067
36.82972	71561
36.83783	73037
36.84595	74681
36.85408	73832
36.86220	72624
36.87032	77368
36.87845	73949
36.88657	72931
36.89470	75601
36.90282	72703
36.91093	72618
36.91907	72452
36.92718	78554
36.93532	80784
36.94343	86196
36.95155	85709
36.95968	87434
36.96780	88839
36.97593	85806
36.98405	86485
36.99217	86503
37.00030	91224
37.00842	101301
37.01653	104419
37.02467	110590
37.03278	117488
37.04092	114031
37.04903	102768
37.05715	97223
37.06528	93469
37.07340	83045
37.08153	78990
37.08965	79533
37.09777	80023
37.10590	79136
37.11402	82265
37.12213	76143
37.13027	80078
37.13838	80848
37.14652	74541
37.15463	82955
37.16275	80063
37.17088	77575
37.17900	79918
37.18713	81628
37.19525	86003
37.20337	76397
37.21150	81643
37.21962	78405
37.22775	87051
37.23587	83494
37.24398	85677
37.25212	98897
37.26023	94539
37.26835	108061
37.27648	118203
37.28460	127968
37.29273	127782
37.30085	127229
37.30897	121602
37.31710	113517
37.32522	114543
37.33335	102553
37.34147	100590
37.34958	99586
37.35772	98005
37.36583	94744
37.37395	95752
37.38208	92239
37.39020	91653
37.39833	91164
37.40645	92540
37.41457	93489
37.42270	91348
37.43082	92205
37.43895	93842
37.44707	93297
37.45518	89254
37.46332	92268
37.47143	89451
37.47957	90894
37.48768	86650
