Z:\data\JTB-E02\BACandBLUE\JTB-E18-006-07.D Thu Apr 11 09:57:08 2019
Start of data points
2.09538,67960
2.10352,67279
2.11163,63575
2.11975,63781
2.12788,59232
2.13600,61752
2.14413,64212
2.15225,66084
2.16037,58741
2.16850,56622
2.17662,59671
2.18473,57642
2.19287,59359
2.20098,58662
2.20912,51662
2.21723,57468
2.22535,56876
2.23348,51712
2.24160,53857
2.24973,58689
2.25785,59497
2.26597,234200
2.27410,1585672
2.28222,2021173
2.29033,899982
2.29847,500709
2.30658,398630
2.31472,385426
2.32283,342769
2.33095,308714
2.33908,271074
2.34720,244214
2.35533,228740
2.36345,206773
2.37157,189647
2.37970,184542
2.38782,176197
2.39595,167447
2.40407,161290
2.41218,158612
2.42032,145794
2.42843,152046
2.43655,148420
2.44468,139996
2.45280,140053
2.46093,135024
2.46905,129369
2.47717,131620
2.48530,126479
2.49342,129080
2.50155,129395
2.50967,119103
2.51778,124533
2.52592,122875
2.53403,110184
2.54215,116759
2.55028,154439
2.55840,345987
2.56653,503042
2.57465,378700
2.58277,274695
2.59090,229605
2.59902,313127
2.60715,1467353
2.61527,2725523
2.62338,1820675
2.63152,977604
2.63963,634762
2.64777,467071
2.65588,358948
2.66400,293410
2.67213,254846
2.68025,227696
2.68837,202265
2.69650,181293
2.70462,169307
2.71275,158360
2.72087,161295
2.72898,139957
2.73712,140916
2.74523,135810
2.75337,131320
2.76148,127997
2.76960,135465
2.77773,272991
2.78585,827969
2.79398,1076551
2.80210,722526
2.81022,502162
2.81835,441293
2.82647,393266
2.83458,327135
2.84272,290659
2.85083,269585
2.85897,239557
2.86708,231068
2.87520,222683
2.88333,201006
2.89145,189855
2.89958,196210
2.90770,182609
2.91582,177513
2.92395,178005
2.93207,161374
2.94018,160866
2.94832,158019
2.95643,171522
2.96457,230698
2.97268,255551
2.98080,210577
2.98893,212311
2.99705,270002
3.00518,293956
3.01330,260607
3.02142,238213
3.02955,211082
3.03767,208162
3.04580,190446
3.05392,195166
3.06203,241995
3.07017,271063
3.07828,584305
3.08640,3397354
3.09453,1.055923E+07
3.10265,1.830543E+07
3.11078,2.500806E+07
3.11890,2.417373E+07
3.12702,1.807123E+07
3.13515,1.32981E+07
3.14327,1.064687E+07
3.15140,8546401
3.15952,6952751
3.16763,5797849
3.17577,4877380
3.18388,4276608
3.19202,4091695
3.20013,4116263
3.20825,3542079
3.21638,2965419
3.22450,2520036
3.23262,2221437
3.24075,1971650
3.24887,1748648
3.25700,1581906
3.26512,1443603
3.27323,1314526
3.28137,1224926
3.28948,1205279
3.29762,1624733
3.30573,2985555
3.31385,4823468
3.32198,5690521
3.33010,5136288
3.33822,4336363
3.34635,3680546
3.35447,3152852
3.36260,2821396
3.37072,2551043
3.37883,2320054
3.38697,2102181
3.39508,1958241
3.40322,1833559
3.41133,1685356
3.41945,1614351
3.42758,1543776
3.43570,1468601
3.44383,1365510
3.45195,1254175
3.46007,1191815
3.46820,1127406
3.47632,1071822
3.48443,1014020
3.49257,958223
3.50068,921035
3.50882,871348
3.51693,844408
3.52505,825466
3.53318,828102
3.54130,822516
3.54943,780673
3.55755,745227
3.56567,723384
3.57380,799730
3.58192,890127
3.59003,838891
3.59817,747472
3.60628,700848
3.61442,683521
3.62253,652856
3.63065,634370
3.63878,619507
3.64690,601760
3.65503,577145
3.66315,799787
3.67127,2595158
3.67940,7821285
3.68752,1.201457E+07
3.69565,1.063096E+07
3.70377,7275984
3.71188,5285426
3.72002,4231398
3.72813,3592699
3.73625,3188126
3.74438,2842809
3.75250,2547481
3.76063,2328202
3.76875,2138797
3.77687,1993332
3.78500,1829644
3.79312,1741252
3.80125,1709451
3.80937,2040094
3.81748,2978957
3.82562,3554951
3.83373,3177632
3.84187,2509201
3.84998,2124111
3.85810,1909315
3.86623,1735718
3.87435,1599334
3.88247,1479734
3.89060,1381577
3.89872,1322056
3.90685,1263727
3.91497,1203959
3.92308,1204320
3.93122,1280611
3.93933,1333636
3.94747,1818212
3.95558,5084665
3.96370,1.457771E+07
3.97183,2.53106E+07
3.97995,2.872826E+07
3.98807,2.357847E+07
3.99620,1.688651E+07
4.00432,1.947458E+07
4.01245,3.763089E+07
4.02057,5.96777E+07
4.02868,7.012011E+07
4.03682,6.494464E+07
4.04493,4.525144E+07
4.05307,2.756175E+07
4.06118,1.856632E+07
4.06930,1.397468E+07
4.07743,1.099004E+07
4.08555,8820948
4.09368,7442754
4.10180,6241282
4.10992,5394446
4.11805,4772796
4.12617,4273433
4.13428,3844957
4.14242,3472348
4.15053,3266509
4.15867,2971958
4.16678,2759028
4.17490,2617429
4.18303,2500146
4.19115,2332794
4.19928,2187945
4.20740,2080876
4.21552,2469522
4.22365,4677389
4.23177,9509920
4.23990,1.40224E+07
4.24802,1.456963E+07
4.25613,1.136652E+07
4.26427,7623629
4.27238,5377457
4.28050,4119190
4.28863,3306446
4.29675,2739477
4.30488,2353404
4.31300,2066911
4.32112,1861039
4.32925,1714577
4.33737,1565198
4.34550,1466706
4.35362,1401192
4.36173,1359928
4.36987,1330976
4.37798,1352778
4.38610,1294074
4.39423,1209213
4.40235,1142760
4.41048,1073845
4.41860,1027948
4.42672,979306
4.43485,965348
4.44297,923468
4.45110,917356
4.45922,886631
4.46733,862402
4.47547,853215
4.48358,825677
4.49172,809817
4.49983,802638
4.50795,778283
4.51608,763222
4.52420,748353
4.53232,718377
4.54045,712495
4.54857,709672
4.55670,697065
4.56482,693236
4.57293,673566
4.58107,653913
4.58918,642998
4.59732,628593
4.60543,625591
4.61355,621308
4.62168,631858
4.62980,657045
4.63793,759809
4.64605,897276
4.65417,978994
4.66230,935647
4.67042,828069
4.67853,759570
4.68667,723403
4.69478,693346
4.70292,668728
4.71103,643198
4.71915,610507
4.72728,603067
4.73540,586728
4.74353,569900
4.75165,548959
4.75977,556393
4.76790,540992
4.77602,528557
4.78413,534352
4.79227,553520
4.80038,710100
4.80852,1026656
4.81663,1337096
4.82475,1313148
4.83288,1111809
4.84100,939125
4.84913,879612
4.85725,817450
4.86537,804498
4.87350,741429
4.88162,723033
4.88975,679886
4.89787,624275
4.90598,611287
4.91412,592785
4.92223,562218
4.93035,567188
4.93848,561591
4.94660,645355
4.95473,914739
4.96285,1526569
4.97097,2358952
4.97910,2962236
4.98722,3047330
4.99535,2691787
5.00347,2263886
5.01158,1942689
5.01972,1684913
5.02783,1537705
5.03595,1428701
5.04408,1420438
5.05220,1403907
5.06033,1335498
5.06845,1228878
5.07657,1152625
5.08470,1080237
5.09282,1036392
5.10095,989402
5.10907,940003
5.11718,898210
5.12532,852833
5.13343,829699
5.14157,792397
5.14968,784620
5.15780,780674
5.16593,806064
5.17405,839694
5.18217,854360
5.19030,834632
5.19842,798558
5.20655,796681
5.21467,800528
5.22278,809194
5.23092,787590
5.23903,745576
5.24717,705364
5.25528,688288
5.26340,639064
5.27153,622842
5.27965,570284
5.28778,561868
5.29590,540889
5.30402,557425
5.31215,531272
5.32027,531642
5.32838,535297
5.33652,556993
5.34463,575698
5.35277,612862
5.36088,606889
5.36900,568294
5.37713,548275
5.38525,523531
5.39338,542702
5.40150,563004
5.40962,571458
5.41775,544075
5.42587,520876
5.43398,493448
5.44212,470977
5.45023,471278
5.45837,488417
5.46648,496685
5.47460,481331
5.48273,469278
5.49085,458853
5.49898,430142
5.50710,436124
5.51522,413217
5.52335,418685
5.53147,432901
5.53960,434211
5.54772,423723
5.55583,428781
5.56397,438979
5.57208,523530
5.58020,625803
5.58833,689813
5.59645,645972
5.60458,587436
5.61270,511939
5.62082,469049
5.62895,450939
5.63707,429980
5.64520,419880
5.65332,434098
5.66143,403953
5.66957,411206
5.67768,396637
5.68582,416338
5.69393,426139
5.70205,423066
5.71018,448043
5.71830,429236
5.72642,415944
5.73455,403018
5.74267,401263
5.75080,390260
5.75892,386396
5.76703,372906
5.77517,377465
5.78328,366866
5.79142,361764
5.79953,364551
5.80765,360388
5.81578,360498
5.82390,363843
5.83202,379797
5.84015,409882
5.84827,450089
5.85640,479184
5.86452,480823
5.87263,450686
5.88077,419733
5.88888,403321
5.89702,375053
5.90513,354878
5.91325,328239
5.92138,306686
5.92950,304270
5.93763,299062
5.94575,303072
5.95387,317588
5.96200,341031
5.97012,360181
5.97823,388468
5.98637,404580
5.99448,433852
6.00262,443944
6.01073,458458
6.01885,487467
6.02698,550517
6.03510,613078
6.04323,602147
6.05135,528716
6.05947,431663
6.06760,372942
6.07572,323907
6.08383,311475
6.09197,297377
6.10008,290272
6.10822,283130
6.11633,276133
6.12445,275675
6.13258,275765
6.14070,333931
6.14883,416601
6.15695,492789
6.16507,523202
6.17320,491804
6.18132,439136
6.18945,389734
6.19757,360902
6.20568,343930
6.21382,321542
6.22193,301501
6.23005,301823
6.23818,294582
6.24630,282031
6.25443,284197
6.26255,298036
6.27067,297076
6.27880,302368
6.28692,298608
6.29505,284430
6.30317,277278
6.31128,272293
6.31942,268908
6.32753,294210
6.33567,361102
6.34378,479145
6.35190,607850
6.36003,623851
6.36815,529736
6.37627,437898
6.38440,369713
6.39252,348971
6.40065,321472
6.40877,302104
6.41688,293952
6.42502,288122
6.43313,273649
6.44127,271870
6.44938,258169
6.45750,257707
6.46563,250477
6.47375,242977
6.48187,252596
6.49000,249536
6.49812,238770
6.50625,235607
6.51437,240995
6.52248,241120
6.53062,238970
6.53873,238127
6.54687,238202
6.55498,228893
6.56310,232081
6.57123,248194
6.57935,281080
6.58748,342160
6.59560,397494
6.60372,391972
6.61185,339318
6.61997,297158
6.62808,268392
6.63622,254356
6.64433,234610
6.65247,240198
6.66058,239903
6.66870,298266
6.67683,357465
6.68495,392983
6.69308,361859
6.70120,326385
6.70932,281556
6.71745,268495
6.72557,255197
6.73370,246996
6.74182,227934
6.74993,230731
6.75807,231827
6.76618,245336
6.77430,228093
6.78243,225056
6.79055,221035
6.79868,232738
6.80680,253639
6.81492,283986
6.82305,311043
6.83117,327235
6.83930,313791
6.84742,283503
6.85553,278323
6.86367,295183
6.87178,323885
6.87990,341864
6.88803,319170
6.89615,265485
6.90428,221262
6.91240,186396
6.92052,171282
6.92865,160875
6.93677,155195
6.94490,156219
6.95302,158545
6.96113,166423
6.96927,175430
6.97738,182206
6.98552,186046
6.99363,180154
7.00175,166619
7.00988,155766
7.01800,144163
7.02612,145965
7.03425,132752
7.04237,138756
7.05050,144799
7.05862,144253
7.06673,155383
7.07487,160385
7.08298,159663
7.09112,150375
7.09923,147647
7.10735,130944
7.11548,129285
7.12360,121778
7.13173,126233
7.13985,126937
7.14797,132062
7.15610,167485
7.16422,221366
7.17233,282136
7.18047,317435
7.18858,308504
7.19672,281627
7.20483,247702
7.21295,232881
7.22108,268390
7.22920,443637
7.23733,868929
7.24545,1501422
7.25357,1871652
7.26170,1816148
7.26982,1315261
7.27793,830521
7.28607,546572
7.29418,392347
7.30232,304598
7.31043,230661
7.31855,188696
7.32668,188492
7.33480,179346
7.34293,193017
7.35105,192797
7.35917,171771
7.36730,166460
7.37542,162150
7.38355,156562
7.39167,153121
7.39978,153654
7.40792,146012
7.41603,153267
7.42415,145980
7.43228,138374
7.44040,139402
7.44853,137726
7.45665,143161
7.46477,137645
7.47290,137444
7.48102,135868
7.48915,136420
7.49727,133866
7.50538,132241
7.51352,127277
7.52163,148508
7.52977,191397
7.53788,289361
7.54600,475812
7.55413,760194
7.56225,1018115
7.57037,1173419
7.57850,1193649
7.58662,1004331
7.59475,814608
7.60287,579210
7.61098,411565
7.61912,309614
7.62723,256951
7.63537,219821
7.64348,187556
7.65160,176977
7.65973,163471
7.66785,153010
7.67597,147071
7.68410,141468
7.69222,131902
7.70035,129630
7.70847,129960
7.71658,128557
7.72472,126525
7.73283,129491
7.74097,124025
7.74908,121316
7.75720,114321
7.76533,116311
7.77345,130855
7.78158,138775
7.78970,148321
7.79782,167385
7.80595,176255
7.81407,195571
7.82218,187173
7.83032,181401
7.83843,168613
7.84657,151578
7.85468,146327
7.86280,140008
7.87093,137952
7.87905,138991
7.88718,148701
7.89530,159095
7.90342,157062
7.91155,153887
7.91967,149053
7.92778,140327
7.93592,134035
7.94403,149620
7.95217,163877
7.96028,182171
7.96840,200634
7.97653,197535
7.98465,214528
7.99278,197451
8.00090,185409
8.00902,170170
8.01715,151170
8.02527,145804
8.03340,140634
8.04152,139159
8.04963,139014
8.05777,140208
8.06588,136265
8.07400,133307
8.08213,133542
8.09025,129353
8.09838,126351
8.10650,123275
8.11462,124545
8.12275,116370
8.13087,113355
8.13900,117066
8.14712,123335
8.15523,126759
8.16337,137336
8.17148,136649
8.17962,130378
8.18773,132348
8.19585,126556
8.20398,119882
8.21210,110746
8.22022,109381
8.22835,115391
8.23647,113812
8.24460,111417
8.25272,120166
8.26083,107124
8.26897,108659
8.27708,105977
8.28522,108052
8.29333,100562
8.30145,114471
8.30958,106098
8.31770,109058
8.32582,113602
8.33395,116136
8.34207,108855
8.35020,116616
8.35832,108202
8.36643,114280
8.37457,121426
8.38268,136061
8.39082,160585
8.39893,168570
8.40705,164438
8.41518,162185
8.42330,137587
8.43143,123419
8.43955,116645
8.44767,109071
8.45580,106953
8.46392,98477
8.47203,104127
8.48017,100122
8.48828,103545
8.49642,103610
8.50453,97708
8.51265,109541
8.52078,111865
8.52890,133975
8.53703,255511
8.54515,589596
8.55327,1290984
8.56140,2157541
8.56952,2635790
8.57765,2507182
8.58577,1836029
8.59388,1144445
8.60202,658686
8.61013,450138
8.61825,398347
8.62638,378005
8.63450,351248
8.64263,299085
8.65075,253603
8.65887,229505
8.66700,194746
8.67512,188654
8.68325,186194
8.69137,180253
8.69948,171429
8.70762,177074
8.71573,181101
8.72385,180217
8.73198,181207
8.74010,165505
8.74823,167392
8.75635,172595
8.76447,163115
8.77260,204972
8.78072,286388
8.78885,420218
8.79697,612491
8.80508,791413
8.81322,826708
8.82133,742564
8.82947,619972
8.83758,491780
8.84570,402151
8.85383,369740
8.86195,367631
8.87007,381082
8.87820,381918
8.88632,372759
8.89445,370397
8.90257,340958
8.91068,331101
8.91882,317203
8.92693,304286
8.93507,286238
8.94318,294527
8.95130,296812
8.95943,318893
8.96755,308089
8.97567,304601
8.98380,282102
8.99192,265709
9.00005,258095
9.00817,251493
9.01628,249660
9.02442,229204
9.03253,229419
9.04067,218894
9.04878,201374
9.05690,212473
9.06503,206910
9.07315,197884
9.08128,195994
9.08940,196598
9.09752,195444
9.10565,195867
9.11377,209613
9.12188,227887
9.13002,226188
9.13813,236456
9.14627,226293
9.15438,212297
9.16250,197812
9.17063,203285
9.17875,199189
9.18688,190166
9.19500,181622
9.20312,179819
9.21125,176502
9.21937,178102
9.22750,177304
9.23562,180226
9.24373,176370
9.25187,180390
9.25998,170359
9.26810,166367
9.27623,165177
9.28435,167121
9.29248,159913
9.30060,162379
9.30872,156406
9.31685,155392
9.32497,150239
9.33310,147179
9.34122,148481
9.34933,152517
9.35747,149263
9.36558,142309
9.37370,137120
9.38183,144780
9.38995,147944
9.39808,150686
9.40620,144760
9.41432,144706
9.42245,162555
9.43057,179136
9.43870,203956
9.44682,223546
9.45493,244015
9.46307,240964
9.47118,215251
9.47932,198150
9.48743,179618
9.49555,160345
9.50368,157072
9.51180,151193
9.51992,153965
9.52805,164674
9.53617,170082
9.54430,183328
9.55242,172470
9.56053,167139
9.56867,161263
9.57678,151200
9.58492,164500
9.59303,170354
9.60115,178143
9.60928,172766
9.61740,156542
9.62553,139654
9.63365,127099
9.64177,109110
9.64990,104962
9.65802,107072
9.66613,94617
9.67427,102228
9.68238,102200
9.69052,97269
9.69863,100579
9.70675,94649
9.71488,94115
9.72300,97443
9.73113,101486
9.73925,94928
9.74737,99678
9.75550,87396
9.76362,90027
9.77173,88179
9.77987,88175
9.78798,83096
9.79612,92041
9.80423,83011
9.81235,85721
9.82048,84738
9.82860,86372
9.83673,85843
9.84485,80274
9.85297,83606
9.86110,82677
9.86922,91033
9.87735,102631
9.88547,104195
9.89358,107910
9.90172,106423
9.90983,99108
9.91795,91027
9.92608,88670
9.93420,93107
9.94233,108704
9.95045,150441
9.95857,208119
9.96670,267939
9.97482,309678
9.98295,298395
9.99107,273835
9.99918,225727
10.00732,206477
10.01543,191139
10.02357,188758
10.03168,190442
10.03980,181401
10.04793,155602
10.05605,147495
10.06417,135431
10.07230,135497
10.08042,133137
10.08855,130188
10.09667,124651
10.10478,127282
10.11292,126383
10.12103,117995
10.12917,119204
10.13728,115656
10.14540,113064
10.15353,105007
10.16165,104126
10.16977,108201
10.17790,108839
10.18602,100555
10.19415,94856
10.20227,101718
10.21038,104302
10.21852,97083
10.22663,99053
10.23477,97668
10.24288,99975
10.25100,109322
10.25913,111220
10.26725,117683
10.27538,165475
10.28350,305308
10.29162,631653
10.29975,1262099
10.30787,2006880
10.31598,2858205
10.32412,3929952
10.33223,5637259
10.34037,7996086
10.34848,1.014973E+07
10.35660,1.081171E+07
10.36473,9379756
10.37285,7011226
10.38098,4960483
10.38910,3753436
10.39722,2993386
10.40535,2358547
10.41347,1755794
10.42158,1328095
10.42972,1032490
10.43783,881781
10.44597,793907
10.45408,740429
10.46220,719152
10.47033,684017
10.47845,643236
10.48658,598273
10.49470,553370
10.50282,521356
10.51095,480583
10.51907,465366
10.52720,438763
10.53532,405683
10.54343,399936
10.55157,385400
10.55968,357572
10.56780,353431
10.57593,338556
10.58405,323918
10.59218,312606
10.60030,296784
10.60842,282698
10.61655,275231
10.62467,278133
10.63280,266681
10.64092,252107
10.64903,251590
10.65717,242870
10.66528,231590
10.67342,227489
10.68153,216988
10.68965,214642
10.69778,207427
10.70590,208358
10.71402,207906
10.72215,208765
10.73027,201899
10.73840,196475
10.74652,189618
10.75463,186967
10.76277,182585
10.77088,176482
10.77902,177712
10.78713,166664
10.79525,169625
10.80338,171451
10.81150,163570
10.81962,163502
10.82775,172647
10.83587,163403
10.84400,156884
10.85212,147279
10.86023,148591
10.86837,142432
10.87648,138666
10.88462,139544
10.89273,140061
10.90085,136497
10.90898,133097
10.91710,133832
10.92523,132355
10.93335,132260
10.94147,133739
10.94960,130238
10.95772,128403
10.96583,127925
10.97397,135766
10.98208,141215
10.99022,137505
10.99833,132629
11.00645,129760
11.01458,133224
11.02270,119613
11.03083,121731
11.03895,121263
11.04707,111374
11.05520,112119
11.06332,109481
11.07145,109757
11.07957,114744
11.08768,113729
11.09582,113120
11.10393,111199
11.11205,114204
11.12018,111496
11.12830,112843
11.13643,107832
11.14455,109257
11.15267,106024
11.16080,96222
11.16892,101808
11.17705,99677
11.18517,94465
11.19328,108238
11.20142,101457
11.20953,105878
11.21765,102955
11.22578,103205
11.23390,94713
11.24203,95610
11.25015,95748
11.25827,90067
11.26640,81145
11.27452,83644
11.28265,80159
11.29077,80013
11.29888,81766
11.30702,91756
11.31513,116360
11.32327,165475
11.33138,252244
11.33950,378899
11.34763,528415
11.35575,615375
11.36387,626822
11.37200,538422
11.38012,414002
11.38825,305734
11.39637,244242
11.40448,205651
11.41262,208469
11.42073,206861
11.42887,194668
11.43698,195932
11.44510,182504
11.45323,168870
11.46135,155745
11.46947,142731
11.47760,142030
11.48572,138968
11.49385,153659
11.50197,176414
11.51008,188327
11.51822,204632
11.52633,202696
11.53447,192949
11.54258,179407
11.55070,155217
11.55883,151587
11.56695,144152
11.57508,138129
11.58320,131790
11.59132,129253
11.59945,117778
11.60757,121132
11.61568,136580
11.62382,160519
11.63193,182598
11.64007,192746
11.64818,187298
11.65630,168901
11.66443,149312
11.67255,139633
11.68068,132134
11.68880,129427
11.69692,127268
11.70505,120004
11.71317,118068
11.72130,112997
11.72942,111563
11.73753,112915
11.74567,116714
11.75378,115059
11.76190,118997
11.77003,108889
11.77815,115367
11.78628,112957
11.79440,100620
11.80252,100010
11.81065,103153
11.81877,100697
11.82690,102494
11.83502,106983
11.84313,104117
11.85127,114174
11.85938,106767
11.86752,105357
11.87563,97213
11.88375,93111
11.89188,95048
11.90000,90498
11.90812,97288
11.91625,113856
11.92437,158404
11.93250,217026
11.94062,283789
11.94873,309013
11.95687,302828
11.96498,269159
11.97312,210415
11.98123,205853
11.98935,294740
11.99748,641636
12.00560,1370517
12.01372,2611489
12.02185,3766727
12.02997,4820374
12.03810,4677076
12.04622,4057477
12.05433,3067175
12.06247,2265370
12.07058,1744950
12.07872,1507434
12.08683,1280957
12.09495,1210786
12.10308,1089101
12.11120,1031251
12.11933,989198
12.12745,960444
12.13557,968374
12.14370,909150
12.15182,896407
12.15993,845687
12.16807,781298
12.17618,770197
12.18432,692863
12.19243,661904
12.20055,638492
12.20868,628068
12.21680,632498
12.22493,595291
12.23305,567790
12.24117,556997
12.24930,535576
12.25742,522771
12.26553,521118
12.27367,501452
12.28178,491557
12.28992,475680
12.29803,453800
12.30615,447793
12.31428,463124
12.32240,421412
12.33053,434292
12.33865,400641
12.34677,392693
12.35490,410249
12.36302,386817
12.37115,380072
12.37927,381095
12.38738,408874
12.39552,407539
12.40363,440128
12.41175,497186
12.41988,517170
12.42800,506500
12.43613,468976
12.44425,442756
12.45237,407774
12.46050,383991
12.46862,379891
12.47675,354512
12.48487,342935
12.49298,337832
12.50112,331047
12.50923,318127
12.51737,309809
12.52548,299958
12.53360,295257
12.54173,291393
12.54985,299899
12.55797,299596
12.56610,322604
12.57422,346509
12.58235,367640
12.59047,355118
12.59858,333349
12.60672,310170
12.61483,282851
12.62297,273089
12.63108,265484
12.63920,262704
12.64733,264399
12.65545,244423
12.66357,234301
12.67170,219506
12.67982,202131
12.68795,175826
12.69607,152818
12.70418,140963
12.71232,131502
12.72043,121886
12.72857,120757
12.73668,118607
12.74480,125289
12.75293,125017
12.76105,124081
12.76918,125068
12.77730,112125
12.78542,107155
12.79355,108888
12.80167,101248
12.80978,104712
12.81792,97711
12.82603,102798
12.83417,99500
12.84228,92302
12.85040,89101
12.85853,86589
12.86665,92809
12.87478,87553
12.88290,83227
12.89102,87940
12.89915,82484
12.90727,86510
12.91540,82634
12.92352,84101
12.93163,86810
12.93977,85180
12.94788,88977
12.95600,107673
12.96413,169170
12.97225,346443
12.98038,822517
12.98850,1494952
12.99662,2150675
13.00475,2391407
13.01287,2100653
13.02100,1532966
13.02912,966072
13.03723,596202
13.04537,413463
13.05348,303250
13.06160,260039
13.06973,221247
13.07785,195190
13.08598,185248
13.09410,164394
13.10222,164570
13.11035,152182
13.11847,140952
13.12660,134863
13.13472,127254
13.14283,119886
13.15097,119986
13.15908,115929
13.16722,118056
13.17533,109324
13.18345,109127
13.19158,108157
13.19970,108955
13.20782,110967
13.21595,114772
13.22407,112483
13.23220,117085
13.24032,108022
13.24843,108491
13.25657,104471
13.26468,102005
13.27282,96730
13.28093,98734
13.28905,94578
13.29718,92182
13.30530,88960
13.31342,87621
13.32155,87331
13.32967,85392
13.33780,81773
13.34592,84242
13.35403,80009
13.36217,85984
13.37028,85138
13.37842,76617
13.38653,82189
13.39465,80327
13.40278,76002
13.41090,82182
13.41903,77419
13.42715,78637
13.43527,70876
13.44340,77498
13.45152,75292
13.45963,74366
13.46777,83674
13.47588,78914
13.48402,78266
13.49213,77440
13.50025,82567
13.50838,77823
13.51650,79018
13.52463,72542
13.53275,78385
13.54087,78910
13.54900,73228
13.55712,84085
13.56525,73808
13.57337,72652
13.58148,71769
13.58962,75960
13.59773,78170
13.60585,75918
13.61398,81504
13.62210,82366
13.63023,78143
13.63835,86413
13.64647,82427
13.65460,80703
13.66272,73424
13.67085,77508
13.67897,71114
13.68708,73379
13.69522,66691
13.70333,69419
13.71145,68386
13.71958,69257
13.72770,70871
13.73583,73220
13.74395,93462
13.75207,134067
13.76020,248467
13.76832,547752
13.77645,1008046
13.78457,1653128
13.79268,2245304
13.80082,2482020
13.80893,2364226
13.81707,2047681
13.82518,1536480
13.83330,1238750
13.84143,1031825
13.84955,976593
13.85767,863966
13.86580,778611
13.87392,724937
13.88205,673249
13.89017,605748
13.89828,568907
13.90642,550693
13.91453,493914
13.92267,464836
13.93078,460739
13.93890,428387
13.94703,407279
13.95515,423703
13.96328,470996
13.97140,609551
13.97952,914713
13.98765,1294983
13.99577,1501491
14.00388,1652603
14.01202,1561723
14.02013,1420270
14.02827,1073832
14.03638,876071
14.04450,731813
14.05263,650133
14.06075,595163
14.06888,560724
14.07700,533953
14.08512,519086
14.09325,504969
14.10137,476066
14.10948,488523
14.11762,469827
14.12573,442617
14.13387,441151
14.14198,458786
14.15010,530861
14.15823,626239
14.16635,700988
14.17448,733263
14.18260,738272
14.19072,679347
14.19885,668677
14.20697,691331
14.21510,762376
14.22322,800717
14.23133,830346
14.23947,807953
14.24758,762615
14.25570,677305
14.26383,604439
14.27195,524848
14.28008,481454
14.28820,439484
14.29632,402281
14.30445,379982
14.31257,356959
14.32070,340968
14.32882,325220
14.33693,314628
14.34507,315603
14.35318,300774
14.36130,287133
14.36943,277572
14.37755,259133
14.38568,241119
14.39380,222069
14.40192,215673
14.41005,214079
14.41817,206613
14.42630,206207
14.43442,197776
14.44253,191592
14.45067,184665
14.45878,171215
14.46692,169247
14.47503,152337
14.48315,148237
14.49128,149154
14.49940,144851
14.50752,142107
14.51565,156196
14.52377,170738
14.53190,198345
14.54002,211648
14.54813,229015
14.55627,219933
14.56438,204355
14.57252,183053
14.58063,165948
14.58875,151433
14.59688,143055
14.60500,133914
14.61313,123483
14.62125,120343
14.62937,119474
14.63750,113306
14.64562,106267
14.65373,101592
14.66187,98443
14.66998,101788
14.67812,103093
14.68623,92572
14.69435,98561
14.70248,96663
14.71060,90957
14.71873,95478
14.72685,96660
14.73497,93343
14.74310,101879
14.75122,104990
14.75933,110068
14.76747,107885
14.77558,111402
14.78372,116792
14.79183,120682
14.79995,131072
14.80808,218671
14.81620,446789
14.82433,952847
14.83245,1786479
14.84057,2731869
14.84870,3436642
14.85682,3354081
14.86495,2819499
14.87307,2111785
14.88118,1502817
14.88932,1079653
14.89743,820406
14.90555,671287
14.91368,561187
14.92180,486240
14.92993,439611
14.93805,401929
14.94617,375610
14.95430,339384
14.96242,309992
14.97055,289009
14.97867,278810
14.98678,267812
14.99492,253111
15.00303,246387
15.01117,237329
15.01928,215000
15.02740,205228
15.03553,199965
15.04365,199871
15.05177,187170
15.05990,182233
15.06802,171650
15.07615,170086
15.08427,170473
15.09238,163251
15.10052,156844
15.10863,153834
15.11677,149836
15.12488,141677
15.13300,138845
15.14113,144780
15.14925,148130
15.15737,149579
15.16550,139735
15.17362,130199
15.18175,122054
15.18987,107176
15.19798,109311
15.20612,97190
15.21423,96086
15.22237,94112
15.23048,90712
15.23860,84059
15.24673,84679
15.25485,82100
15.26298,83360
15.27110,80178
15.27922,79950
15.28735,77095
15.29547,80200
15.30358,76656
15.31172,74889
15.31983,76107
15.32797,79103
15.33608,79178
15.34420,79096
15.35233,74821
15.36045,74999
15.36858,77538
15.37670,73921
15.38482,78901
15.39295,70466
15.40107,71743
15.40920,70029
15.41732,68555
15.42543,72605
15.43357,69853
15.44168,70387
15.44980,71333
15.45793,72855
15.46605,72519
15.47418,71260
15.48230,82147
15.49042,85442
15.49855,97341
15.50667,113950
15.51480,116370
15.52292,127600
15.53103,126435
15.53917,122772
15.54728,119493
15.55540,109054
15.56353,101175
15.57165,99677
15.57978,90611
15.58790,90520
15.59602,85496
15.60415,82837
15.61227,83842
15.62040,85469
15.62852,85758
15.63663,83837
15.64477,79411
15.65288,75782
15.66102,77594
15.66913,79517
15.67725,75854
15.68538,73939
15.69350,72174
15.70162,73129
15.70975,71300
15.71787,67922
15.72600,68616
15.73412,63995
15.74223,68603
15.75037,71275
15.75848,77086
15.76662,85919
15.77473,112695
15.78285,161322
15.79098,219504
15.79910,297989
15.80722,343506
15.81535,342075
15.82347,315514
15.83160,266842
15.83972,217379
15.84783,186579
15.85597,151063
15.86408,139972
15.87222,131900
15.88033,125185
15.88845,117392
15.89658,113555
15.90470,106810
15.91283,101254
15.92095,102277
15.92907,100096
15.93720,102025
15.94532,97257
15.95343,99540
15.96157,110571
15.96968,135368
15.97782,161924
15.98593,189183
15.99405,225634
16.00218,243381
16.01030,230643
16.01843,222195
16.02655,209511
16.03467,192603
16.04280,180460
16.05092,164430
16.05905,161152
16.06717,156679
16.07528,134669
16.08342,128129
16.09153,125266
16.09965,119777
16.10778,113670
16.11590,105693
16.12403,103661
16.13215,102258
16.14027,100788
16.14840,107064
16.15652,104815
16.16465,104495
16.17277,104400
16.18088,105863
16.18902,97642
16.19713,94799
16.20525,90906
16.21338,89373
16.22150,88244
16.22963,85612
16.23775,86823
16.24587,86021
16.25400,87722
16.26212,83882
16.27025,81673
16.27837,86470
16.28648,80925
16.29462,86979
16.30273,87812
16.31087,85305
16.31898,86239
16.32710,81772
16.33523,79031
16.34335,80288
16.35147,81280
16.35960,90268
16.36772,104476
16.37585,126906
16.38397,165445
16.39208,208915
16.40022,256336
16.40833,263788
16.41647,246257
16.42458,217324
16.43270,183924
16.44083,159118
16.44895,142124
16.45708,137069
16.46520,146191
16.47332,192464
16.48145,291519
16.48957,448575
16.49768,630454
16.50582,734738
16.51393,713772
16.52207,591591
16.53018,459061
16.53830,340513
16.54643,255706
16.55455,212369
16.56268,187226
16.57080,166550
16.57892,154051
16.58705,147473
16.59517,142566
16.60328,130897
16.61142,133354
16.61953,124984
16.62767,120248
16.63578,126049
16.64390,115055
16.65203,114650
16.66015,107470
16.66828,104499
16.67640,102805
16.68452,99141
16.69265,102893
16.70077,97944
16.70890,92645
16.71702,97575
16.72513,86726
16.73327,92498
16.74138,84224
16.74950,81415
16.75763,82403
16.76575,75722
16.77388,85955
16.78200,85015
16.79012,80205
16.79825,81206
16.80637,82679
16.81450,75339
16.82262,69241
16.83073,77832
16.83887,74125
16.84698,70879
16.85510,70076
16.86323,71527
16.87135,70902
16.87948,72355
16.88760,81850
16.89572,79960
16.90385,75694
16.91197,70494
16.92010,70682
16.92822,72501
16.93633,64100
16.94447,64822
16.95258,67235
16.96072,70830
16.96883,67589
16.97695,65126
16.98508,60777
16.99320,65620
17.00132,60488
17.00945,59586
17.01757,67403
17.02570,66435
17.03382,59155
17.04193,58401
17.05007,62743
17.05818,63592
17.06632,63185
17.07443,67122
17.08255,69650
17.09068,72200
17.09880,74207
17.10693,69814
17.11505,79559
17.12317,70968
17.13130,75581
17.13942,79432
17.14753,81580
17.15567,78707
17.16378,82186
17.17192,74569
17.18003,74225
17.18815,72447
17.19628,68878
17.20440,73856
17.21253,67804
17.22065,62990
17.22877,65876
17.23690,64506
17.24502,65003
17.25315,60899
17.26127,61502
17.26938,63391
17.27752,66617
17.28563,63828
17.29375,64118
17.30188,71756
17.31000,65069
17.31813,73130
17.32625,74811
17.33437,92915
17.34250,113523
17.35062,129707
17.35875,128136
17.36687,133636
17.37498,125984
17.38312,120009
17.39123,112000
17.39935,107084
17.40748,104346
17.41560,97166
17.42373,95606
17.43185,90889
17.43997,92247
17.44810,92892
17.45622,89319
17.46435,85518
17.47247,86178
17.48058,82051
17.48872,78152
17.49683,72559
17.50497,75630
17.51308,73569
17.52120,70597
17.52933,73115
17.53745,75416
17.54557,74558
17.55370,74041
17.56182,71866
17.56995,72143
17.57807,74048
17.58618,77873
17.59432,92011
17.60243,115351
17.61057,165469
17.61868,231670
17.62680,307314
17.63493,515293
17.64305,3228291
17.65117,1.842364E+07
17.65930,2.622886E+07
17.66742,2.650391E+07
17.67555,2.57706E+07
17.68367,2.435079E+07
17.69178,2.301582E+07
17.69992,2.198651E+07
17.70803,2.045698E+07
17.71617,1.921026E+07
17.72428,1.805651E+07
17.73240,1.665624E+07
17.74053,1.583212E+07
17.74865,1.447164E+07
17.75678,1.328597E+07
17.76490,1.229767E+07
17.77302,1.163325E+07
17.78115,1.090617E+07
17.78927,9990634
17.79738,9268395
17.80552,8850272
17.81363,8404110
17.82177,7739539
17.82988,7169512
17.83800,6766244
17.84613,6445786
17.85425,6281135
17.86238,5966956
17.87050,5604127
17.87862,5325418
17.88675,5025792
17.89487,4765910
17.90300,4531100
17.91112,4332129
17.91923,4114687
17.92737,3964453
17.93548,3723854
17.94360,3644930
17.95173,3493659
17.95985,3338512
17.96798,3189257
17.97610,3046150
17.98422,2930674
17.99235,2811556
18.00047,2724537
18.00860,2625523
18.01672,2532051
18.02483,2467374
18.03297,2369342
18.04108,2300898
18.04920,2249478
18.05733,2194814
18.06545,2146943
18.07358,2106638
18.08170,2209934
18.08982,2421043
18.09795,2792984
18.10607,3073305
18.11420,3171132
18.12232,3101564
18.13043,2889070
18.13857,2600924
18.14668,2387378
18.15482,2206147
18.16293,2084173
18.17105,1964574
18.17918,1866710
18.18730,1793724
18.19542,1725717
18.20355,1620723
18.21167,1539092
18.21980,1487696
18.22792,1449375
18.23603,1365625
18.24417,1319528
18.25228,1279048
18.26042,1239408
18.26853,1213006
18.27665,1144513
18.28478,1079123
18.29290,1052499
18.30103,1010965
18.30915,968082
18.31727,939436
18.32540,898131
18.33352,866730
18.34163,854310
18.34977,840448
18.35788,816593
18.36602,813715
18.37413,781947
18.38225,761546
18.39038,759710
18.39850,748574
18.40663,739359
18.41475,734018
18.42287,712104
18.43100,690719
18.43912,679910
18.44723,693663
18.45537,679297
18.46348,686382
18.47162,710215
18.47973,721256
18.48785,760697
18.49598,756567
18.50410,770727
18.51223,737643
18.52035,703292
18.52847,669208
18.53660,641300
18.54472,620622
18.55285,591194
18.56097,574282
18.56908,557219
18.57722,554462
18.58533,527961
18.59345,531314
18.60158,535019
18.60970,512196
18.61783,514212
18.62595,504782
18.63407,505297
18.64220,489849
18.65032,480832
18.65845,471096
18.66657,463314
18.67468,452586
18.68282,451808
18.69093,439877
18.69905,438546
18.70718,430017
18.71530,418642
18.72343,420799
18.73155,405031
18.73967,400543
18.74780,393074
18.75592,392662
18.76405,386673
18.77217,383730
18.78028,385127
18.78842,373672
18.79653,377593
18.80467,371160
18.81278,373076
18.82090,362461
18.82903,368531
18.83715,355370
18.84527,361082
18.85340,357854
18.86152,350450
18.86965,332619
18.87777,338443
18.88588,340782
18.89402,336610
18.90213,323534
18.91027,335683
18.91838,323972
18.92650,322068
18.93463,329962
18.94275,344165
18.95088,352699
18.95900,379549
18.96712,391728
18.97525,420105
18.98337,408821
18.99148,401038
18.99962,378399
19.00773,365040
19.01587,341675
19.02398,332895
19.03210,317570
19.04023,313475
19.04835,302166
19.05648,300848
19.06460,290924
19.07272,298173
19.08085,304770
19.08897,316043
19.09708,337872
19.10522,382284
19.11333,412083
19.12147,436182
19.12958,442085
19.13770,406808
19.14583,386772
19.15395,367429
19.16208,343996
19.17020,334662
19.17832,328961
19.18645,312328
19.19457,303755
19.20270,301990
19.21082,284747
19.21893,282043
19.22707,276682
19.23518,265527
19.24330,265014
19.25143,253616
19.25955,246210
19.26768,238578
19.27580,239952
19.28392,239646
19.29205,236243
19.30017,243258
19.30830,245981
19.31642,244567
19.32453,243714
19.33267,243855
19.34078,251782
19.34892,245924
19.35703,252229
19.36515,266755
19.37328,289171
19.38140,320601
19.38952,339129
19.39765,344550
19.40577,330623
19.41390,319358
19.42202,290995
19.43013,274106
19.43827,260262
19.44638,249179
19.45452,247030
19.46263,245385
19.47075,231109
19.47888,228825
19.48700,227052
19.49512,238960
19.50325,256842
19.51137,288088
19.51950,341074
19.52762,387106
19.53573,400104
19.54387,377972
19.55198,331850
19.56012,297454
19.56823,254718
19.57635,226469
19.58448,228737
19.59260,211392
19.60073,212694
19.60885,204037
19.61697,198111
19.62510,198283
19.63322,202949
19.64133,232827
19.64947,276827
19.65758,366487
19.66572,530606
19.67383,675939
19.68195,783896
19.69008,851970
19.69820,817283
19.70633,729098
19.71445,611717
19.72257,510709
19.73070,436310
19.73882,373388
19.74693,343804
19.75507,316062
19.76318,278491
19.77132,268357
19.77943,252255
19.78755,239230
19.79568,242158
19.80380,226641
19.81193,237634
19.82005,230769
19.82817,235423
19.83630,225619
19.84442,220096
19.85255,213684
19.86067,220350
19.86878,261554
19.87692,390254
19.88503,644831
19.89315,1079848
19.90128,1591681
19.90940,2128918
19.91753,2420199
19.92565,2405952
19.93377,2208988
19.94190,1830515
19.95002,1503654
19.95815,1270365
19.96627,1065981
19.97438,937609
19.98252,852560
19.99063,793463
19.99877,737835
20.00688,691830
20.01500,647902
20.02313,608784
20.03125,578234
20.03937,535734
20.04750,503118
20.05562,455561
20.06375,413281
20.07187,362005
20.07998,325521
20.08812,302278
20.09623,278664
20.10437,270731
20.11248,267591
20.12060,262688
20.12873,243992
20.13685,234849
20.14497,226465
20.15310,225781
20.16122,232764
20.16935,236207
20.17747,242219
20.18558,264577
20.19372,287921
20.20183,318468
20.20997,346682
20.21808,329526
20.22620,333256
20.23433,316099
20.24245,293121
20.25058,288192
20.25870,296367
20.26682,337626
20.27495,411549
20.28307,518153
20.29118,597103
20.29932,652014
20.30743,647913
20.31557,599801
20.32368,507172
20.33180,434962
20.33993,357418
20.34805,310089
20.35618,269554
20.36430,242278
20.37242,223348
20.38055,212115
20.38867,202538
20.39680,196598
20.40492,195172
20.41303,185415
20.42117,193743
20.42928,196826
20.43740,214613
20.44553,226267
20.45365,241447
20.46178,263021
20.46990,252240
20.47802,254159
20.48615,238302
20.49427,218727
20.50240,213033
20.51052,194243
20.51863,190518
20.52677,176717
20.53488,166838
20.54300,168313
20.55113,160921
20.55925,160264
20.56738,159730
20.57550,153618
20.58362,151717
20.59175,161401
20.59987,151307
20.60800,145297
20.61612,146860
20.62423,150099
20.63237,142165
20.64048,143361
20.64862,139612
20.65673,140666
20.66485,139300
20.67298,142206
20.68110,138420
20.68922,139192
20.69735,138116
20.70547,140108
20.71360,133572
20.72172,133712
20.72983,132732
20.73797,131446
20.74608,135673
20.75422,132066
20.76233,131353
20.77045,140140
20.77858,135764
20.78670,140375
20.79483,147414
20.80295,176074
20.81107,208082
20.81920,257049
20.82732,293947
20.83543,305312
20.84357,295957
20.85168,263761
20.85982,224196
20.86793,186152
20.87605,172034
20.88418,149942
20.89230,144176
20.90043,135871
20.90855,142458
20.91667,144637
20.92480,131985
20.93292,133581
20.94103,132416
20.94917,137804
20.95728,138850
20.96542,130967
20.97353,135650
20.98165,132405
20.98978,128540
20.99790,128029
21.00603,123068
21.01415,122473
21.02227,123244
21.03040,129899
21.03852,123980
21.04665,121318
21.05477,122251
21.06288,124798
21.07102,124280
21.07913,128762
21.08725,133314
21.09538,148469
21.10350,135819
21.11163,133663
21.11975,124653
21.12787,125030
21.13600,129080
21.14412,123286
21.15225,137220
21.16037,139445
21.16848,153994
21.17662,154438
21.18473,154742
21.19285,150737
21.20098,143605
21.20910,139664
21.21723,138757
21.22535,129463
21.23347,130420
21.24160,127098
21.24972,124485
21.25785,124361
21.26597,121133
21.27408,115261
21.28222,122309
21.29033,119577
21.29847,116844
21.30658,116384
21.31470,112556
21.32283,113505
21.33095,112617
21.33907,110218
21.34720,115406
21.35532,113972
21.36345,113760
21.37157,107767
21.37968,108442
21.38782,115967
21.39593,122940
21.40407,120378
21.41218,137816
21.42030,154225
21.42843,160454
21.43655,158648
21.44468,157350
21.45280,152027
21.46092,139549
21.46905,138301
21.47717,136215
21.48528,129107
21.49342,126269
21.50153,121800
21.50967,118477
21.51778,115181
21.52590,123380
21.53403,121262
21.54215,125447
21.55028,122849
21.55840,119885
21.56652,114350
21.57465,112944
21.58277,114113
21.59088,111653
21.59902,112969
21.60713,115306
21.61527,118418
21.62338,123879
21.63150,133148
21.63963,153379
21.64775,159678
21.65588,180428
21.66400,185484
21.67212,179164
21.68025,175444
21.68837,162119
21.69650,150131
21.70462,140961
21.71273,134546
21.72087,124423
21.72898,121222
21.73710,122520
21.74523,120407
21.75335,118458
21.76148,117516
21.76960,118335
21.77772,114199
21.78585,120183
21.79397,116837
21.80210,120322
21.81022,130967
21.81833,130584
21.82647,138215
21.83458,155569
21.84272,161245
21.85083,170812
21.85895,176227
21.86708,164576
21.87520,149582
21.88332,149215
21.89145,126515
21.89957,119182
21.90770,111516
21.91582,108101
21.92393,102686
21.93207,106900
21.94018,99172
21.94832,97501
21.95643,101296
21.96455,93497
21.97268,93411
21.98080,91406
21.98892,92442
21.99705,86820
22.00517,87487
22.01330,88258
22.02142,83406
22.02953,89545
22.03767,80003
22.04578,90606
22.05392,90298
22.06203,84497
22.07015,82608
22.07828,89837
22.08640,85097
22.09453,90179
22.10265,85336
22.11077,82978
22.11890,81629
22.12702,88415
22.13513,84256
22.14327,91723
22.15138,91309
22.15952,86498
22.16763,85885
22.17575,88157
22.18388,90935
22.19200,89045
22.20013,86070
22.20825,83542
22.21637,89301
22.22450,90252
22.23262,93815
22.24073,96721
22.24887,102406
22.25698,95210
22.26512,97635
22.27323,85147
22.28135,86736
22.28948,86209
22.29760,80990
22.30573,88910
22.31385,85433
22.32197,96252
22.33010,94063
22.33822,95681
22.34635,89908
22.35447,92891
22.36258,86403
22.37072,85198
22.37883,85458
22.38695,86076
22.39508,89121
22.40320,93492
22.41133,97108
22.41945,112416
22.42757,128387
22.43570,140897
22.44382,152828
22.45195,148147
22.46007,144031
22.46818,136138
22.47632,142769
22.48443,131152
22.49257,125910
22.50068,125536
22.50880,131802
22.51693,136158
22.52505,131128
22.53317,133148
22.54130,133166
22.54942,131728
22.55755,123747
22.56567,129875
22.57378,127076
22.58192,115153
22.59003,118977
22.59817,112247
22.60628,116608
22.61440,106036
22.62253,106100
22.63065,101256
22.63878,101775
22.64690,110023
22.65502,104128
22.66315,106848
22.67127,105119
22.67938,106207
22.68752,107029
22.69563,103270
22.70377,107929
22.71188,110477
22.72000,108406
22.72813,107323
22.73625,108986
22.74438,110215
22.75250,103375
22.76062,107760
22.76875,104889
22.77687,104077
22.78498,107897
22.79312,105577
22.80123,101355
22.80937,101796
22.81748,102436
22.82560,103772
22.83373,100575
22.84185,106356
22.84998,101484
22.85810,101288
22.86622,106415
22.87435,97522
22.88247,99030
22.89060,101530
22.89872,112406
22.90683,127712
22.91497,135569
22.92308,166533
22.93120,197787
22.93933,222903
22.94745,244771
22.95558,237776
22.96370,226838
22.97182,219918
22.97995,193820
22.98807,174649
22.99620,174118
23.00432,154954
23.01243,158343
23.02057,140819
23.02868,124449
23.03680,117514
23.04493,110365
23.05305,106551
23.06118,98986
23.06930,101882
23.07742,100834
23.08555,104688
23.09367,108910
23.10180,116103
23.10992,115347
23.11803,114976
23.12617,118020
23.13428,118892
23.14242,121338
23.15053,128509
23.15865,117845
23.16678,122007
23.17490,117786
23.18302,116806
23.19115,122759
23.19927,118927
23.20740,120387
23.21552,125357
23.22363,129284
23.23177,124358
23.23988,117888
23.24802,116131
23.25613,121832
23.26425,130263
23.27238,127336
23.28050,136004
23.28863,129905
23.29675,136972
23.30487,123318
23.31300,129954
23.32112,124481
23.32923,118524
23.33737,124718
23.34548,133582
23.35362,144010
23.36173,165565
23.36985,202292
23.37798,228147
23.38610,272320
23.39423,312591
23.40235,344547
23.41047,391331
23.41860,426789
23.42672,452899
23.43483,461658
23.44297,469707
23.45108,487495
23.45922,456818
23.46733,454060
23.47545,437378
23.48358,405156
23.49170,381314
23.49983,363347
23.50795,351976
23.51607,334423
23.52420,308401
23.53232,298040
23.54045,282889
23.54857,265591
23.55668,256097
23.56482,247963
23.57293,242772
23.58105,249095
23.58918,251218
23.59730,274188
23.60543,297439
23.61355,318736
23.62167,315984
23.62980,305696
23.63792,288581
23.64605,261134
23.65417,238220
23.66228,220252
23.67042,216843
23.67853,202846
23.68667,189949
23.69478,184354
23.70290,166302
23.71103,168876
23.71915,159501
23.72727,151526
23.73540,149843
23.74352,161418
23.75165,218602
23.75977,396394
23.76788,850052
23.77602,1846546
23.78413,3402219
23.79227,5301918
23.80038,6408128
23.80850,6419203
23.81663,5477259
23.82475,4350876
23.83287,3104895
23.84100,2164743
23.84912,1624567
23.85725,1237948
23.86537,983215
23.87348,839349
23.88162,710327
23.88973,631076
23.89787,560173
23.90598,498593
23.91410,472961
23.92223,446216
23.93035,427288
23.93848,406712
23.94660,374459
23.95472,351475
23.96285,335039
23.97097,324289
23.97908,302047
23.98722,292110
23.99533,295116
24.00347,333621
24.01158,472207
24.01970,792398
24.02783,1341870
24.03595,1970516
24.04408,2528873
24.05220,2584470
24.06032,2249626
24.06845,1668058
24.07657,1081534
24.08468,696658
24.09282,453960
24.10093,332087
24.10907,267715
24.11718,244186
24.12530,228404
24.13343,224653
24.14155,224347
24.14968,228879
24.15780,225169
24.16592,227182
24.17405,202154
24.18217,204334
24.19030,198142
24.19842,191280
24.20653,187799
24.21467,188352
24.22278,188218
24.23090,196756
24.23903,189875
24.24715,181672
24.25528,173834
24.26340,168558
24.27152,161073
24.27965,145300
24.28777,146749
24.29590,147808
24.30402,143084
24.31213,139613
24.32027,149451
24.32838,140793
24.33652,142496
24.34463,140611
24.35275,135665
24.36088,136792
24.36900,133491
24.37712,130793
24.38525,138691
24.39337,146865
24.40150,162299
24.40962,184228
24.41773,201789
24.42587,197864
24.43398,195369
24.44212,167826
24.45023,157119
24.45835,144773
24.46648,142695
24.47460,137893
24.48272,133585
24.49085,142697
24.49897,144928
24.50710,152627
24.51522,153217
24.52333,158839
24.53147,159798
24.53958,155440
24.54772,153950
24.55583,155361
24.56395,147882
24.57208,138433
24.58020,137401
24.58833,132856
24.59645,129373
24.60457,134833
24.61270,122627
24.62082,122506
24.62893,122638
24.63707,120822
24.64518,123113
24.65332,118835
24.66143,125302
24.66955,129494
24.67768,119812
24.68580,118171
24.69393,119676
24.70205,111707
24.71017,111153
24.71830,109412
24.72642,110693
24.73455,105804
24.74267,110589
24.75078,121217
24.75892,136938
24.76703,150137
24.77515,153472
24.78328,155619
24.79140,171481
24.79953,167427
24.80765,164364
24.81577,170618
24.82390,165029
24.83202,169860
24.84015,182163
24.84827,184237
24.85638,209526
24.86452,237797
24.87263,286446
24.88075,378131
24.88888,473875
24.89700,554006
24.90513,592462
24.91325,591579
24.92137,520394
24.92950,437892
24.93762,346779
24.94575,279102
24.95387,240027
24.96198,213065
24.97012,196417
24.97823,186137
24.98637,182691
24.99448,178752
25.00260,183000
25.01073,180375
25.01885,182848
25.02697,176811
25.03510,176892
25.04322,178695
25.05135,177719
25.05947,171422
25.06758,172432
25.07572,173221
25.08383,170517
25.09197,181668
25.10008,187319
25.10820,205848
25.11633,279833
25.12445,414114
25.13258,701138
25.14070,1105318
25.14882,1518196
25.15695,1836897
25.16507,1847330
25.17318,1725823
25.18132,1351867
25.18943,980530
25.19757,676440
25.20568,473835
25.21380,352417
25.22193,276189
25.23005,242728
25.23818,227078
25.24630,219450
25.25442,231694
25.26255,247195
25.27067,266681
25.27878,277012
25.28692,275786
25.29503,265235
25.30317,253324
25.31128,221196
25.31940,198802
25.32753,187128
25.33565,176824
25.34378,176154
25.35190,172465
25.36002,163607
25.36815,160019
25.37627,162762
25.38440,153879
25.39252,155728
25.40063,156176
25.40877,152357
25.41688,150534
25.42500,152976
25.43313,152811
25.44125,147689
25.44938,147959
25.45750,146242
25.46562,146858
25.47375,152580
25.48187,150170
25.49000,150359
25.49812,155373
25.50623,152756
25.51437,150691
25.52248,144244
25.53060,154588
25.53873,134331
25.54685,137053
25.55498,136846
25.56310,132871
25.57122,132231
25.57935,136505
25.58747,131495
25.59560,132303
25.60372,124157
25.61183,128541
25.61997,132111
25.62808,127187
25.63622,123209
25.64433,118250
25.65245,118489
25.66058,119137
25.66870,117554
25.67682,108348
25.68495,112949
25.69307,121275
25.70120,107722
25.70932,104875
25.71743,99341
25.72557,103632
25.73368,102878
25.74182,99180
25.74993,93804
25.75805,101447
25.76618,110401
25.77430,138025
25.78243,169786
25.79055,206368
25.79867,230142
25.80680,227462
25.81492,210796
25.82303,167780
25.83117,143544
25.83928,133548
25.84742,133021
25.85553,138253
25.86365,134429
25.87178,133505
25.87990,124936
25.88803,121623
25.89615,109369
25.90427,102613
25.91240,99912
25.92052,96316
25.92863,86698
25.93677,89633
25.94488,90264
25.95302,85888
25.96113,88157
25.96925,83042
25.97738,88298
25.98550,86481
25.99363,82797
26.00175,82261
26.00987,80118
26.01800,78061
26.02612,81427
26.03425,83028
26.04237,80244
26.05048,83059
26.05862,83057
26.06673,88080
26.07485,94959
26.08298,98284
26.09110,107124
26.09923,119426
26.10735,127717
26.11547,132780
26.12360,134008
26.13172,139194
26.13985,141254
26.14797,143737
26.15608,138847
26.16422,139862
26.17233,141826
26.18047,139376
26.18858,145458
26.19670,135219
26.20483,147922
26.21295,143812
26.22107,142493
26.22920,138229
26.23732,137098
26.24545,140911
26.25357,133376
26.26168,140085
26.26982,137426
26.27793,139680
26.28607,135357
26.29418,139230
26.30230,137679
26.31043,134612
26.31855,137397
26.32667,140369
26.33480,133169
26.34292,137490
26.35105,126827
26.35917,136694
26.36728,137767
26.37542,137167
26.38353,147194
26.39167,156223
26.39978,168669
26.40790,171312
26.41603,179598
26.42415,170649
26.43228,167006
26.44040,166090
26.44852,164617
26.45665,144720
26.46477,141421
26.47288,146223
26.48102,140892
26.48913,140976
26.49727,138564
26.50538,133369
26.51350,130335
26.52163,124773
26.52975,120630
26.53788,120190
26.54600,113856
26.55412,117254
26.56225,122215
26.57037,118011
26.57848,117287
26.58662,117993
26.59473,116859
26.60287,113834
26.61098,120513
26.61910,115143
26.62723,111916
26.63535,113103
26.64348,111269
26.65160,111048
26.65972,116710
26.66785,118531
26.67597,119385
26.68410,120335
26.69222,114872
26.70033,120010
26.70847,115833
26.71658,111735
26.72470,110817
26.73283,105696
26.74095,105917
26.74908,109403
26.75720,103502
26.76532,111981
26.77345,104115
26.78157,110053
26.78970,110123
26.79782,110119
26.80593,110487
26.81407,108751
26.82218,120828
26.83032,115358
26.83843,114113
26.84655,110030
26.85468,119233
26.86280,114853
26.87092,106813
26.87905,107711
26.88717,112614
26.89530,105800
26.90342,108786
26.91153,103817
26.91967,102141
26.92778,101832
26.93592,103517
26.94403,109954
26.95215,105523
26.96028,110250
26.96840,122168
26.97653,141463
26.98465,186876
26.99277,291990
27.00090,493347
27.00902,760102
27.01713,1097309
27.02527,1378637
27.03338,1602851
27.04152,1612686
27.04963,1484090
27.05775,1195013
27.06588,952050
27.07400,729111
27.08213,572540
27.09025,476504
27.09837,408364
27.10650,342985
27.11462,312679
27.12273,275105
27.13087,259943
27.13898,238463
27.14712,221981
27.15523,216559
27.16335,206213
27.17148,199890
27.17960,187273
27.18773,190141
27.19585,171131
27.20397,171824
27.21210,164954
27.22022,174037
27.22835,164983
27.23647,150491
27.24458,159664
27.25272,144574
27.26083,142628
27.26895,146974
27.27708,143675
27.28520,137385
27.29333,134029
27.30145,124883
27.30957,131328
27.31770,121983
27.32582,122408
27.33395,112494
27.34207,119930
27.35018,120000
27.35832,114943
27.36643,114024
27.37455,121209
27.38268,116486
27.39080,115947
27.39893,110319
27.40705,112245
27.41517,108563
27.42330,105414
27.43142,100513
27.43955,106875
27.44767,104500
27.45578,106570
27.46392,99306
27.47203,100195
27.48017,101430
27.48828,98812
27.49640,95518
27.50453,104211
27.51265,92206
27.52077,97371
27.52890,95586
27.53702,97333
27.54515,102112
27.55327,94349
27.56138,101416
27.56952,101619
27.57763,95777
27.58577,101637
27.59388,110254
27.60200,109822
27.61013,120856
27.61825,114909
27.62637,113521
27.63450,106607
27.64262,99422
27.65075,95715
27.65887,93938
27.66698,96335
27.67512,84154
27.68323,83750
27.69137,86035
27.69948,85737
27.70760,87836
27.71573,88227
27.72385,86272
27.73198,87149
27.74010,86048
27.74822,82508
27.75635,81762
27.76447,80992
27.77258,84276
27.78072,87372
27.78883,85167
27.79697,88303
27.80508,84420
27.81320,83952
27.82133,86682
27.82945,80709
27.83758,78765
27.84570,83179
27.85382,83536
27.86195,83421
27.87007,77524
27.87820,79357
27.88632,75654
27.89443,73147
27.90257,74313
27.91068,78421
27.91880,76094
27.92693,73083
27.93505,78688
27.94318,77389
27.95130,75425
27.95942,77502
27.96755,72559
27.97567,72417
27.98380,74975
27.99192,76174
28.00003,76510
28.00817,77628
28.01628,73189
28.02442,74209
28.03253,75585
28.04065,79287
28.04878,79790
28.05690,78988
28.06502,78063
28.07315,81594
28.08127,77819
28.08940,77468
28.09752,79939
28.10563,83545
28.11377,85908
28.12188,80808
28.13002,81117
28.13813,80990
28.14625,76722
28.15438,72235
28.16250,73072
28.17062,73919
28.17875,72905
28.18687,74088
28.19500,84751
28.20312,92471
28.21123,94781
28.21937,106962
28.22748,118473
28.23562,117457
28.24373,118343
28.25185,105275
28.25998,91261
28.26810,94967
28.27623,87284
28.28435,82402
28.29247,75715
28.30060,79144
28.30872,81252
28.31683,82781
28.32497,90141
28.33308,92191
28.34122,100942
28.34933,107119
28.35745,119473
28.36558,133530
28.37370,145850
28.38183,157514
28.38995,170764
28.39807,173332
28.40620,175630
28.41432,170523
28.42243,166355
28.43057,159742
28.43868,143764
28.44682,136739
28.45493,130225
28.46305,115293
28.47118,114071
28.47930,112860
28.48743,107099
28.49555,103880
28.50367,107130
28.51180,97208
28.51992,105477
28.52805,99237
28.53617,97635
28.54428,95688
28.55242,95658
28.56053,89949
28.56865,90805
28.57678,91251
28.58490,91093
28.59303,85305
28.60115,92141
28.60927,89434
28.61740,84843
28.62552,90337
28.63365,93585
28.64177,95606
28.64988,85494
28.65802,95922
28.66613,97578
28.67427,94169
28.68238,100089
28.69050,94155
28.69863,97189
28.70675,88920
28.71487,88449
28.72300,87102
28.73112,83349
28.73925,86626
28.74737,84235
28.75548,84460
28.76362,89127
28.77173,94423
28.77987,104827
28.78798,110426
28.79610,115446
28.80423,116407
28.81235,109951
28.82047,104020
28.82860,98214
28.83672,94992
28.84485,93560
28.85297,92505
28.86108,88181
28.86922,88623
28.87733,84388
28.88547,85914
28.89358,86048
28.90170,83730
28.90983,89005
28.91795,86975
28.92608,87633
28.93420,83241
28.94232,82732
28.95045,86236
28.95857,91345
28.96668,88805
28.97482,85429
28.98293,83924
28.99107,86308
28.99918,83277
29.00730,74492
29.01543,82810
29.02355,76422
29.03168,72303
29.03980,76001
29.04792,76531
29.05605,81067
29.06417,78523
29.07230,72889
29.08042,77491
29.08853,81703
29.09667,80993
29.10478,81794
29.11290,78791
29.12103,74318
29.12915,77150
29.13728,75282
29.14540,72407
29.15352,72116
29.16165,72245
29.16977,77795
29.17790,71371
29.18602,74930
29.19413,74769
29.20227,78702
29.21038,84257
29.21850,85993
29.22663,91480
29.23475,95078
29.24288,99008
29.25100,101339
29.25912,110585
29.26725,122598
29.27537,128392
29.28350,129869
29.29162,114647
29.29973,112445
29.30787,102813
29.31598,101357
29.32412,82891
29.33223,81743
29.34035,78356
29.34848,74070
29.35660,75855
29.36472,70512
29.37285,75741
29.38097,73289
29.38910,78934
29.39722,68938
29.40533,72471
29.41347,76368
29.42158,74685
29.42972,77064
29.43783,69214
29.44595,75700
29.45408,72195
29.46220,74168
29.47032,72139
29.47845,71730
29.48657,67909
29.49470,75543
29.50282,78257
29.51093,80120
29.51907,81285
29.52718,83840
29.53532,83225
29.54343,79299
29.55155,83689
29.55968,75258
29.56780,74181
29.57593,78470
29.58405,76953
29.59217,76487
29.60030,75297
29.60842,77742
29.61653,74901
29.62467,74428
29.63278,68728
29.64092,71832
29.64903,68617
29.65715,71102
29.66528,71171
29.67340,70463
29.68153,69701
29.68965,72270
29.69777,72240
29.70590,73001
29.71402,72139
29.72215,66732
29.73027,72728
29.73838,72880
29.74652,68542
29.75463,67017
29.76275,70052
29.77088,66265
29.77900,62096
29.78713,66680
29.79525,67010
29.80337,64183
29.81150,63136
29.81962,66740
29.82775,64128
29.83587,63923
29.84398,70511
29.85212,63968
29.86023,68106
29.86835,69955
29.87648,67662
29.88460,75161
29.89273,73766
29.90085,89680
29.90897,93129
29.91710,95302
29.92522,86160
29.93335,81413
29.94147,76234
29.94958,77938
29.95772,70639
29.96583,70568
29.97397,70912
29.98208,76246
29.99020,78555
29.99833,84063
30.00645,94382
30.01457,87507
30.02270,97879
30.03082,104359
30.03895,104330
30.04707,104912
30.05518,104433
30.06332,110225
30.07143,111613
30.07957,107666
30.08768,108562
30.09580,109147
30.10393,106022
30.11205,105604
30.12018,104619
30.12830,102072
30.13642,94758
30.14455,94163
30.15267,94615
30.16078,89340
30.16892,90251
30.17703,88500
30.18517,87396
30.19328,84694
30.20140,86580
30.20953,84222
30.21765,81029
30.22578,81937
30.23390,80088
30.24202,84225
30.25015,84853
30.25827,71978
30.26638,72102
30.27452,75074
30.28263,73404
30.29077,71359
30.29888,71262
30.30700,69754
30.31513,66708
30.32325,71933
30.33138,69850
30.33950,66664
30.34762,71460
30.35575,68966
30.36387,69071
30.37200,72413
30.38012,67744
30.38823,71174
30.39637,70934
30.40448,63508
30.41260,64739
30.42073,69503
30.42885,67859
30.43698,66221
30.44510,67916
30.45322,65633
30.46135,69763
30.46947,66209
30.47760,67616
30.48572,69401
30.49383,70054
30.50197,75418
30.51008,72088
30.51822,68881
30.52633,67949
30.53445,70569
30.54258,68099
30.55070,70005
30.55882,66085
30.56695,66311
30.57507,66625
30.58320,72110
30.59132,64966
30.59943,66326
30.60757,66516
30.61568,68143
30.62382,65862
30.63193,62946
30.64005,63980
30.64818,64065
30.65630,68467
30.66442,67178
30.67255,64147
30.68067,63525
30.68880,67814
30.69692,66996
30.70503,69917
30.71317,64504
30.72128,67204
30.72942,60732
30.73753,67127
30.74565,62464
30.75378,63184
30.76190,62828
30.77003,63377
30.77815,63008
30.78627,65045
30.79440,72289
30.80252,79571
30.81063,80614
30.81877,83951
30.82688,85523
30.83502,87491
30.84313,80966
30.85125,71482
30.85938,70648
30.86750,68159
30.87563,64888
30.88375,67366
30.89187,68428
30.90000,63349
30.90812,62344
30.91623,66400
30.92437,62419
30.93248,62815
30.94062,61045
30.94873,61084
30.95685,63585
30.96498,62734
30.97310,67586
30.98123,61780
30.98935,66051
30.99747,65013
31.00560,62678
31.01372,66819
31.02185,60954
31.02997,58990
31.03808,65946
31.04622,60659
31.05433,60445
31.06245,61416
31.07058,64597
31.07870,64196
31.08683,70796
31.09495,77784
31.10307,86441
31.11120,89142
31.11932,94383
31.12745,89360
31.13557,83374
31.14368,74395
31.15182,77294
31.15993,75650
31.16807,70228
31.17618,78503
31.18430,76930
31.19243,76421
31.20055,92235
31.20867,108993
31.21680,115422
31.22492,134719
31.23305,136992
31.24117,132083
31.24928,127446
31.25742,111074
31.26553,101155
31.27367,87794
31.28178,84928
31.28990,78731
31.29803,75779
31.30615,70060
31.31427,74808
31.32240,70651
31.33052,67814
31.33865,64405
31.34677,68259
31.35488,63365
31.36302,67008
31.37113,65976
31.37927,68093
31.38738,65615
31.39550,73373
31.40363,66188
31.41175,69704
31.41988,61109
31.42800,68372
31.43612,68262
31.44425,63258
31.45237,63577
31.46048,67029
31.46862,68392
31.47673,62668
31.48487,66420
31.49298,65849
31.50110,65059
31.50923,65994
31.51735,66219
31.52548,67053
31.53360,73764
31.54172,71324
31.54985,67827
31.55797,66452
31.56610,70083
31.57422,68455
31.58233,65055
31.59047,69524
31.59858,71871
31.60670,71142
31.61483,68027
31.62295,69582
31.63108,71172
31.63920,70966
31.64732,74241
31.65545,72460
31.66357,72846
31.67170,70729
31.67982,70882
31.68793,74177
31.69607,71809
31.70418,68763
31.71230,69158
31.72043,63390
31.72855,75134
31.73668,70634
31.74480,66978
31.75292,67057
31.76105,65237
31.76917,66685
31.77730,66017
31.78542,67991
31.79353,66984
31.80167,70431
31.80978,67528
31.81792,71682
31.82603,68744
31.83415,72063
31.84228,70995
31.85040,65063
31.85852,67544
31.86665,67708
31.87477,64377
31.88290,62905
31.89102,70704
31.89913,72381
31.90727,70806
31.91538,72430
31.92352,74530
31.93163,81392
31.93975,79296
31.94788,90756
31.95600,92697
31.96412,90546
31.97225,97063
31.98037,103825
31.98850,100726
31.99662,113687
32.00473,108240
32.01287,109433
32.02098,104821
32.02912,104066
32.03723,95699
32.04535,98059
32.05348,97720
32.06160,91118
32.06973,95321
32.07785,91556
32.08597,93687
32.09410,95614
32.10222,91659
32.11033,83975
32.11847,88205
32.12658,77398
32.13472,79776
32.14283,82293
32.15095,76819
32.15908,72152
32.16720,73290
32.17533,72853
32.18345,70955
32.19157,72259
32.19970,70070
32.20782,71835
32.21595,76239
32.22407,67438
32.23218,71488
32.24032,75140
32.24843,70667
32.25655,80282
32.26468,83845
32.27280,86999
32.28093,89809
32.28905,90401
32.29717,87887
32.30530,88882
32.31342,79115
32.32155,76973
32.32967,72062
32.33778,74306
32.34592,70940
32.35403,69160
32.36215,73404
32.37028,71595
32.37840,73773
32.38653,76558
32.39465,66997
32.40277,68433
32.41090,69199
32.41902,70857
32.42715,69338
32.43527,64978
32.44338,62434
32.45152,69845
32.45963,64364
32.46777,66442
32.47588,67767
32.48400,62736
32.49213,66221
32.50025,63866
32.50837,60660
32.51650,60815
32.52462,63687
32.53275,64067
32.54087,59585
32.54898,65315
32.55712,64706
32.56523,68346
32.57337,62492
32.58148,61672
32.58960,60478
32.59773,62040
32.60585,64447
32.61398,66120
32.62210,60795
32.63022,60199
32.63835,62228
32.64647,58127
32.65458,64571
32.66272,66525
32.67083,69616
32.67897,72720
32.68708,78717
32.69520,75805
32.70333,77956
32.71145,75522
32.71958,71400
32.72770,73240
32.73582,68862
32.74395,68262
32.75207,66097
32.76018,67087
32.76832,64924
32.77643,62681
32.78457,64682
32.79268,65586
32.80080,61994
32.80893,60771
32.81705,62575
32.82518,66592
32.83330,58476
32.84142,60155
32.84955,64497
32.85767,62668
32.86580,58546
32.87392,63911
32.88203,60931
32.89017,63359
32.89828,62958
32.90640,63524
32.91453,60223
32.92265,60853
32.93078,66113
32.93890,66052
32.94702,59654
32.95515,64006
32.96327,63826
32.97140,63958
32.97952,66149
32.98763,63261
32.99577,70259
33.00388,68720
33.01200,76455
33.02013,78599
33.02825,77301
33.03638,70273
33.04450,66126
33.05262,72678
33.06075,68601
33.06887,70449
33.07700,73215
33.08512,75184
33.09323,75910
33.10137,80049
33.10948,87132
33.11762,92454
33.12573,95162
33.13385,97585
33.14198,94859
33.15010,91613
33.15822,80716
33.16635,77976
33.17447,65606
33.18260,72076
33.19072,64646
33.19883,68561
33.20697,75632
33.21508,69176
33.22322,71281
33.23133,65359
33.23945,71070
33.24758,69794
33.25570,69192
33.26383,68273
33.27195,65856
33.28007,63295
33.28820,63843
33.29632,61564
33.30443,62812
33.31257,64345
33.32068,62985
33.32882,63660
33.33693,65112
33.34505,66953
33.35318,63198
33.36130,62475
33.36943,66743
33.37755,64531
33.38567,60522
33.39380,60883
33.40192,64841
33.41005,65434
33.41817,73988
33.42628,72285
33.43442,78403
33.44253,78605
33.45065,77402
33.45878,79808
33.46690,72542
33.47503,70430
33.48315,67957
33.49127,70284
33.49940,66424
33.50752,74925
33.51565,62422
33.52377,63535
33.53188,67750
33.54002,67983
33.54813,72648
33.55625,72232
33.56438,74249
33.57250,67423
33.58063,65501
33.58875,64373
33.59687,64066
33.60500,63885
33.61312,65112
33.62125,61699
33.62937,64356
33.63748,62593
33.64562,66111
33.65373,69182
33.66187,72369
33.66998,68977
33.67810,69993
33.68623,70206
33.69435,69862
33.70247,68559
33.71060,62628
33.71872,63626
33.72685,66751
33.73497,76921
33.74308,82406
33.75122,86839
33.75933,81828
33.76747,85910
33.77558,81625
33.78370,75716
33.79183,72342
33.79995,70977
33.80807,65768
33.81620,65496
33.82432,64786
33.83245,70945
33.84057,73138
33.84868,74139
33.85682,78152
33.86493,80687
33.87307,81727
33.88118,82953
33.88930,84168
33.89743,83277
33.90555,88452
33.91368,93070
33.92180,92449
33.92992,91191
33.93805,92280
33.94617,81126
33.95428,79548
33.96242,73381
33.97053,70777
33.97867,65268
33.98678,66796
33.99490,67767
34.00303,66192
34.01115,64751
34.01928,66188
34.02740,62906
34.03552,65242
34.04365,62964
34.05177,66751
34.05990,68862
34.06802,70886
34.07613,64289
34.08427,66916
34.09238,71421
34.10050,70453
34.10863,66788
34.11675,67326
34.12488,63773
34.13300,65821
34.14112,65276
34.14925,62465
34.15737,67813
34.16550,63745
34.17362,67908
34.18173,74015
34.18987,81182
34.19798,78083
34.20610,79539
34.21423,83181
34.22235,77797
34.23048,75276
34.23860,72758
34.24672,77515
34.25485,75356
34.26297,73017
34.27110,68665
34.27922,64368
34.28733,65319
34.29547,65961
34.30358,62079
34.31172,66694
34.31983,61274
34.32795,64836
34.33608,63486
34.34420,66192
34.35232,66979
34.36045,68183
34.36857,67537
34.37670,65473
34.38482,67804
34.39293,65944
34.40107,68677
34.40918,63940
34.41732,64417
34.42543,66975
34.43355,67641
34.44168,62468
34.44980,62920
34.45793,69352
34.46605,68918
34.47417,66489
34.48230,64998
34.49042,72126
34.49853,67032
34.50667,66944
34.51478,66559
34.52292,66919
34.53103,72268
34.53915,78084
34.54728,80329
34.55540,90643
34.56353,91465
34.57165,95660
34.57977,97390
34.58790,97044
34.59602,97174
34.60413,92499
34.61227,96956
34.62038,94358
34.62852,94031
34.63663,93780
34.64475,89490
34.65288,91069
34.66100,86995
34.66913,90023
34.67725,87955
34.68537,86852
34.69350,82057
34.70162,82963
34.70975,80967
34.71787,76036
34.72598,76979
34.73412,74907
34.74223,76519
34.75035,71945
34.75848,70674
34.76660,75055
34.77473,73510
34.78285,66847
34.79097,73002
34.79910,70164
34.80722,66893
34.81535,73425
34.82347,75201
34.83158,73494
34.83972,75060
34.84783,77664
34.85595,75058
34.86408,74593
34.87220,74483
34.88033,74634
34.88845,70674
34.89657,74286
34.90470,74982
34.91282,75576
34.92095,71093
34.92907,80147
34.93718,72299
34.94532,73340
34.95343,77611
34.96157,78651
34.96968,78593
34.97780,80242
34.98593,81100
34.99405,80234
35.00217,84166
35.01030,83896
35.01842,88659
35.02655,92059
35.03467,96965
35.04278,91627
35.05092,102963
35.05903,94443
35.06717,88157
35.07528,92494
35.08340,91832
35.09153,86795
35.09965,80479
35.10778,76220
35.11590,75596
35.12402,75759
35.13215,71954
35.14027,72004
35.14838,75681
35.15652,69559
35.16463,71353
35.17277,72134
35.18088,72887
35.18900,77283
35.19713,70985
35.20525,72939
35.21338,71256
35.22150,73526
35.22962,71075
35.23775,73851
35.24587,75221
35.25398,79958
35.26212,70068
35.27023,74369
35.27837,76578
35.28648,76079
35.29460,78329
35.30273,74562
35.31085,72665
35.31898,78978
35.32710,78527
35.33522,77447
35.34335,68676
35.35147,71284
35.35960,74935
35.36772,75870
35.37583,73508
35.38397,81715
35.39208,88914
35.40020,100393
35.40833,100287
35.41645,109146
35.42458,108777
35.43270,115044
35.44082,112239
35.44895,109444
35.45707,100933
35.46520,93869
35.47332,87022
35.48143,81669
35.48957,77302
35.49768,72689
35.50582,71631
35.51393,73385
35.52205,74286
35.53018,79534
35.53830,79165
35.54642,73679
35.55455,77482
35.56267,76168
35.57080,72552
35.57892,75104
35.58703,69055
35.59517,76686
35.60328,73377
35.61142,71366
35.61953,71827
35.62765,70074
35.63578,72181
35.64390,71423
35.65202,67770
35.66015,69939
35.66827,69889
35.67640,74922
35.68452,83033
35.69263,78097
35.70077,83056
35.70888,90375
35.71702,81499
35.72513,83197
35.73325,82702
35.74138,83375
35.74950,78099
35.75763,74137
35.76575,81483
35.77387,77633
35.78200,83234
35.79012,80266
35.79823,79526
35.80637,74273
35.81448,81483
35.82262,74643
35.83073,75660
35.83885,81248
35.84698,76656
35.85510,80068
35.86323,74554
35.87135,76702
35.87947,78039
35.88760,76528
35.89572,77826
35.90385,73284
35.91197,78743
35.92008,72386
35.92822,73028
35.93633,72185
35.94445,73045
35.95258,76643
35.96070,71346
35.96883,70935
35.97695,72378
35.98507,72946
35.99320,72678
36.00132,76793
36.00945,73068
36.01757,77163
36.02568,75426
36.03382,75399
36.04193,72039
36.05005,76006
36.05818,75851
36.06630,74134
36.07443,69969
36.08255,70029
36.09067,73302
36.09880,74449
36.10692,67962
36.11505,74069
36.12317,72244
36.13128,77709
36.13942,74424
36.14753,67826
36.15567,69227
36.16378,74849
36.17190,73534
36.18003,70287
36.18815,72410
36.19627,72328
36.20440,75850
36.21252,70125
36.22065,74647
36.22877,73388
36.23688,72221
36.24502,74925
36.25313,80258
36.26127,79186
36.26938,80327
36.27750,79445
36.28563,81700
36.29375,82690
36.30187,77791
36.31000,85966
36.31812,85674
36.32625,84994
36.33437,88825
36.34248,81499
36.35062,86854
36.35873,74878
36.36687,69990
36.37498,72187
36.38310,73803
36.39123,76494
36.39935,76330
36.40748,74419
36.41560,80289
36.42372,77895
36.43185,84810
36.43997,83256
36.44808,83128
36.45622,86199
36.46433,91127
36.47247,99443
36.48058,94715
36.48870,94067
36.49683,88190
36.50495,95431
36.51308,98557
36.52120,93672
36.52932,90189
36.53745,92108
36.54557,89716
36.55370,82997
36.56182,80841
36.56993,80356
36.57807,75426
36.58618,72071
36.59430,84660
36.60243,72383
36.61055,75642
36.61868,81383
36.62680,85396
36.63492,85955
36.64305,90452
36.65117,91450
36.65930,96112
36.66742,93904
36.67553,93293
36.68367,89108
36.69178,91501
36.69990,84269
36.70803,78798
36.71615,82657
36.72428,79562
36.73240,76282
36.74052,78103
36.74865,76626
36.75677,81578
36.76490,79708
36.77302,77328
36.78113,72792
36.78927,76168
36.79738,78941
36.80552,79934
36.81363,77954
36.82175,75092
36.82988,78129
36.83800,78236
36.84612,75658
36.85425,79505
36.86237,76590
36.87050,75605
36.87862,81168
36.88673,84748
36.89487,75934
36.90298,80696
36.91112,75068
36.91923,77304
36.92735,77794
36.93548,73735
36.94360,77874
36.95173,77959
36.95985,72238
36.96797,74063
36.97610,81857
36.98422,75643
36.99233,81541
37.00047,74458
37.00858,76893
37.01672,76944
37.02483,79882
37.03295,74735
37.04108,78546
37.04920,76443
37.05733,78092
37.06545,75609
37.07357,79314
37.08170,82517
37.08982,88118
37.09793,84419
37.10607,88676
37.11418,95689
37.12232,93618
37.13043,97471
37.13855,90329
37.14668,89579
37.15480,93258
37.16293,90196
37.17105,97747
37.17917,81530
37.18730,79544
37.19542,78843
37.20355,83142
37.21167,81155
37.21978,82488
37.22792,76823
37.23603,76247
37.24415,74606
37.25228,73899
37.26040,77095
37.26853,80380
37.27665,81814
37.28477,82443
37.29290,73125
37.30102,80264
37.30915,75900
37.31727,90910
37.32538,83325
37.33352,85504
37.34163,85045
37.34975,85428
37.35788,92527
37.36600,96703
37.37413,99339
37.38225,97460
37.39037,98527
37.39850,96102
37.40662,94360
37.41475,92256
37.42287,89149
37.43098,85869
37.43912,86397
37.44723,89639
37.45537,84553
37.46348,91189
37.47160,86222
37.47973,87580
37.48785,85715
