C:\MassHunter\GCMS\1\data\JTB-E02\BACandBLUE\JTB-E18-011-07.D Tue Jun 18 10:34:01 2019
Start of data points
2.09517,108962
2.10330,113999
2.11142,115382
2.11953,119272
2.12767,121644
2.13578,114969
2.14392,109861
2.15203,108913
2.16015,108531
2.16828,98279
2.17640,96777
2.18453,99356
2.19265,91888
2.20077,86382
2.20890,85202
2.21702,83203
2.22515,80740
2.23327,80253
2.24138,82976
2.24952,236996
2.25763,1268807
2.26575,1638399
2.27388,749103
2.28200,425672
2.29013,326217
2.29825,282958
2.30637,247270
2.31450,233380
2.32262,224266
2.33075,202781
2.33887,193203
2.34698,181312
2.35512,170283
2.36323,169780
2.37135,162061
2.37948,155836
2.38760,153939
2.39573,147589
2.40385,166697
2.41197,156193
2.42010,146311
2.42822,145714
2.43635,141200
2.44447,138225
2.45258,137408
2.46072,133901
2.46883,135821
2.47697,149586
2.48508,139307
2.49320,140502
2.50133,129398
2.50945,131680
2.51757,123845
2.52570,130460
2.53382,153031
2.54195,242021
2.55007,270675
2.55818,209355
2.56632,180439
2.57443,166491
2.58257,200288
2.59068,579450
2.59880,948147
2.60693,661098
2.61505,392819
2.62318,294616
2.63130,243717
2.63942,209219
2.64755,188682
2.65567,175429
2.66378,169101
2.67192,160868
2.68003,150279
2.68817,146553
2.69628,140791
2.70440,148155
2.71253,142348
2.72065,136567
2.72878,130415
2.73690,129139
2.74502,128809
2.75315,136946
2.76127,406713
2.76938,1158640
2.77752,1229387
2.78563,697432
2.79377,487918
2.80188,439052
2.81000,389228
2.81813,316991
2.82625,273263
2.83438,248582
2.84250,219608
2.85062,210622
2.85875,192711
2.86687,183815
2.87500,173381
2.88312,162558
2.89123,162022
2.89937,160643
2.90748,150222
2.91560,141247
2.92373,149415
2.93185,139587
2.93998,147900
2.94810,158608
2.95622,152416
2.96435,143981
2.97247,147612
2.98060,152991
2.98872,166176
2.99683,173080
3.00497,146627
3.01308,144621
3.02122,138094
3.02933,123133
3.03745,126449
3.04558,124508
3.05370,131116
3.06182,316027
3.06995,1571911
3.07807,3866972
3.08620,4853069
3.09432,5114716
3.10243,4060318
3.11057,2544350
3.11868,1764479
3.12682,1358902
3.13493,1079545
3.14305,918435
3.15118,828969
3.15930,817447
3.16742,954185
3.17555,1630899
3.18367,2029166
3.19180,1555172
3.19992,1141616
3.20803,938417
3.21617,791747
3.22428,690159
3.23242,610799
3.24053,541259
3.24865,504368
3.25678,453869
3.26490,479582
3.27303,901950
3.28115,2683934
3.28927,5835769
3.29740,7364818
3.30552,5988573
3.31363,3807460
3.32177,2448411
3.32988,1808762
3.33802,1457883
3.34613,1238087
3.35425,1102432
3.36238,962584
3.37050,888232
3.37863,815999
3.38675,745862
3.39487,704561
3.40300,672304
3.41112,640935
3.41925,630044
3.42737,606820
3.43548,579738
3.44362,559828
3.45173,577244
3.45985,578820
3.46798,572551
3.47610,520972
3.48423,501920
3.49235,491127
3.50047,478036
3.50860,486507
3.51672,497509
3.52485,517897
3.53297,492076
3.54108,462535
3.54922,469544
3.55733,529977
3.56545,572348
3.57358,532904
3.58170,469572
3.58983,452747
3.59795,437821
3.60607,431266
3.61420,424128
3.62232,437947
3.63045,427520
3.63857,463714
3.64668,1193935
3.65482,5488807
3.66293,1.350014E+07
3.67107,1.645585E+07
3.67918,1.210184E+07
3.68730,7531040
3.69543,5406457
3.70355,4299486
3.71167,3679863
3.71980,3179799
3.72792,2849815
3.73605,2558088
3.74417,2296094
3.75228,2119489
3.76042,1957326
3.76853,1839381
3.77667,1741471
3.78478,1746939
3.79290,2061330
3.80103,2613130
3.80915,2660797
3.81727,2199049
3.82540,1819164
3.83352,1598588
3.84165,1447643
3.84977,1355281
3.85788,1269102
3.86602,1202523
3.87413,1146095
3.88227,1090641
3.89038,1022384
3.89850,1046590
3.90663,1175658
3.91475,1323576
3.92288,1349469
3.93100,1700015
3.93912,3793093
3.94725,8166016
3.95537,1.126959E+07
3.96348,9679631
3.97162,6243604
3.97973,5443752
3.98787,1.142624E+07
3.99598,2.446157E+07
4.00410,3.366725E+07
4.01223,2.910179E+07
4.02035,1.729088E+07
4.02848,9437748
4.03660,5882966
4.04472,4335414
4.05285,3384822
4.06097,2782507
4.06910,2390485
4.07722,2081826
4.08533,1883456
4.09347,1672042
4.10158,1544307
4.10970,1427559
4.11783,1380848
4.12595,1482358
4.13408,1600191
4.14220,1608211
4.15032,1418083
4.15845,1252849
4.16657,1150424
4.17470,1058407
4.18282,1010465
4.19093,1153497
4.19907,2579402
4.20718,7058871
4.21530,1.37867E+07
4.22343,1.766804E+07
4.23155,1.590055E+07
4.23968,1.049152E+07
4.24780,6563335
4.25592,4697303
4.26405,3601068
4.27217,2917970
4.28030,2432652
4.28842,2111670
4.29653,1844250
4.30467,1672269
4.31278,1536199
4.32092,1408834
4.32903,1329736
4.33715,1279885
4.34528,1330259
4.35340,1379989
4.36152,1350846
4.36965,1209152
4.37777,1072087
4.38590,982675
4.39402,919291
4.40213,881769
4.41027,859485
4.41838,823060
4.42652,787943
4.43463,759451
4.44275,754957
4.45088,714545
4.45900,711526
4.46713,694258
4.47525,668695
4.48337,660956
4.49150,648705
4.49962,640622
4.50773,630419
4.51587,609372
4.52398,602546
4.53212,601391
4.54023,611612
4.54835,601707
4.55648,573877
4.56460,552818
4.57273,538664
4.58085,542847
4.58897,531645
4.59710,530885
4.60522,575184
4.61333,715239
4.62147,974171
4.62958,1253925
4.63772,1236634
4.64583,1024976
4.65395,811558
4.66208,711147
4.67020,672408
4.67833,628239
4.68645,575340
4.69457,529519
4.70270,497686
4.71082,488286
4.71895,474898
4.72707,457237
4.73518,439216
4.74332,430419
4.75143,430032
4.75955,441966
4.76768,433318
4.77580,468866
4.78393,591487
4.79205,747388
4.80017,802109
4.80830,724078
4.81642,626139
4.82455,595612
4.83267,600982
4.84078,593215
4.84892,571684
4.85703,534596
4.86515,504184
4.87328,467101
4.88140,435516
4.88953,427627
4.89765,412328
4.90577,415659
4.91390,440851
4.92202,592213
4.93015,1132918
4.93827,2260028
4.94638,3476843
4.95452,4019954
4.96263,3463652
4.97077,2419738
4.97888,1641836
4.98700,1201067
4.99513,951990
5.00325,861770
5.01137,819471
5.01950,858154
5.02762,938346
5.03575,952775
5.04387,884021
5.05198,805048
5.06012,722284
5.06823,684242
5.07637,640889
5.08448,630696
5.09260,601110
5.10073,595377
5.10885,567698
5.11698,541617
5.12510,536750
5.13322,552487
5.14135,611718
5.14947,705837
5.15758,789121
5.16572,775751
5.17383,712382
5.18197,684876
5.19008,718917
5.19820,763135
5.20633,746001
5.21445,707090
5.22258,638105
5.23070,595641
5.23882,553438
5.24695,517887
5.25507,474521
5.26318,452425
5.27132,453522
5.27943,420941
5.28757,423604
5.29568,413045
5.30380,428331
5.31193,425481
5.32005,449885
5.32818,463837
5.33630,474426
5.34442,438717
5.35255,422092
5.36067,411732
5.36880,419890
5.37692,447445
5.38503,473974
5.39317,482349
5.40128,472400
5.40940,434714
5.41753,406146
5.42565,398196
5.43378,401995
5.44190,448726
5.45002,464850
5.45815,445866
5.46627,422212
5.47440,383011
5.48252,368842
5.49063,354198
5.49877,346598
5.50688,349539
5.51502,346959
5.52313,352419
5.53125,352160
5.53938,398598
5.54750,541845
5.55562,759210
5.56375,951972
5.57187,946675
5.58000,807121
5.58812,600790
5.59623,490581
5.60437,422158
5.61248,392537
5.62062,392904
5.62873,388466
5.63685,379623
5.64498,375495
5.65310,346337
5.66122,352890
5.66935,376774
5.67747,386444
5.68560,411974
5.69372,397869
5.70183,374887
5.70997,361183
5.71808,350648
5.72622,326079
5.73433,322060
5.74245,314846
5.75058,311036
5.75870,314049
5.76683,304914
5.77495,298330
5.78307,305102
5.79120,291856
5.79932,286115
5.80743,294500
5.81557,287639
5.82368,296395
5.83182,296913
5.83993,297489
5.84805,280286
5.85618,289352
5.86430,285558
5.87243,293328
5.88055,286663
5.88867,284966
5.89680,296790
5.90492,307136
5.91303,292725
5.92117,265379
5.92928,237561
5.93742,247938
5.94553,272784
5.95365,291078
5.96178,346417
5.96990,410977
5.97803,461295
5.98615,459566
5.99427,403421
6.00240,336232
6.01052,310964
6.01865,283630
6.02677,261743
6.03488,240945
6.04302,223924
6.05113,227243
6.05925,223952
6.06738,206936
6.07550,213438
6.08363,211901
6.09175,216863
6.09987,219353
6.10800,234045
6.11612,292158
6.12425,427195
6.13237,591838
6.14048,666776
6.14862,607023
6.15673,495112
6.16487,404124
6.17298,341374
6.18110,314308
6.18923,289480
6.19735,290823
6.20547,271890
6.21360,268881
6.22172,262709
6.22985,256085
6.23797,287426
6.24608,325531
6.25422,345332
6.26233,337037
6.27047,309619
6.27858,268694
6.28670,256707
6.29483,259486
6.30295,266957
6.31108,270764
6.31920,294251
6.32732,320727
6.33545,335541
6.34357,324488
6.35168,301821
6.35982,288375
6.36793,283298
6.37607,293267
6.38418,285405
6.39230,270647
6.40043,269859
6.40855,267832
6.41668,266726
6.42480,266910
6.43292,273716
6.44105,271203
6.44917,272699
6.45728,260085
6.46542,271176
6.47353,265069
6.48167,271394
6.48978,263803
6.49790,272563
6.50603,274676
6.51415,280168
6.52228,274895
6.53040,276614
6.53852,277998
6.54665,317689
6.55477,419875
6.56290,620248
6.57102,823054
6.57913,878557
6.58727,740166
6.59538,557564
6.60350,428065
6.61163,369265
6.61975,349200
6.62788,350540
6.63600,447983
6.64412,868586
6.65225,1724296
6.66037,2687954
6.66850,2976440
6.67662,2560172
6.68473,1720420
6.69287,1134517
6.70098,793741
6.70910,637315
6.71723,542273
6.72535,482271
6.73348,444271
6.74160,398932
6.74972,372269
6.75785,348334
6.76597,328270
6.77410,310336
6.78222,292472
6.79033,275457
6.79847,271184
6.80658,257928
6.81472,246221
6.82283,246651
6.83095,245116
6.83908,269782
6.84720,317613
6.85532,361811
6.86345,376851
6.87157,344111
6.87970,285409
6.88782,217845
6.89593,183845
6.90407,164388
6.91218,158058
6.92032,145821
6.92843,139460
6.93655,130010
6.94468,133504
6.95280,141002
6.96093,169195
6.96905,190878
6.97717,208431
6.98530,205919
6.99342,183964
7.00153,171586
7.00967,160693
7.01778,156425
7.02592,153412
7.03403,160091
7.04215,166401
7.05028,200694
7.05840,234357
7.06653,258991
7.07465,264149
7.08277,238269
7.09090,207995
7.09902,174846
7.10713,150108
7.11527,142635
7.12338,149333
7.13152,177822
7.13963,254929
7.14775,360642
7.15588,439999
7.16400,448252
7.17213,377821
7.18025,371721
7.18837,618230
7.19650,1199229
7.20462,2045655
7.21275,2516841
7.22087,2257540
7.22898,1593720
7.23712,948297
7.24523,565328
7.25335,344696
7.26148,245415
7.26960,190493
7.27773,166767
7.28585,165284
7.29397,153269
7.30210,158808
7.31022,158229
7.31835,157450
7.32647,157546
7.33458,164104
7.34272,160784
7.35083,160335
7.35897,146853
7.36708,138337
7.37520,141334
7.38333,137472
7.39145,140795
7.39957,137003
7.40770,134836
7.41582,138761
7.42395,136552
7.43207,130844
7.44018,125082
7.44832,129771
7.45643,134679
7.46457,132769
7.47268,123690
7.48080,124311
7.48893,117508
7.49705,118510
7.50517,125812
7.51330,181010
7.52142,328615
7.52955,673848
7.53767,1277373
7.54578,2165335
7.55392,3104939
7.56203,3650605
7.57017,3620450
7.57828,3052438
7.58640,2232853
7.59453,1440250
7.60265,896883
7.61078,581607
7.61890,399564
7.62702,317705
7.63515,263978
7.64327,213826
7.65138,190948
7.65952,170711
7.66763,156832
7.67577,139652
7.68388,132038
7.69200,124967
7.70013,128491
7.70825,132472
7.71638,155713
7.72450,163159
7.73262,176994
7.74075,188813
7.74887,190369
7.75698,193184
7.76512,182958
7.77323,183456
7.78137,183174
7.78948,192674
7.79760,189950
7.80573,201038
7.81385,207070
7.82198,181255
7.83010,164170
7.83822,154950
7.84635,159378
7.85447,165798
7.86260,179054
7.87072,204797
7.87883,237765
7.88697,259009
7.89508,246074
7.90320,217300
7.91133,186928
7.91945,175351
7.92758,181569
7.93570,195197
7.94382,201387
7.95195,196190
7.96007,167304
7.96820,149717
7.97632,129507
7.98443,118356
7.99257,111131
8.00068,107428
8.00882,114625
8.01693,102991
8.02505,108693
8.03318,103376
8.04130,105897
8.04942,103422
8.05755,106625
8.06567,106594
8.07380,102989
8.08192,101494
8.09003,101572
8.09817,98819
8.10628,94785
8.11442,98646
8.12253,111527
8.13065,123316
8.13878,146371
8.14690,159056
8.15502,160220
8.16315,143610
8.17127,123961
8.17940,116584
8.18752,108034
8.19563,97928
8.20377,100813
8.21188,94983
8.22002,96022
8.22813,100341
8.23625,96183
8.24438,98515
8.25250,93030
8.26063,93941
8.26875,86144
8.27687,86830
8.28500,87912
8.29312,89626
8.30123,100242
8.30937,101073
8.31748,112821
8.32562,112349
8.33373,109581
8.34185,104009
8.34998,97159
8.35810,95344
8.36623,100523
8.37435,100281
8.38247,104548
8.39060,94606
8.39872,91141
8.40685,85728
8.41497,84346
8.42308,86473
8.43122,83752
8.43933,75828
8.44745,81985
8.45558,77030
8.46370,84418
8.47183,81657
8.47995,87915
8.48807,84027
8.49620,90417
8.50432,106848
8.51245,158484
8.52057,275463
8.52868,405481
8.53682,471864
8.54493,430257
8.55305,327747
8.56118,203679
8.56930,153655
8.57743,122032
8.58555,122102
8.59367,131482
8.60180,137031
8.60992,144157
8.61805,133775
8.62617,123122
8.63428,112585
8.64242,101305
8.65053,96783
8.65867,93211
8.66678,91027
8.67490,95790
8.68303,91849
8.69115,101372
8.69927,105522
8.70740,113197
8.71552,104240
8.72365,97471
8.73177,95279
8.73988,104773
8.74802,164495
8.75613,338682
8.76427,685412
8.77238,1155904
8.78050,1534014
8.78863,1535629
8.79675,1221385
8.80488,806345
8.81300,501752
8.82112,340527
8.82925,281231
8.83737,266129
8.84548,261878
8.85362,244528
8.86173,233688
8.86987,219571
8.87798,205752
8.88610,202690
8.89423,194231
8.90235,193711
8.91048,199638
8.91860,209588
8.92672,218319
8.93485,236944
8.94297,235509
8.95108,228686
8.95922,214452
8.96733,214193
8.97547,224447
8.98358,246855
8.99170,234175
8.99983,215191
9.00795,208139
9.01608,187717
9.02420,168955
9.03232,162093
9.04045,153821
9.04857,157506
9.05670,149729
9.06482,145957
9.07293,146960
9.08107,156614
9.08918,178151
9.09730,213570
9.10543,256214
9.11355,287999
9.12168,292339
9.12980,255764
9.13792,218166
9.14605,179623
9.15417,167262
9.16230,158432
9.17042,150854
9.17853,144143
9.18667,144510
9.19478,143074
9.20290,140442
9.21103,137589
9.21915,141634
9.22728,140150
9.23540,148956
9.24352,143386
9.25165,145916
9.25977,142744
9.26790,141007
9.27602,135483
9.28413,130699
9.29227,136231
9.30038,127111
9.30852,118890
9.31663,124641
9.32475,124768
9.33288,120929
9.34100,120377
9.34912,124222
9.35725,116492
9.36537,122809
9.37350,125120
9.38162,122485
9.38973,131505
9.39787,143925
9.40598,167776
9.41412,206364
9.42223,260834
9.43035,311294
9.43848,347846
9.44660,353622
9.45473,308884
9.46285,246567
9.47097,186578
9.47910,158776
9.48722,143809
9.49533,140542
9.50347,162169
9.51158,193169
9.51972,219258
9.52783,221164
9.53595,214016
9.54408,186342
9.55220,166792
9.56033,144408
9.56845,127238
9.57657,119659
9.58470,114344
9.59282,113871
9.60093,108524
9.60907,104132
9.61718,95752
9.62532,89454
9.63343,92023
9.64155,90455
9.64968,91243
9.65780,87071
9.66593,89999
9.67405,87022
9.68217,83932
9.69030,79813
9.69842,79447
9.70655,76755
9.71467,80802
9.72278,79158
9.73092,72767
9.73903,76504
9.74715,75100
9.75528,73747
9.76340,76597
9.77153,74452
9.77965,72306
9.78777,72345
9.79590,76919
9.80402,73518
9.81215,72850
9.82027,68221
9.82838,70793
9.83652,71804
9.84463,74389
9.85277,77504
9.86088,85429
9.86900,82646
9.87713,78445
9.88525,78244
9.89337,76425
9.90150,77960
9.90962,77142
9.91775,91133
9.92587,109965
9.93398,155048
9.94212,211603
9.95023,277770
9.95837,291176
9.96648,277203
9.97460,246757
9.98273,197408
9.99085,164538
9.99897,139600
10.00710,124340
10.01522,110319
10.02335,101306
10.03147,99099
10.03958,97260
10.04772,94248
10.05583,100252
10.06397,97544
10.07208,99925
10.08020,99025
10.08833,94071
10.09645,101022
10.10458,95482
10.11270,89927
10.12082,84390
10.12895,80885
10.13707,81643
10.14518,87344
10.15332,80565
10.16143,72594
10.16957,78533
10.17768,75452
10.18580,73900
10.19393,78687
10.20205,79968
10.21018,80987
10.21830,86898
10.22642,92880
10.23455,104660
10.24267,117847
10.25078,169607
10.25892,346827
10.26703,768806
10.27517,1526170
10.28328,2567738
10.29140,3778828
10.29953,5317161
10.30765,7718458
10.31578,1.07071E+07
10.32390,1.354541E+07
10.33202,1.415915E+07
10.34015,1.251886E+07
10.34827,9388655
10.35640,7199036
10.36452,6153325
10.37263,5462650
10.38077,4488038
10.38888,3335444
10.39700,2292708
10.40513,1513059
10.41325,1062549
10.42138,868051
10.42950,840989
10.43762,806013
10.44575,780818
10.45387,728133
10.46200,661932
10.47012,587151
10.47823,534222
10.48637,487943
10.49448,440073
10.50262,411187
10.51073,391293
10.51885,366972
10.52698,351328
10.53510,326370
10.54322,331199
10.55135,299436
10.55947,295681
10.56760,287192
10.57572,278086
10.58383,270268
10.59197,259796
10.60008,256295
10.60822,240652
10.61633,224055
10.62445,223576
10.63258,223809
10.64070,215857
10.64882,203800
10.65695,196627
10.66507,190900
10.67320,189594
10.68132,209350
10.68943,203144
10.69757,208808
10.70568,204370
10.71382,205291
10.72193,206143
10.73005,186272
10.73818,178457
10.74630,172983
10.75443,162923
10.76255,157241
10.77067,160404
10.77880,156467
10.78692,165141
10.79503,164283
10.80317,175947
10.81128,188013
10.81942,185049
10.82753,178133
10.83565,156701
10.84378,145859
10.85190,134582
10.86003,125203
10.86815,129704
10.87627,125417
10.88440,125240
10.89252,122038
10.90065,118307
10.90877,122644
10.91688,120284
10.92502,116013
10.93313,115398
10.94125,116991
10.94938,114463
10.95750,118822
10.96563,115098
10.97375,121075
10.98187,123374
10.99000,130073
10.99812,133401
11.00625,142305
11.01437,144762
11.02248,136444
11.03062,134406
11.03873,122530
11.04685,105876
11.05498,119769
11.06310,116228
11.07123,123714
11.07935,138211
11.08747,139310
11.09560,145614
11.10372,144260
11.11185,134667
11.11997,126426
11.12808,119579
11.13622,111783
11.14433,104621
11.15247,106555
11.16058,109257
11.16870,116346
11.17683,111910
11.18495,110052
11.19307,116400
11.20120,106801
11.20932,98101
11.21745,92455
11.22557,89125
11.23368,82252
11.24182,89834
11.24993,83068
11.25807,77895
11.26618,77973
11.27430,72499
11.28243,82322
11.29055,105922
11.29868,182680
11.30680,376805
11.31492,805796
11.32305,1510106
11.33117,2376417
11.33928,3090787
11.34742,3228541
11.35553,2886974
11.36367,2183274
11.37178,1509077
11.37990,1027720
11.38803,762865
11.39615,618688
11.40428,530876
11.41240,486609
11.42052,423820
11.42865,355279
11.43677,316347
11.44488,278775
11.45302,263682
11.46113,228729
11.46927,221942
11.47738,223707
11.48550,222158
11.49363,226569
11.50175,231584
11.50988,226833
11.51800,209544
11.52612,196552
11.53425,183316
11.54237,167782
11.55050,165655
11.55862,167121
11.56673,165685
11.57487,169498
11.58298,171949
11.59110,184562
11.59923,220681
11.60735,241113
11.61548,252874
11.62360,237043
11.63172,201116
11.63985,179791
11.64797,156609
11.65610,146221
11.66422,144092
11.67233,144962
11.68047,145595
11.68858,157118
11.69672,163224
11.70483,169522
11.71295,162021
11.72108,156863
11.72920,137250
11.73732,125728
11.74545,123569
11.75357,113410
11.76170,101727
11.76982,100933
11.77793,98866
11.78607,100042
11.79418,101632
11.80232,95755
11.81043,95209
11.81855,92265
11.82668,95977
11.83480,91076
11.84292,92490
11.85105,91314
11.85917,94164
11.86730,85003
11.87542,87192
11.88353,83909
11.89167,79540
11.89978,88007
11.90792,88703
11.91603,93866
11.92415,103910
11.93228,100410
11.94040,93217
11.94853,88655
11.95665,87317
11.96477,108981
11.97290,160416
11.98102,281024
11.98913,501333
11.99727,776181
12.00538,873106
12.01352,921383
12.02163,735437
12.02975,516809
12.03788,354099
12.04600,260225
12.05413,205163
12.06225,185367
12.07037,180744
12.07850,174607
12.08662,186436
12.09473,197019
12.10287,232588
12.11098,322851
12.11912,440532
12.12723,576524
12.13535,678878
12.14348,695396
12.15160,579282
12.15973,454579
12.16785,321662
12.17597,234409
12.18410,198934
12.19222,188944
12.20035,180285
12.20847,170753
12.21658,154737
12.22472,152169
12.23283,144529
12.24095,136546
12.24908,138672
12.25720,130309
12.26533,136522
12.27345,126845
12.28157,123121
12.28970,126286
12.29782,113106
12.30595,110881
12.31407,112839
12.32218,110470
12.33032,108197
12.33843,102575
12.34657,108905
12.35468,104720
12.36280,103099
12.37093,104500
12.37905,114406
12.38717,123120
12.39530,142272
12.40342,173076
12.41155,194687
12.41967,216479
12.42778,210914
12.43592,190090
12.44403,166497
12.45217,153526
12.46028,141089
12.46840,134912
12.47653,128794
12.48465,124788
12.49277,122072
12.50090,118975
12.50902,111021
12.51715,113095
12.52527,107042
12.53338,121461
12.54152,136844
12.54963,151393
12.55777,154762
12.56588,156573
12.57400,143313
12.58213,136736
12.59025,127557
12.59838,121459
12.60650,113210
12.61462,111754
12.62275,111341
12.63087,113680
12.63898,104029
12.64712,103317
12.65523,99765
12.66337,94278
12.67148,92847
12.67960,83125
12.68773,88405
12.69585,84943
12.70398,83630
12.71210,86267
12.72022,89315
12.72835,95097
12.73647,97937
12.74460,99131
12.75272,97781
12.76083,89083
12.76897,83658
12.77708,80459
12.78520,79112
12.79333,78656
12.80145,78161
12.80958,76337
12.81770,75703
12.82582,72486
12.83395,67244
12.84207,68567
12.85020,71659
12.85832,65871
12.86643,64001
12.87457,70464
12.88268,69750
12.89080,68691
12.89893,66753
12.90705,63386
12.91518,65114
12.92330,68522
12.93142,73188
12.93955,85045
12.94767,111597
12.95580,174155
12.96392,262852
12.97203,363202
12.98017,396904
12.98828,367799
12.99642,285183
13.00453,211493
13.01265,155248
13.02078,124988
13.02890,102824
13.03702,94226
13.04515,95962
13.05327,91319
13.06140,86900
13.06952,87985
13.07763,80567
13.08577,85459
13.09388,88259
13.10202,81047
13.11013,78505
13.11825,78773
13.12638,80500
13.13450,78456
13.14262,78894
13.15075,76184
13.15887,75635
13.16700,77509
13.17512,79477
13.18323,81677
13.19137,81098
13.19948,85788
13.20762,86871
13.21573,89957
13.22385,85612
13.23198,86745
13.24010,83296
13.24823,84080
13.25635,82769
13.26447,76517
13.27260,79220
13.28072,71536
13.28883,67328
13.29697,67451
13.30508,70312
13.31322,68915
13.32133,65559
13.32945,67718
13.33758,68703
13.34570,67759
13.35383,68110
13.36195,63831
13.37007,67743
13.37820,68302
13.38632,72299
13.39445,75083
13.40257,71482
13.41068,65786
13.41882,65235
13.42693,67380
13.43505,62829
13.44318,64577
13.45130,64952
13.45943,73384
13.46755,71504
13.47567,75252
13.48380,74260
13.49192,70037
13.50005,73183
13.50817,72846
13.51628,72094
13.52442,73391
13.53253,69479
13.54065,71836
13.54878,69408
13.55690,67572
13.56503,73002
13.57315,76293
13.58127,80917
13.58940,90270
13.59752,90334
13.60565,94030
13.61377,87328
13.62188,90962
13.63002,82974
13.63813,82008
13.64627,78205
13.65438,72815
13.66250,71922
13.67063,64400
13.67875,62526
13.68687,62555
13.69500,63897
13.70312,63040
13.71125,64539
13.71937,68205
13.72748,109541
13.73562,208752
13.74373,455970
13.75187,983619
13.75998,1771643
13.76810,2572593
13.77623,2993255
13.78435,2764467
13.79248,2196116
13.80060,1663850
13.80872,1184934
13.81685,972118
13.82497,893399
13.83308,913596
13.84122,909123
13.84933,810812
13.85747,702030
13.86558,557178
13.87370,451978
13.88183,367420
13.88995,314996
13.89808,279497
13.90620,243362
13.91432,226204
13.92245,208920
13.93057,196432
13.93868,190064
13.94682,200581
13.95493,223362
13.96307,272403
13.97118,290157
13.97930,318786
13.98743,302191
13.99555,272277
14.00368,236046
14.01180,197031
14.01992,176906
14.02805,166147
14.03617,153862
14.04430,147300
14.05242,138754
14.06053,138165
14.06867,140589
14.07678,134484
14.08490,131056
14.09303,127232
14.10115,124100
14.10928,126025
14.11740,134029
14.12552,147972
14.13365,168456
14.14177,196413
14.14990,219959
14.15802,234743
14.16613,243196
14.17427,248410
14.18238,296348
14.19052,386786
14.19863,471552
14.20675,523921
14.21488,516250
14.22300,437947
14.23112,364678
14.23925,328772
14.24737,298081
14.25550,282547
14.26362,263524
14.27173,238676
14.27987,206182
14.28798,186181
14.29612,172635
14.30423,151328
14.31235,147198
14.32048,135906
14.32860,141211
14.33672,133661
14.34485,126390
14.35297,113002
14.36110,99955
14.36922,96477
14.37733,87989
14.38547,80572
14.39358,85055
14.40172,86005
14.40983,90846
14.41795,101589
14.42608,98517
14.43420,101283
14.44233,96546
14.45045,93108
14.45857,89368
14.46670,92749
14.47482,98363
14.48293,105040
14.49107,104914
14.49918,101843
14.50732,111560
14.51543,111373
14.52355,111768
14.53168,110317
14.53980,103996
14.54793,90750
14.55605,88534
14.56417,78351
14.57230,74742
14.58042,72502
14.58853,70820
14.59667,66877
14.60478,66780
14.61292,67306
14.62103,69560
14.62915,63339
14.63728,62140
14.64540,68145
14.65353,63399
14.66165,60206
14.66977,58710
14.67790,60534
14.68602,64415
14.69415,67913
14.70227,61083
14.71038,58530
14.71852,66430
14.72663,69267
14.73475,73963
14.74288,75437
14.75100,77269
14.75913,80478
14.76725,80402
14.77537,94243
14.78350,137080
14.79162,300106
14.79975,764414
14.80787,1796965
14.81598,3397408
14.82412,5272503
14.83223,6197623
14.84037,5992974
14.84848,4648643
14.85660,3097084
14.86473,1873665
14.87285,1152706
14.88097,763086
14.88910,573260
14.89722,460974
14.90535,401889
14.91347,364981
14.92158,323879
14.92972,306929
14.93783,272873
14.94597,257236
14.95408,236282
14.96220,226883
14.97033,211158
14.97845,206243
14.98657,194146
14.99470,177747
15.00282,168740
15.01095,173621
15.01907,163984
15.02718,164894
15.03532,159655
15.04343,153554
15.05157,145277
15.05968,142713
15.06780,134413
15.07593,134397
15.08405,126356
15.09218,121452
15.10030,115796
15.10842,118172
15.11655,118228
15.12467,126649
15.13278,135419
15.14092,142582
15.14903,142459
15.15717,127397
15.16528,116423
15.17340,96988
15.18153,87859
15.18965,79927
15.19778,83778
15.20590,73775
15.21402,74684
15.22215,69970
15.23027,71525
15.23840,74255
15.24652,73984
15.25463,71031
15.26277,65037
15.27088,68977
15.27900,71456
15.28713,65604
15.29525,63927
15.30338,63521
15.31150,61859
15.31962,64287
15.32775,60634
15.33587,59596
15.34400,59456
15.35212,59012
15.36023,59991
15.36837,61538
15.37648,56996
15.38460,64654
15.39273,60734
15.40085,58071
15.40898,60578
15.41710,60403
15.42522,58458
15.43335,57002
15.44147,61569
15.44960,65553
15.45772,78131
15.46583,110559
15.47397,164912
15.48208,257640
15.49022,370033
15.49833,485559
15.50645,545344
15.51458,521433
15.52270,483500
15.53082,430440
15.53895,382718
15.54707,351490
15.55520,308709
15.56332,257651
15.57143,197868
15.57957,162907
15.58768,129326
15.59582,114154
15.60393,106475
15.61205,97724
15.62018,93652
15.62830,87975
15.63642,83632
15.64455,87790
15.65267,78438
15.66080,77222
15.66892,74323
15.67703,73114
15.68517,74558
15.69328,74323
15.70142,70089
15.70953,67981
15.71765,65801
15.72578,69952
15.73390,68753
15.74203,78169
15.75015,89249
15.75827,133447
15.76640,201240
15.77452,288436
15.78263,381819
15.79077,412259
15.79888,388894
15.80702,317434
15.81513,221230
15.82325,166673
15.83138,134903
15.83950,111367
15.84763,99688
15.85575,89315
15.86387,90847
15.87200,94223
15.88012,88054
15.88825,89754
15.89637,90487
15.90448,91258
15.91262,86532
15.92073,83933
15.92885,81293
15.93698,83017
15.94510,92253
15.95323,119970
15.96135,151231
15.96947,184770
15.97760,202685
15.98572,203267
15.99385,187076
16.00197,160392
16.01008,135220
16.01822,127292
16.02633,122059
16.03447,118822
16.04258,110279
16.05070,98275
16.05883,95756
16.06695,86547
16.07507,83851
16.08320,82969
16.09132,78796
16.09945,80231
16.10757,77983
16.11568,83401
16.12382,82830
16.13193,88833
16.14007,94310
16.14818,98383
16.15630,91277
16.16443,86876
16.17255,84748
16.18067,80625
16.18880,76442
16.19692,71911
16.20505,78906
16.21317,72857
16.22128,70042
16.22942,74962
16.23753,69318
16.24567,68224
16.25378,69085
16.26190,72194
16.27003,74937
16.27815,78215
16.28628,81165
16.29440,95093
16.30252,96030
16.31065,101853
16.31877,94379
16.32688,90270
16.33502,92909
16.34313,104354
16.35127,121893
16.35938,174964
16.36750,218242
16.37563,244024
16.38375,246502
16.39188,212891
16.40000,173199
16.40812,139672
16.41625,116780
16.42437,91965
16.43248,97639
16.44062,120559
16.44873,191806
16.45687,374402
16.46498,659522
16.47310,1009024
16.48123,1248523
16.48935,1235612
16.49748,1019561
16.50560,693308
16.51372,457289
16.52185,297206
16.52997,212200
16.53810,170602
16.54622,143477
16.55433,142004
16.56247,124036
16.57058,122199
16.57870,121341
16.58683,131005
16.59495,143107
16.60308,146754
16.61120,151983
16.61932,152284
16.62745,153072
16.63557,131335
16.64370,119123
16.65182,109894
16.65993,98413
16.66807,93779
16.67618,92237
16.68432,88772
16.69243,83650
16.70055,86563
16.70868,82232
16.71680,77599
16.72492,80080
16.73305,76424
16.74117,74929
16.74930,82361
16.75742,83446
16.76553,80947
16.77367,82438
16.78178,80944
16.78992,71946
16.79803,73604
16.80615,74335
16.81428,66917
16.82240,69897
16.83052,61583
16.83865,61936
16.84677,62151
16.85490,63410
16.86302,64457
16.87113,63379
16.87927,58453
16.88738,61168
16.89552,61364
16.90363,64080
16.91175,58807
16.91988,61504
16.92800,59410
16.93613,63408
16.94425,63403
16.95237,62778
16.96050,59606
16.96862,61132
16.97673,59290
16.98487,60034
16.99298,59642
17.00112,62165
17.00923,62533
17.01735,63511
17.02548,64667
17.03360,66008
17.04173,68895
17.04985,74754
17.05797,68715
17.06610,69645
17.07422,63122
17.08235,68113
17.09047,64292
17.09858,67243
17.10672,64771
17.11483,76081
17.12295,74246
17.13108,81757
17.13920,81426
17.14733,76215
17.15545,76256
17.16357,72960
17.17170,72470
17.17982,69147
17.18795,63094
17.19607,66400
17.20418,64273
17.21232,61362
17.22043,62628
17.22855,63613
17.23668,68425
17.24480,63985
17.25293,67825
17.26105,63547
17.26917,61222
17.27730,65591
17.28542,62235
17.29355,62942
17.30167,65717
17.30978,72320
17.31792,73868
17.32603,94524
17.33417,99689
17.34228,112898
17.35040,119098
17.35853,115207
17.36665,114477
17.37477,107483
17.38290,103255
17.39102,99790
17.39915,106155
17.40727,100661
17.41538,104636
17.42352,98732
17.43163,103668
17.43977,99393
17.44788,100542
17.45600,86106
17.46413,85918
17.47225,78599
17.48037,79749
17.48850,74935
17.49662,75287
17.50475,73083
17.51287,71303
17.52098,67899
17.52912,73406
17.53723,73163
17.54537,79922
17.55348,85495
17.56160,105008
17.56973,158780
17.57785,254202
17.58598,385635
17.59410,568863
17.60222,692114
17.61035,738077
17.61847,660632
17.62658,540240
17.63472,419661
17.64283,341961
17.65097,310545
17.65908,311509
17.66720,308035
17.67533,299039
17.68345,262437
17.69158,220364
17.69970,185387
17.70782,156189
17.71595,148631
17.72407,143214
17.73220,133025
17.74032,126629
17.74843,124892
17.75657,125434
17.76468,118268
17.77280,113898
17.78093,111915
17.78905,121820
17.79718,145517
17.80530,207145
17.81342,290979
17.82155,368464
17.82967,421655
17.83780,417035
17.84592,373794
17.85403,318698
17.86217,271325
17.87028,233603
17.87840,201055
17.88653,169993
17.89465,143795
17.90278,126239
17.91090,120295
17.91902,111239
17.92715,104379
17.93527,99738
17.94340,99433
17.95152,97034
17.95963,94947
17.96777,92675
17.97588,91328
17.98402,91649
17.99213,87423
18.00025,91250
18.00838,96182
18.01650,112087
18.02462,134724
18.03275,153465
18.04087,169074
18.04900,189550
18.05712,241184
18.06523,400003
18.07337,691748
18.08148,1080541
18.08962,1469297
18.09773,1629062
18.10585,1549419
18.11398,1285809
18.12210,947335
18.13023,699519
18.13835,550810
18.14647,445550
18.15460,397542
18.16272,346469
18.17083,316640
18.17897,292885
18.18708,262013
18.19522,242005
18.20333,229617
18.21145,206743
18.21958,195384
18.22770,183534
18.23583,179188
18.24395,164224
18.25207,158617
18.26020,155808
18.26832,143822
18.27643,131588
18.28457,118431
18.29268,108148
18.30082,95500
18.30893,87179
18.31705,85431
18.32518,83900
18.33330,79377
18.34143,78572
18.34955,82057
18.35767,75643
18.36580,81574
18.37392,85196
18.38205,80996
18.39017,87417
18.39828,85416
18.40642,90434
18.41453,102786
18.42265,120205
18.43078,150725
18.43890,188566
18.44703,245805
18.45515,322375
18.46327,399066
18.47140,454735
18.47952,498921
18.48765,512586
18.49577,491907
18.50388,449652
18.51202,399159
18.52013,366369
18.52827,347142
18.53638,332919
18.54450,317426
18.55263,316779
18.56075,310695
18.56887,296530
18.57700,284657
18.58512,303282
18.59325,305595
18.60137,317773
18.60948,326693
18.61762,329162
18.62573,324047
18.63387,322610
18.64198,325937
18.65010,313166
18.65823,293690
18.66635,292621
18.67447,285118
18.68260,274342
18.69072,272693
18.69885,264066
18.70697,269513
18.71508,261639
18.72322,261036
18.73133,258930
18.73947,257251
18.74758,255813
18.75570,244809
18.76383,241496
18.77195,245930
18.78008,238148
18.78820,236590
18.79632,239465
18.80445,240481
18.81257,234984
18.82068,230660
18.82882,230117
18.83693,224600
18.84507,232977
18.85318,227346
18.86130,235711
18.86943,237336
18.87755,233428
18.88568,238743
18.89380,240146
18.90192,248957
18.91005,240645
18.91817,258678
18.92628,262315
18.93442,266138
18.94253,277414
18.95067,301658
18.95878,295992
18.96690,298812
18.97503,292266
18.98315,290799
18.99128,282906
18.99940,270109
19.00752,277189
19.01565,265673
19.02377,265750
19.03190,261407
19.04002,263050
19.04813,268431
19.05627,275048
19.06438,287835
19.07250,322967
19.08063,388037
19.08875,490906
19.09688,600135
19.10500,692825
19.11312,686143
19.12125,611466
19.12937,536078
19.13750,444593
19.14562,394528
19.15373,350425
19.16187,333268
19.16998,313563
19.17812,306038
19.18623,298119
19.19435,291631
19.20248,281678
19.21060,289219
19.21872,276171
19.22685,283209
19.23497,270137
19.24310,275259
19.25122,277139
19.25933,263064
19.26747,270621
19.27558,260432
19.28372,268397
19.29183,277530
19.29995,287330
19.30808,279583
19.31620,267806
19.32432,270604
19.33245,276985
19.34057,279025
19.34870,288306
19.35682,309000
19.36493,333755
19.37307,352974
19.38118,362940
19.38932,344892
19.39743,324105
19.40555,307177
19.41368,287685
19.42180,272044
19.42993,266092
19.43805,257551
19.44617,251200
19.45430,245971
19.46242,238093
19.47053,231325
19.47867,249760
19.48678,289530
19.49492,351740
19.50303,449124
19.51115,494572
19.51928,487260
19.52740,438113
19.53553,366664
19.54365,300546
19.55177,267893
19.55990,229285
19.56802,209665
19.57615,197671
19.58427,186413
19.59238,170648
19.60052,168794
19.60863,167307
19.61675,164697
19.62488,175502
19.63300,189896
19.64113,242570
19.64925,308558
19.65737,407282
19.66550,505200
19.67362,570734
19.68175,583928
19.68987,538700
19.69798,493379
19.70612,438303
19.71423,373867
19.72235,333403
19.73048,310864
19.73860,277645
19.74673,254693
19.75485,248539
19.76297,239173
19.77110,236753
19.77922,248270
19.78735,274855
19.79547,299744
19.80358,305237
19.81172,299812
19.81983,277152
19.82797,245719
19.83608,226000
19.84420,217363
19.85233,246311
19.86045,373611
19.86857,701474
19.87670,1250025
19.88482,2143059
19.89295,3097099
19.90107,3626225
19.90918,3701022
19.91732,3158390
19.92543,2432121
19.93357,1717751
19.94168,1194319
19.94980,877862
19.95793,718924
19.96605,628289
19.97417,577783
19.98230,529804
19.99042,505109
19.99855,472032
20.00667,442651
20.01478,438555
20.02292,399743
20.03103,394147
20.03917,378715
20.04728,349663
20.05540,360168
20.06353,366273
20.07165,398854
20.07978,429034
20.08790,451878
20.09602,442482
20.10415,400885
20.11227,341139
20.12038,295726
20.12852,270992
20.13663,261524
20.14477,302729
20.15288,411412
20.16100,607442
20.16913,917064
20.17725,1315445
20.18538,1699780
20.19350,1966690
20.20162,2013729
20.20975,1946135
20.21787,1630951
20.22600,1276970
20.23412,1030879
20.24223,944710
20.25037,982047
20.25848,1155968
20.26660,1375738
20.27473,1510884
20.28285,1559597
20.29098,1463810
20.29910,1265292
20.30722,985434
20.31535,756166
20.32347,553802
20.33160,415885
20.33972,323823
20.34783,264767
20.35597,223734
20.36408,188058
20.37220,175126
20.38033,163436
20.38845,150197
20.39658,145168
20.40470,140379
20.41282,137132
20.42095,139818
20.42907,149392
20.43720,166372
20.44532,181869
20.45343,186079
20.46157,194722
20.46968,203322
20.47782,198616
20.48593,173753
20.49405,166792
20.50218,142328
20.51030,127507
20.51842,115731
20.52655,109117
20.53467,113530
20.54280,107439
20.55092,109109
20.55903,107286
20.56717,103708
20.57528,100011
20.58342,101552
20.59153,97407
20.59965,93189
20.60778,100041
20.61590,95109
20.62403,96379
20.63215,102235
20.64027,110226
20.64840,106646
20.65652,109272
20.66463,109984
20.67277,106951
20.68088,102200
20.68902,91795
20.69713,95699
20.70525,91108
20.71338,85310
20.72150,84833
20.72963,91757
20.73775,85089
20.74587,88470
20.75400,94896
20.76212,107066
20.77023,110646
20.77837,125809
20.78648,176284
20.79462,273717
20.80273,400738
20.81085,521050
20.81898,629153
20.82710,611192
20.83523,538171
20.84335,373381
20.85147,268356
20.85960,194624
20.86772,155292
20.87585,130841
20.88397,124682
20.89208,123301
20.90022,121705
20.90833,131137
20.91645,144845
20.92458,149792
20.93270,162548
20.94083,170185
20.94895,158615
20.95707,152627
20.96520,143243
20.97332,131493
20.98145,116805
20.98957,111534
20.99768,99635
21.00582,98509
21.01393,104807
21.02205,105533
21.03018,99437
21.03830,100553
21.04643,109948
21.05455,100924
21.06267,101511
21.07080,97211
21.07892,99586
21.08705,97081
21.09517,90652
21.10328,101115
21.11142,91410
21.11953,93562
21.12767,104989
21.13578,136859
21.14390,177585
21.15203,222983
21.16015,256371
21.16827,273408
21.17640,257522
21.18452,217546
21.19265,184349
21.20077,153266
21.20888,134715
21.21702,127842
21.22513,120345
21.23327,116300
21.24138,110385
21.24950,112917
21.25763,111959
21.26575,113820
21.27388,125938
21.28200,109784
21.29012,105420
21.29825,107407
21.30637,105814
21.31448,107116
21.32262,107471
21.33073,108960
21.33887,105386
21.34698,105852
21.35510,107934
21.36323,109852
21.37135,118446
21.37948,128143
21.38760,135670
21.39572,154348
21.40385,169051
21.41197,179870
21.42010,185159
21.42822,170539
21.43633,149943
21.44447,136620
21.45258,135745
21.46070,135930
21.46883,132511
21.47695,128080
21.48508,121825
21.49320,122938
21.50132,128178
21.50945,119745
21.51757,119051
21.52570,115551
21.53382,122236
21.54193,122582
21.55007,124046
21.55818,121591
21.56630,119766
21.57443,124690
21.58255,124354
21.59068,124476
21.59880,136809
21.60692,137366
21.61505,143923
21.62317,148608
21.63130,158128
21.63942,170265
21.64753,172116
21.65567,174366
21.66378,177105
21.67192,174047
21.68003,158615
21.68815,156939
21.69628,145101
21.70440,133418
21.71252,128769
21.72065,121016
21.72877,112492
21.73690,112692
21.74502,112623
21.75313,111803
21.76127,106976
21.76938,114736
21.77752,116299
21.78563,125845
21.79375,127914
21.80188,136007
21.81000,134306
21.81812,142722
21.82625,135355
21.83437,145982
21.84250,148844
21.85062,142650
21.85873,134500
21.86687,124736
21.87498,118381
21.88312,112481
21.89123,102332
21.89935,101006
21.90748,100162
21.91560,97768
21.92373,95764
21.93185,88857
21.93997,90065
21.94810,85505
21.95622,85955
21.96433,81339
21.97247,80238
21.98058,83319
21.98872,81604
21.99683,81165
22.00495,86236
22.01308,85371
22.02120,85124
22.02933,86168
22.03745,86142
22.04557,90238
22.05370,91094
22.06182,85170
22.06995,86959
22.07807,86337
22.08618,83412
22.09432,83021
22.10243,77509
22.11055,84906
22.11868,78574
22.12680,80329
22.13493,78956
22.14305,81104
22.15117,84564
22.15930,85323
22.16742,76556
22.17555,79437
22.18367,76975
22.19178,82206
22.19992,86226
22.20803,87730
22.21615,85165
22.22428,88745
22.23240,87817
22.24053,81109
22.24865,83373
22.25677,89476
22.26490,80782
22.27302,86684
22.28115,89278
22.28927,95721
22.29738,97752
22.30552,99369
22.31363,92973
22.32177,88074
22.32988,91182
22.33800,91475
22.34613,89172
22.35425,87729
22.36237,88962
22.37050,88814
22.37862,91352
22.38675,108040
22.39487,120237
22.40298,157705
22.41112,189651
22.41923,219788
22.42737,214964
22.43548,204815
22.44360,180966
22.45173,159287
22.45985,127664
22.46798,116471
22.47610,113473
22.48422,127449
22.49235,134308
22.50047,152116
22.50858,163694
22.51672,176248
22.52483,173720
22.53297,162186
22.54108,149051
22.54920,131366
22.55733,117576
22.56545,108228
22.57358,105022
22.58170,99302
22.58982,99290
22.59795,93399
22.60607,84224
22.61418,85858
22.62232,84316
22.63043,82551
22.63857,86870
22.64668,83277
22.65480,89947
22.66293,88703
22.67105,91127
22.67918,91518
22.68730,100267
22.69542,105253
22.70355,110664
22.71167,122174
22.71980,125026
22.72792,121658
22.73603,116067
22.74417,108322
22.75228,103240
22.76040,94329
22.76853,93012
22.77665,98089
22.78478,99971
22.79290,112890
22.80102,120328
22.80915,128823
22.81727,135660
22.82540,126771
22.83352,116847
22.84163,109933
22.84977,105730
22.85788,109159
22.86600,126200
22.87413,147923
22.88225,177272
22.89038,189944
22.89850,219145
22.90662,216290
22.91475,217045
22.92287,208558
22.93100,193230
22.93912,196468
22.94723,163284
22.95537,147700
22.96348,134592
22.97162,118365
22.97973,113454
22.98785,109787
22.99598,104639
23.00410,103159
23.01222,95527
23.02035,102127
23.02847,101855
23.03660,100924
23.04472,103707
23.05283,113622
23.06097,113955
23.06908,123209
23.07722,122715
23.08533,117418
23.09345,117711
23.10158,114840
23.10970,110423
23.11783,109682
23.12595,107011
23.13407,106045
23.14220,109631
23.15032,106675
23.15843,109584
23.16657,110194
23.17468,107908
23.18282,108129
23.19093,106452
23.19905,110402
23.20718,102975
23.21530,105869
23.22343,101001
23.23155,105624
23.23967,105742
23.24780,110021
23.25592,117592
23.26403,118756
23.27217,120583
23.28028,123646
23.28842,114529
23.29653,112166
23.30465,107296
23.31278,112478
23.32090,112806
23.32903,124494
23.33715,139379
23.34527,167972
23.35340,197908
23.36152,241261
23.36965,273866
23.37777,293026
23.38588,312357
23.39402,322968
23.40213,328702
23.41025,336063
23.41838,335138
23.42650,325880
23.43463,328806
23.44275,308568
23.45087,289472
23.45900,281357
23.46712,260304
23.47525,258147
23.48337,242140
23.49148,229889
23.49962,224397
23.50773,207394
23.51587,200456
23.52398,193346
23.53210,190188
23.54023,191401
23.54835,197894
23.55647,215119
23.56460,216859
23.57272,250938
23.58085,289408
23.58897,339418
23.59708,392131
23.60522,417916
23.61333,397857
23.62147,347178
23.62958,290711
23.63770,254618
23.64583,238784
23.65395,240484
23.66207,241907
23.67020,247891
23.67832,224501
23.68645,199397
23.69457,187916
23.70268,158354
23.71082,148255
23.71893,146581
23.72707,134893
23.73518,148620
23.74330,196128
23.75143,359501
23.75955,710957
23.76768,1360254
23.77580,2368993
23.78392,3324787
23.79205,3963974
23.80017,3911319
23.80828,3441087
23.81642,2713898
23.82453,2034157
23.83267,1532492
23.84078,1136269
23.84890,898337
23.85703,716820
23.86515,581793
23.87328,520509
23.88140,458072
23.88952,427825
23.89765,391346
23.90577,367217
23.91390,339513
23.92202,322291
23.93013,313319
23.93827,280727
23.94638,258932
23.95450,235370
23.96263,226496
23.97075,212292
23.97888,209063
23.98700,213256
23.99512,225307
24.00325,285681
24.01137,423969
24.01950,632255
24.02762,843316
24.03573,1053428
24.04387,1057370
24.05198,909373
24.06010,675498
24.06823,478101
24.07635,339136
24.08448,274612
24.09260,237461
24.10072,217408
24.10885,208822
24.11697,209902
24.12510,206170
24.13322,211132
24.14133,225359
24.14947,234328
24.15758,227871
24.16572,228102
24.17383,221219
24.18195,216915
24.19008,207721
24.19820,225285
24.20632,217111
24.21445,199262
24.22257,192343
24.23070,188823
24.23882,159754
24.24693,155824
24.25507,146401
24.26318,139036
24.27132,130969
24.27943,132753
24.28755,130061
24.29568,131087
24.30380,153798
24.31192,173910
24.32005,205891
24.32817,259293
24.33630,290093
24.34442,351076
24.35253,354493
24.36067,373901
24.36878,403087
24.37692,408371
24.38503,422104
24.39315,447769
24.40128,450428
24.40940,392854
24.41753,323656
24.42565,261219
24.43377,211459
24.44190,200111
24.45002,202553
24.45813,219296
24.46627,232987
24.47438,240316
24.48252,254105
24.49063,261296
24.49875,271279
24.50688,282343
24.51500,269835
24.52313,268578
24.53125,277544
24.53937,265161
24.54750,282842
24.55562,293629
24.56375,283658
24.57187,275620
24.57998,255777
24.58812,250391
24.59623,229838
24.60435,214776
24.61248,204449
24.62060,203184
24.62873,201012
24.63685,203211
24.64497,204175
24.65310,207159
24.66122,197496
24.66935,194646
24.67747,193965
24.68558,192026
24.69372,192666
24.70183,188137
24.70995,181852
24.71808,173678
24.72620,172397
24.73433,176212
24.74245,177524
24.75057,174387
24.75870,173122
24.76682,174579
24.77495,181680
24.78307,179548
24.79118,183563
24.79932,186186
24.80743,172664
24.81557,187014
24.82368,187543
24.83180,200071
24.83993,221468
24.84805,261212
24.85617,318762
24.86430,404656
24.87242,517995
24.88055,643957
24.88867,730052
24.89678,775121
24.90492,723223
24.91303,582379
24.92117,451502
24.92928,332813
24.93740,255928
24.94553,212418
24.95365,185781
24.96178,174422
24.96990,164581
24.97802,161513
24.98615,162760
24.99427,158924
25.00238,160297
25.01052,160757
25.01863,149858
25.02677,146815
25.03488,149530
25.04300,148915
25.05113,150931
25.05925,147512
25.06738,149221
25.07550,155728
25.08362,160493
25.09175,175527
25.09987,253158
25.10798,447040
25.11612,839374
25.12423,1529599
25.13237,2403401
25.14048,3188961
25.14860,3562331
25.15673,3504579
25.16485,2874437
25.17298,1982139
25.18110,1255298
25.18922,779046
25.19735,487812
25.20547,338415
25.21360,264053
25.22172,228485
25.22983,216142
25.23797,226651
25.24608,247230
25.25420,282262
25.26233,303919
25.27045,324461
25.27858,324234
25.28670,292637
25.29482,257948
25.30295,227488
25.31107,195202
25.31920,182006
25.32732,148377
25.33543,157492
25.34357,147106
25.35168,130498
25.35980,123518
25.36793,120371
25.37605,116659
25.38418,110998
25.39230,115096
25.40042,112672
25.40855,111070
25.41667,107666
25.42480,108778
25.43292,104687
25.44103,104830
25.44917,111919
25.45728,109448
25.46542,111623
25.47353,114415
25.48165,113272
25.48978,114845
25.49790,111438
25.50602,103776
25.51415,99960
25.52227,100460
25.53040,97733
25.53852,96582
25.54663,92039
25.55477,94929
25.56288,97326
25.57102,99497
25.57913,101498
25.58725,100274
25.59538,97220
25.60350,99254
25.61163,99742
25.61975,91655
25.62787,92099
25.63600,92107
25.64412,94062
25.65223,93830
25.66037,96401
25.66848,101277
25.67662,96883
25.68473,107720
25.69285,111556
25.70098,114666
25.70910,110903
25.71723,123530
25.72535,140043
25.73347,147410
25.74160,161602
25.74972,161787
25.75785,166140
25.76597,179761
25.77408,173517
25.78222,180956
25.79033,182524
25.79845,184374
25.80658,194243
25.81470,190203
25.82283,205798
25.83095,203977
25.83907,223484
25.84720,231225
25.85532,230843
25.86345,227404
25.87157,224387
25.87968,212340
25.88782,194985
25.89593,188700
25.90405,181005
25.91218,184223
25.92030,181555
25.92843,181596
25.93655,175994
25.94467,180625
25.95280,182640
25.96092,172158
25.96905,174465
25.97717,171729
25.98528,168969
25.99342,165255
26.00153,167564
26.00967,158750
26.01778,161100
26.02590,162000
26.03403,156019
26.04215,160212
26.05027,154561
26.05840,161647
26.06652,162242
26.07465,162997
26.08277,171569
26.09088,168309
26.09902,163513
26.10713,162515
26.11527,168370
26.12338,163707
26.13150,172714
26.13963,183001
26.14775,185712
26.15587,184793
26.16400,173277
26.17212,170322
26.18025,162921
26.18837,159316
26.19648,154761
26.20462,149371
26.21273,148477
26.22087,141838
26.22898,141612
26.23710,140026
26.24523,139034
26.25335,148953
26.26148,134606
26.26960,140334
26.27772,126770
26.28585,131271
26.29397,126174
26.30208,130098
26.31022,129016
26.31833,125947
26.32647,127541
26.33458,132302
26.34270,132191
26.35083,159471
26.35895,202415
26.36708,296076
26.37520,409776
26.38332,568826
26.39145,694776
26.39957,784875
26.40770,778274
26.41582,704095
26.42393,553747
26.43207,426418
26.44018,301179
26.44830,229492
26.45643,173953
26.46455,155170
26.47268,144545
26.48080,140177
26.48892,128934
26.49705,129148
26.50517,124740
26.51330,122555
26.52142,115096
26.52953,112647
26.53767,108199
26.54578,110901
26.55390,110701
26.56203,109936
26.57015,105693
26.57828,106725
26.58640,105248
26.59452,106392
26.60265,100969
26.61077,100775
26.61890,100961
26.62702,99485
26.63513,96792
26.64327,101459
26.65138,103674
26.65952,97964
26.66763,108995
26.67575,104245
26.68388,120298
26.69200,100055
26.70012,102309
26.70825,104280
26.71637,103347
26.72450,107835
26.73262,102920
26.74073,96891
26.74887,94043
26.75698,100958
26.76512,101615
26.77323,94735
26.78135,100334
26.78948,96881
26.79760,103060
26.80573,104174
26.81385,108235
26.82197,107111
26.83010,108625
26.83822,108225
26.84633,104940
26.85447,110796
26.86258,111264
26.87072,112127
26.87883,109063
26.88695,110106
26.89508,109944
26.90320,110608
26.91133,101045
26.91945,105326
26.92757,110767
26.93570,109090
26.94382,110565
26.95193,116771
26.96007,128481
26.96818,164532
26.97632,226883
26.98443,351821
26.99255,564670
27.00068,856983
27.00880,1229250
27.01693,1631065
27.02505,1814133
27.03317,1767630
27.04130,1568116
27.04942,1330661
27.05755,1068393
27.06567,824344
27.07378,653913
27.08192,535760
27.09003,448983
27.09815,383943
27.10628,338469
27.11440,305066
27.12253,289014
27.13065,267976
27.13877,258434
27.14690,248996
27.15502,244102
27.16315,234991
27.17127,247222
27.17938,262665
27.18752,250332
27.19563,251552
27.20375,232302
27.21188,214708
27.22000,209222
27.22813,201697
27.23625,184482
27.24437,177615
27.25250,173547
27.26062,168085
27.26875,164681
27.27687,156267
27.28498,158224
27.29312,155107
27.30123,142474
27.30937,141815
27.31748,146634
27.32560,139802
27.33373,138997
27.34185,140622
27.34997,139569
27.35810,137872
27.36622,140493
27.37435,132243
27.38247,140070
27.39058,125782
27.39872,129322
27.40683,130696
27.41497,130973
27.42308,132107
27.43120,130751
27.43933,127670
27.44745,128664
27.45558,132622
27.46370,124667
27.47182,117720
27.47995,115731
27.48807,119324
27.49618,119617
27.50432,124605
27.51243,123245
27.52057,124908
27.52868,121716
27.53680,122994
27.54493,118934
27.55305,116367
27.56118,125718
27.56930,126388
27.57742,127590
27.58555,145814
27.59367,157616
27.60178,161846
27.60992,165421
27.61803,158276
27.62617,150880
27.63428,142852
27.64240,132456
27.65053,124537
27.65865,118058
27.66678,127975
27.67490,120075
27.68302,126917
27.69115,126629
27.69927,126298
27.70740,118413
27.71552,115721
27.72363,113776
27.73177,109505
27.73988,106530
27.74800,102599
27.75613,102305
27.76425,100536
27.77238,109060
27.78050,105261
27.78862,108798
27.79675,112644
27.80487,104670
27.81300,108400
27.82112,111781
27.82923,103875
27.83737,104391
27.84548,104917
27.85362,105869
27.86173,106287
27.86985,96190
27.87798,107874
27.88610,100719
27.89422,102934
27.90235,98214
27.91047,99761
27.91860,102671
27.92672,96688
27.93483,96287
27.94297,100306
27.95108,98300
27.95922,99115
27.96733,98418
27.97545,93240
27.98358,94210
27.99170,88246
27.99982,98477
28.00795,100807
28.01607,113199
28.02420,128798
28.03232,146762
28.04043,164615
28.04857,176285
28.05668,170893
28.06482,160430
28.07293,147984
28.08105,132964
28.08918,122287
28.09730,118867
28.10543,111110
28.11355,106445
28.12167,111703
28.12980,102203
28.13792,95113
28.14603,94247
28.15417,101652
28.16228,96110
28.17042,95530
28.17853,109136
28.18665,123211
28.19478,134584
28.20290,145468
28.21103,149606
28.21915,159840
28.22727,156706
28.23540,147034
28.24352,137498
28.25163,123960
28.25977,113468
28.26788,109782
28.27602,100234
28.28413,106179
28.29225,116365
28.30038,125266
28.30850,149917
28.31663,174298
28.32475,209224
28.33287,240501
28.34100,273246
28.34912,314895
28.35725,339680
28.36537,367229
28.37348,385209
28.38162,397682
28.38973,389211
28.39785,390564
28.40598,358208
28.41410,336234
28.42223,330901
28.43035,283735
28.43847,264001
28.44660,246414
28.45472,226971
28.46285,219550
28.47097,200774
28.47908,204421
28.48722,193843
28.49533,189611
28.50347,189729
28.51158,185209
28.51970,171046
28.52783,166284
28.53595,152226
28.54407,148708
28.55220,139280
28.56032,128447
28.56845,134852
28.57657,127981
28.58468,118372
28.59282,119244
28.60093,128236
28.60907,127367
28.61718,128068
28.62530,135854
28.63343,135787
28.64155,138375
28.64967,144647
28.65780,142470
28.66592,137423
28.67405,133677
28.68217,130187
28.69028,126319
28.69842,121220
28.70653,120453
28.71467,112520
28.72278,119310
28.73090,125250
28.73903,151729
28.74715,198173
28.75528,255770
28.76340,324509
28.77152,367985
28.77965,374520
28.78777,324538
28.79588,267195
28.80402,205746
28.81213,167432
28.82027,138297
28.82838,134574
28.83650,131403
28.84463,122267
28.85275,116463
28.86088,118914
28.86900,116170
28.87712,123914
28.88525,119991
28.89337,123434
28.90150,124407
28.90962,126943
28.91773,123455
28.92587,123271
28.93398,117722
28.94210,120253
28.95023,122055
28.95835,123010
28.96648,118380
28.97460,116680
28.98272,110758
28.99085,111940
28.99897,110502
29.00710,99310
29.01522,101773
29.02333,101090
29.03147,103165
29.03958,100156
29.04770,97520
29.05583,104577
29.06395,101636
29.07208,106992
29.08020,106629
29.08832,106512
29.09645,106846
29.10457,107523
29.11270,102793
29.12082,100711
29.12893,100441
29.13707,100504
29.14518,102637
29.15332,95028
29.16143,101763
29.16955,105764
29.17768,105041
29.18580,111343
29.19392,117504
29.20205,132726
29.21017,144137
29.21830,164528
29.22642,193245
29.23453,252028
29.24267,362903
29.25078,528706
29.25892,674322
29.26703,794825
29.27515,775731
29.28328,686001
29.29140,492944
29.29953,333075
29.30765,224494
29.31577,158201
29.32390,125360
29.33202,112314
29.34013,106732
29.34827,109243
29.35638,105271
29.36452,102898
29.37263,99524
29.38075,100543
29.38888,104862
29.39700,103586
29.40513,106769
29.41325,98158
29.42137,97529
29.42950,101817
29.43762,99617
29.44573,105164
29.45387,105552
29.46198,97174
29.47012,99544
29.47823,102792
29.48635,104017
29.49448,104582
29.50260,107201
29.51073,113854
29.51885,104579
29.52697,104582
29.53510,101091
29.54322,103770
29.55135,97367
29.55947,93794
29.56758,93307
29.57572,94825
29.58383,86512
29.59195,87211
29.60008,90240
29.60820,96622
29.61633,88401
29.62445,88827
29.63257,88530
29.64070,86795
29.64882,93024
29.65695,89674
29.66507,94789
29.67318,93458
29.68132,98288
29.68943,96222
29.69755,101942
29.70568,101927
29.71380,99963
29.72193,98620
29.73005,95213
29.73817,97025
29.74630,92207
29.75442,97821
29.76255,102901
29.77067,90226
29.77878,86885
29.78692,91601
29.79503,85318
29.80317,91488
29.81128,89370
29.81940,85122
29.82753,88927
29.83565,87632
29.84377,84621
29.85190,85338
29.86002,85019
29.86815,96337
29.87627,98656
29.88438,107218
29.89252,126388
29.90063,125682
29.90877,121854
29.91688,127766
29.92500,119169
29.93313,111437
29.94125,110180
29.94938,107792
29.95750,120324
29.96562,127125
29.97375,129159
29.98187,155344
29.98998,166177
29.99812,178559
30.00623,182099
30.01437,196213
30.02248,199028
30.03060,194447
30.03873,202216
30.04685,202052
30.05498,202221
30.06310,200352
30.07122,202385
30.07935,185836
30.08747,185246
30.09558,182706
30.10372,171387
30.11183,170257
30.11997,161242
30.12808,161548
30.13620,157918
30.14433,149043
30.15245,149059
30.16058,147867
30.16870,140945
30.17682,143868
30.18495,150076
30.19307,142888
30.20120,151419
30.20932,160042
30.21743,143816
30.22557,135471
30.23368,126532
30.24180,120968
30.24993,111994
30.25805,109573
30.26618,112506
30.27430,112963
30.28242,110983
30.29055,109265
30.29867,108764
30.30680,108584
30.31492,110765
30.32303,102109
30.33117,110445
30.33928,103649
30.34742,105633
30.35553,106802
30.36365,110048
30.37178,103269
30.37990,100389
30.38802,102777
30.39615,99091
30.40427,96468
30.41240,99911
30.42052,105095
30.42863,99469
30.43677,98736
30.44488,98576
30.45302,98038
30.46113,99159
30.46925,99170
30.47738,99773
30.48550,100121
30.49362,96475
30.50175,96745
30.50987,96759
30.51800,99936
30.52612,98858
30.53423,103022
30.54237,94098
30.55048,95783
30.55862,98119
30.56673,103507
30.57485,100403
30.58298,103274
30.59110,95704
30.59923,95974
30.60735,96873
30.61547,96500
30.62360,97948
30.63172,97426
30.63983,97465
30.64797,95476
30.65608,88476
30.66422,93044
30.67233,100905
30.68045,111098
30.68858,111532
30.69670,116807
30.70483,123699
30.71295,125241
30.72107,135005
30.72920,136917
30.73732,138986
30.74543,139639
30.75357,147045
30.76168,142311
30.76982,149473
30.77793,148528
30.78605,161684
30.79418,183204
30.80230,197184
30.81043,199226
30.81855,206435
30.82667,196172
30.83480,188311
30.84292,176449
30.85105,167698
30.85917,166171
30.86728,170687
30.87542,164463
30.88353,171304
30.89165,167711
30.89978,169687
30.90790,160964
30.91603,155507
30.92415,149852
30.93227,153826
30.94040,154226
30.94852,152202
30.95665,154728
30.96477,149047
30.97288,144353
30.98102,149807
30.98913,145326
30.99727,144854
31.00538,145906
31.01350,144268
31.02163,140432
31.02975,143239
31.03787,140722
31.04600,144965
31.05412,137357
31.06225,138236
31.07037,147092
31.07848,160175
31.08662,161713
31.09473,176482
31.10287,186092
31.11098,185754
31.11910,185046
31.12723,168400
31.13535,160158
31.14348,153884
31.15160,152170
31.15972,145935
31.16785,159606
31.17597,177350
31.18408,203397
31.19222,240875
31.20033,312006
31.20847,393693
31.21658,448049
31.22470,485928
31.23283,467947
31.24095,416633
31.24908,333358
31.25720,255934
31.26532,204605
31.27345,173097
31.28157,148090
31.28968,141193
31.29782,138455
31.30593,136423
31.31407,131976
31.32218,134741
31.33030,130618
31.33843,129016
31.34655,129603
31.35468,129216
31.36280,125647
31.37092,123870
31.37905,124496
31.38717,130910
31.39530,131112
31.40342,128873
31.41153,130461
31.41967,126137
31.42778,128459
31.43590,120658
31.44403,117307
31.45215,114849
31.46028,113912
31.46840,117215
31.47652,119831
31.48465,120239
31.49277,120979
31.50090,129114
31.50902,123320
31.51713,136959
31.52527,124999
31.53338,128854
31.54150,125494
31.54963,123226
31.55775,123434
31.56588,122049
31.57400,115194
31.58212,112321
31.59025,112833
31.59837,113231
31.60650,107088
31.61462,113617
31.62273,119075
31.63087,112419
31.63898,114317
31.64712,112132
31.65523,120631
31.66335,114970
31.67148,121900
31.67960,112601
31.68772,120757
31.69585,113596
31.70397,117410
31.71210,117094
31.72022,105561
31.72833,107156
31.73647,111194
31.74458,110238
31.75272,116442
31.76083,116177
31.76895,117613
31.77708,123165
31.78520,121630
31.79333,120303
31.80145,125137
31.80957,122976
31.81770,130930
31.82582,124174
31.83393,127544
31.84207,127491
31.85018,136092
31.85832,129946
31.86643,141331
31.87455,135861
31.88268,143425
31.89080,145847
31.89893,152269
31.90705,151275
31.91517,172906
31.92330,180673
31.93142,192171
31.93953,193307
31.94767,207671
31.95578,224161
31.96392,226063
31.97203,227045
31.98015,233683
31.98828,228532
31.99640,233254
32.00453,230275
32.01265,224908
32.02077,218321
32.02890,211939
32.03702,203135
32.04515,194796
32.05327,198499
32.06138,199645
32.06952,190905
32.07763,181291
32.08575,183646
32.09388,175169
32.10200,171178
32.11013,161372
32.11825,152304
32.12637,155126
32.13450,149242
32.14262,144823
32.15075,145087
32.15887,143651
32.16698,137531
32.17512,134868
32.18323,149748
32.19137,136631
32.19948,137092
32.20760,134826
32.21573,126659
32.22385,130785
32.23197,125194
32.24010,125520
32.24822,128059
32.25635,134227
32.26447,128912
32.27258,132399
32.28072,135449
32.28883,127432
32.29697,126353
32.30508,125342
32.31320,124281
32.32133,123039
32.32945,122779
32.33757,122809
32.34570,124398
32.35382,127623
32.36195,130914
32.37007,128122
32.37818,130391
32.38632,131342
32.39443,122806
32.40257,121344
32.41068,120678
32.41880,118784
32.42693,119138
32.43505,114209
32.44318,112741
32.45130,118714
32.45942,120083
32.46755,119163
32.47567,115111
32.48378,122789
32.49192,111434
32.50003,114702
32.50817,117332
32.51628,118079
32.52440,115344
32.53253,115400
32.54065,117941
32.54878,112820
32.55690,115657
32.56502,109416
32.57315,107240
32.58127,109230
32.58938,112606
32.59752,107823
32.60563,107914
32.61377,102348
32.62188,109818
32.63000,114843
32.63813,137512
32.64625,164079
32.65438,204229
32.66250,235503
32.67062,255653
32.67875,252585
32.68687,233754
32.69500,198013
32.70312,167855
32.71123,144576
32.71937,134131
32.72748,129487
32.73560,122542
32.74373,122897
32.75185,113991
32.75998,112739
32.76810,114027
32.77622,109614
32.78435,113120
32.79247,105852
32.80060,111507
32.80872,110690
32.81683,107161
32.82497,115463
32.83308,111202
32.84122,104439
32.84933,102456
32.85745,113262
32.86558,109378
32.87370,107545
32.88182,112288
32.88995,122390
32.89807,123455
32.90620,129889
32.91432,135156
32.92243,122902
32.93057,121608
32.93868,120607
32.94682,109905
32.95493,102873
32.96305,107774
32.97118,114312
32.97930,125556
32.98742,128984
32.99555,139546
33.00367,146376
33.01180,150344
33.01992,139965
33.02803,136527
33.03617,136383
33.04428,132244
33.05242,128824
33.06053,132625
33.06865,140731
33.07678,148665
33.08490,159807
33.09303,162263
33.10115,169019
33.10927,167356
33.11740,166162
33.12552,162237
33.13363,155331
33.14177,138288
33.14988,130857
33.15802,122421
33.16613,118493
33.17425,113959
33.18238,124798
33.19050,111994
33.19863,114883
33.20675,119607
33.21487,116663
33.22300,118202
33.23112,118256
33.23925,113256
33.24737,112191
33.25548,116612
33.26362,111700
33.27173,108974
33.27985,108256
33.28798,113072
33.29610,110242
33.30423,107507
33.31235,108754
33.32047,110461
33.32860,113293
33.33672,108590
33.34485,110548
33.35297,116941
33.36108,121514
33.36922,121276
33.37733,121612
33.38545,113695
33.39358,113596
33.40170,103249
33.40983,104656
33.41795,103001
33.42607,104266
33.43420,103838
33.44232,101901
33.45045,100419
33.45857,101132
33.46668,105514
33.47482,103961
33.48293,108328
33.49107,104403
33.49918,111733
33.50730,113050
33.51543,110566
33.52355,117963
33.53167,122162
33.53980,106314
33.54792,115887
33.55605,115013
33.56417,116553
33.57228,117613
33.58042,119242
33.58853,117534
33.59667,110524
33.60478,107172
33.61290,110806
33.62103,113245
33.62915,114512
33.63727,116810
33.64540,123279
33.65352,124752
33.66165,122018
33.66977,117811
33.67788,112386
33.68602,106757
33.69413,101843
33.70227,105959
33.71038,112659
33.71850,106414
33.72663,100327
33.73475,103792
33.74288,102616
33.75100,100902
33.75912,100228
33.76725,102172
33.77537,106416
33.78348,101658
33.79162,104034
33.79973,100736
33.80787,104647
33.81598,105909
33.82410,107534
33.83223,104441
33.84035,106865
33.84848,107718
33.85660,105378
33.86472,107529
33.87285,113211
33.88097,114271
33.88910,118410
33.89722,116976
33.90533,124150
33.91347,120932
33.92158,126473
33.92970,126486
33.93783,138753
33.94595,140915
33.95408,145556
33.96220,154879
33.97032,164456
33.97845,172612
33.98657,184646
33.99470,201051
34.00282,214955
34.01093,222017
34.01907,240627
34.02718,251538
34.03530,263778
34.04343,275716
34.05155,304105
34.05968,322717
34.06780,342174
34.07592,361565
34.08405,376215
34.09217,373312
34.10030,408891
34.10842,429454
34.11653,451190
34.12467,443745
34.13278,455965
34.14092,444670
34.14903,448081
34.15715,444978
34.16528,438055
34.17340,437030
34.18152,411578
34.18965,405035
34.19777,405732
34.20590,385378
34.21402,378185
34.22213,359485
34.23027,363218
34.23838,365122
34.24652,354846
34.25463,367848
34.26275,353183
34.27088,358013
34.27900,365281
34.28713,358112
34.29525,369156
34.30337,350155
34.31150,345410
34.31962,354048
34.32773,342087
34.33587,340221
34.34398,328086
34.35212,321535
34.36023,318399
34.36835,309357
34.37648,309593
34.38460,285329
34.39273,283747
34.40085,275879
34.40897,274301
34.41710,262369
34.42522,265968
34.43333,263951
34.44147,262463
34.44958,267951
34.45772,259542
34.46583,255215
34.47395,265480
34.48208,263643
34.49020,247439
34.49833,259722
34.50645,265528
34.51457,280225
34.52270,289049
34.53082,298407
34.53895,310620
34.54707,328827
34.55518,333097
34.56332,330381
34.57143,314497
34.57955,304034
34.58768,283200
34.59580,279407
34.60393,267807
34.61205,251488
34.62017,244661
34.62830,243423
34.63642,236438
34.64455,236350
34.65267,230478
34.66078,229012
34.66892,233333
34.67703,223810
34.68517,218719
34.69328,219594
34.70140,218917
34.70953,216396
34.71765,218748
34.72577,217323
34.73390,206933
34.74202,208977
34.75015,215827
34.75827,221239
34.76638,221437
34.77452,225345
34.78263,235508
34.79077,235885
34.79888,242032
34.80700,250133
34.81513,265109
34.82325,270120
34.83137,284557
34.83950,296466
34.84762,303679
34.85575,307788
34.86387,300195
34.87198,303248
34.88012,296821
34.88823,301935
34.89637,307251
34.90448,299907
34.91260,310360
34.92073,310927
34.92885,313208
34.93698,310689
34.94510,308663
34.95322,312187
34.96135,317493
34.96947,319657
34.97758,308279
34.98572,307337
34.99383,299146
35.00197,288137
35.01008,274763
35.01820,274645
35.02633,267499
35.03445,258961
35.04258,249928
35.05070,233365
35.05882,232477
35.06695,222223
35.07507,226591
35.08318,210831
35.09132,213335
35.09943,200475
35.10757,201656
35.11568,198280
35.12380,201922
35.13193,201926
35.14005,202899
35.14818,196320
35.15630,200164
35.16442,204405
35.17255,196664
35.18067,198088
35.18880,194244
35.19692,186773
35.20503,181070
35.21317,186814
35.22128,174138
35.22940,178110
35.23753,172350
35.24565,181634
35.25378,182055
35.26190,175637
35.27002,176118
35.27815,174605
35.28627,175785
35.29440,174070
35.30252,169113
35.31063,169200
35.31877,171356
35.32688,170631
35.33502,171228
35.34313,168235
35.35125,167975
35.35938,175659
35.36750,167629
35.37562,168588
35.38375,174504
35.39187,173646
35.40000,177176
35.40812,178792
35.41623,179832
35.42437,186717
35.43248,188560
35.44062,185077
35.44873,182314
35.45685,178779
35.46498,171699
35.47310,173302
35.48122,162660
35.48935,168525
35.49747,167658
35.50560,165547
35.51372,167339
35.52183,166889
35.52997,152809
35.53808,155873
35.54622,158691
35.55433,154863
35.56245,148343
35.57058,153184
35.57870,158053
35.58683,153724
35.59495,154220
35.60307,165538
35.61120,161441
35.61932,159643
35.62743,162767
35.63557,155241
35.64368,165767
35.65182,171111
35.65993,164230
35.66805,186197
35.67618,185747
35.68430,179435
35.69243,178908
35.70055,169704
35.70867,170033
35.71680,179348
35.72492,173743
35.73305,182665
35.74117,185548
35.74928,182346
35.75742,190485
35.76553,190280
35.77365,191000
35.78178,190683
35.78990,178542
35.79803,173022
35.80615,172568
35.81427,165710
35.82240,167233
35.83052,168965
35.83865,158571
35.84677,158954
35.85488,158601
35.86302,154149
35.87113,153365
35.87925,149323
35.88738,155887
35.89550,154759
35.90363,155872
35.91175,158464
35.91987,154113
35.92800,154804
35.93612,157621
35.94425,155456
35.95237,150263
35.96048,147696
35.96862,164241
35.97673,156212
35.98487,157083
35.99298,153200
36.00110,155411
36.00923,166437
36.01735,164698
36.02547,158981
36.03360,162744
36.04172,170010
36.04985,161002
36.05797,170127
36.06608,163564
36.07422,165306
36.08233,168668
36.09047,172122
36.09858,163604
36.10670,163490
36.11483,164956
36.12295,166242
36.13107,161850
36.13920,170957
36.14732,170028
36.15545,169579
36.16357,161812
36.17168,172181
36.17982,157476
36.18793,159829
36.19607,153891
36.20418,154846
36.21230,160332
36.22043,163884
36.22855,164844
36.23668,170970
36.24480,177835
36.25292,176574
36.26105,177656
36.26917,179032
36.27728,197366
36.28542,210906
36.29353,237177
36.30167,264688
36.30978,313593
36.31790,324584
36.32603,319334
36.33415,297570
36.34228,275871
36.35040,255768
36.35852,232590
36.36665,229190
36.37477,220894
36.38290,209095
36.39102,202047
36.39913,199078
36.40727,199357
36.41538,199252
36.42350,194883
36.43163,195434
36.43975,192512
36.44788,188516
36.45600,189131
36.46412,188550
36.47225,180904
36.48037,181350
36.48850,185791
36.49662,177965
36.50473,179105
36.51287,183852
36.52098,177131
36.52912,177197
36.53723,179055
36.54535,170582
36.55348,172017
36.56160,183042
36.56972,179416
36.57785,181920
36.58597,172891
36.59410,168892
36.60222,176997
36.61033,170317
36.61847,169782
36.62658,169154
36.63472,168989
36.64283,171524
36.65095,172511
36.65908,174560
36.66720,177997
36.67532,175794
36.68345,175379
36.69157,167815
36.69970,170839
36.70782,172390
36.71593,169001
36.72407,167383
36.73218,166978
36.74032,168929
36.74843,169695
36.75655,175718
36.76468,169183
36.77280,166337
36.78093,166601
36.78905,168213
36.79717,167684
36.80530,168732
36.81342,170857
36.82153,163707
36.82967,167173
36.83778,156674
36.84592,168704
36.85403,164834
36.86215,171644
36.87028,166538
36.87840,160874
36.88653,172327
36.89465,161897
36.90277,171058
36.91090,172162
36.91902,172520
36.92713,169841
36.93527,174029
36.94338,176052
36.95152,186703
36.95963,189988
36.96775,193987
36.97588,198678
36.98400,179903
36.99213,184000
37.00025,173215
37.00837,163943
37.01650,169787
37.02462,166013
37.03275,162249
37.04087,172694
37.04898,164360
37.05712,167575
37.06523,166795
37.07335,163260
37.08148,169352
37.08960,169411
37.09773,172795
37.10585,166755
37.11397,165865
37.12210,174386
37.13022,167061
37.13835,160516
37.14647,164628
37.15458,161749
37.16272,162284
37.17083,164847
37.17895,163990
37.18708,161816
37.19520,163789
37.20333,155841
37.21145,156779
37.21957,159450
37.22770,157970
37.23582,159329
37.24395,154603
37.25207,156340
37.26018,154046
37.26832,158735
37.27643,158832
37.28457,160724
37.29268,162043
37.30080,159274
37.30893,167572
37.31705,176206
37.32517,188486
37.33330,196999
37.34142,217094
37.34955,224518
37.35767,236562
37.36578,232538
37.37392,222333
37.38203,216700
37.39017,215165
37.39828,207648
37.40640,197192
37.41453,207848
37.42265,197082
37.43078,201272
37.43890,196140
37.44702,188338
37.45515,193703
37.46327,198422
37.47138,184161
37.47952,194609
37.48763,176763
