Z:\data\JTB-E02\BACandBLUE\JTB-E18-005-11.D Wed Apr 10 15:57:26 2019
Start of data points
2.09527	150080
2.10340	158957
2.11152	151992
2.11963	150045
2.12777	156146
2.13588	148405
2.14402	150274
2.15213	149703
2.16025	149640
2.16838	153884
2.17650	143461
2.18463	147733
2.19275	148591
2.20087	143223
2.20900	141859
2.21712	142798
2.22523	143970
2.23337	139666
2.24148	136085
2.24962	139063
2.25773	148570
2.26585	382034
2.27398	2024924
2.28210	3162945
2.29023	2151051
2.29835	1208290
2.30647	937481
2.31460	779609
2.32272	710835
2.33085	620488
2.33897	576233
2.34708	533211
2.35522	479720
2.36333	448645
2.37145	417721
2.37958	407141
2.38770	392548
2.39583	375142
2.40395	346215
2.41207	358624
2.42020	348306
2.42832	350751
2.43645	339870
2.44457	325718
2.45268	325571
2.46082	310045
2.46893	307973
2.47705	300127
2.48518	302564
2.49330	303005
2.50143	302955
2.50955	303283
2.51767	293761
2.52580	277845
2.53392	277833
2.54205	290915
2.55017	326074
2.55828	669406
2.56642	1088292
2.57453	1018923
2.58267	783937
2.59078	636693
2.59890	562690
2.60703	528105
2.61515	519886
2.62327	513275
2.63140	476114
2.63952	440043
2.64765	399173
2.65577	388017
2.66388	373454
2.67202	366668
2.68013	355046
2.68827	348309
2.69638	339987
2.70450	335816
2.71263	330987
2.72075	319638
2.72888	317727
2.73700	309516
2.74512	307210
2.75325	307192
2.76137	303322
2.76948	305932
2.77762	543265
2.78573	1550271
2.79387	2440435
2.80198	2008961
2.81010	1394275
2.81823	1113546
2.82635	947929
2.83448	829430
2.84260	721989
2.85072	639070
2.85885	562824
2.86697	512075
2.87508	474176
2.88322	445122
2.89133	406797
2.89947	385348
2.90758	377449
2.91570	359750
2.92383	350875
2.93195	336687
2.94008	321726
2.94820	317490
2.95632	310842
2.96445	303548
2.97257	302498
2.98070	313693
2.98882	399812
2.99693	651185
3.00507	821447
3.01318	742294
3.02130	609933
3.02943	533209
3.03755	491666
3.04568	443476
3.05380	438204
3.06192	464304
3.07005	521422
3.07817	474905
3.08630	450415
3.09442	483764
3.10253	668683
3.11067	1038608
3.11878	1186801
3.12692	982906
3.13503	745942
3.14315	655267
3.15128	559760
3.15940	499083
3.16752	496695
3.17565	517667
3.18377	646845
3.19190	1187269
3.20002	1729189
3.20813	1642979
3.21627	1310776
3.22438	1058823
3.23252	906287
3.24063	789546
3.24875	702128
3.25688	632063
3.26500	575958
3.27312	528638
3.28125	502395
3.28937	564349
3.29750	992345
3.30562	2140832
3.31373	3588973
3.32187	4129913
3.32998	3706287
3.33812	3026554
3.34623	2426630
3.35435	2004197
3.36248	1704181
3.37060	1505365
3.37873	1342285
3.38685	1215576
3.39497	1122836
3.40310	1019440
3.41122	982460
3.41933	982193
3.42747	983795
3.43558	933777
3.44372	837415
3.45183	773205
3.45995	736049
3.46808	685336
3.47620	649418
3.48433	647055
3.49245	607337
3.50057	595805
3.50870	575880
3.51682	585626
3.52493	685843
3.53307	805326
3.54118	812888
3.54932	732002
3.55743	665941
3.56555	616800
3.57368	588658
3.58180	564830
3.58993	539122
3.59805	528797
3.60617	496331
3.61430	493295
3.62242	493504
3.63055	515451
3.63867	540287
3.64678	562331
3.65492	570936
3.66303	1152429
3.67115	4452937
3.67928	1.14252E+07
3.68740	1.583027E+07
3.69553	1.384549E+07
3.70365	9778000
3.71177	7254132
3.71990	5890311
3.72802	4985671
3.73615	4376276
3.74427	3910941
3.75238	3464909
3.76052	3182854
3.76863	2873996
3.77677	2637551
3.78488	2456886
3.79300	2297966
3.80113	2157858
3.80925	2028443
3.81737	1929500
3.82550	1840678
3.83362	1704699
3.84175	1616180
3.84987	1556762
3.85798	1485415
3.86612	1409801
3.87423	1349547
3.88237	1295048
3.89048	1228789
3.89860	1187629
3.90673	1139219
3.91485	1136618
3.92297	1215578
3.93110	1324198
3.93922	1383983
3.94735	1315022
3.95547	1439140
3.96358	1926573
3.97172	2364427
3.97983	2284950
3.98797	1788702
3.99608	1444466
4.00420	1509961
4.01233	2006519
4.02045	2458683
4.02858	2278833
4.03670	1774831
4.04482	1337778
4.05295	1096112
4.06107	949194
4.06918	865759
4.07732	806216
4.08543	770683
4.09357	750665
4.10168	711002
4.10980	697815
4.11793	674919
4.12605	749733
4.13418	1358712
4.14230	3319774
4.15042	6191632
4.15855	7493766
4.16667	6311127
4.17480	4170280
4.18292	2653337
4.19103	1857478
4.19917	1436908
4.20728	1427393
4.21540	2567531
4.22353	6385160
4.23165	1.234672E+07
4.23978	1.701559E+07
4.24790	1.780279E+07
4.25602	1.435787E+07
4.26415	9556746
4.27227	6255236
4.28040	4370416
4.28852	3160886
4.29663	2388279
4.30477	1899491
4.31288	1599044
4.32100	1335336
4.32913	1211724
4.33725	1109108
4.34538	1004441
4.35350	955050
4.36162	975293
4.36975	1028313
4.37787	1041399
4.38600	954397
4.39412	825595
4.40223	753374
4.41037	689667
4.41848	655600
4.42662	621484
4.43473	600215
4.44285	597507
4.45098	564246
4.45910	548574
4.46722	556563
4.47535	572287
4.48347	635669
4.49160	727151
4.49972	724007
4.50783	676941
4.51597	614649
4.52408	561146
4.53222	556336
4.54033	535650
4.54845	545921
4.55658	534895
4.56470	526556
4.57282	504668
4.58095	494979
4.58907	479302
4.59720	460882
4.60532	464814
4.61343	471251
4.62157	491128
4.62968	572646
4.63782	788374
4.64593	1001752
4.65405	1061277
4.66218	958523
4.67030	793507
4.67843	703907
4.68655	651090
4.69467	618782
4.70280	560625
4.71092	526654
4.71903	480821
4.72717	466468
4.73528	441015
4.74342	418762
4.75153	431793
4.75965	414895
4.76778	407246
4.77590	410395
4.78403	393434
4.79215	404296
4.80027	411908
4.80840	431282
4.81652	413010
4.82465	412329
4.83277	393844
4.84088	388567
4.84902	389550
4.85713	383533
4.86525	385221
4.87338	373113
4.88150	376876
4.88963	371627
4.89775	366072
4.90587	363768
4.91400	353279
4.92212	359511
4.93025	357094
4.93837	394920
4.94648	576229
4.95462	958747
4.96273	1586943
4.97087	2070795
4.97898	2215382
4.98710	1999331
4.99523	1660319
5.00335	1337953
5.01147	1119827
5.01960	1002528
5.02772	926645
5.03585	938362
5.04397	969501
5.05208	966106
5.06022	932463
5.06833	843366
5.07647	800385
5.08458	773466
5.09270	733017
5.10083	698278
5.10895	675500
5.11707	652703
5.12520	619571
5.13332	607528
5.14145	594135
5.14957	587629
5.15768	614661
5.16582	678286
5.17393	754705
5.18207	745557
5.19018	743843
5.19830	710861
5.20643	751589
5.21455	804886
5.22268	786844
5.23080	743299
5.23892	679056
5.24705	617361
5.25517	571065
5.26328	528158
5.27142	476554
5.27953	462340
5.28767	438560
5.29578	429237
5.30390	420572
5.31203	407678
5.32015	411399
5.32828	404604
5.33640	403782
5.34452	401802
5.35265	395460
5.36077	384816
5.36888	393921
5.37702	395219
5.38513	436142
5.39327	464139
5.40138	524157
5.40950	548799
5.41763	526290
5.42575	485336
5.43388	437108
5.44200	452635
5.45012	444773
5.45825	484912
5.46637	514486
5.47450	500336
5.48262	450571
5.49073	412975
5.49887	384138
5.50698	366633
5.51510	363058
5.52323	335526
5.53135	346453
5.53948	333704
5.54760	357275
5.55572	408205
5.56385	565879
5.57197	810908
5.58010	1018537
5.58822	1054820
5.59633	934201
5.60447	742128
5.61258	574253
5.62072	499690
5.62883	448028
5.63695	419329
5.64508	403855
5.65320	398492
5.66132	375385
5.66945	381181
5.67757	458926
5.68570	642657
5.69382	888929
5.70193	1049047
5.71007	1006792
5.71818	868603
5.72632	705217
5.73443	601140
5.74255	523562
5.75068	486767
5.75880	452928
5.76692	419422
5.77505	406549
5.78317	382913
5.79130	377373
5.79942	375158
5.80753	366336
5.81567	367491
5.82378	379299
5.83192	443459
5.84003	483328
5.84815	530408
5.85628	543653
5.86440	514830
5.87253	482583
5.88065	473054
5.88877	469450
5.89690	453601
5.90502	419768
5.91313	383481
5.92127	341401
5.92938	349860
5.93752	347964
5.94563	357452
5.95375	347086
5.96188	360604
5.97000	348316
5.97813	383689
5.98625	414053
5.99437	446590
6.00250	435312
6.01062	406639
6.01875	378425
6.02687	342310
6.03498	334414
6.04312	324318
6.05123	298878
6.05935	277621
6.06748	268545
6.07560	252960
6.08373	249724
6.09185	240855
6.09997	240313
6.10810	229126
6.11622	231232
6.12435	251586
6.13247	290412
6.14058	391055
6.14872	510170
6.15683	571718
6.16495	551829
6.17308	480105
6.18120	417077
6.18933	383121
6.19745	350834
6.20557	329856
6.21370	314989
6.22182	298288
6.22995	275572
6.23807	277752
6.24618	287089
6.25432	311620
6.26243	341013
6.27057	365707
6.27868	345907
6.28680	314031
6.29493	292533
6.30305	285149
6.31117	286323
6.31930	287183
6.32742	295907
6.33555	278982
6.34367	265464
6.35178	260850
6.35992	250691
6.36803	249942
6.37617	249284
6.38428	250253
6.39240	248047
6.40053	252435
6.40865	235817
6.41677	232018
6.42490	224018
6.43302	220713
6.44115	225891
6.44927	231949
6.45738	231145
6.46552	230118
6.47363	227502
6.48177	223893
6.48988	224704
6.49800	225787
6.50613	229626
6.51425	231281
6.52238	234793
6.53050	231425
6.53862	224040
6.54675	228531
6.55487	235881
6.56298	273134
6.57112	412369
6.57923	611366
6.58737	796236
6.59548	807321
6.60360	674047
6.61173	492275
6.61985	373723
6.62798	323430
6.63610	297059
6.64422	299287
6.65235	416834
6.66047	889502
6.66860	1660123
6.67672	2323738
6.68483	2451421
6.69297	2036122
6.70108	1485965
6.70920	1063827
6.71733	837405
6.72545	698573
6.73358	592241
6.74170	516674
6.74982	466760
6.75795	433341
6.76607	403805
6.77420	368870
6.78232	345400
6.79043	328535
6.79857	310433
6.80668	309243
6.81480	321938
6.82293	350400
6.83105	402432
6.83918	451641
6.84730	472726
6.85542	448981
6.86355	395328
6.87167	320251
6.87980	270428
6.88792	224447
6.89603	205120
6.90417	177199
6.91228	186172
6.92042	164417
6.92853	152362
6.93665	144455
6.94478	140865
6.95290	148323
6.96102	155445
6.96915	176219
6.97727	205687
6.98540	235149
6.99352	256751
7.00163	259884
7.00977	241785
7.01788	219614
7.02602	201381
7.03413	189391
7.04225	177607
7.05038	174222
7.05850	187569
7.06663	227297
7.07475	268898
7.08287	322010
7.09100	340256
7.09912	333326
7.10723	297648
7.11537	245722
7.12348	213008
7.13162	187715
7.13973	191486
7.14785	203433
7.15598	259349
7.16410	311658
7.17223	349852
7.18035	396615
7.18847	598301
7.19660	1265276
7.20472	2679316
7.21283	4404160
7.22097	5165724
7.22908	4706993
7.23722	3164853
7.24533	1733693
7.25345	872761
7.26158	454271
7.26970	288313
7.27783	241361
7.28595	222363
7.29407	215405
7.30220	213861
7.31032	205992
7.31845	203911
7.32657	203608
7.33468	214189
7.34282	228170
7.35093	245144
7.35905	254510
7.36718	244903
7.37530	233336
7.38343	220442
7.39155	196547
7.39967	184691
7.40780	176493
7.41592	170247
7.42405	163335
7.43217	169252
7.44028	167078
7.44842	159493
7.45653	162335
7.46465	169971
7.47278	180175
7.48090	183161
7.48903	191617
7.49715	183826
7.50527	188188
7.51340	176610
7.52152	196089
7.52965	232423
7.53777	371171
7.54588	697717
7.55402	1367340
7.56213	2466888
7.57027	3743007
7.57838	4735727
7.58650	5149044
7.59463	4699478
7.60275	3708364
7.61087	2592067
7.61900	1706747
7.62712	1061598
7.63525	721033
7.64337	513860
7.65148	411659
7.65962	319294
7.66773	281782
7.67587	230962
7.68398	212328
7.69210	199543
7.70023	188223
7.70835	180914
7.71648	193237
7.72460	218439
7.73272	245461
7.74085	276612
7.74897	285502
7.75708	288191
7.76522	278694
7.77333	253571
7.78147	237583
7.78958	232050
7.79770	218815
7.80583	227975
7.81395	231964
7.82208	234637
7.83020	229220
7.83832	227006
7.84645	241853
7.85457	294960
7.86268	377352
7.87082	510535
7.87893	736575
7.88707	1072858
7.89518	1471545
7.90330	1744818
7.91143	1685181
7.91955	1387635
7.92768	998641
7.93580	690031
7.94392	507035
7.95205	436426
7.96017	367121
7.96830	332011
7.97642	315861
7.98453	263079
7.99267	260312
8.00078	257205
8.00890	279104
8.01703	273665
8.02515	283422
8.03328	265070
8.04140	251462
8.04952	249505
8.05765	231118
8.06577	232067
8.07390	231808
8.08202	227535
8.09013	217401
8.09827	215227
8.10638	217379
8.11452	208153
8.12263	203738
8.13075	209531
8.13888	212726
8.14700	226131
8.15512	235996
8.16325	234350
8.17137	233010
8.17950	225660
8.18762	203629
8.19573	202362
8.20387	191974
8.21198	188307
8.22012	181981
8.22823	194708
8.23635	178527
8.24448	173561
8.25260	174140
8.26072	172955
8.26885	171667
8.27697	173999
8.28510	168210
8.29322	178414
8.30133	166526
8.30947	166143
8.31758	164434
8.32572	172330
8.33383	178854
8.34195	178639
8.35008	176816
8.35820	171704
8.36633	164331
8.37445	162436
8.38257	158790
8.39070	154312
8.39882	153529
8.40693	153882
8.41507	149375
8.42318	149016
8.43132	143688
8.43943	148800
8.44755	148989
8.45568	147334
8.46380	151040
8.47193	148710
8.48005	145979
8.48817	143468
8.49630	157007
8.50442	184384
8.51255	351661
8.52067	810004
8.52878	1745371
8.53692	2857396
8.54503	3680724
8.55315	3425735
8.56128	2529468
8.56940	1467300
8.57753	812917
8.58565	520093
8.59377	424572
8.60190	375180
8.61002	348257
8.61815	330833
8.62627	308627
8.63438	292108
8.64252	280572
8.65063	260300
8.65875	244928
8.66688	236155
8.67500	223227
8.68313	213083
8.69125	218954
8.69937	208861
8.70750	199968
8.71562	186728
8.72375	186633
8.73187	184864
8.73998	180868
8.74812	176903
8.75623	179984
8.76437	207618
8.77248	289600
8.78060	470924
8.78873	741768
8.79685	1014446
8.80497	1091080
8.81310	994582
8.82122	758864
8.82935	550536
8.83747	442214
8.84558	397017
8.85372	363066
8.86183	348226
8.86997	331095
8.87808	301418
8.88620	300331
8.89433	280904
8.90245	267003
8.91057	264749
8.91870	255526
8.92682	258582
8.93495	263843
8.94307	272815
8.95118	274008
8.95932	262968
8.96743	251121
8.97557	236527
8.98368	245852
8.99180	242382
8.99993	244044
9.00805	243943
9.01618	226650
9.02430	217173
9.03242	210708
9.04055	203570
9.04867	196771
9.05678	190390
9.06492	187432
9.07303	184113
9.08117	186426
9.08928	195247
9.09740	204534
9.10553	210216
9.11365	231177
9.12178	255114
9.12990	276999
9.13802	282197
9.14615	274163
9.15427	262251
9.16240	248999
9.17052	233780
9.17863	214530
9.18677	201935
9.19488	194754
9.20300	196924
9.21113	191129
9.21925	184565
9.22738	185553
9.23550	187644
9.24362	182268
9.25175	180984
9.25987	176920
9.26800	173980
9.27612	176446
9.28423	174001
9.29237	158764
9.30048	164424
9.30860	164059
9.31673	159146
9.32485	151723
9.33298	153479
9.34110	157629
9.34922	150532
9.35735	149166
9.36547	151612
9.37360	152309
9.38172	145526
9.38983	146769
9.39797	147962
9.40608	159862
9.41422	171560
9.42233	200866
9.43045	264524
9.43858	357108
9.44670	447011
9.45482	513278
9.46295	512884
9.47107	448281
9.47920	369777
9.48732	283939
9.49543	221197
9.50357	196334
9.51168	193507
9.51982	197113
9.52793	203645
9.53605	212168
9.54418	214513
9.55230	212590
9.56043	209131
9.56855	192416
9.57667	164407
9.58480	142722
9.59292	128540
9.60103	117995
9.60917	117647
9.61728	109474
9.62542	108349
9.63353	101728
9.64165	105583
9.64978	105346
9.65790	102249
9.66603	96479
9.67415	100403
9.68227	101276
9.69040	99528
9.69852	96508
9.70663	92791
9.71477	95258
9.72288	91416
9.73102	91731
9.73913	93728
9.74725	95395
9.75538	86841
9.76350	94246
9.77163	89289
9.77975	85348
9.78787	88470
9.79600	88137
9.80412	85045
9.81225	83042
9.82037	83427
9.82848	83653
9.83662	86144
9.84473	92572
9.85285	90900
9.86098	102437
9.86910	105315
9.87723	93563
9.88535	95123
9.89347	91695
9.90160	89312
9.90972	85706
9.91785	87037
9.92597	90837
9.93408	98388
9.94222	127809
9.95033	163682
9.95845	216473
9.96658	239082
9.97470	267726
9.98283	241138
9.99095	220704
9.99907	204557
10.00720	183014
10.01532	161415
10.02345	154885
10.03157	150396
10.03968	146662
10.04782	136969
10.05593	134084
10.06407	138511
10.07218	140698
10.08030	139831
10.08843	133616
10.09655	133247
10.10467	125865
10.11280	123849
10.12092	123201
10.12905	125046
10.13717	111873
10.14528	109929
10.15342	108734
10.16153	102188
10.16967	106271
10.17778	104212
10.18590	103936
10.19403	102133
10.20215	95664
10.21028	99188
10.21840	100391
10.22652	93207
10.23465	104601
10.24277	115567
10.25088	146771
10.25902	308202
10.26713	814847
10.27527	2111025
10.28338	4550824
10.29150	7945022
10.29963	1.192674E+07
10.30775	1.564621E+07
10.31588	1.920092E+07
10.32400	2.325769E+07
10.33212	2.893143E+07
10.34025	3.514739E+07
10.34837	4.105825E+07
10.35648	4.355709E+07
10.36462	3.807737E+07
10.37273	2.532168E+07
10.38087	1.370775E+07
10.38898	8350440
10.39710	6028478
10.40523	4597305
10.41335	3371923
10.42148	2569137
10.42960	2117910
10.43772	1906601
10.44585	1880293
10.45397	1912585
10.46210	1883294
10.47022	1783622
10.47833	1591106
10.48647	1390126
10.49458	1201041
10.50270	1040355
10.51083	941876
10.51895	868257
10.52708	804744
10.53520	754990
10.54332	721538
10.55145	689132
10.55957	641712
10.56770	616302
10.57582	581857
10.58393	557016
10.59207	530319
10.60018	516656
10.60832	489202
10.61643	459794
10.62455	448785
10.63268	440333
10.64080	433410
10.64892	403226
10.65705	389660
10.66517	370111
10.67330	363598
10.68142	351020
10.68953	350559
10.69767	352063
10.70578	342092
10.71392	350783
10.72203	343644
10.73015	337917
10.73828	327221
10.74640	320212
10.75452	308823
10.76265	295911
10.77077	271058
10.77890	275901
10.78702	267168
10.79513	251514
10.80327	257962
10.81138	249645
10.81952	258292
10.82763	258148
10.83575	254852
10.84388	239440
10.85200	232834
10.86013	229355
10.86825	217806
10.87637	212363
10.88450	200238
10.89262	201088
10.90073	194809
10.90887	198231
10.91698	190246
10.92512	186158
10.93323	180309
10.94135	185601
10.94948	189016
10.95760	189248
10.96573	201994
10.97385	222769
10.98197	246767
10.99010	265608
10.99822	267347
11.00633	250716
11.01447	243957
11.02258	229506
11.03072	215265
11.03883	212499
11.04695	204313
11.05508	198597
11.06320	182772
11.07133	188563
11.07945	198301
11.08757	190119
11.09570	200159
11.10382	200330
11.11195	198606
11.12007	198238
11.12818	183750
11.13632	175080
11.14443	166310
11.15255	152567
11.16068	147146
11.16880	147172
11.17693	139582
11.18505	136402
11.19317	140255
11.20130	140827
11.20942	134337
11.21755	136338
11.22567	130535
11.23378	121040
11.24192	122686
11.25003	114491
11.25817	108042
11.26628	107496
11.27440	100638
11.28253	101733
11.29065	103094
11.29877	114597
11.30690	150931
11.31502	264148
11.32315	529074
11.33127	1027226
11.33938	1794705
11.34752	2542249
11.35563	2991400
11.36377	2955853
11.37188	2597368
11.38000	2122617
11.38813	1674153
11.39625	1396419
11.40438	1231552
11.41250	1084690
11.42062	942893
11.42875	800809
11.43687	659256
11.44498	568933
11.45312	489891
11.46123	426510
11.46937	368898
11.47748	339588
11.48560	327408
11.49373	324422
11.50185	341179
11.50998	363431
11.51810	378653
11.52622	373891
11.53435	351374
11.54247	313298
11.55058	297004
11.55872	271829
11.56683	261097
11.57497	250129
11.58308	243565
11.59120	231772
11.59933	239371
11.60745	256093
11.61558	285196
11.62370	288086
11.63182	289227
11.63995	267906
11.64807	221426
11.65620	204452
11.66432	190224
11.67243	185704
11.68057	183591
11.68868	175891
11.69680	174476
11.70493	179322
11.71305	163619
11.72118	165989
11.72930	152067
11.73742	141128
11.74555	138255
11.75367	131398
11.76180	126758
11.76992	129072
11.77803	121401
11.78617	114278
11.79428	116283
11.80240	110950
11.81053	111966
11.81865	105199
11.82678	109910
11.83490	104423
11.84302	110172
11.85115	105295
11.85927	105023
11.86740	108159
11.87552	105275
11.88363	106262
11.89177	103712
11.89988	112372
11.90802	129823
11.91613	176601
11.92425	244106
11.93238	296532
11.94050	323840
11.94862	306360
11.95675	264472
11.96487	231633
11.97300	222527
11.98112	378652
11.98923	796924
11.99737	1685945
12.00548	2769293
12.01362	3974348
12.02173	4294863
12.02985	4178547
12.03798	3593693
12.04610	2676395
12.05423	2078251
12.06235	1674025
12.07047	1481123
12.07860	1332767
12.08672	1232272
12.09483	1137316
12.10297	1111053
12.11108	1084573
12.11922	1082878
12.12733	1169706
12.13545	1280271
12.14358	1373463
12.15170	1445065
12.15983	1361073
12.16795	1210865
12.17607	1071926
12.18420	962062
12.19232	927112
12.20043	896197
12.20857	865578
12.21668	843531
12.22482	783272
12.23293	756712
12.24105	740783
12.24918	687657
12.25730	677892
12.26543	659824
12.27355	653530
12.28167	634039
12.28980	597176
12.29792	582796
12.30605	564659
12.31417	556648
12.32228	524630
12.33042	520866
12.33853	481859
12.34665	477868
12.35478	477300
12.36290	456565
12.37103	444526
12.37915	448226
12.38727	437559
12.39540	422522
12.40352	422348
12.41165	424248
12.41977	414909
12.42788	419593
12.43602	412620
12.44413	399342
12.45227	391273
12.46038	387084
12.46850	373606
12.47663	375029
12.48475	378761
12.49287	370534
12.50100	368984
12.50912	372973
12.51725	365217
12.52537	358497
12.53348	380085
12.54162	361210
12.54973	353594
12.55787	345656
12.56598	330810
12.57410	323402
12.58223	309433
12.59035	306194
12.59847	297287
12.60660	299544
12.61472	280948
12.62285	289249
12.63097	274733
12.63908	270339
12.64722	269831
12.65533	267029
12.66347	250133
12.67158	237568
12.67970	207010
12.68783	186574
12.69595	165814
12.70408	155177
12.71220	144589
12.72032	136887
12.72845	136823
12.73657	124434
12.74468	129471
12.75282	129605
12.76093	117983
12.76907	123497
12.77718	113654
12.78530	120204
12.79343	117367
12.80155	121760
12.80968	108562
12.81780	113405
12.82592	107994
12.83405	104178
12.84217	101804
12.85028	99244
12.85842	96009
12.86653	90538
12.87467	90773
12.88278	95659
12.89090	98305
12.89903	98532
12.90715	93653
12.91528	93039
12.92340	96336
12.93152	95013
12.93965	90682
12.94777	95662
12.95590	112747
12.96402	140975
12.97213	190932
12.98027	241366
12.98838	276079
12.99650	293065
13.00463	247234
13.01275	198625
13.02088	163920
13.02900	151839
13.03712	141719
13.04525	130529
13.05337	120383
13.06150	113666
13.06962	108019
13.07773	110230
13.08587	108175
13.09398	109595
13.10212	109182
13.11023	105451
13.11835	102965
13.12648	95564
13.13460	95766
13.14272	95870
13.15085	91598
13.15897	95518
13.16710	90353
13.17522	97431
13.18333	96895
13.19147	94745
13.19958	92899
13.20772	96990
13.21583	98950
13.22395	99636
13.23208	105397
13.24020	104373
13.24832	99556
13.25645	101346
13.26457	92984
13.27270	94881
13.28082	91240
13.28893	86647
13.29707	89934
13.30518	86355
13.31332	81331
13.32143	83789
13.32955	89230
13.33768	83929
13.34580	83091
13.35393	83174
13.36205	81755
13.37017	84398
13.37830	81376
13.38642	79517
13.39453	78598
13.40267	82508
13.41078	77844
13.41892	77015
13.42703	76072
13.43515	81232
13.44328	80506
13.45140	77615
13.45953	82362
13.46765	83370
13.47577	87113
13.48390	87318
13.49202	87504
13.50015	81124
13.50827	87348
13.51638	84000
13.52452	82302
13.53263	83524
13.54075	81589
13.54888	78763
13.55700	77325
13.56513	77440
13.57325	84165
13.58137	90067
13.58950	99194
13.59762	117501
13.60575	142908
13.61387	176920
13.62198	192831
13.63012	205397
13.63823	184533
13.64635	169237
13.65448	135770
13.66260	118465
13.67073	107936
13.67885	100731
13.68697	94157
13.69510	89886
13.70322	92929
13.71135	89713
13.71947	90509
13.72758	89416
13.73572	94956
13.74383	142656
13.75197	261703
13.76008	501984
13.76820	990903
13.77633	1530308
13.78445	2051114
13.79257	2415611
13.80070	2273308
13.80882	2043512
13.81695	1718133
13.82507	1466480
13.83318	1378928
13.84132	1326219
13.84943	1240068
13.85757	1193160
13.86568	1096536
13.87380	988059
13.88193	869438
13.89005	749851
13.89818	678673
13.90630	585508
13.91442	524449
13.92255	500721
13.93067	458741
13.93878	443824
13.94692	467668
13.95503	535093
13.96317	682155
13.97128	870031
13.97940	1186868
13.98753	1441529
13.99565	1568299
14.00378	1527286
14.01190	1333345
14.02002	1103391
14.02815	953272
14.03627	826814
14.04438	749770
14.05252	725463
14.06063	658376
14.06877	647267
14.07688	649550
14.08500	603816
14.09313	589570
14.10125	587564
14.10938	553311
14.11750	531839
14.12562	532510
14.13375	555500
14.14187	627836
14.15000	712935
14.15812	769257
14.16623	818670
14.17437	806566
14.18248	776485
14.19060	735602
14.19873	760839
14.20685	795082
14.21498	824631
14.22310	828150
14.23122	779119
14.23935	706222
14.24747	640739
14.25560	573820
14.26372	516604
14.27183	488279
14.27997	432116
14.28808	399763
14.29620	378017
14.30433	367189
14.31245	346626
14.32058	333044
14.32870	328381
14.33682	314273
14.34495	300523
14.35307	288297
14.36120	270959
14.36932	254020
14.37743	233309
14.38557	223559
14.39368	222529
14.40182	225259
14.40993	224402
14.41805	212783
14.42618	209503
14.43430	213091
14.44242	187281
14.45055	177154
14.45867	177774
14.46680	157704
14.47492	154398
14.48303	145696
14.49117	150694
14.49928	145756
14.50742	158044
14.51553	172893
14.52365	202477
14.53178	216367
14.53990	225473
14.54803	239899
14.55615	211196
14.56427	204041
14.57240	170375
14.58052	166112
14.58863	148215
14.59677	136861
14.60488	138939
14.61302	130702
14.62113	125390
14.62925	118622
14.63738	117526
14.64550	112558
14.65363	113576
14.66175	108703
14.66987	113751
14.67800	107487
14.68612	109535
14.69423	105895
14.70237	105125
14.71048	101780
14.71862	106278
14.72673	112312
14.73485	119408
14.74298	125614
14.75110	141437
14.75923	144276
14.76735	145105
14.77547	156695
14.78360	150618
14.79172	174430
14.79985	274525
14.80797	572700
14.81608	1260641
14.82422	2241739
14.83233	3471474
14.84045	4265815
14.84858	4412963
14.85670	3854170
14.86483	2949476
14.87295	2131363
14.88107	1553798
14.88920	1133623
14.89732	902181
14.90545	784652
14.91357	681033
14.92168	586207
14.92982	549846
14.93793	487277
14.94607	468598
14.95418	431530
14.96230	414418
14.97043	386596
14.97855	364732
14.98667	346122
14.99480	324481
15.00292	317563
15.01105	289752
15.01917	284082
15.02728	266980
15.03542	257148
15.04353	246323
15.05167	251537
15.05978	242074
15.06790	233606
15.07603	220589
15.08415	216091
15.09227	203771
15.10040	198563
15.10852	187250
15.11665	183431
15.12477	181873
15.13288	182274
15.14102	185289
15.14913	195978
15.15727	189446
15.16538	173730
15.17350	163999
15.18163	143900
15.18975	136329
15.19788	112992
15.20600	117123
15.21412	111005
15.22225	103442
15.23037	103130
15.23848	100399
15.24662	98739
15.25473	99281
15.26287	92112
15.27098	96503
15.27910	95151
15.28723	93046
15.29535	92743
15.30348	88707
15.31160	88200
15.31972	83787
15.32785	81820
15.33597	83866
15.34408	82833
15.35222	79640
15.36033	81791
15.36847	75719
15.37658	77380
15.38470	78292
15.39283	79556
15.40095	77328
15.40908	82216
15.41720	75808
15.42532	77253
15.43345	81238
15.44157	77029
15.44970	81850
15.45782	86078
15.46593	93100
15.47407	109036
15.48218	139311
15.49030	202292
15.49843	286426
15.50655	365344
15.51468	437601
15.52280	476390
15.53092	501051
15.53905	462300
15.54717	407741
15.55530	343734
15.56342	294725
15.57153	242172
15.57967	216516
15.58778	187617
15.59592	170373
15.60403	154160
15.61215	133838
15.62028	128916
15.62840	122469
15.63652	119279
15.64465	111698
15.65277	113243
15.66090	102266
15.66902	104084
15.67713	97454
15.68527	94357
15.69338	91356
15.70152	90339
15.70963	84887
15.71775	92281
15.72588	85519
15.73400	80753
15.74212	88632
15.75025	88098
15.75837	106801
15.76650	136762
15.77462	208849
15.78273	323609
15.79087	456908
15.79898	574741
15.80712	622901
15.81523	578156
15.82335	477136
15.83148	383298
15.83960	309362
15.84773	254237
15.85585	212989
15.86397	196147
15.87210	179207
15.88022	164561
15.88833	158489
15.89647	147697
15.90458	147821
15.91272	136636
15.92083	135743
15.92895	132378
15.93708	130443
15.94520	127005
15.95333	132573
15.96145	146686
15.96957	171078
15.97770	210008
15.98582	224963
15.99395	256117
16.00207	261491
16.01018	240301
16.01832	221076
16.02643	198281
16.03455	187257
16.04268	169751
16.05080	161179
16.05893	159414
16.06705	148762
16.07517	138358
16.08330	132685
16.09142	136635
16.09955	133322
16.10767	154115
16.11578	182615
16.12392	218015
16.13203	257082
16.14015	270743
16.14828	260612
16.15640	246566
16.16453	211888
16.17265	184442
16.18077	160534
16.18890	144899
16.19702	129708
16.20515	124511
16.21327	120054
16.22138	112965
16.22952	109342
16.23763	110533
16.24577	106785
16.25388	111399
16.26200	106913
16.27013	100654
16.27825	104345
16.28637	99120
16.29450	110590
16.30262	121578
16.31075	121027
16.31887	113669
16.32698	116107
16.33512	113034
16.34323	106054
16.35137	103667
16.35948	114383
16.36760	132970
16.37573	159737
16.38385	204749
16.39197	251145
16.40010	271096
16.40822	271177
16.41635	243117
16.42447	216071
16.43258	184449
16.44072	160702
16.44883	151758
16.45697	153346
16.46508	193409
16.47320	281975
16.48133	432257
16.48945	648726
16.49758	801522
16.50570	831004
16.51382	743394
16.52195	579919
16.53007	429223
16.53818	338612
16.54632	268395
16.55443	225655
16.56257	206733
16.57068	191127
16.57880	172659
16.58693	163601
16.59505	158212
16.60318	153036
16.61130	143734
16.61942	141455
16.62755	150123
16.63567	140978
16.64380	138555
16.65192	140928
16.66003	130926
16.66817	125005
16.67628	116905
16.68440	108938
16.69253	110784
16.70065	102164
16.70878	101203
16.71690	97874
16.72502	93934
16.73315	94143
16.74127	92005
16.74940	92110
16.75752	88932
16.76563	90132
16.77377	89899
16.78188	94430
16.79002	96217
16.79813	88224
16.80625	90380
16.81438	89649
16.82250	84953
16.83062	82805
16.83875	81671
16.84687	86876
16.85500	81423
16.86312	81680
16.87123	85184
16.87937	93441
16.88748	87554
16.89562	82542
16.90373	84401
16.91185	87750
16.91998	79661
16.92810	75648
16.93622	78572
16.94435	74818
16.95247	79739
16.96060	84416
16.96872	80225
16.97683	90978
16.98497	82866
16.99308	83407
17.00122	79213
17.00933	86331
17.01745	80320
17.02558	82733
17.03370	78296
17.04183	81103
17.04995	76284
17.05807	82917
17.06620	86224
17.07432	83588
17.08243	86302
17.09057	87102
17.09868	100043
17.10682	112156
17.11493	116518
17.12305	142032
17.13118	157926
17.13930	172843
17.14743	181143
17.15555	180592
17.16367	171813
17.17180	152417
17.17992	135581
17.18803	115240
17.19617	106333
17.20428	100309
17.21242	96637
17.22053	93511
17.22865	82397
17.23678	90809
17.24490	87416
17.25303	84696
17.26115	88676
17.26927	82046
17.27740	84772
17.28552	82197
17.29365	91198
17.30177	83278
17.30988	83676
17.31802	94859
17.32613	107323
17.33425	120947
17.34238	137148
17.35050	153210
17.35863	159306
17.36675	159424
17.37487	153099
17.38300	145910
17.39112	133755
17.39925	137660
17.40737	130480
17.41548	128804
17.42362	136192
17.43173	136505
17.43987	140592
17.44798	129532
17.45610	122455
17.46423	115735
17.47235	114946
17.48047	106854
17.48860	101931
17.49672	98814
17.50485	90774
17.51297	93759
17.52108	91862
17.52922	88801
17.53733	87685
17.54547	89026
17.55358	91426
17.56170	90275
17.56983	86653
17.57795	92573
17.58607	97247
17.59420	115861
17.60232	159341
17.61045	324802
17.61857	3085993
17.62668	2.200656E+07
17.63482	2.996742E+07
17.64293	3.013406E+07
17.65107	2.917561E+07
17.65918	2.763969E+07
17.66730	2.636493E+07
17.67543	2.517507E+07
17.68355	2.352097E+07
17.69168	2.214741E+07
17.69980	2.104021E+07
17.70792	1.968352E+07
17.71605	1.847034E+07
17.72417	1.749756E+07
17.73228	1.618406E+07
17.74042	1.499905E+07
17.74853	1.390587E+07
17.75667	1.314589E+07
17.76478	1.211175E+07
17.77290	1.113024E+07
17.78103	1.030533E+07
17.78915	9661609
17.79728	9146390
17.80540	8634903
17.81352	8124749
17.82165	7461203
17.82977	7071942
17.83790	6715272
17.84602	6401394
17.85413	6004667
17.86227	5812206
17.87038	5469219
17.87850	5189708
17.88663	4905062
17.89475	4639545
17.90288	4534214
17.91100	4329451
17.91912	4082434
17.92725	3941398
17.93537	3752890
17.94350	3557074
17.95162	3396207
17.95973	3291939
17.96787	3202721
17.97598	3110594
17.98410	2989515
17.99223	2827642
18.00035	2712261
18.00848	2608112
18.01660	2550794
18.02472	2481102
18.03285	2455790
18.04097	2405496
18.04910	2344043
18.05722	2282195
18.06533	2168785
18.07347	2099454
18.08158	2014436
18.08972	1955353
18.09783	1940036
18.10595	1943400
18.11408	1869059
18.12220	1835953
18.13032	1761188
18.13845	1746217
18.14657	1682161
18.15470	1636467
18.16282	1634755
18.17093	1557708
18.17907	1521886
18.18718	1476621
18.19532	1448901
18.20343	1386185
18.21155	1307283
18.21968	1287594
18.22780	1279399
18.23592	1230344
18.24405	1170951
18.25217	1150814
18.26030	1139218
18.26842	1102687
18.27653	1088898
18.28467	1068660
18.29278	1038619
18.30092	968520
18.30903	974119
18.31715	934671
18.32528	927732
18.33340	874799
18.34153	875495
18.34965	856183
18.35777	847138
18.36590	826178
18.37402	803331
18.38213	791211
18.39027	778289
18.39838	775020
18.40652	762441
18.41463	747661
18.42275	733219
18.43088	736686
18.43900	748471
18.44713	752330
18.45525	771278
18.46337	765287
18.47150	781379
18.47962	829696
18.48775	847465
18.49587	849197
18.50398	828233
18.51212	778895
18.52023	727035
18.52835	689937
18.53648	653409
18.54460	634170
18.55273	603304
18.56085	599890
18.56897	577366
18.57710	574232
18.58522	574813
18.59335	561145
18.60147	557363
18.60958	562452
18.61772	565887
18.62583	561202
18.63395	561495
18.64208	561015
18.65020	547738
18.65833	531504
18.66645	524399
18.67457	509920
18.68270	500145
18.69082	485781
18.69895	478314
18.70707	461952
18.71518	452994
18.72332	447450
18.73143	438599
18.73957	444644
18.74768	436104
18.75580	417636
18.76393	425083
18.77205	413497
18.78017	416948
18.78830	422783
18.79642	395149
18.80455	403826
18.81267	383054
18.82078	393605
18.82892	390958
18.83703	388346
18.84517	386476
18.85328	380712
18.86140	378050
18.86953	373712
18.87765	376511
18.88578	366060
18.89390	365525
18.90202	371277
18.91015	366272
18.91827	360332
18.92638	377359
18.93452	378348
18.94263	400228
18.95077	418680
18.95888	467823
18.96700	492142
18.97513	493862
18.98325	496086
18.99138	467531
18.99950	440089
19.00762	408301
19.01575	393442
19.02387	378936
19.03198	359447
19.04012	361602
19.04823	349473
19.05637	339364
19.06448	344651
19.07260	354216
19.08073	368647
19.08885	407257
19.09698	477552
19.10510	562970
19.11322	624073
19.12135	630175
19.12947	610018
19.13760	554561
19.14572	472545
19.15383	430840
19.16197	395771
19.17008	365109
19.17820	360410
19.18633	349309
19.19445	334945
19.20258	322616
19.21070	319815
19.21882	308831
19.22695	302877
19.23507	292860
19.24320	281137
19.25132	279938
19.25943	275971
19.26757	273875
19.27568	273639
19.28380	269934
19.29193	266307
19.30005	275220
19.30818	265317
19.31630	277599
19.32442	278718
19.33255	271848
19.34067	269388
19.34880	270464
19.35692	275456
19.36503	302567
19.37317	321527
19.38128	345045
19.38942	362666
19.39753	358800
19.40565	347933
19.41378	334851
19.42190	320220
19.43002	300670
19.43815	303550
19.44627	290763
19.45440	285291
19.46252	279544
19.47063	288075
19.47877	305585
19.48688	321664
19.49502	347752
19.50313	400321
19.51125	464407
19.51938	515504
19.52750	534768
19.53563	521828
19.54375	456335
19.55187	386410
19.56000	331385
19.56812	293198
19.57623	273435
19.58437	265084
19.59248	251007
19.60062	248410
19.60873	243216
19.61685	243182
19.62498	237074
19.63310	244971
19.64123	263883
19.64935	296897
19.65747	377228
19.66560	459564
19.67372	557811
19.68183	629856
19.68997	651205
19.69808	648656
19.70622	603831
19.71433	536242
19.72245	476194
19.73058	421922
19.73870	375194
19.74683	336517
19.75495	326645
19.76307	314052
19.77120	289113
19.77932	286199
19.78745	284474
19.79557	285696
19.80368	299523
19.81182	310619
19.81993	322509
19.82805	315926
19.83618	290177
19.84430	276294
19.85243	256835
19.86055	246149
19.86867	236322
19.87680	234563
19.88492	248289
19.89305	274955
19.90117	316394
19.90928	374604
19.91742	409733
19.92553	446130
19.93367	452597
19.94178	453059
19.94990	432511
19.95803	418736
19.96615	425700
19.97427	414439
19.98240	418867
19.99052	396543
19.99865	398394
20.00677	389985
20.01488	382415
20.02302	388450
20.03113	389114
20.03927	381483
20.04738	366841
20.05550	346925
20.06363	341742
20.07175	353407
20.07987	362513
20.08800	396652
20.09612	423615
20.10425	434735
20.11237	423971
20.12048	406225
20.12862	372315
20.13673	346767
20.14487	323187
20.15298	347705
20.16110	421087
20.16923	564393
20.17735	830388
20.18548	1214416
20.19360	1649291
20.20172	2062844
20.20985	2267087
20.21797	2258086
20.22608	1999777
20.23422	1616989
20.24233	1304676
20.25047	1069399
20.25858	1036328
20.26670	1162039
20.27483	1349636
20.28295	1584322
20.29108	1687303
20.29920	1670415
20.30732	1485461
20.31545	1191525
20.32357	939078
20.33170	703038
20.33982	521046
20.34793	414828
20.35607	323459
20.36418	288347
20.37230	253648
20.38043	238212
20.38855	221072
20.39668	227854
20.40480	220271
20.41292	217141
20.42105	215655
20.42917	222578
20.43730	224865
20.44542	245762
20.45353	249913
20.46167	244997
20.46978	247309
20.47790	228992
20.48603	237494
20.49415	222112
20.50228	202620
20.51040	193870
20.51852	189233
20.52665	181204
20.53477	172383
20.54290	170993
20.55102	167877
20.55913	167980
20.56727	162931
20.57538	159550
20.58352	158431
20.59163	162414
20.59975	162998
20.60788	168752
20.61600	153656
20.62412	156697
20.63225	153044
20.64037	152418
20.64850	148016
20.65662	154193
20.66473	156942
20.67287	156877
20.68098	155949
20.68912	146039
20.69723	146804
20.70535	147144
20.71348	148600
20.72160	142456
20.72972	137513
20.73785	144228
20.74597	138168
20.75410	148361
20.76222	138163
20.77033	154341
20.77847	152338
20.78658	170765
20.79472	203196
20.80283	258116
20.81095	341077
20.81908	446784
20.82720	519231
20.83533	561634
20.84345	477799
20.85157	391932
20.85970	308582
20.86782	245218
20.87593	205640
20.88407	179790
20.89218	164025
20.90032	163679
20.90843	161214
20.91655	166091
20.92468	172709
20.93280	177690
20.94093	185336
20.94905	190012
20.95717	189053
20.96530	177683
20.97342	174903
20.98155	168021
20.98967	162657
20.99778	153351
21.00592	140688
21.01403	143805
21.02215	137423
21.03028	140852
21.03840	137919
21.04653	143386
21.05465	146648
21.06277	139383
21.07090	148541
21.07902	150882
21.08715	145633
21.09527	149052
21.10338	156707
21.11152	149788
21.11963	149372
21.12775	139123
21.13588	153104
21.14400	170400
21.15213	215545
21.16025	263864
21.16837	297776
21.17650	322667
21.18462	318667
21.19275	291544
21.20087	254846
21.20898	227207
21.21712	199604
21.22523	188514
21.23337	177241
21.24148	169951
21.24960	164220
21.25773	153378
21.26585	146430
21.27397	145334
21.28210	140470
21.29022	140694
21.29835	133490
21.30647	142967
21.31458	138109
21.32272	128604
21.33083	133578
21.33897	128464
21.34708	129433
21.35520	134559
21.36333	128217
21.37145	126532
21.37958	128659
21.38770	135874
21.39582	136410
21.40395	150187
21.41207	158639
21.42018	161120
21.42832	176085
21.43643	179095
21.44457	170278
21.45268	165096
21.46080	162530
21.46893	151553
21.47705	142879
21.48518	141218
21.49330	134452
21.50142	134513
21.50955	134662
21.51767	133439
21.52578	140592
21.53392	139957
21.54203	135103
21.55017	133521
21.55828	139799
21.56640	140609
21.57453	130841
21.58265	129443
21.59078	132366
21.59890	132699
21.60702	140703
21.61515	144996
21.62327	152911
21.63140	155523
21.63952	183284
21.64763	188206
21.65577	204763
21.66388	202418
21.67200	194554
21.68013	197008
21.68825	184146
21.69638	177079
21.70450	167463
21.71262	158822
21.72075	148793
21.72887	140123
21.73700	139910
21.74512	141823
21.75323	136589
21.76137	138033
21.76948	138197
21.77760	148283
21.78573	143232
21.79385	156044
21.80198	161314
21.81010	165601
21.81822	178609
21.82635	179436
21.83447	184256
21.84260	193359
21.85072	192427
21.85883	193183
21.86697	180639
21.87508	161691
21.88322	148922
21.89133	145937
21.89945	135377
21.90758	132832
21.91570	124623
21.92382	115811
21.93195	104331
21.94007	117290
21.94820	109737
21.95632	106490
21.96443	101114
21.97257	102582
21.98068	101039
21.98882	102690
21.99693	98396
22.00505	94997
22.01318	97453
22.02130	103358
22.02943	101181
22.03755	103801
22.04567	106105
22.05380	104894
22.06192	108983
22.07003	112828
22.07817	110261
22.08628	115345
22.09442	117619
22.10253	123083
22.11065	124650
22.11878	121370
22.12690	117800
22.13503	120419
22.14315	120492
22.15127	114971
22.15940	118180
22.16752	116812
22.17565	125800
22.18377	114789
22.19188	114667
22.20002	113128
22.20813	113818
22.21625	115288
22.22438	117872
22.23250	113199
22.24063	111252
22.24875	114849
22.25687	114505
22.26500	114212
22.27312	103456
22.28125	108871
22.28937	113699
22.29748	108911
22.30562	113867
22.31373	109062
22.32185	114617
22.32998	114916
22.33810	111189
22.34623	109221
22.35435	107270
22.36247	107094
22.37060	104954
22.37872	108636
22.38685	112458
22.39497	115513
22.40308	121148
22.41122	144463
22.41933	168322
22.42747	184496
22.43558	205610
22.44370	195561
22.45183	202934
22.45995	175172
22.46807	170503
22.47620	158643
22.48432	155491
22.49245	144871
22.50057	152377
22.50868	153071
22.51682	149733
22.52493	146034
22.53307	148093
22.54118	150996
22.54930	145779
22.55743	145903
22.56555	146339
22.57367	143443
22.58180	141338
22.58992	138374
22.59805	128334
22.60617	128513
22.61428	118682
22.62242	124080
22.63053	120273
22.63867	116446
22.64678	123546
22.65490	123959
22.66303	126106
22.67115	130368
22.67928	123227
22.68740	130438
22.69552	126517
22.70365	139169
22.71177	151458
22.71988	154299
22.72802	165968
22.73613	169550
22.74427	163783
22.75238	162732
22.76050	150243
22.76863	146450
22.77675	151943
22.78488	153530
22.79300	179811
22.80112	200094
22.80925	227789
22.81737	248337
22.82550	258441
22.83362	265482
22.84173	251395
22.84987	227234
22.85798	219112
22.86610	203260
22.87423	202728
22.88235	215095
22.89048	236800
22.89860	240219
22.90672	263778
22.91485	268203
22.92297	274803
22.93110	276874
22.93922	268964
22.94733	270359
22.95547	247590
22.96358	219727
22.97170	203001
22.97983	182679
22.98795	174858
22.99608	167620
23.00420	165326
23.01232	158937
23.02045	153151
23.02857	144913
23.03670	144215
23.04482	136085
23.05293	133363
23.06107	132527
23.06918	123557
23.07732	123921
23.08543	126101
23.09355	130881
23.10168	130993
23.10980	133972
23.11792	133384
23.12605	140630
23.13417	141158
23.14230	135444
23.15042	132947
23.15853	136688
23.16667	130699
23.17478	140517
23.18292	139313
23.19103	143817
23.19915	148913
23.20728	143731
23.21540	145926
23.22353	144993
23.23165	139177
23.23977	137901
23.24790	144265
23.25602	151346
23.26413	151700
23.27227	154980
23.28038	154624
23.28852	147564
23.29663	153128
23.30475	142289
23.31288	132005
23.32100	143129
23.32913	140051
23.33725	149400
23.34537	165217
23.35350	183426
23.36162	215160
23.36973	230361
23.37787	241723
23.38598	229095
23.39412	213467
23.40223	195442
23.41035	176840
23.41848	159883
23.42660	144091
23.43473	143116
23.44285	135859
23.45097	130544
23.45910	134838
23.46722	137079
23.47535	134049
23.48347	133847
23.49158	125640
23.49972	133134
23.50783	134885
23.51595	134034
23.52408	130156
23.53220	131412
23.54033	135025
23.54845	131059
23.55657	137771
23.56470	144231
23.57282	159775
23.58095	188361
23.58907	222520
23.59718	272181
23.60532	328239
23.61343	353293
23.62155	352524
23.62968	330203
23.63780	279464
23.64593	235516
23.65405	204830
23.66217	184566
23.67030	167744
23.67842	158668
23.68655	157106
23.69467	149649
23.70278	140737
23.71092	142304
23.71903	139417
23.72717	135792
23.73528	130709
23.74340	138808
23.75153	179198
23.75965	307926
23.76777	611341
23.77590	1198818
23.78402	2150303
23.79215	3141178
23.80027	3702891
23.80838	3732142
23.81652	3371702
23.82463	2683679
23.83277	1954574
23.84088	1435473
23.84900	1097603
23.85713	845116
23.86525	706728
23.87338	588036
23.88150	520553
23.88962	472940
23.89775	426376
23.90587	403715
23.91398	383762
23.92212	371381
23.93023	354777
23.93837	336681
23.94648	322891
23.95460	302523
23.96273	290877
23.97085	280169
23.97898	264432
23.98710	250885
23.99522	271650
24.00335	325861
24.01147	511809
24.01958	885508
24.02772	1468159
24.03583	2161754
24.04397	2602136
24.05208	2537020
24.06020	2033806
24.06833	1429072
24.07645	898712
24.08458	599937
24.09270	393544
24.10082	298831
24.10895	249211
24.11707	236829
24.12520	215436
24.13332	219485
24.14143	247210
24.14957	266200
24.15768	288511
24.16580	285471
24.17393	275842
24.18205	265892
24.19018	251854
24.19830	233893
24.20642	213226
24.21455	209615
24.22267	194329
24.23080	192916
24.23892	190226
24.24703	176511
24.25517	172387
24.26328	160948
24.27142	154670
24.27953	154637
24.28765	152864
24.29578	145146
24.30390	146041
24.31202	145594
24.32015	138985
24.32827	137880
24.33640	139255
24.34452	143175
24.35263	139943
24.36077	138218
24.36888	136196
24.37702	134517
24.38513	152879
24.39325	161482
24.40138	202836
24.40950	237318
24.41762	261216
24.42575	258239
24.43387	228283
24.44200	204261
24.45012	178666
24.45823	145587
24.46637	145023
24.47448	139070
24.48262	128626
24.49073	131264
24.49885	133078
24.50698	141844
24.51510	150403
24.52323	162203
24.53135	162945
24.53947	161622
24.54760	164760
24.55572	171097
24.56383	167931
24.57197	171803
24.58008	164356
24.58822	154762
24.59633	155343
24.60445	142588
24.61258	147120
24.62070	143354
24.62883	131841
24.63695	128053
24.64507	128221
24.65320	126531
24.66132	129453
24.66943	123904
24.67757	122521
24.68568	119219
24.69382	115493
24.70193	114838
24.71005	113131
24.71818	114033
24.72630	113790
24.73443	112532
24.74255	108728
24.75067	108385
24.75880	123212
24.76692	136905
24.77505	143953
24.78317	154858
24.79128	162151
24.79942	168009
24.80753	171990
24.81565	172847
24.82378	175425
24.83190	190853
24.84003	189725
24.84815	219506
24.85627	248862
24.86440	287900
24.87252	365390
24.88065	459061
24.88877	554162
24.89688	639924
24.90502	687508
24.91313	622858
24.92127	537460
24.92938	415979
24.93750	328083
24.94563	272080
24.95375	226049
24.96187	201112
24.97000	189846
24.97812	188691
24.98625	189430
24.99437	185024
25.00248	178895
25.01062	186280
25.01873	190718
25.02687	182407
25.03498	188947
25.04310	179553
25.05123	182262
25.05935	187313
25.06747	186675
25.07560	186372
25.08372	179928
25.09185	184510
25.09997	209119
25.10808	257042
25.11622	379742
25.12433	671353
25.13247	1165554
25.14058	1822228
25.14870	2404859
25.15683	2767513
25.16495	2727604
25.17308	2390615
25.18120	1840995
25.18932	1304881
25.19745	899057
25.20557	639201
25.21368	441734
25.22182	349040
25.22993	303432
25.23807	310561
25.24618	390427
25.25430	558781
25.26243	815856
25.27055	1118634
25.27868	1360245
25.28680	1447852
25.29492	1352590
25.30305	1082099
25.31117	763454
25.31930	525207
25.32742	374998
25.33553	275616
25.34367	235161
25.35178	204254
25.35990	198053
25.36803	196016
25.37615	183750
25.38428	174238
25.39240	168513
25.40052	178581
25.40865	174907
25.41677	163013
25.42490	163143
25.43302	159409
25.44113	167803
25.44927	159562
25.45738	163372
25.46550	161158
25.47363	169571
25.48175	159635
25.48988	162732
25.49800	163871
25.50612	161779
25.51425	159680
25.52237	157150
25.53050	143998
25.53862	141793
25.54673	148086
25.55487	151777
25.56298	140195
25.57112	144372
25.57923	148533
25.58735	146835
25.59548	142292
25.60360	143254
25.61172	139653
25.61985	141669
25.62797	157516
25.63610	168610
25.64422	180453
25.65233	193469
25.66047	189771
25.66858	179652
25.67672	178876
25.68483	157894
25.69295	149257
25.70108	147146
25.70920	132445
25.71733	128521
25.72545	127795
25.73357	129505
25.74170	123810
25.74982	120499
25.75793	117851
25.76607	132058
25.77418	151342
25.78232	180123
25.79043	228503
25.79855	237163
25.80668	226693
25.81480	191836
25.82293	165081
25.83105	145347
25.83917	135437
25.84730	129780
25.85542	128084
25.86353	121882
25.87167	122050
25.87978	116172
25.88792	123973
25.89603	111883
25.90415	108149
25.91228	105853
25.92040	110748
25.92853	111363
25.93665	111519
25.94477	119250
25.95290	119422
25.96102	118383
25.96915	124888
25.97727	119304
25.98538	110759
25.99352	107226
26.00163	99037
26.00975	94792
26.01788	94077
26.02600	92828
26.03413	94122
26.04225	92825
26.05037	100008
26.05850	98176
26.06662	94123
26.07475	102230
26.08287	105244
26.09098	104016
26.09912	115011
26.10723	116524
26.11535	123486
26.12348	130533
26.13160	140624
26.13973	149245
26.14785	153735
26.15597	160559
26.16410	163830
26.17222	166653
26.18035	161072
26.18847	166948
26.19658	150311
26.20472	152942
26.21283	144492
26.22097	148736
26.22908	146317
26.23720	139316
26.24533	144144
26.25345	143566
26.26157	141848
26.26970	153540
26.27782	149758
26.28595	147268
26.29407	149270
26.30218	146780
26.31032	141200
26.31843	144885
26.32657	151085
26.33468	140599
26.34280	139262
26.35093	138323
26.35905	144580
26.36718	159409
26.37530	183742
26.38342	222764
26.39155	276823
26.39967	326451
26.40778	385009
26.41592	402339
26.42403	396951
26.43217	354228
26.44028	299914
26.44840	257697
26.45653	222389
26.46465	196925
26.47278	176457
26.48090	165474
26.48902	150324
26.49715	157227
26.50527	150765
26.51338	145230
26.52152	129912
26.52963	137218
26.53777	132057
26.54588	129533
26.55400	126230
26.56213	129094
26.57025	124913
26.57838	128909
26.58650	135198
26.59462	134402
26.60275	123663
26.61087	124157
26.61900	121925
26.62712	119791
26.63523	119136
26.64337	124887
26.65148	125308
26.65960	128657
26.66773	127934
26.67585	118436
26.68398	120710
26.69210	127165
26.70022	119585
26.70835	116196
26.71647	118073
26.72460	117519
26.73272	113604
26.74083	117782
26.74897	106642
26.75708	113164
26.76522	117329
26.77333	120203
26.78145	112308
26.78958	115469
26.79770	118303
26.80582	117746
26.81395	120102
26.82207	126533
26.83020	121938
26.83832	121475
26.84643	117291
26.85457	115876
26.86268	119629
26.87082	111890
26.87893	115361
26.88705	113211
26.89518	114601
26.90330	111942
26.91142	108993
26.91955	110671
26.92767	109344
26.93580	107233
26.94392	104066
26.95203	105712
26.96017	110323
26.96828	113889
26.97642	131052
26.98453	151892
26.99265	204661
27.00078	293046
27.00890	396880
27.01703	536843
27.02515	672504
27.03327	729018
27.04140	719572
27.04952	671715
27.05763	563163
27.06577	461367
27.07388	375011
27.08202	316442
27.09013	268917
27.09825	250966
27.10638	229070
27.11450	206940
27.12263	194873
27.13075	179718
27.13887	165726
27.14700	173745
27.15512	156642
27.16323	168302
27.17137	173181
27.17948	179991
27.18762	183982
27.19573	183395
27.20385	180041
27.21198	186865
27.22010	165183
27.22823	167064
27.23635	145518
27.24447	151046
27.25260	140580
27.26072	134458
27.26885	133444
27.27697	123105
27.28508	129434
27.29322	124182
27.30133	128220
27.30945	121543
27.31758	115981
27.32570	120898
27.33383	121785
27.34195	114852
27.35007	111980
27.35820	114015
27.36632	125090
27.37445	122836
27.38257	127565
27.39068	127202
27.39882	126453
27.40693	113274
27.41507	115005
27.42318	110029
27.43130	113666
27.43943	103381
27.44755	108238
27.45567	110790
27.46380	102514
27.47192	100409
27.48005	103759
27.48817	99333
27.49628	97324
27.50442	97806
27.51253	101852
27.52067	98641
27.52878	100308
27.53690	99582
27.54503	104166
27.55315	109445
27.56128	104957
27.56940	105129
27.57752	106790
27.58565	113491
27.59377	119751
27.60188	134169
27.61002	131468
27.61813	126104
27.62627	123182
27.63438	117700
27.64250	104772
27.65063	106915
27.65875	101436
27.66688	98472
27.67500	94534
27.68312	98996
27.69125	106944
27.69937	97167
27.70748	102363
27.71562	102670
27.72373	98691
27.73187	89540
27.73998	93399
27.74810	89334
27.75623	104245
27.76435	109706
27.77248	131073
27.78060	157551
27.78872	185530
27.79685	198873
27.80497	195699
27.81310	174363
27.82122	154074
27.82933	130135
27.83747	114197
27.84558	103511
27.85370	99464
27.86183	94345
27.86995	95170
27.87808	95644
27.88620	89401
27.89432	93442
27.90245	82412
27.91057	83954
27.91870	92042
27.92682	86190
27.93493	84593
27.94307	86808
27.95118	84469
27.95930	84897
27.96743	86528
27.97555	87213
27.98368	88153
27.99180	92091
27.99992	93380
28.00805	99338
28.01617	91151
28.02430	93390
28.03242	98672
28.04053	103758
28.04867	106145
28.05678	115300
28.06492	114517
28.07303	109157
28.08115	108197
28.08928	105111
28.09740	101367
28.10552	104559
28.11365	98230
28.12177	98214
28.12990	96950
28.13802	86655
28.14613	89718
28.15427	80818
28.16238	84790
28.17052	82813
28.17863	88653
28.18675	89851
28.19488	96542
28.20300	111691
28.21113	115157
28.21925	133959
28.22737	129952
28.23550	130875
28.24362	132774
28.25173	126875
28.25987	111143
28.26798	113841
28.27612	100356
28.28423	94791
28.29235	93872
28.30048	94657
28.30860	96076
28.31673	93034
28.32485	100766
28.33297	100585
28.34110	106310
28.34922	112154
28.35733	118735
28.36547	127900
28.37358	135216
28.38172	150699
28.38983	151274
28.39795	155148
28.40608	152373
28.41420	156341
28.42233	141861
28.43045	143451
28.43857	132888
28.44670	133967
28.45482	122814
28.46295	118002
28.47107	114267
28.47918	122681
28.48732	118171
28.49543	121496
28.50355	127047
28.51168	131701
28.51980	127522
28.52793	124209
28.53605	120919
28.54417	108970
28.55230	105105
28.56042	105793
28.56855	96650
28.57667	98025
28.58478	101373
28.59292	98308
28.60103	100245
28.60917	101726
28.61728	111908
28.62540	113486
28.63353	116085
28.64165	121327
28.64977	119039
28.65790	126396
28.66602	124017
28.67415	120457
28.68227	124238
28.69038	109543
28.69852	109866
28.70663	105264
28.71477	105521
28.72288	97598
28.73100	103592
28.73913	101022
28.74725	102784
28.75537	105284
28.76350	110740
28.77162	129646
28.77975	131702
28.78787	140263
28.79598	150451
28.80412	152681
28.81223	135862
28.82037	128615
28.82848	121043
28.83660	114785
28.84473	105137
28.85285	102938
28.86098	106256
28.86910	97932
28.87722	99198
28.88535	103804
28.89347	101406
28.90158	105005
28.90972	105501
28.91783	101544
28.92597	104881
28.93408	103740
28.94220	106132
28.95033	112744
28.95845	117272
28.96658	114086
28.97470	114982
28.98282	106248
28.99095	99757
28.99907	103079
29.00718	95831
29.01532	92222
29.02343	91230
29.03157	93912
29.03968	95483
29.04780	96928
29.05593	96570
29.06405	102119
29.07218	113289
29.08030	115186
29.08842	121626
29.09655	120138
29.10467	115468
29.11280	111059
29.12092	99073
29.12903	91796
29.13717	87756
29.14528	90169
29.15340	90513
29.16153	87780
29.16965	86507
29.17778	89600
29.18590	94366
29.19402	96252
29.20215	106091
29.21027	111592
29.21840	123166
29.22652	134619
29.23463	151973
29.24277	176350
29.25088	227051
29.25902	283782
29.26713	350981
29.27525	389573
29.28338	393122
29.29150	339190
29.29962	279847
29.30775	221139
29.31587	180639
29.32400	140763
29.33212	124061
29.34023	114459
29.34837	106224
29.35648	94856
29.36462	97724
29.37273	102122
29.38085	96793
29.38898	94558
29.39710	93758
29.40522	94536
29.41335	93645
29.42147	96031
29.42960	90938
29.43772	92013
29.44583	97675
29.45397	90969
29.46208	93056
29.47022	92920
29.47833	93251
29.48645	101454
29.49458	102640
29.50270	106341
29.51083	111218
29.51895	111943
29.52707	105610
29.53520	99836
29.54332	97835
29.55143	92243
29.55957	91728
29.56768	90744
29.57582	86383
29.58393	88327
29.59205	91463
29.60018	90905
29.60830	88627
29.61643	90638
29.62455	91539
29.63267	91691
29.64080	90256
29.64892	87733
29.65705	82280
29.66517	79303
29.67328	82633
29.68142	83014
29.68953	83647
29.69765	80903
29.70578	84275
29.71390	79595
29.72203	83270
29.73015	86432
29.73827	82150
29.74640	84257
29.75452	83886
29.76265	82269
29.77077	80955
29.77888	80860
29.78702	72937
29.79513	78471
29.80325	74640
29.81138	76767
29.81950	76575
29.82763	78399
29.83575	76570
29.84387	77128
29.85200	84364
29.86012	79243
29.86825	86270
29.87637	96635
29.88448	115235
29.89262	132405
29.90073	149413
29.90887	160425
29.91698	159491
29.92510	143531
29.93323	126912
29.94135	111797
29.94947	94405
29.95760	90968
29.96572	88986
29.97385	91941
29.98197	96768
29.99008	98132
29.99822	106402
30.00633	106788
30.01447	109025
30.02258	115564
30.03070	113184
30.03883	113168
30.04695	120858
30.05508	122353
30.06320	123842
30.07132	116030
30.07945	114919
30.08757	110414
30.09568	115600
30.10382	105924
30.11193	108951
30.12007	103679
30.12818	107577
30.13630	111213
30.14443	106871
30.15255	106303
30.16068	102403
30.16880	105917
30.17692	100448
30.18505	101470
30.19317	105952
30.20128	107485
30.20942	106770
30.21753	106436
30.22567	104740
30.23378	101886
30.24190	93488
30.25003	95662
30.25815	94960
30.26628	93169
30.27440	92537
30.28252	90366
30.29065	88900
30.29877	83576
30.30690	87202
30.31502	83591
30.32313	86987
30.33127	86391
30.33938	84227
30.34750	84308
30.35563	80664
30.36375	82796
30.37188	79675
30.38000	76840
30.38812	76178
30.39625	77022
30.40437	79582
30.41250	81460
30.42062	82337
30.42873	80590
30.43687	78618
30.44498	79700
30.45310	76010
30.46123	82045
30.46935	78503
30.47748	84812
30.48560	81707
30.49372	86954
30.50185	87428
30.50997	85859
30.51810	89683
30.52622	86471
30.53433	83273
30.54247	80078
30.55058	79982
30.55872	83123
30.56683	80876
30.57495	79543
30.58308	76733
30.59120	79623
30.59932	75889
30.60745	75669
30.61557	75790
30.62370	77811
30.63182	75947
30.63993	76784
30.64807	80475
30.65618	79744
30.66432	74398
30.67243	77277
30.68055	75127
30.68868	77406
30.69680	77828
30.70493	78465
30.71305	73706
30.72117	76127
30.72930	80200
30.73742	74510
30.74553	76450
30.75367	75573
30.76178	73123
30.76992	80953
30.77803	81095
30.78615	98320
30.79428	109361
30.80240	133575
30.81053	152081
30.81865	175449
30.82677	163612
30.83490	157017
30.84302	139442
30.85113	121075
30.85927	98290
30.86738	96804
30.87552	93380
30.88363	87945
30.89175	97340
30.89988	90683
30.90800	83361
30.91613	84911
30.92425	81544
30.93237	82057
30.94050	89240
30.94862	79962
30.95675	85631
30.96487	80788
30.97298	82072
30.98112	81671
30.98923	82232
30.99735	80547
31.00548	77315
31.01360	79734
31.02173	75106
31.02985	79122
31.03797	76497
31.04610	87213
31.05422	85360
31.06235	83784
31.07047	82141
31.07858	87211
31.08672	94756
31.09483	98185
31.10297	111310
31.11108	115898
31.11920	111834
31.12733	114705
31.13545	103057
31.14357	101264
31.15170	86795
31.15982	90254
31.16795	91309
31.17607	89201
31.18418	87825
31.19232	96053
31.20043	98697
31.20857	104548
31.21668	114551
31.22480	126681
31.23293	132895
31.24105	122193
31.24917	125608
31.25730	113858
31.26542	108394
31.27355	97930
31.28167	91328
31.28978	87430
31.29792	80755
31.30603	82218
31.31417	86355
31.32228	82515
31.33040	79928
31.33853	73637
31.34665	77977
31.35478	80487
31.36290	79888
31.37102	74159
31.37915	76587
31.38727	76062
31.39538	79285
31.40352	79683
31.41163	82093
31.41977	81824
31.42788	83047
31.43600	88917
31.44413	84144
31.45225	81987
31.46038	81797
31.46850	83449
31.47662	92600
31.48475	93188
31.49287	102444
31.50098	99123
31.50912	102637
31.51723	100422
31.52537	100959
31.53348	98169
31.54160	96614
31.54973	101594
31.55785	105464
31.56598	108943
31.57410	113191
31.58222	110273
31.59035	107209
31.59847	104834
31.60660	100543
31.61472	97388
31.62283	84653
31.63097	89797
31.63908	90732
31.64720	89329
31.65533	88474
31.66345	89596
31.67158	91316
31.67970	89679
31.68782	89921
31.69595	86426
31.70407	97490
31.71220	80223
31.72032	82248
31.72843	79985
31.73657	84124
31.74468	81339
31.75282	82714
31.76093	85590
31.76905	86536
31.77718	90440
31.78530	89261
31.79342	100627
31.80155	92033
31.80967	95023
31.81780	98221
31.82592	94923
31.83403	98563
31.84217	92920
31.85028	96515
31.85842	95400
31.86653	98774
31.87465	90068
31.88278	92597
31.89090	90434
31.89902	91077
31.90715	87317
31.91527	90686
31.92340	88596
31.93152	92986
31.93963	95579
31.94777	94783
31.95588	105355
31.96402	113467
31.97213	110795
31.98025	113716
31.98838	113164
31.99650	119375
32.00463	121305
32.01275	115144
32.02087	122543
32.02900	118061
32.03712	114522
32.04523	108913
32.05337	112788
32.06148	106939
32.06962	110245
32.07773	107973
32.08585	109257
32.09398	109914
32.10210	109797
32.11023	105509
32.11835	103113
32.12647	94857
32.13460	97066
32.14272	93519
32.15085	94860
32.15897	88048
32.16708	90895
32.17522	85815
32.18333	89231
32.19145	85802
32.19958	87846
32.20770	89070
32.21583	84316
32.22395	86096
32.23207	85219
32.24020	85306
32.24832	88707
32.25645	105670
32.26457	96693
32.27268	102066
32.28082	103170
32.28893	104821
32.29705	98059
32.30518	96825
32.31330	92325
32.32143	94103
32.32955	87200
32.33767	90023
32.34580	86172
32.35392	90134
32.36205	91254
32.37017	85640
32.37828	85461
32.38642	88369
32.39453	85731
32.40267	86235
32.41078	85313
32.41890	86348
32.42703	85575
32.43515	84339
32.44327	88616
32.45140	78019
32.45952	83435
32.46765	81057
32.47577	83153
32.48388	80462
32.49202	73167
32.50013	82092
32.50827	76523
32.51638	80073
32.52450	79163
32.53263	82263
32.54075	73164
32.54887	79742
32.55700	80024
32.56512	79261
32.57325	82084
32.58137	77032
32.58948	79339
32.59762	77932
32.60573	74769
32.61387	78454
32.62198	78320
32.63010	76594
32.63823	84482
32.64635	79506
32.65448	82259
32.66260	88826
32.67072	96034
32.67885	104502
32.68697	115464
32.69508	114270
32.70322	117576
32.71133	115645
32.71947	110114
32.72758	103216
32.73570	96626
32.74383	93601
32.75195	91176
32.76008	84565
32.76820	79321
32.77632	77544
32.78445	81751
32.79257	79364
32.80070	76187
32.80882	77184
32.81693	80354
32.82507	82394
32.83318	75268
32.84130	78001
32.84943	78258
32.85755	78403
32.86568	83116
32.87380	78683
32.88192	81805
32.89005	85431
32.89817	84407
32.90630	78118
32.91442	80426
32.92253	75503
32.93067	78060
32.93878	79564
32.94692	80122
32.95503	76115
32.96315	79261
32.97128	85290
32.97940	91535
32.98752	101579
32.99565	118507
33.00377	130852
33.01190	139060
33.02002	138248
33.02813	140595
33.03627	120830
33.04438	107659
33.05252	101735
33.06063	94694
33.06875	97680
33.07688	99712
33.08500	104302
33.09312	109019
33.10125	114537
33.10937	127902
33.11750	130154
33.12562	141505
33.13373	142872
33.14187	130436
33.14998	117206
33.15812	111343
33.16623	96906
33.17435	95070
33.18248	89155
33.19060	89644
33.19873	85455
33.20685	88163
33.21497	85273
33.22310	92191
33.23122	90645
33.23933	87926
33.24747	89548
33.25558	89362
33.26372	89305
33.27183	82806
33.27995	80936
33.28808	82146
33.29620	86043
33.30433	90105
33.31245	84532
33.32057	84460
33.32870	84720
33.33682	82731
33.34493	82650
33.35307	81793
33.36118	78627
33.36932	79986
33.37743	82611
33.38555	84785
33.39368	83970
33.40180	85354
33.40993	92841
33.41805	97263
33.42617	110219
33.43430	111773
33.44242	115655
33.45055	115707
33.45867	109593
33.46678	105523
33.47492	97543
33.48303	91396
33.49115	92242
33.49928	95952
33.50740	90090
33.51553	95340
33.52365	96097
33.53177	92906
33.53990	92109
33.54802	89865
33.55615	86384
33.56427	83929
33.57238	86490
33.58052	82632
33.58863	87911
33.59677	78867
33.60488	76095
33.61300	79649
33.62113	83232
33.62925	81040
33.63737	90116
33.64550	90390
33.65362	89761
33.66175	95762
33.66987	94939
33.67798	91343
33.68612	96555
33.69423	92219
33.70237	81627
33.71048	89863
33.71860	91936
33.72673	100138
33.73485	110141
33.74297	118378
33.75110	124979
33.75922	130602
33.76735	125622
33.77547	123768
33.78358	112732
33.79172	101109
33.79983	95573
33.80797	94462
33.81608	87841
33.82420	88984
33.83233	89539
33.84045	98205
33.84858	106040
33.85670	108253
33.86482	107562
33.87295	115942
33.88107	122016
33.88918	121905
33.89732	125827
33.90543	139754
33.91357	138202
33.92168	141979
33.92980	136182
33.93793	128861
33.94605	119143
33.95418	104030
33.96230	102425
33.97042	98961
33.97855	90864
33.98667	86754
33.99480	88580
34.00292	86160
34.01103	87065
34.01917	91867
34.02728	87176
34.03540	91629
34.04353	87312
34.05165	87543
34.05978	93537
34.06790	86401
34.07602	95278
34.08415	93541
34.09227	92877
34.10040	93138
34.10852	89888
34.11663	85421
34.12477	88043
34.13288	84223
34.14100	84654
34.14913	76254
34.15725	84236
34.16538	86349
34.17350	92368
34.18162	96552
34.18975	106319
34.19787	115065
34.20600	112551
34.21412	116845
34.22223	112096
34.23037	112538
34.23848	101350
34.24662	95828
34.25473	95091
34.26285	89425
34.27098	95419
34.27910	90488
34.28722	84209
34.29535	85122
34.30347	82069
34.31160	82123
34.31972	83775
34.32783	76052
34.33597	80251
34.34408	85346
34.35222	83136
34.36033	85403
34.36845	83944
34.37658	80197
34.38470	81616
34.39282	76350
34.40095	84323
34.40907	81635
34.41720	81689
34.42532	82258
34.43343	84575
34.44157	78678
34.44968	80746
34.45782	78860
34.46593	84811
34.47405	79720
34.48218	77767
34.49030	77681
34.49843	83859
34.50655	81530
34.51467	82187
34.52280	82989
34.53092	86903
34.53903	89058
34.54717	106216
34.55528	99997
34.56342	107184
34.57153	109306
34.57965	111262
34.58778	111968
34.59590	111363
34.60403	113854
34.61215	117460
34.62027	118469
34.62840	121125
34.63652	121773
34.64465	123209
34.65277	115209
34.66088	117845
34.66902	114149
34.67713	113889
34.68525	111900
34.69338	107345
34.70150	101967
34.70963	104422
34.71775	105205
34.72587	98957
34.73400	90604
34.74212	89890
34.75025	95257
34.75837	85019
34.76648	94196
34.77462	88857
34.78273	89594
34.79085	89940
34.79898	88608
34.80710	90797
34.81523	94336
34.82335	96913
34.83147	97634
34.83960	95929
34.84772	94960
34.85585	98368
34.86397	93210
34.87208	93672
34.88022	94278
34.88833	90251
34.89647	90712
34.90458	94248
34.91270	90378
34.92083	93866
34.92895	93879
34.93707	101809
34.94520	99241
34.95332	104129
34.96145	111731
34.96957	108904
34.97768	113860
34.98582	113104
34.99393	117949
35.00207	114427
35.01018	116683
35.01830	118384
35.02643	124618
35.03455	126613
35.04268	128066
35.05080	129962
35.05892	131784
35.06705	123272
35.07517	114357
35.08328	112697
35.09142	107230
35.09953	105109
35.10767	98050
35.11578	97473
35.12390	91671
35.13203	90065
35.14015	86602
35.14828	89657
35.15640	87674
35.16452	92599
35.17265	89852
35.18077	93142
35.18888	93294
35.19702	96412
35.20513	92937
35.21327	92772
35.22138	86147
35.22950	94938
35.23763	94516
35.24575	102533
35.25388	101829
35.26200	109829
35.27012	108453
35.27825	107272
35.28637	109338
35.29450	108521
35.30262	96501
35.31073	101665
35.31887	99965
35.32698	106282
35.33510	98359
35.34323	100505
35.35135	102005
35.35948	104229
35.36760	107019
35.37572	107186
35.38385	114484
35.39197	126085
35.40010	141539
35.40822	150468
35.41633	168683
35.42447	171547
35.43258	177437
35.44072	170171
35.44883	164531
35.45695	156772
35.46508	140553
35.47320	128895
35.48132	127051
35.48945	118581
35.49757	111921
35.50570	104127
35.51382	106124
35.52193	101558
35.53007	101581
35.53818	98780
35.54632	101853
35.55443	109024
35.56255	107183
35.57068	101292
35.57880	103245
35.58692	99984
35.59505	96291
35.60317	100443
35.61130	95059
35.61942	90664
35.62753	93900
35.63567	94388
35.64378	91038
35.65192	97814
35.66003	96458
35.66815	93247
35.67628	101937
35.68440	108602
35.69253	107336
35.70065	111561
35.70877	120413
35.71690	116041
35.72502	112197
35.73313	111603
35.74127	116895
35.74938	108276
35.75752	106546
35.76563	111777
35.77375	106201
35.78188	103644
35.79000	106823
35.79813	106690
35.80625	106698
35.81437	105431
35.82250	101326
35.83062	103158
35.83873	96304
35.84687	100503
35.85498	97043
35.86312	100615
35.87123	102073
35.87935	104149
35.88748	106894
35.89560	107514
35.90373	100739
35.91185	108782
35.91997	106270
35.92810	98144
35.93622	101144
35.94435	100339
35.95247	98143
35.96058	96072
35.96872	97495
35.97683	94309
35.98495	91332
35.99308	101676
36.00120	94978
36.00933	103043
36.01745	94655
36.02557	97244
36.03370	103375
36.04182	104954
36.04995	101163
36.05807	102594
36.06618	101266
36.07432	102798
36.08243	105467
36.09057	99652
36.09868	95365
36.10680	98474
36.11493	95727
36.12305	93329
36.13117	100002
36.13930	93018
36.14742	98342
36.15555	95598
36.16367	95121
36.17178	94410
36.17992	96671
36.18803	88516
36.19617	97984
36.20428	94324
36.21240	96148
36.22053	92049
36.22865	95399
36.23677	97496
36.24490	100519
36.25302	108357
36.26115	105050
36.26927	107241
36.27738	111625
36.28552	109085
36.29363	107027
36.30177	103150
36.30988	107572
36.31800	105457
36.32613	115152
36.33425	114759
36.34238	110021
36.35050	106311
36.35862	99511
36.36675	99348
36.37487	96037
36.38298	92130
36.39112	99142
36.39923	99432
36.40737	105282
36.41548	99710
36.42360	107224
36.43173	106379
36.43985	112219
36.44798	116596
36.45610	120626
36.46422	127149
36.47235	133199
36.48047	130671
36.48860	131969
36.49672	132652
36.50483	131828
36.51297	130909
36.52108	127129
36.52920	129565
36.53733	128629
36.54545	121751
36.55358	116137
36.56170	124382
36.56982	101277
36.57795	102039
36.58607	102004
36.59420	93068
36.60232	95769
36.61043	107279
36.61857	106565
36.62668	107733
36.63480	124177
36.64293	127651
36.65105	135182
36.65918	126608
36.66730	135007
36.67542	130601
36.68355	125717
36.69167	124063
36.69980	113764
36.70792	109989
36.71603	103832
36.72417	103982
36.73228	109533
36.74042	96416
36.74853	97061
36.75665	101334
36.76478	100901
36.77290	99938
36.78102	97633
36.78915	97674
36.79727	93719
36.80540	100069
36.81352	92702
36.82163	93724
36.82977	92710
36.83788	90902
36.84602	91095
36.85413	95835
36.86225	94854
36.87038	97398
36.87850	102034
36.88662	96054
36.89475	103613
36.90287	110962
36.91100	98779
36.91912	99857
36.92723	97564
36.93537	97137
36.94348	98519
36.95162	96416
36.95973	109036
36.96785	113093
36.97598	108882
36.98410	110227
36.99223	103398
37.00035	105607
37.00847	101552
37.01660	105314
37.02472	105392
37.03283	105980
37.04097	106556
37.04908	104982
37.05722	102895
37.06533	103792
37.07345	101078
37.08158	106222
37.08970	113393
37.09783	114958
37.10595	116570
37.11407	120091
37.12220	127400
37.13032	132178
37.13845	133921
37.14657	134296
37.15468	129260
37.16282	124060
37.17093	124536
37.17905	114068
37.18718	110767
37.19530	107019
37.20343	103656
37.21155	106449
37.21967	104033
37.22780	105446
37.23592	100012
37.24405	102872
37.25217	101666
37.26028	99101
37.26842	99537
37.27653	102145
37.28467	108206
37.29278	108644
37.30090	107537
37.30903	106906
37.31715	111247
37.32527	110065
37.33340	111554
37.34152	108647
37.34965	113338
37.35777	115139
37.36588	118701
37.37402	121034
37.38213	119556
37.39027	118247
37.39838	120450
37.40650	118002
37.41463	121075
37.42275	117270
37.43087	116910
37.43900	113389
37.44712	109219
37.45525	113813
37.46337	108921
37.47148	112833
37.47962	114253
37.48773	113832
