C:\MassHunter\GCMS\1\data\JTB-E02\BACandBLUE\JTB-E18-013-09.D Thu Jun 20 09:57:53 2019
Start of data points
2.09517,65556
2.10328,66267
2.11140,60029
2.11953,63542
2.12765,58236
2.13578,63463
2.14390,63970
2.15202,60081
2.16015,58176
2.16827,62029
2.17640,60349
2.18452,54666
2.19263,59084
2.20077,56382
2.20888,61497
2.21702,57289
2.22513,58939
2.23325,58366
2.24138,59185
2.24950,55569
2.25762,60342
2.26575,82119
2.27387,561244
2.28200,1709709
2.29012,1089203
2.29823,433147
2.30637,291220
2.31448,251613
2.32262,209992
2.33073,188329
2.33885,180117
2.34698,159239
2.35510,147107
2.36323,137449
2.37135,139319
2.37947,133211
2.38760,129276
2.39572,124192
2.40383,120394
2.41197,115226
2.42008,117420
2.42822,115823
2.43633,114922
2.44445,104755
2.45258,105938
2.46070,105254
2.46883,97830
2.47695,104362
2.48507,97425
2.49320,131539
2.50132,135667
2.50945,112839
2.51757,111735
2.52568,104706
2.53382,104331
2.54193,107797
2.55005,105859
2.55818,160279
2.56630,266119
2.57443,244748
2.58255,181149
2.59067,161121
2.59880,158294
2.60692,417369
2.61505,1420556
2.62317,1378883
2.63128,691679
2.63942,421801
2.64753,320909
2.65565,257198
2.66378,218245
2.67190,194859
2.68003,177186
2.68815,161216
2.69627,150936
2.70440,142669
2.71252,137345
2.72065,134635
2.72877,129987
2.73688,127534
2.74502,123044
2.75313,113374
2.76127,110076
2.76938,110070
2.77750,120331
2.78563,229349
2.79375,367688
2.80187,286764
2.81000,203586
2.81812,187049
2.82625,187853
2.83437,163562
2.84248,147415
2.85062,138545
2.85873,132094
2.86687,123468
2.87498,121212
2.88310,118952
2.89123,115139
2.89935,110241
2.90747,111553
2.91560,106443
2.92372,105587
2.93185,106236
2.93997,106022
2.94808,98804
2.95622,102470
2.96433,119594
2.97247,135997
2.98058,122078
2.98870,114456
2.99683,108393
3.00495,103910
3.01308,106905
3.02120,102199
3.02932,95209
3.03745,98072
3.04557,97573
3.05368,95600
3.06182,96832
3.06993,95934
3.07807,140719
3.08618,781286
3.09430,3429559
3.10243,6146057
3.11055,6996828
3.11868,6925092
3.12680,4835780
3.13492,3028844
3.14305,2272134
3.15117,1800079
3.15930,1439635
3.16742,1191248
3.17553,1045688
3.18367,952975
3.19178,1070443
3.19990,1477142
3.20803,1481173
3.21615,1113394
3.22428,907996
3.23240,773520
3.24052,666633
3.24865,593974
3.25677,529039
3.26490,505764
3.27302,454657
3.28113,417589
3.28927,451031
3.29738,797463
3.30550,2074489
3.31363,4012307
3.32175,4858029
3.32988,4014553
3.33800,2777781
3.34612,2057622
3.35425,1631161
3.36237,1376799
3.37050,1187789
3.37862,1059850
3.38673,953405
3.39487,871779
3.40298,810919
3.41112,752613
3.41923,688720
3.42735,649639
3.43548,632905
3.44360,595416
3.45172,574175
3.45985,540525
3.46797,543856
3.47610,544666
3.48422,555504
3.49233,512936
3.50047,500214
3.50858,465444
3.51672,455325
3.52483,438189
3.53295,446692
3.54108,452098
3.54920,448539
3.55733,437447
3.56545,430775
3.57357,462234
3.58170,540000
3.58982,556253
3.59793,495412
3.60607,456027
3.61418,438949
3.62232,423331
3.63043,429123
3.63855,416449
3.64668,406784
3.65480,388297
3.66293,428240
3.67105,1067624
3.67917,3716569
3.68730,7440824
3.69542,7710248
3.70353,5325210
3.71167,3550666
3.71978,2798535
3.72792,2331839
3.73603,2052508
3.74415,1780512
3.75228,1607097
3.76040,1480422
3.76853,1368857
3.77665,1252823
3.78477,1183205
3.79290,1110488
3.80102,1057039
3.80915,1176489
3.81727,1685081
3.82538,2250483
3.83352,2110222
3.84163,1654146
3.84975,1353301
3.85788,1202561
3.86600,1103053
3.87413,1016818
3.88225,935346
3.89037,874873
3.89850,830169
3.90662,809270
3.91475,781232
3.92287,801170
3.93098,851703
3.93912,920095
3.94723,998490
3.95535,1860230
3.96348,5089240
3.97160,1.01425E+07
3.97973,1.210404E+07
3.98785,9180114
3.99597,5979472
4.00410,7569243
4.01222,1.885819E+07
4.02035,3.558058E+07
4.02847,4.251394E+07
4.03658,3.42309E+07
4.04472,1.97278E+07
4.05283,1.086771E+07
4.06097,7135259
4.06908,5270658
4.07720,4203328
4.08533,3449545
4.09345,2953368
4.10157,2545975
4.10970,2250460
4.11782,2017755
4.12595,1833516
4.13407,1680300
4.14218,1577200
4.15032,1585156
4.15843,1559628
4.16657,1464621
4.17468,1348919
4.18280,1255093
4.19093,1194401
4.19905,1112739
4.20718,1071515
4.21530,1419451
4.22342,3502815
4.23155,8804454
4.23967,1.475851E+07
4.24778,1.671742E+07
4.25592,1.319158E+07
4.26403,8101462
4.27217,5321838
4.28028,3937178
4.28840,3076089
4.29653,2546720
4.30465,2141934
4.31278,1888544
4.32090,1676175
4.32902,1521533
4.33715,1396808
4.34527,1300408
4.35338,1202226
4.36152,1148968
4.36963,1125282
4.37777,1093045
4.38588,1049253
4.39400,1007481
4.40213,938955
4.41025,892886
4.41838,841518
4.42650,824198
4.43462,794814
4.44275,782931
4.45087,758276
4.45900,726298
4.46712,716495
4.47523,700960
4.48337,677418
4.49148,670537
4.49960,655965
4.50773,644198
4.51585,614051
4.52398,604739
4.53210,571576
4.54022,574590
4.54835,567592
4.55647,567598
4.56460,546162
4.57272,542149
4.58083,518621
4.58897,519185
4.59708,505121
4.60522,494433
4.61333,493529
4.62145,493845
4.62958,505890
4.63770,562097
4.64582,670323
4.65395,745809
4.66207,703921
4.67020,617198
4.67832,550541
4.68643,523023
4.69457,512957
4.70268,487942
4.71082,470916
4.71893,463486
4.72705,444959
4.73518,442507
4.74330,420979
4.75142,418629
4.75955,406305
4.76767,407248
4.77580,393906
4.78392,399495
4.79203,389121
4.80017,430078
4.80828,550705
4.81642,676667
4.82453,706258
4.83265,621810
4.84078,551561
4.84890,528129
4.85703,512529
4.86515,514575
4.87327,502405
4.88140,483600
4.88952,454441
4.89763,436076
4.90577,415105
4.91388,394911
4.92202,386517
4.93013,384500
4.93825,407308
4.94638,572469
4.95450,1061525
4.96263,2051939
4.97075,3206453
4.97887,3780138
4.98700,3388460
4.99512,2557553
5.00323,1818923
5.01137,1414788
5.01948,1133706
5.02762,974988
5.03573,891966
5.04385,884606
5.05198,914018
5.06010,873339
5.06823,815002
5.07635,739062
5.08447,683564
5.09260,651473
5.10072,624058
5.10885,590651
5.11697,579334
5.12508,558006
5.13322,525672
5.14133,516367
5.14945,502892
5.15758,505573
5.16570,532722
5.17383,568973
5.18195,577256
5.19007,551739
5.19820,538718
5.20632,519909
5.21445,535309
5.22257,534126
5.23068,527076
5.23882,502306
5.24693,499926
5.25507,486358
5.26318,457538
5.27130,442881
5.27943,424031
5.28755,401008
5.29567,399400
5.30380,392353
5.31192,391528
5.32005,391698
5.32817,378196
5.33628,390486
5.34442,403544
5.35253,422742
5.36067,429593
5.36878,399922
5.37690,382833
5.38503,371029
5.39315,375293
5.40127,381270
5.40940,383522
5.41752,369873
5.42565,352498
5.43377,352287
5.44188,344412
5.45002,351305
5.45813,339512
5.46627,352880
5.47438,357035
5.48250,340586
5.49063,336320
5.49875,327744
5.50688,322084
5.51500,326753
5.52312,332715
5.53125,327108
5.53937,319490
5.54748,310021
5.55562,317775
5.56373,328104
5.57187,345826
5.57998,377877
5.58810,399228
5.59623,401315
5.60435,373842
5.61248,339413
5.62060,323299
5.62872,326082
5.63685,328857
5.64497,346536
5.65310,353595
5.66122,353687
5.66933,338169
5.67747,332826
5.68558,329485
5.69370,350803
5.70183,377905
5.70995,387949
5.71808,349169
5.72620,333771
5.73432,322275
5.74245,301640
5.75057,300114
5.75870,295277
5.76682,286944
5.77493,281361
5.78307,283162
5.79118,280595
5.79930,278076
5.80743,270285
5.81555,270132
5.82368,276402
5.83180,280677
5.83992,261650
5.84805,273183
5.85617,266152
5.86430,264608
5.87242,264089
5.88053,259267
5.88867,263657
5.89678,251543
5.90492,250745
5.91303,227211
5.92115,202240
5.92928,197959
5.93740,195320
5.94552,192106
5.95365,205773
5.96177,218751
5.96990,235103
5.97802,264798
5.98613,305495
5.99427,339502
6.00238,366517
6.01052,362224
6.01863,320137
6.02675,281667
6.03488,254868
6.04300,234728
6.05113,223188
6.05925,215988
6.06737,199791
6.07550,193106
6.08362,197290
6.09173,185580
6.09987,181748
6.10798,180187
6.11612,184555
6.12423,177881
6.13235,200429
6.14048,242385
6.14860,310955
6.15673,380626
6.16485,413019
6.17297,387770
6.18110,325302
6.18922,286518
6.19733,266402
6.20547,237329
6.21358,230099
6.22172,232155
6.22983,220512
6.23795,219559
6.24608,215316
6.25420,220343
6.26233,230062
6.27045,221242
6.27857,222733
6.28670,224052
6.29482,216317
6.30295,219226
6.31107,217468
6.31918,220383
6.32732,216124
6.33543,227475
6.34355,247742
6.35168,274569
6.35980,283819
6.36793,272776
6.37605,249864
6.38417,236621
6.39230,232352
6.40042,239154
6.40855,230645
6.41667,225637
6.42478,224810
6.43292,223155
6.44103,223004
6.44915,220688
6.45728,218290
6.46540,216431
6.47353,221814
6.48165,209848
6.48977,218862
6.49790,216364
6.50602,224896
6.51415,228432
6.52227,212475
6.53038,224070
6.53852,222371
6.54663,220967
6.55477,219116
6.56288,220247
6.57100,230273
6.57913,249076
6.58725,260891
6.59537,279338
6.60350,275722
6.61162,260576
6.61975,251838
6.62787,238367
6.63598,236584
6.64412,235258
6.65223,235046
6.66037,258446
6.66848,327293
6.67660,443933
6.68473,547963
6.69285,538836
6.70098,453109
6.70910,363499
6.71722,315340
6.72535,286675
6.73347,278838
6.74158,265776
6.74972,261762
6.75783,260528
6.76597,257003
6.77408,256047
6.78220,228511
6.79033,208756
6.79845,198282
6.80658,189779
6.81470,182256
6.82282,178687
6.83095,180124
6.83907,175313
6.84718,181797
6.85532,187339
6.86343,213849
6.87157,242984
6.87968,243624
6.88780,225802
6.89593,177727
6.90405,147697
6.91218,124674
6.92030,121029
6.92842,113017
6.93655,109544
6.94467,107621
6.95280,104999
6.96092,109679
6.96903,112164
6.97717,115915
6.98528,132195
6.99340,131965
7.00153,125322
7.00965,117707
7.01778,117413
7.02590,106917
7.03402,104931
7.04215,103404
7.05027,104650
7.05840,105345
7.06652,103633
7.07463,107871
7.08277,103391
7.09088,98010
7.09902,94199
7.10713,94918
7.11525,92204
7.12338,87770
7.13150,91592
7.13962,92966
7.14775,109044
7.15587,143338
7.16400,202184
7.17212,278520
7.18023,319927
7.18837,290623
7.19648,243430
7.20462,198932
7.21273,164160
7.22085,170446
7.22898,258586
7.23710,592907
7.24522,1225424
7.25335,1909120
7.26147,2142964
7.26960,1737121
7.27772,1111631
7.28583,679740
7.29397,467037
7.30208,373001
7.31022,291703
7.31833,211405
7.32645,169453
7.33458,149498
7.34270,138695
7.35083,134700
7.35895,130206
7.36707,120543
7.37520,127479
7.38332,128767
7.39143,121938
7.39957,138572
7.40768,136102
7.41582,126768
7.42393,115142
7.43205,112327
7.44018,104472
7.44830,103350
7.45643,100842
7.46455,111927
7.47267,101926
7.48080,105553
7.48892,99169
7.49703,100821
7.50517,98295
7.51328,94227
7.52142,103550
7.52953,130497
7.53765,169434
7.54578,231169
7.55390,321308
7.56203,387505
7.57015,407952
7.57827,374524
7.58640,308809
7.59452,235425
7.60265,181850
7.61077,150365
7.61888,130285
7.62702,119512
7.63513,111967
7.64325,106775
7.65138,104462
7.65950,98345
7.66763,90901
7.67575,95634
7.68387,91048
7.69200,90265
7.70012,86800
7.70825,87380
7.71637,90230
7.72448,84577
7.73262,86109
7.74073,89745
7.74887,88217
7.75698,87546
7.76510,86833
7.77323,91836
7.78135,87458
7.78947,87334
7.79760,95365
7.80572,98638
7.81385,105384
7.82197,112929
7.83008,109647
7.83822,97667
7.84633,91476
7.85447,86864
7.86258,84947
7.87070,87345
7.87883,88877
7.88695,91441
7.89508,92164
7.90320,94261
7.91132,88492
7.91945,86816
7.92757,83503
7.93568,94767
7.94382,106580
7.95193,123233
7.96007,132337
7.96818,133808
7.97630,125854
7.98443,110691
7.99255,103531
8.00068,90505
8.00880,87644
8.01692,81346
8.02505,79632
8.03317,78946
8.04128,81725
8.04942,80140
8.05753,78312
8.06567,80295
8.07378,80784
8.08190,80957
8.09003,74280
8.09815,72382
8.10628,78482
8.11440,69019
8.12252,75903
8.13065,76283
8.13877,79070
8.14690,88383
8.15502,94884
8.16313,98634
8.17127,105211
8.17938,96150
8.18750,90921
8.19563,81893
8.20375,75321
8.21188,77074
8.22000,73413
8.22812,70819
8.23625,75290
8.24437,68701
8.25250,72883
8.26062,72158
8.26873,70258
8.27687,70920
8.28498,70628
8.29310,70464
8.30123,72506
8.30935,76127
8.31748,79878
8.32560,80571
8.33372,81744
8.34185,81614
8.34997,76796
8.35810,75532
8.36622,68711
8.37433,69754
8.38247,70286
8.39058,71808
8.39872,74092
8.40683,72703
8.41495,70901
8.42308,65969
8.43120,71060
8.43932,69716
8.44745,64861
8.45557,63049
8.46370,66600
8.47182,62760
8.47993,63852
8.48807,70695
8.49618,63991
8.50432,61660
8.51243,60643
8.52055,65030
8.52868,70169
8.53680,80497
8.54493,125069
8.55305,211218
8.56117,332810
8.56930,421262
8.57742,399486
8.58553,330330
8.59367,229677
8.60178,156806
8.60992,124290
8.61803,110788
8.62615,107745
8.63428,99776
8.64240,98087
8.65053,89534
8.65865,85986
8.66677,80376
8.67490,78189
8.68302,72833
8.69113,77866
8.69927,80115
8.70738,78010
8.71552,79982
8.72363,79766
8.73175,79571
8.73988,72928
8.74800,77560
8.75613,88999
8.76425,136508
8.77237,270754
8.78050,530615
8.78862,903923
8.79675,1210031
8.80487,1276556
8.81298,1035256
8.82112,755714
8.82923,500654
8.83735,341848
8.84548,261973
8.85360,239074
8.86173,230006
8.86985,238856
8.87797,233295
8.88610,223607
8.89422,210204
8.90235,207355
8.91047,194356
8.91858,189519
8.92672,182229
8.93483,172180
8.94297,185505
8.95108,198149
8.95920,204257
8.96733,214141
8.97545,207985
8.98357,193607
8.99170,180337
8.99982,168059
9.00795,166058
9.01607,157418
9.02418,150402
9.03232,141816
9.04043,144522
9.04857,136345
9.05668,134778
9.06480,135701
9.07293,126205
9.08105,130368
9.08917,127180
9.09730,130278
9.10542,130793
9.11355,134823
9.12167,148152
9.12978,150710
9.13792,154393
9.14603,146838
9.15417,140661
9.16228,131622
9.17040,129668
9.17853,125003
9.18665,126286
9.19478,117489
9.20290,115622
9.21102,111084
9.21915,114049
9.22727,111661
9.23538,111177
9.24352,115490
9.25163,114149
9.25977,120292
9.26788,114404
9.27600,110161
9.28413,106847
9.29225,106811
9.30038,102419
9.30850,103318
9.31662,104772
9.32475,102166
9.33287,100702
9.34098,101641
9.34912,97019
9.35723,97292
9.36537,92832
9.37348,94327
9.38160,94159
9.38973,98712
9.39785,94061
9.40598,97316
9.41410,100264
9.42222,103170
9.43035,112387
9.43847,126258
9.44660,122975
9.45472,130751
9.46283,123170
9.47097,112833
9.47908,109698
9.48720,94179
9.49533,98970
9.50345,90718
9.51158,95878
9.51970,101148
9.52782,111681
9.53595,117564
9.54407,116409
9.55220,115745
9.56032,100733
9.56843,96067
9.57657,89017
9.58468,89058
9.59282,93591
9.60093,87200
9.60905,84679
9.61718,77562
9.62530,74703
9.63342,62515
9.64155,60051
9.64967,57562
9.65780,56269
9.66592,56654
9.67403,58607
9.68217,56969
9.69028,57697
9.69842,61088
9.70653,54978
9.71465,59082
9.72278,53045
9.73090,55159
9.73902,49960
9.74715,60922
9.75527,51410
9.76340,54310
9.77152,53934
9.77963,52954
9.78777,54538
9.79588,52038
9.80402,52359
9.81213,50935
9.82025,49405
9.82838,54436
9.83650,51390
9.84463,54013
9.85275,52629
9.86087,53106
9.86900,60129
9.87712,54580
9.88523,59226
9.89337,64036
9.90148,61796
9.90962,57914
9.91773,54356
9.92585,57620
9.93398,64514
9.94210,85568
9.95023,126955
9.95835,184039
9.96647,241486
9.97460,265755
9.98272,259543
9.99085,205374
9.99897,162763
10.00708,131410
10.01522,113974
10.02333,108400
10.03145,101165
10.03958,94685
10.04770,83144
10.05583,76576
10.06395,74017
10.07207,73527
10.08020,71389
10.08832,73781
10.09645,77313
10.10457,73418
10.11268,73633
10.12082,76479
10.12893,71953
10.13705,68445
10.14518,65402
10.15330,67658
10.16143,62247
10.16955,62191
10.17767,65098
10.18580,65912
10.19392,62785
10.20205,60959
10.21017,63458
10.21828,55944
10.22642,61387
10.23453,59091
10.24267,61841
10.25078,68419
10.25890,72585
10.26703,82307
10.27515,137784
10.28327,284065
10.29140,651148
10.29952,1288331
10.30765,2131592
10.31577,3044683
10.32388,4214608
10.33202,6140785
10.34013,8629960
10.34827,1.09312E+07
10.35638,1.158804E+07
10.36450,9667527
10.37263,6817078
10.38075,4383945
10.38888,2903189
10.39700,2087736
10.40512,1530570
10.41325,1114454
10.42137,840927
10.42948,667590
10.43762,573008
10.44573,492770
10.45387,455799
10.46198,427983
10.47010,396377
10.47823,372240
10.48635,355330
10.49448,324477
10.50260,308396
10.51072,286985
10.51885,267576
10.52697,259337
10.53508,255349
10.54322,240535
10.55133,236819
10.55947,223970
10.56758,216018
10.57570,214997
10.58383,199576
10.59195,203706
10.60008,192894
10.60820,191326
10.61632,173197
10.62445,172445
10.63257,163371
10.64070,155903
10.64882,157286
10.65693,153398
10.66507,156108
10.67318,145350
10.68130,146675
10.68943,148495
10.69755,138233
10.70568,137044
10.71380,134110
10.72192,127930
10.73005,135394
10.73817,129980
10.74630,127453
10.75442,127162
10.76253,126969
10.77067,128159
10.77878,120330
10.78690,113320
10.79503,115763
10.80315,110167
10.81128,109597
10.81940,103826
10.82752,109378
10.83565,106103
10.84377,103853
10.85190,103874
10.86002,99664
10.86813,95823
10.87627,92002
10.88438,95302
10.89252,90493
10.90063,89851
10.90875,88336
10.91688,87189
10.92500,91852
10.93312,86189
10.94125,87265
10.94937,84350
10.95750,80076
10.96562,82443
10.97373,88247
10.98187,82849
10.98998,84999
10.99812,82776
11.00623,79892
11.01435,78379
11.02248,80281
11.03060,81072
11.03873,74021
11.04685,76020
11.05497,74260
11.06310,66592
11.07122,67133
11.07933,72525
11.08747,76268
11.09558,74656
11.10372,76417
11.11183,71305
11.11995,70186
11.12808,71484
11.13620,71201
11.14433,66526
11.15245,60787
11.16057,63979
11.16870,63105
11.17682,62988
11.18493,63916
11.19307,67068
11.20118,67761
11.20932,67565
11.21743,65903
11.22555,62208
11.23368,60494
11.24180,56278
11.24993,63249
11.25805,49744
11.26617,53527
11.27430,49025
11.28242,50238
11.29055,51708
11.29867,49494
11.30678,58815
11.31492,67796
11.32303,98558
11.33115,154388
11.33928,212628
11.34740,275782
11.35553,307801
11.36365,287665
11.37177,242267
11.37990,187278
11.38802,127567
11.39615,108623
11.40427,85683
11.41238,84613
11.42052,83240
11.42863,77550
11.43677,74033
11.44488,79125
11.45300,71432
11.46113,69508
11.46925,60280
11.47737,67459
11.48550,73381
11.49362,83112
11.50175,93720
11.50987,119647
11.51798,121546
11.52612,121491
11.53423,105564
11.54237,92812
11.55048,84251
11.55860,84156
11.56673,78600
11.57485,72377
11.58297,70929
11.59110,77831
11.59922,70828
11.60735,78792
11.61547,105447
11.62358,130146
11.63172,159864
11.63983,157431
11.64797,142121
11.65608,123228
11.66420,103470
11.67233,86902
11.68045,76532
11.68858,75148
11.69670,70725
11.70482,72987
11.71295,73755
11.72107,74759
11.72918,67937
11.73732,65997
11.74543,61532
11.75357,61849
11.76168,60070
11.76980,61770
11.77793,59111
11.78605,61939
11.79418,56666
11.80230,59800
11.81042,56278
11.81855,58550
11.82667,56714
11.83478,60060
11.84292,53823
11.85103,55750
11.85917,62000
11.86728,59769
11.87540,52915
11.88353,53850
11.89165,49456
11.89978,46398
11.90790,48505
11.91602,52793
11.92415,53043
11.93227,56649
11.94040,64365
11.94852,66293
11.95663,63319
11.96477,57874
11.97288,58795
11.98100,59475
11.98913,91808
11.99725,176369
12.00538,333957
12.01350,559058
12.02162,760336
12.02975,861070
12.03787,747967
12.04600,569658
12.05412,384742
12.06223,266364
12.07037,197958
12.07848,166994
12.08662,151570
12.09473,133569
12.10285,128298
12.11098,126401
12.11910,113415
12.12722,118228
12.13535,118959
12.14347,118796
12.15160,116049
12.15972,111369
12.16783,99226
12.17597,96973
12.18408,91487
12.19222,85591
12.20033,83577
12.20845,86728
12.21658,80439
12.22470,79625
12.23283,85675
12.24095,78943
12.24907,78335
12.25720,81994
12.26532,68807
12.27343,79315
12.28157,71147
12.28968,74547
12.29782,71577
12.30593,67143
12.31405,67517
12.32218,71164
12.33030,67346
12.33843,65883
12.34655,67607
12.35467,62411
12.36280,59706
12.37092,65644
12.37903,64157
12.38717,62969
12.39528,66824
12.40342,68000
12.41153,78102
12.41965,89088
12.42778,98010
12.43590,117546
12.44403,124886
12.45215,114702
12.46027,107681
12.46840,96708
12.47652,87076
12.48465,79499
12.49277,75303
12.50088,68153
12.50902,68260
12.51713,64289
12.52525,62006
12.53338,66898
12.54150,60365
12.54963,64420
12.55775,75469
12.56587,89983
12.57400,104207
12.58212,105343
12.59025,98721
12.59837,90581
12.60648,84844
12.61462,75666
12.62273,69328
12.63085,64021
12.63898,66639
12.64710,62192
12.65523,59830
12.66335,59241
12.67147,60756
12.67960,57532
12.68772,52527
12.69585,54690
12.70397,51606
12.71208,46619
12.72022,46716
12.72833,54389
12.73647,55055
12.74458,63577
12.75270,65405
12.76083,59491
12.76895,64184
12.77707,52744
12.78520,51160
12.79332,47996
12.80145,46199
12.80957,47596
12.81768,44456
12.82582,41249
12.83393,44930
12.84207,40642
12.85018,43224
12.85830,40762
12.86643,38176
12.87455,41393
12.88268,39438
12.89080,44046
12.89892,39919
12.90705,38204
12.91517,38215
12.92328,42631
12.93142,38705
12.93953,39654
12.94767,40287
12.95578,46577
12.96390,60431
12.97203,101153
12.98015,178753
12.98828,284418
12.99640,380304
13.00452,393997
13.01265,326610
13.02077,245985
13.02888,161699
13.03702,116285
13.04513,87895
13.05327,76870
13.06138,71707
13.06950,67933
13.07763,66884
13.08575,59195
13.09388,59305
13.10200,58340
13.11012,57770
13.11825,59617
13.12637,55524
13.13450,49765
13.14262,48489
13.15073,49784
13.15887,53482
13.16698,49900
13.17510,53772
13.18323,52683
13.19135,49593
13.19948,52470
13.20760,55432
13.21572,56638
13.22385,54968
13.23197,54078
13.24010,54499
13.24822,52221
13.25633,50670
13.26447,50603
13.27258,48379
13.28072,49877
13.28883,47355
13.29695,44153
13.30508,41848
13.31320,47860
13.32132,44137
13.32945,42352
13.33757,43964
13.34570,44337
13.35382,46544
13.36193,43663
13.37007,43723
13.37818,41091
13.38632,40956
13.39443,44726
13.40255,40529
13.41068,40671
13.41880,37432
13.42692,37417
13.43505,39025
13.44317,39802
13.45130,44100
13.45942,34603
13.46753,40150
13.47567,40096
13.48378,42796
13.49192,44094
13.50003,39988
13.50815,38486
13.51628,40637
13.52440,43402
13.53253,40778
13.54065,42536
13.54877,41120
13.55690,41663
13.56502,38892
13.57313,41346
13.58127,40333
13.58938,45093
13.59752,44581
13.60563,44281
13.61375,44678
13.62188,46388
13.63000,50919
13.63813,52236
13.64625,47794
13.65437,47177
13.66250,44079
13.67062,40835
13.67873,40824
13.68687,39801
13.69498,39906
13.70312,36809
13.71123,37396
13.71935,41231
13.72748,38938
13.73560,44824
13.74373,72672
13.75185,155598
13.75997,380179
13.76810,843729
13.77622,1546146
13.78435,2334235
13.79247,2806895
13.80058,2675055
13.80872,2138884
13.81683,1517574
13.82495,1018656
13.83308,677060
13.84120,538505
13.84933,477823
13.85745,435110
13.86557,383102
13.87370,340594
13.88182,287666
13.88995,254963
13.89807,250537
13.90618,222280
13.91432,203768
13.92243,191825
13.93057,182191
13.93868,172829
13.94680,166322
13.95493,159435
13.96305,174198
13.97117,198109
13.97930,227468
13.98742,265583
13.99555,298683
14.00367,288872
14.01178,263938
14.01992,221380
14.02803,190121
14.03617,156257
14.04428,152894
14.05240,140376
14.06053,138580
14.06865,137462
14.07677,144608
14.08490,129181
14.09302,126255
14.10115,123699
14.10927,114579
14.11738,119868
14.12552,115349
14.13363,129509
14.14177,136868
14.14988,148157
14.15800,179945
14.16613,192000
14.17425,190243
14.18238,188558
14.19050,181599
14.19862,208531
14.20675,250488
14.21487,292951
14.22298,314443
14.23112,324669
14.23923,296379
14.24737,269500
14.25548,245086
14.26360,224425
14.27173,209856
14.27985,186465
14.28798,170423
14.29610,149315
14.30422,137362
14.31235,127948
14.32047,119277
14.32860,116518
14.33672,118457
14.34483,115646
14.35297,103174
14.36108,100771
14.36920,91705
14.37733,79243
14.38545,69299
14.39358,63849
14.40170,63012
14.40982,64549
14.41795,68748
14.42607,76660
14.43420,81353
14.44232,79663
14.45043,76497
14.45857,71193
14.46668,64588
14.47480,67046
14.48293,63840
14.49105,65152
14.49918,64260
14.50730,62310
14.51542,64725
14.52355,75372
14.53167,85127
14.53980,85126
14.54792,86574
14.55603,75203
14.56417,65854
14.57228,64788
14.58042,60326
14.58853,57088
14.59665,52821
14.60478,53672
14.61290,48867
14.62102,48561
14.62915,47475
14.63727,49348
14.64540,52506
14.65352,49392
14.66163,49161
14.66977,48722
14.67788,45652
14.68602,46104
14.69413,49867
14.70225,48031
14.71038,48866
14.71850,46750
14.72662,48162
14.73475,51030
14.74287,55194
14.75100,56824
14.75912,54894
14.76723,56754
14.77537,57455
14.78348,57405
14.79162,72697
14.79973,109492
14.80785,261478
14.81598,642535
14.82410,1466887
14.83223,2672601
14.84035,3820246
14.84847,4276590
14.85660,3861828
14.86472,2970793
14.87283,1956874
14.88097,1183652
14.88908,744861
14.89722,528898
14.90533,412939
14.91345,345306
14.92158,293374
14.92970,260850
14.93783,239654
14.94595,217393
14.95407,198618
14.96220,184597
14.97032,169676
14.97845,166821
14.98657,154967
14.99468,149712
15.00282,143853
15.01093,139517
15.01905,130597
15.02718,128159
15.03530,122769
15.04343,115362
15.05155,111696
15.05967,108166
15.06780,110789
15.07592,100771
15.08405,100605
15.09217,98937
15.10028,95440
15.10842,88566
15.11653,93779
15.12465,95345
15.13278,91041
15.14090,100363
15.14903,102294
15.15715,108440
15.16527,107059
15.17340,93859
15.18152,85045
15.18965,76944
15.19777,67808
15.20588,56098
15.21402,60262
15.22213,56288
15.23027,54336
15.23838,54517
15.24650,54107
15.25463,49706
15.26275,51701
15.27087,55659
15.27900,46859
15.28712,50671
15.29525,45859
15.30337,46331
15.31148,50673
15.31962,47292
15.32773,46920
15.33587,45197
15.34398,46306
15.35210,50119
15.36023,46194
15.36835,45765
15.37648,46560
15.38460,48108
15.39272,49225
15.40085,46654
15.40897,46686
15.41708,44502
15.42522,42704
15.43333,43724
15.44147,42139
15.44958,42083
15.45770,42958
15.46583,44517
15.47395,44224
15.48208,54501
15.49020,57991
15.49832,74030
15.50645,81510
15.51457,89469
15.52268,89342
15.53082,107196
15.53893,111328
15.54707,135936
15.55518,145927
15.56330,156198
15.57143,146150
15.57955,118209
15.58768,90095
15.59580,68523
15.60392,59946
15.61205,54787
15.62017,50483
15.62830,46427
15.63642,49104
15.64453,48677
15.65267,47168
15.66078,47540
15.66890,46341
15.67703,46411
15.68515,42082
15.69328,41404
15.70140,41567
15.70952,43122
15.71765,41182
15.72577,43908
15.73390,42327
15.74202,44259
15.75013,45843
15.75827,54580
15.76638,70467
15.77452,105637
15.78263,179243
15.79075,240906
15.79888,312937
15.80700,327436
15.81512,291968
15.82325,230704
15.83137,162231
15.83950,120718
15.84762,94268
15.85573,79370
15.86387,75963
15.87198,69165
15.88012,68352
15.88823,65060
15.89635,61535
15.90448,62035
15.91260,57031
15.92072,53555
15.92885,54240
15.93697,56075
15.94510,58670
15.95322,65770
15.96133,76340
15.96947,105985
15.97758,128661
15.98572,158877
15.99383,171286
16.00195,160464
16.01008,137925
16.01820,118189
16.02633,104824
16.03445,99228
16.04257,94996
16.05070,89434
16.05882,80195
16.06693,71158
16.07507,67878
16.08318,63319
16.09132,56468
16.09943,55202
16.10755,58212
16.11568,55177
16.12380,56012
16.13193,55366
16.14005,57676
16.14817,55067
16.15630,59327
16.16442,59515
16.17253,58420
16.18067,58619
16.18878,59726
16.19692,51499
16.20503,48653
16.21315,52159
16.22128,53779
16.22940,52576
16.23753,51037
16.24565,48574
16.25377,49066
16.26190,49594
16.27002,46272
16.27815,46509
16.28627,48625
16.29438,50336
16.30252,51902
16.31063,52250
16.31875,57160
16.32688,53499
16.33500,51952
16.34313,51975
16.35125,64979
16.35937,82001
16.36750,109249
16.37562,159281
16.38375,207264
16.39187,222927
16.39998,213241
16.40812,182958
16.41623,146980
16.42437,108485
16.43248,91508
16.44060,83181
16.44873,87748
16.45685,110732
16.46497,203777
16.47310,371307
16.48122,623578
16.48935,879830
16.49747,972189
16.50558,912836
16.51372,686521
16.52183,465058
16.52997,299738
16.53808,205617
16.54620,158150
16.55433,130876
16.56245,113422
16.57057,107151
16.57870,102028
16.58682,98307
16.59495,103375
16.60307,102406
16.61118,101209
16.61932,103825
16.62743,109246
16.63557,101851
16.64368,95785
16.65180,89394
16.65993,81354
16.66805,76663
16.67618,73777
16.68430,71846
16.69242,64197
16.70055,70777
16.70867,63254
16.71678,61081
16.72492,58156
16.73303,61483
16.74117,58755
16.74928,53353
16.75740,54763
16.76553,60564
16.77365,68741
16.78178,66965
16.78990,61735
16.79802,60953
16.80615,56837
16.81427,55782
16.82240,52063
16.83052,49033
16.83863,46171
16.84677,47048
16.85488,46242
16.86300,46266
16.87113,48097
16.87925,45140
16.88738,45129
16.89550,46236
16.90362,46656
16.91175,45716
16.91987,46134
16.92800,43081
16.93612,41402
16.94423,45810
16.95237,43798
16.96048,48971
16.96860,42466
16.97673,46639
16.98485,45316
16.99298,46259
17.00110,46937
17.00922,45768
17.01735,44680
17.02547,42436
17.03360,46697
17.04172,48115
17.04983,50017
17.05797,50366
17.06608,53623
17.07422,53127
17.08233,50997
17.09045,43596
17.09858,50878
17.10670,50111
17.11482,44706
17.12295,45537
17.13107,47263
17.13920,49735
17.14732,46997
17.15543,50211
17.16357,46267
17.17168,43865
17.17982,43643
17.18793,46496
17.19605,41583
17.20418,42059
17.21230,44151
17.22042,38376
17.22855,43502
17.23667,41143
17.24480,41915
17.25292,40510
17.26103,39046
17.26917,44897
17.27728,43331
17.28542,42948
17.29353,42815
17.30165,45386
17.30978,41265
17.31790,44164
17.32603,46636
17.33415,54271
17.34227,63475
17.35040,65993
17.35852,67047
17.36663,65351
17.37477,60931
17.38288,57611
17.39102,59323
17.39913,59461
17.40725,57734
17.41538,51656
17.42350,54126
17.43163,56476
17.43975,53033
17.44787,48084
17.45600,47516
17.46412,50417
17.47225,53872
17.48037,49168
17.48848,47397
17.49662,47984
17.50473,47289
17.51285,47534
17.52098,42127
17.52910,45897
17.53723,51685
17.54535,42232
17.55347,46490
17.56160,47913
17.56972,63681
17.57785,82674
17.58597,133525
17.59408,211584
17.60222,313604
17.61033,417227
17.61845,512800
17.62658,520990
17.63470,447108
17.64283,365938
17.65095,286126
17.65907,250473
17.66720,242674
17.67532,245670
17.68345,240234
17.69157,225454
17.69968,187093
17.70782,156089
17.71593,128406
17.72407,115188
17.73218,93899
17.74030,88041
17.74843,83801
17.75655,79903
17.76467,70781
17.77280,74569
17.78092,75894
17.78905,80003
17.79717,102759
17.80528,168347
17.81342,299759
17.82153,518352
17.82967,784954
17.83778,986982
17.84590,1028311
17.85403,903867
17.86215,684195
17.87028,491819
17.87840,350738
17.88652,262915
17.89465,208243
17.90277,175616
17.91088,154751
17.91902,141062
17.92713,125758
17.93527,114545
17.94338,110813
17.95150,106084
17.95963,96325
17.96775,95269
17.97588,91747
17.98400,87495
17.99212,87158
18.00025,77890
18.00837,79885
18.01648,81840
18.02462,97909
18.03273,98273
18.04087,101314
18.04898,115257
18.05710,131043
18.06523,176763
18.07335,297958
18.08148,567274
18.08960,972965
18.09772,1424078
18.10585,1757233
18.11397,1796707
18.12210,1537295
18.13022,1195747
18.13833,895925
18.14647,672948
18.15458,551133
18.16270,465536
18.17083,407728
18.17895,372099
18.18708,330599
18.19520,298819
18.20332,272746
18.21145,262950
18.21957,231052
18.22770,222862
18.23582,203445
18.24393,185081
18.25207,181897
18.26018,174645
18.26830,159955
18.27643,148056
18.28455,136454
18.29268,154334
18.30080,187397
18.30892,248925
18.31705,302417
18.32517,339749
18.33330,353143
18.34142,360857
18.34953,368265
18.35767,376505
18.36578,365927
18.37392,381993
18.38203,373368
18.39015,368631
18.39828,366403
18.40640,363973
18.41452,361508
18.42265,361552
18.43077,365891
18.43890,363746
18.44702,368945
18.45513,387300
18.46327,401906
18.47138,438320
18.47952,469073
18.48763,510774
18.49575,522912
18.50388,508775
18.51200,488054
18.52013,429927
18.52825,384363
18.53637,366575
18.54450,343551
18.55262,328107
18.56073,317282
18.56887,314541
18.57698,316069
18.58512,302034
18.59323,304314
18.60135,292808
18.60948,302433
18.61760,301941
18.62573,297346
18.63385,295203
18.64197,284179
18.65010,282162
18.65822,280418
18.66635,266185
18.67447,259839
18.68258,255348
18.69072,250749
18.69883,259699
18.70695,244876
18.71508,246414
18.72320,245130
18.73133,241120
18.73945,234742
18.74757,230242
18.75570,229713
18.76382,232731
18.77195,227221
18.78007,220442
18.78818,220863
18.79632,216166
18.80443,217912
18.81255,217990
18.82068,218857
18.82880,214407
18.83693,208981
18.84505,206233
18.85317,204502
18.86130,197140
18.86942,201630
18.87755,200606
18.88567,201363
18.89378,198239
18.90192,203302
18.91003,191916
18.91817,193332
18.92628,197574
18.93440,195450
18.94253,201611
18.95065,196491
18.95877,202231
18.96690,203016
18.97502,194831
18.98315,195548
18.99127,194286
18.99938,178843
19.00752,182679
19.01563,180786
19.02377,181068
19.03188,174452
19.04000,169367
19.04813,170010
19.05625,164899
19.06437,166652
19.07250,172169
19.08062,181914
19.08875,205449
19.09687,234977
19.10498,292906
19.11312,313610
19.12123,331532
19.12937,315852
19.13748,275655
19.14560,236053
19.15373,208009
19.16185,193839
19.16998,184820
19.17810,182855
19.18622,169503
19.19435,165431
19.20247,159884
19.21058,158966
19.21872,153974
19.22683,150233
19.23497,145618
19.24308,146884
19.25120,142287
19.25933,141900
19.26745,135113
19.27558,141338
19.28370,142753
19.29182,144152
19.29995,143986
19.30807,140776
19.31620,139100
19.32432,146361
19.33243,142511
19.34057,134377
19.34868,142534
19.35680,147392
19.36493,161359
19.37305,184130
19.38118,206285
19.38930,218472
19.39742,208663
19.40555,183439
19.41367,162899
19.42180,154223
19.42992,138489
19.43803,131728
19.44617,131606
19.45428,124970
19.46240,132620
19.47053,127058
19.47865,127276
19.48678,132676
19.49490,149187
19.50302,191431
19.51115,232961
19.51927,257432
19.52740,263514
19.53552,244882
19.54363,198469
19.55177,170157
19.55988,147878
19.56802,133152
19.57613,119078
19.58425,116725
19.59238,118379
19.60050,111058
19.60862,106052
19.61675,106961
19.62487,112395
19.63300,107203
19.64112,117243
19.64923,139112
19.65737,173645
19.66548,225887
19.67362,293382
19.68173,337130
19.68985,352577
19.69798,350096
19.70610,314072
19.71423,284210
19.72235,245531
19.73047,231307
19.73860,206369
19.74672,185242
19.75483,159193
19.76297,150207
19.77108,133623
19.77922,128804
19.78733,129283
19.79545,130523
19.80358,131859
19.81170,136652
19.81983,129510
19.82795,124791
19.83607,116153
19.84420,116594
19.85232,125534
19.86043,167190
19.86857,313436
19.87668,678882
19.88482,1387726
19.89293,2467539
19.90105,3641788
19.90918,4544473
19.91730,4751721
19.92543,4134800
19.93355,3169951
19.94167,2192282
19.94980,1569638
19.95792,1104549
19.96605,876164
19.97417,744750
19.98228,650328
19.99042,584733
19.99853,541804
20.00665,510172
20.01478,479781
20.02290,441120
20.03103,428815
20.03915,396166
20.04727,363267
20.05540,317794
20.06352,273041
20.07165,238309
20.07977,203599
20.08788,186421
20.09602,171369
20.10413,157827
20.11225,147172
20.12038,138455
20.12850,138410
20.13663,124903
20.14475,125340
20.15287,123749
20.16100,125065
20.16912,127638
20.17725,148452
20.18537,147998
20.19348,168646
20.20162,176255
20.20973,171897
20.21787,163500
20.22598,157987
20.23410,152668
20.24223,141278
20.25035,148153
20.25847,164396
20.26660,205177
20.27472,252494
20.28285,314765
20.29097,351031
20.29908,366116
20.30722,337387
20.31533,304455
20.32347,254261
20.33158,215815
20.33970,181049
20.34783,155282
20.35595,132890
20.36408,116032
20.37220,107021
20.38032,99721
20.38845,94745
20.39657,96918
20.40468,88271
20.41282,82748
20.42093,86357
20.42907,97253
20.43718,106670
20.44530,110460
20.45343,119136
20.46155,125475
20.46968,132902
20.47780,137515
20.48592,129642
20.49405,125085
20.50217,116167
20.51028,101453
20.51842,91640
20.52653,84563
20.53467,83306
20.54278,83192
20.55090,83183
20.55903,78022
20.56715,79193
20.57528,74957
20.58340,72509
20.59152,71524
20.59965,72969
20.60777,71840
20.61590,68295
20.62402,71471
20.63213,68553
20.64027,71721
20.64838,69711
20.65650,68849
20.66463,65137
20.67275,69565
20.68088,68224
20.68900,65716
20.69712,65258
20.70525,66646
20.71337,62335
20.72150,63009
20.72962,62797
20.73773,60869
20.74587,66075
20.75398,61322
20.76212,63655
20.77023,68626
20.77835,67897
20.78648,71850
20.79460,83990
20.80272,116949
20.81085,155061
20.81897,190434
20.82710,208280
20.83522,214300
20.84333,187476
20.85147,163014
20.85958,128393
20.86772,93759
20.87583,81802
20.88395,73449
20.89208,72543
20.90020,73684
20.90832,66925
20.91645,68429
20.92457,67964
20.93270,66180
20.94082,65742
20.94893,64888
20.95707,67306
20.96518,66480
20.97332,68099
20.98143,64564
20.98955,62271
20.99768,64794
21.00580,61020
21.01393,57057
21.02205,57649
21.03017,64601
21.03830,63139
21.04642,62031
21.05453,64800
21.06267,61917
21.07078,62974
21.07892,68979
21.08703,67127
21.09515,66016
21.10328,65948
21.11140,66368
21.11953,58155
21.12765,64312
21.13577,59410
21.14390,67493
21.15202,74737
21.16015,89550
21.16827,93132
21.17638,99229
21.18452,88546
21.19263,90509
21.20075,79125
21.20888,69795
21.21700,70652
21.22513,69505
21.23325,68498
21.24137,64104
21.24950,61908
21.25762,61404
21.26575,64624
21.27387,60408
21.28198,61622
21.29012,60659
21.29823,53726
21.30635,59182
21.31448,55941
21.32260,60090
21.33073,55102
21.33885,58401
21.34697,58585
21.35510,57514
21.36322,55118
21.37135,60098
21.37947,57848
21.38758,59984
21.39572,70159
21.40383,76204
21.41197,79918
21.42008,89684
21.42820,93528
21.43633,87739
21.44445,82768
21.45257,72902
21.46070,69869
21.46882,65788
21.47695,62746
21.48507,64630
21.49318,60059
21.50132,59706
21.50943,58304
21.51757,55465
21.52568,58845
21.53380,57884
21.54193,54863
21.55005,58538
21.55817,57930
21.56630,54242
21.57442,57150
21.58255,57419
21.59067,60844
21.59878,67324
21.60692,71816
21.61503,69618
21.62317,80837
21.63128,84116
21.63940,94005
21.64753,96163
21.65565,99386
21.66378,104669
21.67190,102486
21.68002,90583
21.68815,90197
21.69627,88931
21.70438,83698
21.71252,77375
21.72063,69277
21.72877,66366
21.73688,60948
21.74500,65927
21.75313,63046
21.76125,62804
21.76938,58149
21.77750,62609
21.78562,63583
21.79375,66848
21.80187,65192
21.81000,66560
21.81812,69509
21.82623,76635
21.83437,82447
21.84248,89092
21.85060,98389
21.85873,92214
21.86685,85817
21.87498,78750
21.88310,71790
21.89122,71043
21.89935,64844
21.90747,62675
21.91560,59843
21.92372,57372
21.93183,56511
21.93997,53562
21.94808,55450
21.95620,53465
21.96433,52725
21.97245,53386
21.98058,50475
21.98870,52748
21.99682,49698
22.00495,47966
22.01307,49645
22.02120,52158
22.02932,46620
22.03743,50885
22.04557,54381
22.05368,52163
22.06182,50870
22.06993,55809
22.07805,48531
22.08618,53220
22.09430,50704
22.10242,48555
22.11055,49159
22.11867,45469
22.12680,56112
22.13492,46549
22.14303,52265
22.15117,53159
22.15928,48529
22.16742,52076
22.17553,52351
22.18365,49332
22.19178,48329
22.19990,48948
22.20803,47126
22.21615,46748
22.22427,50152
22.23240,52619
22.24052,56189
22.24863,55327
22.25677,52389
22.26488,57169
22.27302,56299
22.28113,50888
22.28925,53601
22.29738,54684
22.30550,57088
22.31363,55381
22.32175,58182
22.32987,55487
22.33800,54813
22.34612,56611
22.35423,59670
22.36237,56178
22.37048,56368
22.37862,51909
22.38673,54804
22.39485,62052
22.40298,69177
22.41110,85609
22.41923,100507
22.42735,111222
22.43547,115382
22.44360,107494
22.45172,94346
22.45985,86296
22.46797,84419
22.47608,74722
22.48422,75869
22.49233,72265
22.50045,76038
22.50858,82964
22.51670,81179
22.52483,76630
22.53295,78311
22.54107,75292
22.54920,71384
22.55732,68421
22.56545,64808
22.57357,63046
22.58168,57715
22.58982,62730
22.59793,54413
22.60605,53990
22.61418,49518
22.62230,51663
22.63043,52371
22.63855,51386
22.64667,54087
22.65480,50684
22.66292,56354
22.67105,56486
22.67917,56828
22.68728,57392
22.69542,55689
22.70353,59671
22.71167,65658
22.71978,64899
22.72790,65129
22.73603,67006
22.74415,63758
22.75227,61496
22.76040,57592
22.76852,55604
22.77665,58816
22.78477,58576
22.79288,64605
22.80102,72620
22.80913,79063
22.81727,89901
22.82538,88194
22.83350,85563
22.84163,79722
22.84975,71809
22.85788,66444
22.86600,63617
22.87412,65530
22.88225,69324
22.89037,68098
22.89848,75749
22.90662,81995
22.91473,90944
22.92287,112481
22.93098,130433
22.93910,136600
22.94723,140368
22.95535,130010
22.96348,108174
22.97160,97023
22.97972,99621
22.98785,86410
22.99597,93344
23.00410,88221
23.01222,87954
23.02033,84309
23.02847,77642
23.03658,73166
23.04470,75340
23.05283,74855
23.06095,69987
23.06908,77760
23.07720,75687
23.08532,72925
23.09345,76991
23.10157,70453
23.10970,74681
23.11782,75609
23.12593,70004
23.13407,68955
23.14218,66303
23.15030,66878
23.15843,73266
23.16655,67074
23.17468,68122
23.18280,70023
23.19092,67389
23.19905,67514
23.20717,66206
23.21530,65751
23.22342,65718
23.23153,62482
23.23967,66401
23.24778,69299
23.25592,73605
23.26403,74712
23.27215,75318
23.28028,76445
23.28840,74348
23.29652,73462
23.30465,67243
23.31277,67731
23.32090,66765
23.32902,66753
23.33713,72366
23.34527,87968
23.35338,118735
23.36152,169800
23.36963,255844
23.37775,374249
23.38588,517616
23.39400,704485
23.40212,865578
23.41025,981754
23.41837,1058590
23.42650,1117518
23.43462,1125883
23.44273,1131485
23.45087,1065899
23.45898,1018030
23.46712,934793
23.47523,858739
23.48335,799550
23.49148,730463
23.49960,685790
23.50773,596151
23.51585,570874
23.52397,513222
23.53210,464748
23.54022,431682
23.54833,403389
23.55647,373891
23.56458,349350
23.57272,340487
23.58083,322054
23.58895,332718
23.59708,332538
23.60520,337719
23.61333,351485
23.62145,323829
23.62957,298140
23.63770,272095
23.64582,264151
23.65395,249541
23.66207,246459
23.67018,248863
23.67832,255574
23.68643,239480
23.69455,216854
23.70268,189563
23.71080,179342
23.71893,159163
23.72705,158314
23.73517,157829
23.74330,152195
23.75142,186001
23.75955,270444
23.76767,499697
23.77578,939928
23.78392,1636956
23.79203,2432043
23.80015,2941198
23.80828,2999498
23.81640,2741470
23.82453,2276956
23.83265,1817294
23.84077,1331365
23.84890,1039314
23.85702,802550
23.86515,655758
23.87327,550113
23.88138,496499
23.88952,432300
23.89763,391703
23.90577,352943
23.91388,343169
23.92200,319508
23.93013,297536
23.93825,282762
23.94637,262627
23.95450,239721
23.96262,228343
23.97075,223873
23.97887,203922
23.98698,201799
23.99512,199043
24.00323,221360
24.01137,261589
24.01948,406467
24.02760,622219
24.03573,869982
24.04385,999868
24.05198,957272
24.06010,799997
24.06822,570829
24.07635,387257
24.08447,276518
24.09258,208276
24.10072,177024
24.10883,165574
24.11697,145670
24.12508,146189
24.13320,142928
24.14133,143139
24.14945,144481
24.15758,143121
24.16570,141281
24.17382,130908
24.18195,136492
24.19007,129964
24.19818,131579
24.20632,130334
24.21443,131218
24.22257,130948
24.23068,124493
24.23880,121911
24.24693,115233
24.25505,115510
24.26318,103360
24.27130,103729
24.27942,99372
24.28755,95890
24.29567,106788
24.30380,96421
24.31192,95957
24.32003,97525
24.32817,96093
24.33628,93439
24.34440,94459
24.35253,96653
24.36065,93345
24.36878,109427
24.37690,130250
24.38502,169941
24.39315,188446
24.40127,214147
24.40940,236524
24.41752,235732
24.42563,220985
24.43377,199993
24.44188,193158
24.45000,186979
24.45813,182427
24.46625,191668
24.47438,198155
24.48250,204809
24.49062,219097
24.49875,228278
24.50687,226071
24.51500,228471
24.52312,234337
24.53123,215143
24.53937,223067
24.54748,211017
24.55562,204741
24.56373,206296
24.57185,198986
24.57998,191457
24.58810,188588
24.59622,184808
24.60435,182356
24.61247,170449
24.62060,166809
24.62872,166004
24.63683,164324
24.64497,169842
24.65308,160073
24.66122,163234
24.66933,156513
24.67745,159782
24.68558,152051
24.69370,151855
24.70183,153903
24.70995,155218
24.71807,141227
24.72620,146391
24.73432,145570
24.74243,141732
24.75057,143203
24.75868,146536
24.76682,139127
24.77493,149757
24.78305,152806
24.79118,146743
24.79930,149792
24.80743,145563
24.81555,141891
24.82367,141968
24.83180,144526
24.83992,159063
24.84803,166778
24.85617,196241
24.86428,245122
24.87242,309710
24.88053,401216
24.88865,481406
24.89678,546741
24.90490,580184
24.91303,513225
24.92115,431575
24.92927,323236
24.93740,252842
24.94552,211796
24.95365,170023
24.96177,154592
24.96988,141412
24.97802,136969
24.98613,131841
24.99425,134686
25.00238,125127
25.01050,133489
25.01863,126317
25.02675,122185
25.03487,124509
25.04300,128029
25.05112,117217
25.05925,120919
25.06737,116067
25.07548,114898
25.08362,120126
25.09173,121255
25.09987,134018
25.10798,189977
25.11610,321688
25.12423,584388
25.13235,1051441
25.14047,1583709
25.14860,2099201
25.15672,2288979
25.16485,2091473
25.17297,1631035
25.18108,1148095
25.18922,729237
25.19733,450872
25.20547,300720
25.21358,208461
25.22170,180226
25.22983,161248
25.23795,144641
25.24607,147664
25.25420,157871
25.26232,178584
25.27045,184926
25.27857,198170
25.28668,188347
25.29482,166884
25.30293,149672
25.31107,124098
25.31918,117608
25.32730,103429
25.33543,99226
25.34355,94269
25.35168,80591
25.35980,77247
25.36792,81229
25.37605,76040
25.38417,76998
25.39228,76506
25.40042,78687
25.40853,71292
25.41667,74390
25.42478,67481
25.43290,67594
25.44103,68841
25.44915,65490
25.45728,65086
25.46540,68462
25.47352,67540
25.48165,73670
25.48977,71897
25.49790,69982
25.50602,71648
25.51413,70337
25.52227,65160
25.53038,68277
25.53850,64715
25.54663,65437
25.55475,62850
25.56288,66633
25.57100,62420
25.57912,67642
25.58725,62472
25.59537,68761
25.60350,66031
25.61162,64645
25.61973,62551
25.62787,59360
25.63598,60641
25.64410,61110
25.65223,67083
25.66035,74728
25.66848,85113
25.67660,112416
25.68472,114001
25.69285,130515
25.70097,131852
25.70910,134755
25.71722,138423
25.72533,140884
25.73347,143694
25.74158,146039
25.74972,143797
25.75783,144333
25.76595,143277
25.77408,155023
25.78220,157005
25.79032,152345
25.79845,162894
25.80657,155831
25.81470,159246
25.82282,155739
25.83093,167913
25.83907,177154
25.84718,173689
25.85532,175094
25.86343,184984
25.87155,175512
25.87968,168347
25.88780,149741
25.89592,148721
25.90405,147542
25.91217,136638
25.92030,133547
25.92842,132208
25.93653,129958
25.94467,134245
25.95278,128727
25.96092,125198
25.96903,129814
25.97715,124814
25.98528,128830
25.99340,122629
26.00153,117450
26.00965,121106
26.01777,113199
26.02590,109536
26.03402,113687
26.04213,119269
26.05027,114849
26.05838,117028
26.06652,117264
26.07463,115270
26.08275,106976
26.09088,115068
26.09900,111192
26.10713,106387
26.11525,106250
26.12337,104062
26.13150,111599
26.13962,106886
26.14775,108277
26.15587,111927
26.16398,111980
26.17212,113314
26.18023,105126
26.18835,105715
26.19648,101177
26.20460,103438
26.21273,100502
26.22085,100078
26.22897,100746
26.23710,91387
26.24522,92069
26.25335,91433
26.26147,93782
26.26958,92881
26.27772,85407
26.28583,85683
26.29395,85408
26.30208,82120
26.31020,79736
26.31833,76658
26.32645,79166
26.33457,82142
26.34270,78306
26.35082,75471
26.35895,79857
26.36707,73951
26.37518,75338
26.38332,85198
26.39143,84804
26.39957,87381
26.40768,87773
26.41580,84183
26.42393,87341
26.43205,80855
26.44017,83778
26.44830,79280
26.45642,72077
26.46455,70653
26.47267,75078
26.48078,76021
26.48892,74238
26.49703,73154
26.50517,69981
26.51328,70734
26.52140,68539
26.52953,66530
26.53765,65410
26.54578,66395
26.55390,63961
26.56202,65137
26.57015,64951
26.57827,62735
26.58638,64656
26.59452,66412
26.60263,58706
26.61077,65355
26.61888,60060
26.62700,64168
26.63513,62809
26.64325,65308
26.65138,67559
26.65950,68585
26.66762,73676
26.67575,77134
26.68387,74006
26.69198,72877
26.70012,67105
26.70823,62659
26.71637,66402
26.72448,56806
26.73260,60232
26.74073,57747
26.74885,59500
26.75698,61741
26.76510,56532
26.77322,60272
26.78135,58462
26.78947,58257
26.79760,57835
26.80572,61829
26.81383,59303
26.82197,60511
26.83008,59423
26.83820,62175
26.84633,62182
26.85445,62536
26.86258,62942
26.87070,58212
26.87882,57336
26.88695,56108
26.89507,60950
26.90320,54819
26.91132,53797
26.91943,51214
26.92757,55273
26.93568,53941
26.94380,53347
26.95193,54452
26.96005,57425
26.96818,64787
26.97630,71429
26.98442,98349
26.99255,138150
27.00067,208237
27.00880,318047
27.01692,428231
27.02503,524885
27.03317,595109
27.04128,628271
27.04942,586645
27.05753,530008
27.06565,439365
27.07378,368427
27.08190,299366
27.09002,257322
27.09815,225343
27.10627,193334
27.11440,182315
27.12252,172206
27.13063,161244
27.13877,145356
27.14688,136856
27.15502,134551
27.16313,128093
27.17125,129779
27.17938,124963
27.18750,118866
27.19563,119488
27.20375,111675
27.21187,120532
27.22000,109526
27.22812,102614
27.23623,99270
27.24437,98650
27.25248,96955
27.26062,94796
27.26873,92080
27.27685,88994
27.28498,87959
27.29310,79969
27.30123,79691
27.30935,79076
27.31747,74412
27.32560,74027
27.33372,76634
27.34185,72361
27.34997,75532
27.35808,73143
27.36622,75335
27.37433,74683
27.38245,68029
27.39058,77300
27.39870,69766
27.40683,69152
27.41495,66549
27.42307,66934
27.43120,70185
27.43932,64505
27.44745,59308
27.45557,63617
27.46368,64156
27.47182,61970
27.47993,64112
27.48805,61695
27.49618,59732
27.50430,61653
27.51243,59437
27.52055,59605
27.52867,62951
27.53680,63331
27.54492,58684
27.55305,58677
27.56117,61984
27.56928,59225
27.57742,62865
27.58553,69116
27.59367,81308
27.60178,79880
27.60990,82294
27.61803,80420
27.62615,79746
27.63427,72446
27.64240,65236
27.65052,57415
27.65865,58286
27.66677,56828
27.67488,55539
27.68302,52993
27.69113,53532
27.69927,55928
27.70738,53819
27.71550,55099
27.72363,52414
27.73175,54301
27.73987,50947
27.74800,51470
27.75612,53980
27.76425,55806
27.77237,54345
27.78048,56621
27.78862,55155
27.79673,55868
27.80487,56580
27.81298,52851
27.82110,58238
27.82923,58070
27.83735,56488
27.84548,51714
27.85360,53156
27.86172,54123
27.86985,53302
27.87797,50406
27.88608,50949
27.89422,51789
27.90233,50333
27.91047,56884
27.91858,51264
27.92670,48036
27.93483,49255
27.94295,47816
27.95108,48907
27.95920,45271
27.96732,47593
27.97545,49254
27.98357,47775
27.99170,52501
27.99982,46051
28.00793,48966
28.01607,52205
28.02418,45885
28.03230,50908
28.04043,50632
28.04855,52858
28.05668,56500
28.06480,59209
28.07292,57396
28.08105,55063
28.08917,56230
28.09730,58763
28.10542,53675
28.11353,57261
28.12167,55582
28.12978,53950
28.13790,48525
28.14603,46684
28.15415,46010
28.16228,47095
28.17040,46335
28.17852,47498
28.18665,53763
28.19477,64737
28.20290,68138
28.21102,75108
28.21913,84311
28.22727,82242
28.23538,82301
28.24352,80099
28.25163,71476
28.25975,69857
28.26788,63638
28.27600,55768
28.28412,53822
28.29225,52056
28.30037,57659
28.30850,58304
28.31662,67096
28.32473,74817
28.33287,86199
28.34098,97856
28.34912,113446
28.35723,116435
28.36535,129621
28.37348,151881
28.38160,164709
28.38973,165858
28.39785,173864
28.40597,175398
28.41410,179042
28.42222,166485
28.43033,158103
28.43847,150837
28.44658,146465
28.45472,124537
28.46283,123731
28.47095,112152
28.47908,106790
28.48720,104833
28.49533,96253
28.50345,100105
28.51157,90460
28.51970,93075
28.52782,89460
28.53593,83850
28.54407,81214
28.55218,76051
28.56032,69979
28.56843,77416
28.57655,74187
28.58468,66608
28.59280,67764
28.60093,65867
28.60905,66182
28.61717,66524
28.62530,63587
28.63342,72803
28.64155,70683
28.64967,72503
28.65778,71009
28.66592,70046
28.67403,75546
28.68215,73792
28.69028,68920
28.69840,70804
28.70653,67308
28.71465,64224
28.72277,61710
28.73090,58351
28.73902,61093
28.74715,65992
28.75527,67632
28.76338,71764
28.77152,76633
28.77963,80698
28.78775,80602
28.79588,88100
28.80400,75870
28.81213,74282
28.82025,64895
28.82837,65214
28.83650,60311
28.84462,62910
28.85275,59190
28.86087,61106
28.86898,64816
28.87712,58681
28.88523,61244
28.89337,65053
28.90148,69284
28.90960,72099
28.91773,66151
28.92585,65265
28.93397,61001
28.94210,60366
28.95022,59454
28.95835,57901
28.96647,58083
28.97458,64097
28.98272,59861
28.99083,54891
28.99897,57721
29.00708,54312
29.01520,51554
29.02333,49266
29.03145,48731
29.03958,52861
29.04770,50306
29.05582,47509
29.06395,46541
29.07207,53916
29.08018,53924
29.08832,54743
29.09643,54161
29.10457,51677
29.11268,51852
29.12080,57373
29.12893,49394
29.13705,44262
29.14518,50675
29.15330,49452
29.16142,51541
29.16955,53338
29.17767,53754
29.18578,59084
29.19392,64053
29.20203,69598
29.21017,81444
29.21828,88159
29.22640,90811
29.23453,91375
29.24265,89495
29.25078,87660
29.25890,94682
29.26702,101770
29.27515,103846
29.28327,94923
29.29140,85245
29.29952,74765
29.30763,65444
29.31577,60612
29.32388,53658
29.33200,48656
29.34013,46119
29.34825,49802
29.35638,44874
29.36450,44280
29.37262,49036
29.38075,46546
29.38887,48838
29.39700,43883
29.40512,45122
29.41323,44571
29.42137,50114
29.42948,54821
29.43762,51061
29.44573,52748
29.45385,48408
29.46198,43947
29.47010,48059
29.47822,50633
29.48635,50593
29.49447,48393
29.50260,57040
29.51072,54183
29.51883,47841
29.52697,53085
29.53508,53479
29.54322,48434
29.55133,47197
29.55945,45279
29.56758,45268
29.57570,44236
29.58382,44064
29.59195,41716
29.60007,44597
29.60820,46541
29.61632,43988
29.62443,45506
29.63257,44658
29.64068,46011
29.64882,42424
29.65693,43701
29.66505,43346
29.67318,43277
29.68130,47145
29.68943,51254
29.69755,46907
29.70567,50042
29.71380,49483
29.72192,49823
29.73003,45627
29.73817,47644
29.74628,42658
29.75442,46225
29.76253,39564
29.77065,43085
29.77878,41752
29.78690,42405
29.79503,41359
29.80315,38054
29.81127,42529
29.81940,42303
29.82752,42517
29.83563,42220
29.84377,42014
29.85188,37674
29.86002,41103
29.86813,46392
29.87625,51125
29.88438,55142
29.89250,65805
29.90063,68977
29.90875,76549
29.91687,71361
29.92500,68840
29.93312,60228
29.94125,54833
29.94937,52228
29.95748,51740
29.96562,53142
29.97373,59008
29.98185,68027
29.98998,70094
29.99810,76874
30.00623,81374
30.01435,94260
30.02247,95004
30.03060,98480
30.03872,97638
30.04685,102862
30.05497,107210
30.06308,105288
30.07122,108599
30.07933,104792
30.08747,97092
30.09558,101533
30.10370,95192
30.11183,98624
30.11995,93946
30.12807,95328
30.13620,83923
30.14432,86627
30.15245,83263
30.16057,80948
30.16868,76835
30.17682,77400
30.18493,73179
30.19307,66278
30.20118,67587
30.20930,76417
30.21743,72610
30.22555,70018
30.23367,61937
30.24180,57691
30.24992,60397
30.25805,61147
30.26617,62671
30.27428,59010
30.28242,58686
30.29053,53137
30.29867,49048
30.30678,54571
30.31490,50740
30.32303,51973
30.33115,53295
30.33928,52874
30.34740,51276
30.35552,50489
30.36365,52256
30.37177,51714
30.37988,49886
30.38802,49060
30.39613,48612
30.40427,46811
30.41238,52519
30.42050,48501
30.42863,46830
30.43675,51824
30.44488,45909
30.45300,43043
30.46112,48279
30.46925,44025
30.47737,49120
30.48550,49028
30.49362,49919
30.50173,45242
30.50987,45267
30.51798,46992
30.52610,48199
30.53423,46986
30.54235,45459
30.55048,43940
30.55860,48340
30.56672,43373
30.57485,46043
30.58297,43953
30.59110,43188
30.59922,39360
30.60733,44556
30.61547,51113
30.62358,54450
30.63170,60754
30.63983,70590
30.64795,72993
30.65608,73811
30.66420,77664
30.67232,81564
30.68045,80141
30.68857,87278
30.69670,85541
30.70482,85997
30.71293,84645
30.72107,91052
30.72918,88750
30.73732,96105
30.74543,89392
30.75355,91039
30.76168,94931
30.76980,93434
30.77792,103201
30.78605,101878
30.79417,122187
30.80230,128405
30.81042,143926
30.81853,139600
30.82667,143085
30.83478,126621
30.84292,120541
30.85103,109603
30.85915,104318
30.86728,99289
30.87540,94163
30.88353,95291
30.89165,91798
30.89977,93173
30.90790,99321
30.91602,94320
30.92413,89346
30.93227,85350
30.94038,84884
30.94852,81424
30.95663,90290
30.96475,91435
30.97288,92720
30.98100,91313
30.98913,87793
30.99725,90063
31.00537,87880
31.01350,86114
31.02162,84360
31.02973,87833
31.03787,83578
31.04598,89576
31.05412,86792
31.06223,85333
31.07035,86410
31.07848,87792
31.08660,101243
31.09473,107591
31.10285,111150
31.11097,111828
31.11910,109579
31.12722,100372
31.13535,100012
31.14347,90622
31.15158,90301
31.15972,91363
31.16783,92025
31.17595,98142
31.18408,104595
31.19220,118635
31.20033,158837
31.20845,193833
31.21657,244828
31.22470,290758
31.23282,307097
31.24095,290801
31.24907,247302
31.25718,199431
31.26532,151734
31.27343,117456
31.28155,94848
31.28968,84001
31.29780,78022
31.30593,77069
31.31405,74964
31.32217,73164
31.33030,74910
31.33842,76278
31.34655,76372
31.35467,72495
31.36278,73162
31.37092,71345
31.37903,74603
31.38717,75981
31.39528,73162
31.40340,73813
31.41153,71297
31.41965,72441
31.42777,70657
31.43590,71429
31.44402,61091
31.45215,68998
31.46027,64037
31.46838,60852
31.47652,62131
31.48463,60369
31.49277,55348
31.50088,63829
31.50900,60989
31.51713,57270
31.52525,61388
31.53338,62755
31.54150,58784
31.54962,61693
31.55775,64028
31.56587,61693
31.57398,56024
31.58212,60648
31.59023,58675
31.59837,59326
31.60648,54841
31.61460,58228
31.62273,54970
31.63085,60695
31.63898,58877
31.64710,59355
31.65522,63561
31.66335,58090
31.67147,60576
31.67958,60631
31.68772,60640
31.69583,63235
31.70397,58881
31.71208,57447
31.72020,56090
31.72833,56600
31.73645,58629
31.74458,51945
31.75270,50898
31.76082,50195
31.76895,52511
31.77707,54833
31.78520,53372
31.79332,55717
31.80143,54282
31.80957,55745
31.81768,54244
31.82580,54106
31.83393,51026
31.84205,57966
31.85018,55119
31.85830,56984
31.86642,60672
31.87455,62808
31.88267,65488
31.89080,64628
31.89892,68278
31.90703,73155
31.91517,72971
31.92328,78405
31.93142,79255
31.93953,88764
31.94765,88227
31.95578,88364
31.96390,95507
31.97202,98376
31.98015,102762
31.98827,105904
31.99640,105946
32.00452,104123
32.01263,103355
32.02077,100616
32.02888,97356
32.03702,96499
32.04513,96608
32.05325,90738
32.06138,87222
32.06950,88992
32.07762,81928
32.08575,92350
32.09387,84667
32.10200,80179
32.11012,77069
32.11823,72911
32.12637,74926
32.13448,70180
32.14262,69313
32.15073,67501
32.15885,62617
32.16698,60029
32.17510,63115
32.18323,62136
32.19135,61336
32.19947,57507
32.20760,57173
32.21572,61626
32.22383,57382
32.23197,55276
32.24008,55786
32.24822,57457
32.25633,64069
32.26445,61566
32.27258,61695
32.28070,57616
32.28883,60013
32.29695,58260
32.30507,53849
32.31320,53736
32.32132,52413
32.32943,54677
32.33757,54337
32.34568,51957
32.35382,52197
32.36193,51758
32.37005,54936
32.37818,54971
32.38630,51631
32.39443,51622
32.40255,50854
32.41067,50852
32.41880,48780
32.42692,50239
32.43505,48452
32.44317,52304
32.45128,51165
32.45942,50003
32.46753,47230
32.47565,49195
32.48378,52283
32.49190,52883
32.50003,49592
32.50815,51756
32.51627,48791
32.52440,49090
32.53252,49450
32.54065,51014
32.54877,50378
32.55688,48924
32.56502,49603
32.57313,51602
32.58127,47618
32.58938,51481
32.59750,44965
32.60563,48224
32.61375,47018
32.62187,48873
32.63000,50656
32.63812,47893
32.64625,52275
32.65437,53965
32.66248,60476
32.67062,62154
32.67873,63478
32.68687,67564
32.69498,62140
32.70310,61595
32.71123,56953
32.71935,57072
32.72748,55090
32.73560,52601
32.74372,51107
32.75185,49092
32.75997,51285
32.76808,49177
32.77622,49323
32.78433,42649
32.79247,47309
32.80058,46774
32.80870,46436
32.81683,49001
32.82495,50024
32.83308,48814
32.84120,48638
32.84932,49247
32.85745,51682
32.86557,48418
32.87368,48400
32.88182,50710
32.88993,49391
32.89807,50662
32.90618,52471
32.91430,55145
32.92243,49827
32.93055,49213
32.93868,48415
32.94680,47883
32.95492,46506
32.96305,48063
32.97117,48725
32.97930,51386
32.98742,61085
32.99553,65728
33.00367,72282
33.01178,73268
33.01990,70728
33.02803,63726
33.03615,59842
33.04428,56475
33.05240,59003
33.06052,55888
33.06865,61994
33.07677,63376
33.08490,64413
33.09302,60675
33.10113,64898
33.10927,71035
33.11738,70970
33.12550,77144
33.13363,72865
33.14175,69722
33.14988,67574
33.15800,60361
33.16612,55291
33.17425,49536
33.18237,51383
33.19050,52013
33.19862,56351
33.20673,52822
33.21487,52906
33.22298,51476
33.23112,53867
33.23923,54562
33.24735,51920
33.25548,50353
33.26360,50020
33.27172,47786
33.27985,46797
33.28797,51827
33.29610,50819
33.30422,47642
33.31233,47251
33.32047,49108
33.32858,49950
33.33672,47788
33.34483,49927
33.35295,50708
33.36108,49483
33.36920,53299
33.37733,53053
33.38545,55957
33.39357,50789
33.40170,50405
33.40982,51533
33.41793,50215
33.42607,49184
33.43418,47224
33.44232,48545
33.45043,45169
33.45855,45307
33.46668,49676
33.47480,51717
33.48293,45839
33.49105,51022
33.49917,44564
33.50730,49528
33.51542,52618
33.52353,48950
33.53167,47617
33.53978,53460
33.54792,58188
33.55603,63136
33.56415,57328
33.57228,57441
33.58040,56818
33.58853,51281
33.59665,53773
33.60477,50975
33.61290,49457
33.62102,49868
33.62915,46604
33.63727,49565
33.64538,52716
33.65352,51160
33.66163,50593
33.66975,51728
33.67788,53434
33.68600,53463
33.69413,48168
33.70225,45790
33.71037,47889
33.71850,45969
33.72662,46699
33.73475,47188
33.74287,46395
33.75098,47491
33.75912,45350
33.76723,46583
33.77537,43916
33.78348,45136
33.79160,44184
33.79973,42723
33.80785,44141
33.81597,47735
33.82410,43346
33.83222,46529
33.84035,51081
33.84847,50140
33.85658,49702
33.86472,50547
33.87283,48886
33.88097,50719
33.88908,52775
33.89720,58120
33.90533,49441
33.91345,49521
33.92157,51683
33.92970,47872
33.93782,48110
33.94595,51730
33.95407,48838
33.96218,47196
33.97032,46004
33.97843,46387
33.98657,46215
33.99468,46788
34.00280,46190
34.01093,44053
34.01905,49642
34.02718,47996
34.03530,46579
34.04342,46726
34.05155,45216
34.05967,46006
34.06778,49074
34.07592,48513
34.08403,49550
34.09217,47415
34.10028,50764
34.10840,50133
34.11653,49796
34.12465,49137
34.13278,48567
34.14090,48592
34.14902,49332
34.15715,45863
34.16527,44736
34.17338,45022
34.18152,47829
34.18963,47933
34.19777,48330
34.20588,48248
34.21400,51576
34.22213,48036
34.23025,47370
34.23838,50007
34.24650,43410
34.25462,47224
34.26275,46923
34.27087,47683
34.27900,51363
34.28712,48575
34.29523,51030
34.30337,46831
34.31148,47030
34.31960,44116
34.32773,48000
34.33585,47707
34.34398,47767
34.35210,49573
34.36022,50831
34.36835,46440
34.37647,48009
34.38460,46384
34.39272,48376
34.40083,43999
34.40897,48649
34.41708,42925
34.42522,47004
34.43333,45206
34.44145,47307
34.44958,46329
34.45770,46401
34.46582,45253
34.47395,47195
34.48207,46721
34.49020,48633
34.49832,48634
34.50643,52698
34.51457,58577
34.52268,63391
34.53082,72486
34.53893,83019
34.54705,90162
34.55518,100193
34.56330,97902
34.57142,94233
34.57955,97074
34.58767,96237
34.59580,92579
34.60392,85780
34.61203,77099
34.62017,70052
34.62828,73463
34.63642,71333
34.64453,65677
34.65265,69387
34.66078,64793
34.66890,61426
34.67703,57119
34.68515,58032
34.69327,54376
34.70140,56937
34.70952,58544
34.71763,57751
34.72577,55564
34.73388,53536
34.74202,61005
34.75013,56842
34.75825,54432
34.76638,55153
34.77450,55686
34.78263,56362
34.79075,55074
34.79887,54968
34.80700,55573
34.81512,54945
34.82325,55846
34.83137,52885
34.83948,55127
34.84762,53422
34.85573,57004
34.86385,52059
34.87198,50605
34.88010,54294
34.88823,51966
34.89635,51516
34.90447,52006
34.91260,53391
34.92072,54121
34.92885,53244
34.93697,56438
34.94508,55771
34.95322,58798
34.96133,58890
34.96945,62980
34.97758,66608
34.98570,60861
34.99383,62208
35.00195,59166
35.01007,55719
35.01820,61785
35.02632,55150
35.03445,55251
35.04257,57923
35.05068,55017
35.05882,54744
35.06693,55789
35.07507,50862
35.08318,52198
35.09130,47714
35.09943,47152
35.10755,49804
35.11567,51096
35.12380,53647
35.13192,54159
35.14005,51620
35.14817,54386
35.15628,56627
35.16442,60379
35.17253,54652
35.18067,53548
35.18878,54183
35.19690,52462
35.20503,52590
35.21315,49600
35.22128,52619
35.22940,51706
35.23752,49875
35.24565,48262
35.25377,51799
35.26188,50151
35.27002,53931
35.27813,48513
35.28627,54159
35.29438,49200
35.30250,53464
35.31063,51678
35.31875,51250
35.32688,49602
35.33500,46639
35.34312,53714
35.35125,49785
35.35937,50664
35.36748,51920
35.37562,47795
35.38373,46749
35.39187,52050
35.39998,53400
35.40810,52029
35.41623,52197
35.42435,54938
35.43248,51129
35.44060,52811
35.44872,55625
35.45685,53469
35.46497,51165
35.47310,56457
35.48122,54927
35.48933,54693
35.49747,53737
35.50558,52791
35.51370,52833
35.52183,49319
35.52995,51114
35.53808,52373
35.54620,52739
35.55432,48949
35.56245,52053
35.57057,53209
35.57870,51005
35.58682,51199
35.59493,48843
35.60307,52426
35.61118,49528
35.61930,52628
35.62743,47404
35.63555,52996
35.64368,51976
35.65180,52459
35.65992,54225
35.66805,50554
35.67617,53887
35.68430,50634
35.69242,54590
35.70053,54639
35.70867,53841
35.71678,55392
35.72492,57226
35.73303,53474
35.74115,54056
35.74928,57993
35.75740,58260
35.76552,59013
35.77365,63579
35.78177,59442
35.78990,59015
35.79802,56793
35.80613,55333
35.81427,53997
35.82238,54090
35.83052,56791
35.83863,49333
35.84675,54067
35.85488,50594
35.86300,50619
35.87113,54779
35.87925,48954
35.88737,52758
35.89550,52098
35.90362,53768
35.91173,51659
35.91987,49140
35.92798,48114
35.93612,51363
35.94423,55072
35.95235,54892
35.96048,49673
35.96860,48949
35.97673,50939
35.98485,51597
35.99297,53901
36.00110,53430
36.00922,55365
36.01733,56876
36.02547,54901
36.03358,52692
36.04172,57076
36.04983,54948
36.05795,54315
36.06608,55872
36.07420,56333
36.08233,52667
36.09045,52582
36.09857,51739
36.10670,53769
36.11482,53593
36.12295,52351
36.13107,57824
36.13918,55835
36.14732,57961
36.15543,56207
36.16355,58181
36.17168,57557
36.17980,57773
36.18793,62197
36.19605,62145
36.20417,65006
36.21230,68135
36.22042,70346
36.22855,69883
36.23667,71999
36.24478,75142
36.25292,70670
36.26103,73726
36.26917,76215
36.27728,75660
36.28540,75133
36.29353,83655
36.30165,82682
36.30977,89479
36.31790,96859
36.32602,91639
36.33415,84985
36.34227,80743
36.35038,81864
36.35852,81800
36.36663,84972
36.37477,79621
36.38288,79049
36.39100,83679
36.39913,82294
36.40725,87649
36.41537,82358
36.42350,79128
36.43162,79321
36.43975,78383
36.44787,78400
36.45598,76596
36.46412,78807
36.47223,74463
36.48037,81410
36.48848,71935
36.49660,73437
36.50473,70226
36.51285,78882
36.52098,74011
36.52910,76639
36.53722,71148
36.54535,69303
36.55347,72363
36.56158,73616
36.56972,73024
36.57783,69116
36.58597,72548
36.59408,68421
36.60220,71089
36.61033,72829
36.61845,67884
36.62658,70676
36.63470,74583
36.64282,71239
36.65095,68756
36.65907,72022
36.66718,71153
36.67532,73619
36.68343,70585
36.69157,63722
36.69968,70283
36.70780,67505
36.71593,68644
36.72405,69858
36.73218,66254
36.74030,69921
36.74842,66818
36.75655,71335
36.76467,65935
36.77280,62156
36.78092,69414
36.78903,67447
36.79717,69121
36.80528,66070
36.81340,62323
36.82153,67433
36.82965,65254
36.83778,66472
36.84590,66070
36.85402,63493
36.86215,65117
36.87027,63300
36.87840,61591
36.88652,61434
36.89463,66327
36.90277,65985
36.91088,66161
36.91902,70321
36.92713,63455
36.93525,64367
36.94338,70963
36.95150,76882
36.95962,82226
36.96775,80264
36.97587,81776
36.98400,79442
36.99212,77137
37.00023,70256
37.00837,69787
37.01648,66625
37.02462,64601
37.03273,68361
37.04085,66909
37.04898,66286
37.05710,66711
37.06522,64020
37.07335,69721
37.08147,67257
37.08960,64130
37.09772,65849
37.10583,64140
37.11397,66514
37.12208,65689
37.13022,64803
37.13833,62243
37.14645,66702
37.15458,69419
37.16270,67340
37.17083,62188
37.17895,61648
37.18707,64281
37.19520,66422
37.20332,66306
37.21143,67211
37.21957,66509
37.22768,62892
37.23582,63035
37.24393,63341
37.25205,61450
37.26018,61487
37.26830,60406
37.27643,59529
37.28455,60392
37.29267,59981
37.30080,62869
37.30892,70880
37.31705,68692
37.32517,75187
37.33328,78617
37.34142,92390
37.34953,96005
37.35765,100764
37.36578,98364
37.37390,102608
37.38203,93857
37.39015,94927
37.39827,88406
37.40640,92431
37.41452,89634
37.42265,85075
37.43077,80675
37.43888,83405
37.44702,84149
37.45513,77158
37.46325,76971
37.47138,76338
37.47950,74091
37.48763,73847
