Z:\data\JTB-E02\BACandBLUE\JTB-E02-195-07.D Wed Feb 20 10:31:39 2019
Start of data points
2.09513	233958
2.10325	249567
2.11137	228258
2.11950	229954
2.12762	224650
2.13575	220819
2.14387	212746
2.15198	213915
2.16012	202195
2.16823	201350
2.17635	196279
2.18448	185479
2.19260	180855
2.20073	179189
2.20885	170572
2.21697	166683
2.22510	160550
2.23322	166452
2.24135	147706
2.24947	207717
2.25758	1401632
2.26572	4374438
2.27383	6782598
2.28197	6621609
2.29008	4038847
2.29820	2644362
2.30633	2036604
2.31445	1732429
2.32257	1586449
2.33070	1527065
2.33882	1500501
2.34695	1303676
2.35507	1156697
2.36318	1054852
2.37132	1080082
2.37943	1111818
2.38757	1223445
2.39568	1227552
2.40380	1533855
2.41193	2419028
2.42005	3508997
2.42817	3301063
2.43630	2563309
2.44442	2024576
2.45255	1756148
2.46067	1527329
2.46878	1329055
2.47692	1206495
2.48503	1133636
2.49317	1090318
2.50128	1013875
2.50940	1023270
2.51753	1035344
2.52565	1005431
2.53378	1018660
2.54190	1177713
2.55002	1322617
2.55815	1309687
2.56627	1201399
2.57438	1001963
2.58252	827381
2.59063	769587
2.59877	772270
2.60688	815510
2.61500	817849
2.62313	744615
2.63125	696778
2.63938	649640
2.64750	669193
2.65562	655200
2.66375	651537
2.67187	642597
2.68000	640066
2.68812	612626
2.69623	575721
2.70437	540940
2.71248	518687
2.72060	498957
2.72873	484558
2.73685	475544
2.74498	452991
2.75310	447220
2.76122	430279
2.76935	430719
2.77747	424615
2.78560	420156
2.79372	474917
2.80183	554410
2.80997	619480
2.81808	574163
2.82620	537291
2.83433	512024
2.84245	468644
2.85058	481850
2.85870	528405
2.86682	538342
2.87495	524516
2.88307	504503
2.89120	544806
2.89932	527382
2.90743	463609
2.91557	412678
2.92368	397854
2.93182	384576
2.93993	376241
2.94805	379850
2.95618	368892
2.96430	365974
2.97242	352587
2.98055	332718
2.98867	330830
2.99680	347759
3.00492	375254
3.01303	392300
3.02117	375351
3.02928	359597
3.03742	350248
3.04553	337684
3.05365	333752
3.06178	324709
3.06990	330808
3.07802	326777
3.08615	318016
3.09427	335895
3.10240	381890
3.11052	455774
3.11863	506734
3.12677	518409
3.13488	488704
3.14302	441770
3.15113	437264
3.15925	395490
3.16738	388178
3.17550	361123
3.18363	347487
3.19175	335684
3.19987	344652
3.20800	326161
3.21612	316661
3.22423	309946
3.23237	300686
3.24048	301642
3.24862	287460
3.25673	282578
3.26485	284785
3.27298	578989
3.28110	5463283
3.28923	3.738856E+07
3.29735	9.395854E+07
3.30547	1.514238E+08
3.31360	1.659733E+08
3.32172	1.608732E+08
3.32985	1.416632E+08
3.33797	1.162636E+08
3.34608	7.62329E+07
3.35422	5.887017E+07
3.36233	4.651258E+07
3.37045	3.774635E+07
3.37858	3.141416E+07
3.38670	2.653899E+07
3.39483	2.263371E+07
3.40295	1.971313E+07
3.41107	1.736932E+07
3.41920	1.549535E+07
3.42732	1.387364E+07
3.43545	1.252357E+07
3.44357	1.131459E+07
3.45168	1.036773E+07
3.45982	9653294
3.46793	8869725
3.47605	8316357
3.48418	7695160
3.49230	7404138
3.50043	7002681
3.50855	6494736
3.51667	6042070
3.52480	5489259
3.53292	4944055
3.54105	4430112
3.54917	3968751
3.55728	3557333
3.56542	3289547
3.57353	3024266
3.58167	2890630
3.58978	2762959
3.59790	2659401
3.60603	2594820
3.61415	2602120
3.62227	2696672
3.63040	2830868
3.63852	2938937
3.64665	3060426
3.65477	3148309
3.66288	3213738
3.67102	3201197
3.67913	3195751
3.68727	3184227
3.69538	3043240
3.70350	2889763
3.71163	2770210
3.71975	2539795
3.72788	2358220
3.73600	2189431
3.74412	2085297
3.75225	1972355
3.76037	1933140
3.76848	1892541
3.77662	1859785
3.78473	1858531
3.79287	1871823
3.80098	1900778
3.80910	1943831
3.81723	2050078
3.82535	2156697
3.83348	2190871
3.84160	2127958
3.84972	2097517
3.85785	2026381
3.86597	1965981
3.87408	1899085
3.88222	1823364
3.89033	1738728
3.89847	1700321
3.90658	1681033
3.91470	1625372
3.92283	1567826
3.93095	1539315
3.93908	1494356
3.94720	1467474
3.95532	1443847
3.96345	1404362
3.97157	1427861
3.97970	1388609
3.98782	1377821
3.99593	1390168
4.00407	1402739
4.01218	1402839
4.02030	1406529
4.02843	1381312
4.03655	1371449
4.04468	1358957
4.05280	1322592
4.06092	1300898
4.06905	1275721
4.07717	1242730
4.08530	1230538
4.09342	1193056
4.10153	1187130
4.10967	1178528
4.11778	1168949
4.12592	1142894
4.13403	1167112
4.14215	1179706
4.15028	1310069
4.15840	1502735
4.16652	1669467
4.17465	1679135
4.18277	1521370
4.19090	1433799
4.19902	1354423
4.20713	1269869
4.21527	1256993
4.22338	1198291
4.23152	1204829
4.23963	1195481
4.24775	1198606
4.25588	1170669
4.26400	1124728
4.27212	1111915
4.28025	1085526
4.28837	1052798
4.29650	1027135
4.30462	989765
4.31273	1012026
4.32087	1053232
4.32898	1156237
4.33712	1291037
4.34523	1379787
4.35335	1405643
4.36148	1482808
4.36960	1679271
4.37773	1849909
4.38585	1833584
4.39397	1667071
4.40210	1445494
4.41022	1270184
4.41833	1152432
4.42647	1076306
4.43458	1054190
4.44272	997618
4.45083	976798
4.45895	962563
4.46708	949767
4.47520	948945
4.48333	928337
4.49145	917098
4.49957	921384
4.50770	915920
4.51582	921444
4.52393	882813
4.53207	885374
4.54018	868586
4.54832	843980
4.55643	841247
4.56455	812917
4.57268	781300
4.58080	779634
4.58893	779017
4.59705	778375
4.60517	797216
4.61330	802550
4.62142	812864
4.62955	819149
4.63767	804740
4.64578	784403
4.65392	772226
4.66203	791143
4.67015	767345
4.67828	759346
4.68640	736250
4.69453	736724
4.70265	712041
4.71077	681674
4.71890	684369
4.72702	681231
4.73515	660689
4.74327	663812
4.75138	667340
4.75952	682184
4.76763	658705
4.77577	672815
4.78388	678428
4.79200	663308
4.80013	667533
4.80825	667836
4.81637	683823
4.82450	669001
4.83262	666730
4.84075	645669
4.84887	651769
4.85698	661436
4.86512	709884
4.87323	784165
4.88137	851183
4.88948	857781
4.89760	837258
4.90573	801577
4.91385	755946
4.92197	739279
4.93010	869833
4.93822	2466409
4.94635	1.262414E+07
4.95447	4.66597E+07
4.96258	9.378466E+07
4.97072	1.267295E+08
4.97883	1.400784E+08
4.98697	1.348564E+08
4.99508	1.181839E+08
5.00320	9.488301E+07
5.01133	7.055458E+07
5.01945	4.958453E+07
5.02758	3.534503E+07
5.03570	2.598288E+07
5.04382	1.999047E+07
5.05195	1.577455E+07
5.06007	1.289176E+07
5.06818	1.091975E+07
5.07632	9568820
5.08443	8340298
5.09257	7341331
5.10068	6406350
5.10880	5549868
5.11693	4831489
5.12505	4194161
5.13318	3696895
5.14130	3290550
5.14942	3096231
5.15755	3017562
5.16567	3005754
5.17380	3048789
5.18192	3178036
5.19003	3258975
5.19817	3301366
5.20628	3269726
5.21440	3135367
5.22253	2995384
5.23065	2768785
5.23878	2541944
5.24690	2405507
5.25502	2312607
5.26315	2244525
5.27127	2153437
5.27940	2075263
5.28752	2063169
5.29563	2022600
5.30377	2032518
5.31188	2022268
5.32000	2008821
5.32813	1955657
5.33625	1929528
5.34438	1882554
5.35250	1865061
5.36062	1828761
5.36875	1759836
5.37687	1724498
5.38500	1704339
5.39312	1648126
5.40123	1620085
5.40937	1601386
5.41748	1564685
5.42562	1541332
5.43373	1516309
5.44185	1512775
5.44998	1485702
5.45810	1476723
5.46622	1454451
5.47435	1441578
5.48247	1409465
5.49060	1377070
5.49872	1344181
5.50683	1324298
5.51497	1305009
5.52308	1290450
5.53122	1278433
5.53933	1250471
5.54745	1275179
5.55558	1257166
5.56370	1256708
5.57182	1245716
5.57995	1223488
5.58807	1224643
5.59620	1224817
5.60432	1251601
5.61243	1246108
5.62057	1295238
5.62868	1403320
5.63682	1603056
5.64493	1823194
5.65305	1877617
5.66118	1794368
5.66930	1564469
5.67743	1387695
5.68555	1257412
5.69367	1225128
5.70180	1230677
5.70992	1256107
5.71803	1275425
5.72617	1221406
5.73428	1176800
5.74242	1138595
5.75053	1092154
5.75865	1049141
5.76678	1062813
5.77490	1040045
5.78303	1000680
5.79115	994597
5.79927	963624
5.80740	993102
5.81552	955417
5.82365	942114
5.83177	932562
5.83988	922935
5.84802	907196
5.85613	915459
5.86425	905214
5.87238	906770
5.88050	895649
5.88863	859836
5.89675	863881
5.90487	860131
5.91300	819829
5.92112	721248
5.92925	652956
5.93737	635626
5.94548	619423
5.95362	626047
5.96173	641470
5.96987	667111
5.97798	783577
5.98610	1007238
5.99423	1312142
6.00235	1504203
6.01047	1471689
6.01860	1352632
6.02672	1179704
6.03485	1090538
6.04297	999007
6.05108	929960
6.05922	901562
6.06733	854049
6.07547	830994
6.08358	816266
6.09170	795685
6.09983	744521
6.10795	737870
6.11607	749288
6.12420	726192
6.13232	732255
6.14045	714793
6.14857	711687
6.15668	693312
6.16482	680317
6.17293	679990
6.18107	683228
6.18918	699702
6.19730	701951
6.20543	690724
6.21355	665624
6.22168	668327
6.22980	652717
6.23792	645128
6.24605	641864
6.25417	668361
6.26228	664595
6.27042	664854
6.27853	658690
6.28667	660126
6.29478	656591
6.30290	642231
6.31103	650411
6.31915	623933
6.32728	637883
6.33540	644549
6.34352	644959
6.35165	634831
6.35977	635737
6.36788	624597
6.37602	628250
6.38413	626455
6.39227	625338
6.40038	610283
6.40850	609075
6.41663	616298
6.42475	616346
6.43288	608284
6.44100	644926
6.44912	739235
6.45725	901041
6.46537	1111044
6.47350	1149855
6.48162	993827
6.48973	825839
6.49787	727636
6.50598	690349
6.51410	681661
6.52223	636401
6.53035	641999
6.53848	594361
6.54660	594723
6.55472	601218
6.56285	598920
6.57097	602911
6.57910	592440
6.58722	545755
6.59533	522836
6.60347	518212
6.61158	500153
6.61970	488527
6.62783	484869
6.63595	494987
6.64408	480178
6.65220	482006
6.66032	465716
6.66845	477260
6.67657	466315
6.68470	473518
6.69282	476270
6.70093	472208
6.70907	460689
6.71718	442440
6.72532	443009
6.73343	427319
6.74155	430027
6.74968	435576
6.75780	423062
6.76592	434511
6.77405	426339
6.78217	424703
6.79030	419950
6.79842	405715
6.80653	402901
6.81467	400826
6.82278	412426
6.83092	414848
6.83903	435058
6.84715	432266
6.85528	435034
6.86340	416674
6.87153	411477
6.87965	519377
6.88777	745965
6.89590	1027796
6.90402	1205544
6.91213	1114423
6.92027	943509
6.92838	741545
6.93652	593786
6.94463	500612
6.95275	459230
6.96088	415011
6.96900	383475
6.97713	359734
6.98525	338090
6.99337	311388
7.00150	288833
7.00962	276137
7.01775	272040
7.02587	291612
7.03398	306190
7.04212	322036
7.05023	308964
7.05835	303225
7.06648	292296
7.07460	281068
7.08273	278113
7.09085	274781
7.09897	271498
7.10710	261037
7.11522	271421
7.12335	266513
7.13147	257454
7.13958	265203
7.14772	258471
7.15583	243045
7.16395	246441
7.17208	233735
7.18020	248120
7.18833	243289
7.19645	262493
7.20457	270002
7.21270	281935
7.22082	294398
7.22895	309019
7.23707	297164
7.24518	290172
7.25332	265995
7.26143	253312
7.26957	231287
7.27768	232657
7.28580	216597
7.29393	217508
7.30205	224397
7.31017	227517
7.31830	229681
7.32642	229499
7.33455	238255
7.34267	232096
7.35078	224925
7.35892	208787
7.36703	218599
7.37517	204771
7.38328	214408
7.39140	222416
7.39953	250527
7.40765	310490
7.41577	366204
7.42390	406299
7.43202	413861
7.44015	407680
7.44827	406211
7.45638	429663
7.46452	473966
7.47263	464055
7.48077	434400
7.48888	377329
7.49700	303435
7.50513	269001
7.51325	234990
7.52138	231284
7.52950	225926
7.53762	215757
7.54575	220727
7.55387	224511
7.56198	205200
7.57012	204865
7.57823	206765
7.58637	212390
7.59448	209303
7.60260	202369
7.61073	193661
7.61885	208977
7.62698	189026
7.63510	196590
7.64322	195977
7.65135	194240
7.65947	194051
7.66760	192665
7.67572	196356
7.68383	198116
7.69197	199318
7.70008	199871
7.70820	196126
7.71633	199745
7.72445	192880
7.73258	191560
7.74070	185083
7.74882	184254
7.75695	186546
7.76507	180940
7.77320	185232
7.78132	177976
7.78943	182452
7.79757	184872
7.80568	190975
7.81380	201767
7.82193	207536
7.83005	219043
7.83818	219604
7.84630	195110
7.85442	184266
7.86255	167648
7.87067	156481
7.87880	158417
7.88692	156040
7.89503	157179
7.90317	153990
7.91128	156986
7.91942	157987
7.92753	153746
7.93565	151242
7.94378	160862
7.95190	155411
7.96002	165854
7.96815	171974
7.97627	209207
7.98440	263141
7.99252	322709
8.00063	346678
8.00877	340009
8.01688	298605
8.02502	257883
8.03313	231489
8.04125	197077
8.04938	188775
8.05750	182721
8.06563	183687
8.07375	193686
8.08187	204429
8.09000	209190
8.09812	214131
8.10623	203504
8.11437	204496
8.12248	204767
8.13062	198493
8.13873	198951
8.14685	202605
8.15498	189860
8.16310	204051
8.17123	233805
8.17935	271205
8.18747	340122
8.19560	384799
8.20372	383609
8.21183	347448
8.21997	313857
8.22808	287592
8.23622	246210
8.24433	217135
8.25245	204109
8.26058	211721
8.26870	212379
8.27683	216614
8.28495	227406
8.29307	219628
8.30120	213017
8.30932	211970
8.31745	205891
8.32557	199863
8.33368	221332
8.34182	261462
8.34993	357309
8.35805	490779
8.36618	609750
8.37430	654949
8.38243	614433
8.39055	497387
8.39867	394291
8.40680	305266
8.41492	272843
8.42305	256298
8.43117	262229
8.43928	275972
8.44742	303072
8.45553	296097
8.46365	281806
8.47178	269818
8.47990	257722
8.48803	251320
8.49615	243505
8.50427	231141
8.51240	229796
8.52052	246591
8.52865	277922
8.53677	330532
8.54488	361217
8.55302	351057
8.56113	313339
8.56927	284862
8.57738	264429
8.58550	237568
8.59363	237451
8.60175	220235
8.60987	204600
8.61800	205397
8.62612	203329
8.63425	193027
8.64237	196840
8.65048	188457
8.65862	191738
8.66673	178295
8.67487	186731
8.68298	180172
8.69110	182044
8.69923	178487
8.70735	176422
8.71548	185135
8.72360	189903
8.73172	177745
8.73985	185057
8.74797	172893
8.75608	192029
8.76422	226387
8.77233	521939
8.78047	2040989
8.78858	8195373
8.79670	2.508284E+07
8.80483	5.120835E+07
8.81295	6.880261E+07
8.82108	7.096E+07
8.82920	6.261701E+07
8.83732	4.94597E+07
8.84545	3.547437E+07
8.85357	2.459869E+07
8.86168	1.621866E+07
8.86982	1.049489E+07
8.87793	6720258
8.88607	4555533
8.89418	3408062
8.90230	2791407
8.91043	2391445
8.91855	2114776
8.92668	1903407
8.93480	1714482
8.94292	1561871
8.95105	1485938
8.95917	1393925
8.96730	1319003
8.97542	1240394
8.98353	1185355
8.99167	1152131
8.99978	1083553
9.00790	1033230
9.01603	1019172
9.02415	992805
9.03228	929347
9.04040	910572
9.04852	867838
9.05665	856052
9.06477	847782
9.07290	835726
9.08102	811231
9.08913	814564
9.09727	784726
9.10538	763296
9.11352	735852
9.12163	715599
9.12975	698833
9.13788	692541
9.14600	692685
9.15412	705265
9.16225	701213
9.17037	723007
9.17850	754831
9.18662	786304
9.19473	885929
9.20287	951548
9.21098	928729
9.21912	893575
9.22723	804384
9.23535	726446
9.24348	666910
9.25160	632333
9.25972	593308
9.26785	573177
9.27597	565199
9.28410	526060
9.29222	520043
9.30033	501842
9.30847	485652
9.31658	479302
9.32472	476613
9.33283	473349
9.34095	450998
9.34908	457347
9.35720	464316
9.36533	452092
9.37345	436397
9.38157	416703
9.38970	417867
9.39782	418408
9.40593	407613
9.41407	395274
9.42218	394869
9.43032	382721
9.43843	386098
9.44655	379530
9.45468	378426
9.46280	380797
9.47093	372917
9.47905	371395
9.48717	362784
9.49530	354646
9.50342	354020
9.51155	358046
9.51967	358379
9.52778	366697
9.53592	395945
9.54403	445737
9.55215	528687
9.56028	610126
9.56840	704033
9.57653	687744
9.58465	652726
9.59277	587928
9.60090	636061
9.60902	802481
9.61715	1085031
9.62527	1264113
9.63338	1263752
9.64152	1121953
9.64963	923649
9.65775	804031
9.66588	712148
9.67400	655671
9.68213	604220
9.69025	541045
9.69837	481130
9.70650	447551
9.71462	420941
9.72275	382349
9.73087	356895
9.73898	336370
9.74712	342493
9.75523	325072
9.76337	311888
9.77148	308654
9.77960	304436
9.78773	287880
9.79585	293312
9.80397	285131
9.81210	285168
9.82022	277852
9.82835	263436
9.83647	262766
9.84458	249512
9.85272	263769
9.86083	253234
9.86897	258291
9.87708	262002
9.88520	254860
9.89333	251957
9.90145	232755
9.90957	228341
9.91770	234478
9.92582	226028
9.93395	224003
9.94207	228323
9.95018	219543
9.95832	221085
9.96643	245606
9.97457	260348
9.98268	304186
9.99080	371816
9.99893	445071
10.00705	559706
10.01518	684362
10.02330	933952
10.03142	1380310
10.03955	1921128
10.04767	2485235
10.05578	2703033
10.06392	2572682
10.07203	2064788
10.08017	1520560
10.08828	1107176
10.09640	800736
10.10453	593832
10.11265	468578
10.12078	403411
10.12890	351251
10.13702	320624
10.14515	297102
10.15327	297993
10.16140	282940
10.16952	275716
10.17763	266722
10.18577	258594
10.19388	258775
10.20200	257600
10.21013	241991
10.21825	248440
10.22638	279834
10.23450	316226
10.24262	420167
10.25075	550501
10.25887	685079
10.26700	763612
10.27512	713345
10.28323	601046
10.29137	503923
10.29948	439831
10.30760	395659
10.31573	407005
10.32385	411087
10.33198	449528
10.34010	466254
10.34822	467669
10.35635	444378
10.36447	401271
10.37260	353560
10.38072	330172
10.38883	305002
10.39697	294024
10.40508	276468
10.41322	275353
10.42133	262462
10.42945	262103
10.43758	252878
10.44570	247123
10.45382	246132
10.46195	238851
10.47007	241802
10.47820	228935
10.48632	234126
10.49443	227053
10.50257	223801
10.51068	227792
10.51882	225023
10.52693	219420
10.53505	224821
10.54318	225624
10.55130	229310
10.55943	248308
10.56755	253756
10.57567	264039
10.58380	287862
10.59192	280043
10.60003	277950
10.60817	268212
10.61628	257396
10.62442	246028
10.63253	232137
10.64065	234092
10.64878	215189
10.65690	205308
10.66503	202310
10.67315	202965
10.68127	203694
10.68940	224377
10.69752	240292
10.70563	258674
10.71377	274290
10.72188	291880
10.73002	287507
10.73813	272867
10.74625	269923
10.75438	264796
10.76250	294039
10.77063	317943
10.77875	362829
10.78687	408911
10.79500	435262
10.80312	427396
10.81125	393079
10.81937	340769
10.82748	337034
10.83562	314701
10.84373	294131
10.85185	295685
10.85998	286644
10.86810	266794
10.87623	252489
10.88435	242063
10.89247	233411
10.90060	233139
10.90872	228456
10.91685	225579
10.92497	217375
10.93308	219370
10.94122	234218
10.94933	252444
10.95745	288761
10.96558	340496
10.97370	386210
10.98183	411363
10.98995	416947
10.99807	381326
11.00620	348667
11.01432	303391
11.02245	288771
11.03057	262924
11.03868	260099
11.04682	239068
11.05493	232955
11.06307	232635
11.07118	224561
11.07930	228397
11.08743	223774
11.09555	220325
11.10367	227172
11.11180	216505
11.11992	219699
11.12805	214482
11.13617	219123
11.14428	220646
11.15242	220986
11.16053	208957
11.16867	221430
11.17678	239889
11.18490	313681
11.19303	457383
11.20115	744096
11.20928	1083267
11.21740	1458712
11.22552	1668031
11.23365	1677682
11.24177	1520637
11.24988	1148112
11.25802	840435
11.26613	586204
11.27427	439560
11.28238	340733
11.29050	292689
11.29863	274804
11.30675	264137
11.31488	259484
11.32300	288561
11.33112	297768
11.33925	341855
11.34737	359024
11.35548	349054
11.36362	337781
11.37173	316364
11.37987	292861
11.38798	277457
11.39610	272768
11.40423	269462
11.41235	252999
11.42048	239526
11.42860	241736
11.43672	228249
11.44485	214235
11.45297	216544
11.46110	211738
11.46922	205371
11.47733	209116
11.48547	215505
11.49358	206743
11.50170	212356
11.50983	213477
11.51795	208560
11.52608	206350
11.53420	208443
11.54232	204587
11.55045	207727
11.55857	213192
11.56670	216994
11.57482	207958
11.58293	211953
11.59107	215820
11.59918	204041
11.60732	210590
11.61543	202948
11.62355	211353
11.63168	221472
11.63980	231208
11.64792	228449
11.65605	219203
11.66417	211535
11.67230	206015
11.68042	206571
11.68853	198484
11.69667	211588
11.70478	212251
11.71292	232617
11.72103	263142
11.72915	288205
11.73728	314556
11.74540	318725
11.75352	326999
11.76165	350555
11.76977	391197
11.77790	462255
11.78602	575910
11.79413	675789
11.80227	703768
11.81038	626541
11.81852	506304
11.82663	398866
11.83475	329815
11.84288	287910
11.85100	285950
11.85913	299446
11.86725	314458
11.87537	339622
11.88350	348352
11.89162	337988
11.89973	327566
11.90787	297925
11.91598	281780
11.92412	269160
11.93223	252961
11.94035	240758
11.94848	233131
11.95660	235644
11.96473	221935
11.97285	220296
11.98097	226029
11.98910	223993
11.99722	230401
12.00533	219311
12.01347	217242
12.02158	221194
12.02972	215734
12.03783	222053
12.04595	212441
12.05408	212945
12.06220	218633
12.07033	228373
12.07845	222062
12.08657	224078
12.09470	227264
12.10282	226727
12.11095	228423
12.11907	212784
12.12718	219245
12.13532	224045
12.14343	232080
12.15155	255365
12.15968	276958
12.16780	296319
12.17593	303905
12.18405	319752
12.19217	324218
12.20030	324180
12.20842	317161
12.21655	312055
12.22467	288179
12.23278	279580
12.24092	262539
12.24903	258623
12.25717	235588
12.26528	228434
12.27340	230181
12.28153	224973
12.28965	225987
12.29777	223344
12.30590	218109
12.31402	222083
12.32215	219165
12.33027	214672
12.33838	233810
12.34652	223196
12.35463	210739
12.36277	213190
12.37088	207442
12.37900	220679
12.38713	227076
12.39525	215983
12.40338	233151
12.41150	228021
12.41962	245406
12.42775	241218
12.43587	257701
12.44398	262610
12.45212	313302
12.46023	380123
12.46837	462984
12.47648	566547
12.48460	630952
12.49273	648264
12.50085	619327
12.50898	564895
12.51710	503330
12.52522	450112
12.53335	397310
12.54147	352058
12.54958	325529
12.55772	296065
12.56583	284545
12.57397	290718
12.58208	272302
12.59020	269840
12.59833	264933
12.60645	257772
12.61458	249091
12.62270	237003
12.63082	234723
12.63895	235733
12.64707	246370
12.65520	247732
12.66332	241868
12.67143	238448
12.67957	245496
12.68768	230035
12.69580	239588
12.70393	240782
12.71205	258943
12.72018	278048
12.72830	304167
12.73642	395802
12.74455	555345
12.75267	837978
12.76080	1128757
12.76892	1388701
12.77703	1444385
12.78517	1333718
12.79328	1126973
12.80140	896154
12.80953	723273
12.81765	590904
12.82578	515340
12.83390	457098
12.84202	426320
12.85015	418443
12.85827	413877
12.86640	422524
12.87452	395686
12.88263	383690
12.89077	357124
12.89888	346602
12.90702	324526
12.91513	314934
12.92325	300713
12.93138	299405
12.93950	279884
12.94762	280099
12.95575	276087
12.96387	284950
12.97200	286537
12.98012	282442
12.98823	293363
12.99637	293586
13.00448	294987
13.01262	305392
13.02073	298060
13.02885	298558
13.03698	283146
13.04510	280919
13.05323	266290
13.06135	272567
13.06947	256564
13.07760	259512
13.08572	264347
13.09383	274391
13.10197	297855
13.11008	313841
13.11822	315519
13.12633	311371
13.13445	322763
13.14258	318094
13.15070	295224
13.15883	303258
13.16695	286434
13.17507	288513
13.18320	290447
13.19132	334103
13.19943	425848
13.20757	625364
13.21568	935971
13.22382	1232290
13.23193	1447691
13.24005	1379109
13.24818	1100242
13.25630	784914
13.26443	531004
13.27255	386973
13.28067	325973
13.28880	309886
13.29692	289437
13.30505	283180
13.31317	275645
13.32128	259105
13.32942	251078
13.33753	253449
13.34565	255655
13.35378	245236
13.36190	261625
13.37003	251690
13.37815	252247
13.38627	258889
13.39440	257985
13.40252	240657
13.41065	240096
13.41877	246654
13.42688	241810
13.43502	232184
13.44313	232291
13.45127	232371
13.45938	238979
13.46750	230023
13.47563	225946
13.48375	215398
13.49187	221837
13.50000	237852
13.50812	232776
13.51625	233845
13.52437	226175
13.53248	222984
13.54062	226675
13.54873	218202
13.55687	223088
13.56498	230583
13.57310	234831
13.58123	229220
13.58935	246441
13.59747	240511
13.60560	242369
13.61372	233501
13.62185	238092
13.62997	231855
13.63808	224988
13.64622	218811
13.65433	223630
13.66247	219484
13.67058	219867
13.67870	221827
13.68683	214787
13.69495	204197
13.70308	212052
13.71120	207679
13.71932	210406
13.72745	209805
13.73557	225985
13.74368	209440
13.75182	212064
13.75993	210076
13.76807	208848
13.77618	211753
13.78430	206939
13.79243	205438
13.80055	214547
13.80868	218571
13.81680	214990
13.82492	226241
13.83305	230636
13.84117	225190
13.84928	235542
13.85742	247289
13.86553	261433
13.87367	288112
13.88178	286393
13.88990	296674
13.89803	278136
13.90615	280890
13.91428	270471
13.92240	310464
13.93052	393122
13.93865	536846
13.94677	671871
13.95490	806240
13.96302	799524
13.97113	728915
13.97927	575050
13.98738	441487
13.99550	347720
14.00363	292973
14.01175	277997
14.01988	262743
14.02800	246917
14.03612	261677
14.04425	257247
14.05237	266983
14.06050	308727
14.06862	396499
14.07673	574451
14.08487	784047
14.09298	943705
14.10112	943054
14.10923	808420
14.11735	610577
14.12548	442924
14.13360	333633
14.14172	297886
14.14985	273469
14.15797	273289
14.16610	289430
14.17422	332559
14.18233	501796
14.19047	1205642
14.19858	3526872
14.20672	9528041
14.21483	1.841034E+07
14.22295	2.523753E+07
14.23108	2.577826E+07
14.23920	2.142169E+07
14.24732	1.570964E+07
14.25545	9998299
14.26357	5873925
14.27170	3654413
14.27982	2482319
14.28793	1917327
14.29607	1549543
14.30418	1269724
14.31232	1083854
14.32043	950090
14.32855	813563
14.33668	737817
14.34480	713669
14.35293	643869
14.36105	595252
14.36917	548415
14.37730	491203
14.38542	425372
14.39353	379709
14.40167	342164
14.40978	324635
14.41792	307547
14.42603	305925
14.43415	304981
14.44228	309812
14.45040	298221
14.45853	291792
14.46665	305618
14.47477	302538
14.48290	296067
14.49102	298063
14.49915	299676
14.50727	282571
14.51538	285435
14.52352	298498
14.53163	311759
14.53975	329930
14.54788	361718
14.55600	395920
14.56413	414814
14.57225	391958
14.58037	363180
14.58850	327314
14.59662	319741
14.60475	308754
14.61287	293548
14.62098	282968
14.62912	273008
14.63723	261317
14.64535	245679
14.65348	250686
14.66160	246294
14.66973	240523
14.67785	235923
14.68597	240062
14.69410	241903
14.70222	247467
14.71035	251724
14.71847	253988
14.72658	268877
14.73472	286350
14.74283	293729
14.75097	296793
14.75908	305674
14.76720	290793
14.77533	283849
14.78345	270611
14.79157	258883
14.79970	252627
14.80782	245657
14.81595	254350
14.82407	267800
14.83218	299728
14.84032	351119
14.84843	424869
14.85657	501136
14.86468	555827
14.87280	556365
14.88093	536509
14.88905	512785
14.89718	491182
14.90530	474197
14.91342	444409
14.92155	443697
14.92967	431694
14.93778	420419
14.94592	420623
14.95403	427509
14.96217	402963
14.97028	398045
14.97840	398648
14.98653	373094
14.99465	374622
15.00278	350470
15.01090	347044
15.01902	332739
15.02715	340740
15.03527	333721
15.04338	314348
15.05152	312334
15.05963	317100
15.06777	302420
15.07588	312133
15.08400	295046
15.09213	293177
15.10025	292612
15.10838	289900
15.11650	288810
15.12462	288509
15.13275	289134
15.14087	292865
15.14900	281286
15.15712	294336
15.16523	274900
15.17337	278516
15.18148	278895
15.18960	289870
15.19773	307719
15.20585	318827
15.21398	328274
15.22210	302582
15.23022	306885
15.23835	299147
15.24647	291619
15.25460	291976
15.26272	285083
15.27083	284210
15.27897	289138
15.28708	292527
15.29520	265875
15.30333	256915
15.31145	246206
15.31958	239774
15.32770	257999
15.33582	243306
15.34395	240291
15.35207	245362
15.36020	237858
15.36832	232564
15.37643	223402
15.38457	228808
15.39268	230504
15.40082	237718
15.40893	229371
15.41705	231482
15.42518	229918
15.43330	241269
15.44142	232620
15.44955	235842
15.45767	229746
15.46580	218979
15.47392	226951
15.48203	228795
15.49017	251422
15.49828	264659
15.50642	300154
15.51453	346150
15.52265	402599
15.53078	450203
15.53890	434931
15.54703	392482
15.55515	335434
15.56327	306032
15.57140	260572
15.57952	242204
15.58763	235565
15.59577	233833
15.60388	234421
15.61202	225444
15.62013	215880
15.62825	220350
15.63638	218636
15.64450	221963
15.65263	217154
15.66075	214427
15.66887	218381
15.67700	226535
15.68512	212059
15.69323	219785
15.70137	226183
15.70948	220132
15.71762	221832
15.72573	209682
15.73385	216377
15.74198	210760
15.75010	226034
15.75823	236458
15.76635	243524
15.77447	265141
15.78260	285090
15.79072	311896
15.79885	325592
15.80697	307538
15.81508	309319
15.82322	280974
15.83133	266536
15.83945	252600
15.84758	241795
15.85570	235322
15.86383	236470
15.87195	231462
15.88007	229926
15.88820	229974
15.89632	225178
15.90445	225589
15.91257	239489
15.92068	244551
15.92882	246758
15.93693	246069
15.94507	248513
15.95318	248645
15.96130	246795
15.96943	241971
15.97755	233679
15.98567	235706
15.99380	231578
16.00192	287114
16.01005	448356
16.01817	875448
16.02628	1814386
16.03442	3447517
16.04253	5625351
16.05067	7952494
16.05878	9437244
16.06690	9559894
16.07503	8136095
16.08315	6141872
16.09127	4315245
16.09940	2947663
16.10752	2125743
16.11565	1648016
16.12377	1374723
16.13188	1222377
16.14002	1076692
16.14813	994705
16.15627	908547
16.16438	850046
16.17250	792529
16.18063	736070
16.18875	732708
16.19688	682924
16.20500	648094
16.21312	641496
16.22125	604051
16.22937	594343
16.23748	605986
16.24562	596748
16.25373	604744
16.26187	625428
16.26998	621972
16.27810	624365
16.28623	605892
16.29435	575657
16.30248	550917
16.31060	523469
16.31872	510333
16.32685	472499
16.33497	479656
16.34308	473486
16.35122	464195
16.35933	475276
16.36747	481077
16.37558	469707
16.38370	453720
16.39183	414869
16.39995	383531
16.40808	353688
16.41620	346757
16.42432	342515
16.43245	334286
16.44057	324817
16.44870	325241
16.45682	326300
16.46493	323539
16.47307	320857
16.48118	339486
16.48930	343429
16.49743	354916
16.50555	360051
16.51368	373919
16.52180	374803
16.52992	377440
16.53805	364320
16.54617	354932
16.55430	336321
16.56242	324232
16.57053	315130
16.57867	309372
16.58678	306739
16.59492	310377
16.60303	298458
16.61115	294408
16.61928	282919
16.62740	280119
16.63552	286688
16.64365	283655
16.65177	288793
16.65990	281954
16.66802	282999
16.67613	279666
16.68427	273779
16.69238	273051
16.70052	259878
16.70863	267695
16.71675	271658
16.72488	260374
16.73300	265304
16.74112	259963
16.74925	249056
16.75737	238160
16.76550	234824
16.77362	236603
16.78173	234037
16.78987	236487
16.79798	232980
16.80612	235291
16.81423	236806
16.82235	228875
16.83048	235420
16.83860	227810
16.84673	231617
16.85485	233032
16.86297	230227
16.87110	230222
16.87922	225491
16.88733	226739
16.89547	242795
16.90358	223200
16.91172	236520
16.91983	242012
16.92795	252034
16.93608	258171
16.94420	270546
16.95233	271789
16.96045	275256
16.96857	277965
16.97670	260456
16.98482	250849
16.99295	234561
17.00107	246482
17.00918	236151
17.01732	248873
17.02543	265092
17.03355	280366
17.04168	292308
17.04980	284440
17.05793	273910
17.06605	254847
17.07417	246541
17.08230	245801
17.09042	251237
17.09855	260216
17.10667	278035
17.11478	311204
17.12292	334082
17.13103	368579
17.13915	379018
17.14728	354144
17.15540	346642
17.16353	325621
17.17165	301853
17.17977	279238
17.18790	284701
17.19602	258063
17.20415	253944
17.21227	255682
17.22038	240915
17.22852	243425
17.23663	233572
17.24477	229067
17.25288	234048
17.26100	241946
17.26913	250383
17.27725	269785
17.28537	279126
17.29350	291084
17.30162	299676
17.30975	285205
17.31787	288112
17.32598	268919
17.33412	255676
17.34223	253983
17.35037	263105
17.35848	276185
17.36660	330827
17.37473	416825
17.38285	538744
17.39097	655181
17.39910	698088
17.40722	641133
17.41535	523075
17.42347	408078
17.43158	331183
17.43972	286500
17.44783	277653
17.45597	267016
17.46408	269125
17.47220	270982
17.48033	256393
17.48845	263254
17.49658	269958
17.50470	268784
17.51282	259656
17.52095	279527
17.52907	279180
17.53718	288314
17.54532	302492
17.55343	311818
17.56157	313320
17.56968	311764
17.57780	293851
17.58593	287492
17.59405	277471
17.60218	275771
17.61030	269394
17.61842	264161
17.62655	262941
17.63467	269486
17.64280	265073
17.65092	256720
17.65903	262601
17.66717	268099
17.67528	256671
17.68340	271548
17.69153	277666
17.69965	284946
17.70778	284674
17.71590	313758
17.72402	372119
17.73215	445646
17.74027	529544
17.74840	545962
17.75652	514264
17.76463	433870
17.77277	354336
17.78088	304097
17.78902	286491
17.79713	265559
17.80525	255606
17.81338	264684
17.82150	258226
17.82962	253244
17.83775	259257
17.84587	279843
17.85400	301766
17.86212	323202
17.87023	335866
17.87837	338328
17.88648	328635
17.89462	324643
17.90273	293410
17.91085	276029
17.91898	266994
17.92710	266359
17.93522	262122
17.94335	247019
17.95147	246655
17.95960	230887
17.96772	234007
17.97583	234850
17.98397	231253
17.99208	233202
18.00022	232370
18.00833	242931
18.01645	300890
18.02458	521581
18.03270	970639
18.04083	1400306
18.04895	1652916
18.05707	1749613
18.06520	1788302
18.07332	1846882
18.08143	1894970
18.08957	2008598
18.09768	2188530
18.10582	2394251
18.11393	2572662
18.12205	2588936
18.13018	2537597
18.13830	2379809
18.14643	2252518
18.15455	2113589
18.16267	2077511
18.17080	2046844
18.17892	1988111
18.18703	1945011
18.19517	1800086
18.20328	1711732
18.21142	1625193
18.21953	1555618
18.22765	1502525
18.23578	1455978
18.24390	1459078
18.25203	1378372
18.26015	1392382
18.26827	1385492
18.27640	1380121
18.28452	1363173
18.29265	1339907
18.30077	1291229
18.30888	1213138
18.31702	1153957
18.32513	1110953
18.33325	1096883
18.34138	1072527
18.34950	1040650
18.35763	1063927
18.36575	1040184
18.37387	987938
18.38200	984999
18.39012	970845
18.39825	960839
18.40637	926826
18.41448	940733
18.42262	927800
18.43073	897074
18.43887	895284
18.44698	902469
18.45510	869175
18.46323	862709
18.47135	853185
18.47947	848335
18.48760	833657
18.49572	839407
18.50385	844163
18.51197	829494
18.52008	821577
18.52822	791637
18.53633	786896
18.54447	787386
18.55258	776891
18.56070	747204
18.56883	752803
18.57695	744672
18.58507	723596
18.59320	732409
18.60132	741912
18.60945	768966
18.61757	763088
18.62568	753095
18.63382	774458
18.64193	771089
18.65007	757461
18.65818	740234
18.66630	762054
18.67443	787766
18.68255	802580
18.69068	785267
18.69880	765087
18.70692	714717
18.71505	680187
18.72317	656365
18.73128	656168
18.73942	639573
18.74753	645706
18.75567	621295
18.76378	612058
18.77190	617250
18.78003	607607
18.78815	599104
18.79628	596146
18.80440	600138
18.81252	584199
18.82065	577069
18.82877	585785
18.83690	575293
18.84502	577808
18.85313	563376
18.86127	561150
18.86938	565004
18.87750	554897
18.88563	588745
18.89375	576962
18.90188	587116
18.91000	592822
18.91812	584986
18.92625	562050
18.93437	554034
18.94250	558128
18.95062	549517
18.95873	547905
18.96687	537212
18.97498	526541
18.98310	529694
18.99123	556556
18.99935	573304
19.00748	581872
19.01560	579519
19.02372	568436
19.03185	534712
19.03997	513499
19.04810	501076
19.05622	510103
19.06433	492546
19.07247	500769
19.08058	516281
19.08872	535480
19.09683	595971
19.10495	722225
19.11308	891052
19.12120	1045603
19.12932	1193067
19.13745	1176795
19.14557	1101673
19.15370	947738
19.16182	843058
19.16993	741600
19.17807	672475
19.18618	637552
19.19432	626501
19.20243	589981
19.21055	574727
19.21868	554855
19.22680	552499
19.23492	548084
19.24305	540409
19.25117	509530
19.25930	513556
19.26742	539105
19.27553	605935
19.28367	796982
19.29178	1142337
19.29992	1636515
19.30803	2320350
19.31615	2907624
19.32428	3221313
19.33240	3096082
19.34053	2636577
19.34865	2108341
19.35677	1705880
19.36490	1460754
19.37302	1313204
19.38113	1207451
19.38927	1073123
19.39738	940748
19.40552	837561
19.41363	737334
19.42175	687918
19.42988	653634
19.43800	621693
19.44613	620582
19.45425	638838
19.46237	820893
19.47050	1475425
19.47862	3294518
19.48675	6967794
19.49487	1.314152E+07
19.50298	2.083913E+07
19.51112	2.835583E+07
19.51923	3.315296E+07
19.52735	3.244278E+07
19.53548	2.643237E+07
19.54360	1.814963E+07
19.55173	1.053306E+07
19.55985	5440691
19.56797	2707573
19.57610	1495038
19.58422	975552
19.59235	821229
19.60047	753603
19.60858	699143
19.61672	704373
19.62483	671827
19.63295	730399
19.64108	977729
19.64920	1842075
19.65733	4124506
19.66545	8884263
19.67357	1.573876E+07
19.68170	2.240423E+07
19.68982	2.652912E+07
19.69795	2.725253E+07
19.70607	2.324614E+07
19.71418	1.701247E+07
19.72232	1.101465E+07
19.73043	6954449
19.73857	4431443
19.74668	3049490
19.75480	2284803
19.76293	1875127
19.77105	1549571
19.77917	1348821
19.78730	1182069
19.79542	1090591
19.80355	1002696
19.81167	922379
19.81978	875124
19.82792	818577
19.83603	781296
19.84417	752008
19.85228	747572
19.86040	728144
19.86853	707955
19.87665	682652
19.88478	720452
19.89290	799441
19.90102	947921
19.90915	1141930
19.91727	1367067
19.92538	1523790
19.93352	1602313
19.94163	1508842
19.94977	1334634
19.95788	1172506
19.96600	1056272
19.97413	948644
19.98225	884428
19.99038	839894
19.99850	811863
20.00662	794271
20.01475	781082
20.02287	796651
20.03098	818398
20.03912	817786
20.04723	811075
20.05537	764438
20.06348	716946
20.07160	679889
20.07973	615240
20.08785	587164
20.09598	572132
20.10410	554893
20.11222	548354
20.12035	550575
20.12847	553682
20.13660	544239
20.14472	532767
20.15283	524212
20.16097	527222
20.16908	524271
20.17720	523815
20.18533	508271
20.19345	500908
20.20158	507977
20.20970	495836
20.21782	491729
20.22595	517849
20.23407	556770
20.24220	691918
20.25032	1204793
20.25843	2839524
20.26657	7395876
20.27468	1.643918E+07
20.28282	2.816715E+07
20.29093	3.657334E+07
20.29905	3.891633E+07
20.30718	3.60037E+07
20.31530	2.889853E+07
20.32342	2.024862E+07
20.33155	1.249041E+07
20.33967	7317043
20.34780	4346835
20.35592	2768477
20.36403	1973698
20.37217	1569588
20.38028	1320895
20.38842	1216159
20.39653	1145016
20.40465	1095831
20.41278	1151179
20.42090	1408628
20.42902	2143651
20.43715	3606422
20.44527	5985291
20.45340	8490429
20.46152	1.034166E+07
20.46963	1.043325E+07
20.47777	9274229
20.48588	7123089
20.49402	4825703
20.50213	3197255
20.51025	2098930
20.51838	1482160
20.52650	1187275
20.53463	1013273
20.54275	906026
20.55087	818850
20.55900	778072
20.56712	728622
20.57523	712351
20.58337	673830
20.59148	661680
20.59962	641055
20.60773	633301
20.61585	625371
20.62398	656417
20.63210	716285
20.64023	792109
20.64835	864837
20.65647	929444
20.66460	900788
20.67272	863048
20.68083	776291
20.68897	688075
20.69708	633814
20.70522	599802
20.71333	593082
20.72145	579303
20.72958	560234
20.73770	552038
20.74583	532901
20.75395	552582
20.76207	555160
20.77020	534397
20.77832	531472
20.78645	526127
20.79457	520083
20.80268	509841
20.81082	515473
20.81893	511551
20.82705	529173
20.83518	534571
20.84330	525610
20.85143	501654
20.85955	514210
20.86767	494638
20.87580	508010
20.88392	526505
20.89205	523546
20.90017	510782
20.90828	507816
20.91642	490565
20.92453	472053
20.93267	468883
20.94078	457886
20.94890	468196
20.95703	467537
20.96515	454322
20.97327	451128
20.98140	461465
20.98952	448514
20.99765	446380
21.00577	461406
21.01388	450547
21.02202	438524
21.03013	434713
21.03827	443496
21.04638	440523
21.05450	447523
21.06263	442212
21.07075	454792
21.07887	459048
21.08700	440056
21.09512	429614
21.10325	434870
21.11137	433275
21.11948	414116
21.12762	418534
21.13573	427004
21.14387	431876
21.15198	457652
21.16010	478482
21.16823	518143
21.17635	555570
21.18448	572739
21.19260	596906
21.20072	578154
21.20885	539865
21.21697	503993
21.22508	483931
21.23322	483726
21.24133	468660
21.24947	454499
21.25758	460502
21.26570	453594
21.27383	456462
21.28195	480049
21.29008	499207
21.29820	500717
21.30632	525474
21.31445	517988
21.32257	483312
21.33070	465867
21.33882	439514
21.34693	428005
21.35507	422080
21.36318	423055
21.37130	434719
21.37943	455363
21.38755	471470
21.39568	498093
21.40380	521500
21.41192	553810
21.42005	557779
21.42817	565742
21.43630	565025
21.44442	536171
21.45253	533574
21.46067	534444
21.46878	524673
21.47690	505589
21.48503	470261
21.49315	463817
21.50128	445646
21.50940	438104
21.51752	422059
21.52565	428170
21.53377	415023
21.54190	450248
21.55002	478435
21.55813	542351
21.56627	610399
21.57438	650033
21.58252	623722
21.59063	560032
21.59875	534481
21.60688	545582
21.61500	800772
21.62312	1506518
21.63125	3475247
21.63937	7397532
21.64750	1.244E+07
21.65562	1.534504E+07
21.66373	1.531719E+07
21.67187	1.247219E+07
21.67998	8544053
21.68812	5194584
21.69623	3022988
21.70435	1783611
21.71248	1199539
21.72060	907823
21.72872	775010
21.73685	682776
21.74497	639494
21.75310	595952
21.76122	544704
21.76933	543154
21.77747	528640
21.78558	524796
21.79372	538054
21.80183	589934
21.80995	800569
21.81808	1333975
21.82620	2556181
21.83433	4877219
21.84245	7509494
21.85057	9351689
21.85870	9533899
21.86682	7734479
21.87493	5683300
21.88307	3673752
21.89118	2238846
21.89932	1393712
21.90743	957092
21.91555	728591
21.92368	628330
21.93180	579831
21.93993	607999
21.94805	633559
21.95617	690713
21.96430	713897
21.97242	681600
21.98055	640251
21.98867	569207
21.99678	518246
22.00492	468402
22.01303	452064
22.02115	431299
22.02928	430401
22.03740	422321
22.04553	420907
22.05365	422454
22.06177	416544
22.06990	419680
22.07802	441775
22.08615	436707
22.09427	465408
22.10238	479910
22.11052	480981
22.11863	489438
22.12675	499648
22.13488	490591
22.14300	487505
22.15113	503822
22.15925	543860
22.16737	589394
22.17550	651892
22.18362	680387
22.19175	693918
22.19987	688066
22.20798	728539
22.21612	855808
22.22423	1157987
22.23237	1553296
22.24048	2037420
22.24860	2400584
22.25673	2470866
22.26485	2080665
22.27297	1605761
22.28110	1208464
22.28922	864657
22.29735	688970
22.30547	572239
22.31358	537048
22.32172	523382
22.32983	513325
22.33797	503474
22.34608	509035
22.35420	521057
22.36233	524482
22.37045	557508
22.37858	581640
22.38670	570264
22.39482	563088
22.40295	534517
22.41107	531271
22.41918	536170
22.42732	536670
22.43543	582482
22.44357	654606
22.45168	808493
22.45980	1016527
22.46793	1315493
22.47605	1550671
22.48418	1701010
22.49230	1670315
22.50042	1472198
22.50855	1217009
22.51667	992772
22.52478	820167
22.53292	708479
22.54103	647065
22.54917	613995
22.55728	576488
22.56540	562779
22.57353	570570
22.58165	593813
22.58978	603124
22.59790	626465
22.60602	614930
22.61415	594968
22.62227	556712
22.63040	533742
22.63852	527365
22.64663	529354
22.65477	536237
22.66288	553341
22.67100	575739
22.67913	569783
22.68725	527468
22.69538	525196
22.70350	499272
22.71162	513024
22.71975	515624
22.72787	505575
22.73600	516748
22.74412	497426
22.75223	476004
22.76037	476689
22.76848	467211
22.77662	461410
22.78473	453787
22.79285	440610
22.80098	447063
22.80910	443852
22.81722	445046
22.82535	450900
22.83347	470239
22.84160	494184
22.84972	541333
22.85783	600852
22.86597	649851
22.87408	686751
22.88222	648333
22.89033	604244
22.89845	546328
22.90658	522492
22.91470	525186
22.92282	559380
22.93095	621567
22.93907	699431
22.94720	791817
22.95532	821487
22.96343	829071
22.97157	839563
22.97968	748797
22.98782	722379
22.99593	659415
23.00405	625321
23.01218	617020
23.02030	598076
23.02843	575659
23.03655	553250
23.04467	543588
23.05280	520216
23.06092	492397
23.06903	484608
23.07717	492102
23.08528	518162
23.09342	543200
23.10153	600729
23.10965	597537
23.11778	581423
23.12590	541200
23.13403	488505
23.14215	470972
23.15027	441495
23.15840	415126
23.16652	420121
23.17465	426163
23.18277	451555
23.19088	469359
23.19902	475552
23.20713	470276
23.21525	456440
23.22338	435224
23.23150	431697
23.23963	417994
23.24775	418101
23.25587	406144
23.26400	407230
23.27212	416115
23.28025	408465
23.28837	406765
23.29648	421091
23.30462	419492
23.31273	408215
23.32085	407049
23.32898	409502
23.33710	406398
23.34523	427322
23.35335	434314
23.36147	459043
23.36960	470028
23.37772	498435
23.38585	519370
23.39397	506582
23.40208	466796
23.41022	472042
23.41833	455362
23.42647	451474
23.43458	465060
23.44270	463728
23.45083	456723
23.45895	450809
23.46707	441058
23.47520	439342
23.48332	420965
23.49145	447050
23.49957	427762
23.50768	435836
23.51582	442939
23.52393	454148
23.53207	450993
23.54018	447865
23.54830	450877
23.55643	455074
23.56455	465601
23.57267	455011
23.58080	478496
23.58892	461274
23.59705	463917
23.60517	446471
23.61328	437804
23.62142	433332
23.62953	419333
23.63767	423669
23.64578	420256
23.65390	417352
23.66203	439059
23.67015	459074
23.67828	500875
23.68640	523268
23.69452	525054
23.70265	541779
23.71077	503430
23.71888	478642
23.72702	439524
23.73513	426903
23.74327	426544
23.75138	429536
23.75950	514958
23.76763	857684
23.77575	1727409
23.78388	3588901
23.79200	5950358
23.80012	8157962
23.80825	9281787
23.81637	9064684
23.82450	7487188
23.83262	5462701
23.84073	3661425
23.84887	2517755
23.85698	1821915
23.86510	1453376
23.87323	1236528
23.88135	1102390
23.88948	994997
23.89760	910896
23.90572	854692
23.91385	840657
23.92197	785656
23.93010	745068
23.93822	743290
23.94633	731599
23.95447	695886
23.96258	695046
23.97070	681690
23.97883	682604
23.98695	669572
23.99508	691266
24.00320	696670
24.01132	676042
24.01945	703990
24.02757	693508
24.03570	651965
24.04382	668560
24.05193	669169
24.06007	658010
24.06818	673846
24.07632	658810
24.08443	671245
24.09255	631261
24.10068	625760
24.10880	610534
24.11692	653998
24.12505	780795
24.13317	1077848
24.14130	1581756
24.14942	2227467
24.15753	2754418
24.16567	2852990
24.17378	2607587
24.18192	2088867
24.19003	1623176
24.19815	1333311
24.20628	1379339
24.21440	1756345
24.22253	2470998
24.23065	3336472
24.23877	3876407
24.24690	3795289
24.25502	3188571
24.26313	2360425
24.27127	1644365
24.27938	1155202
24.28752	893437
24.29563	771108
24.30375	700667
24.31188	669365
24.32000	665987
24.32813	657059
24.33625	634991
24.34437	649143
24.35250	669684
24.36062	717893
24.36873	841275
24.37687	1181035
24.38498	2038359
24.39312	3963326
24.40123	6825287
24.40935	9539686
24.41748	9910532
24.42560	8512886
24.43373	6118044
24.44185	3828921
24.44997	2175924
24.45810	1232413
24.46622	777496
24.47435	643235
24.48247	614174
24.49058	706826
24.49872	1007272
24.50683	1719081
24.51495	3004876
24.52308	4710810
24.53120	5818615
24.53933	5730276
24.54745	4883542
24.55557	3743194
24.56370	2638710
24.57182	1783151
24.57995	1263170
24.58807	952026
24.59618	834703
24.60432	753988
24.61243	725407
24.62055	684610
24.62868	696672
24.63680	722922
24.64493	710969
24.65305	732235
24.66117	747685
24.66930	759789
24.67742	753327
24.68555	773851
24.69367	747489
24.70178	703391
24.70992	653455
24.71803	615167
24.72617	565596
24.73428	541902
24.74240	524482
24.75053	511737
24.75865	510090
24.76677	516468
24.77490	516516
24.78302	514526
24.79115	502556
24.79927	530093
24.80738	534049
24.81552	574370
24.82363	606348
24.83177	613532
24.83988	615915
24.84800	637928
24.85613	659143
24.86425	661791
24.87238	672493
24.88050	685286
24.88862	728637
24.89675	743769
24.90487	757771
24.91298	736416
24.92112	768347
24.92923	755754
24.93737	742739
24.94548	688364
24.95360	665480
24.96173	666473
24.96985	640072
24.97798	615612
24.98610	623226
24.99422	607981
25.00235	612974
25.01047	615152
25.01858	613434
25.02672	622609
25.03483	642651
25.04297	675615
25.05108	718260
25.05920	763332
25.06733	776596
25.07545	763426
25.08358	747068
25.09170	710014
25.09982	662619
25.10795	663707
25.11607	639451
25.12420	649402
25.13232	659501
25.14043	716004
25.14857	805233
25.15668	918479
25.16480	1032611
25.17293	1110009
25.18105	1078835
25.18918	1057083
25.19730	1005263
25.20542	949588
25.21355	872654
25.22167	823042
25.22980	789659
25.23792	752228
25.24603	745422
25.25417	726608
25.26228	698249
25.27042	693238
25.27853	659391
25.28665	638592
25.29478	641627
25.30290	635624
25.31102	626240
25.31915	615238
25.32727	636161
25.33540	638648
25.34352	660580
25.35163	651946
25.35977	645456
25.36788	653115
25.37602	665187
25.38413	691911
25.39225	655027
25.40038	625507
25.40850	600307
25.41662	571764
25.42475	535334
25.43287	528515
25.44100	512773
25.44912	512833
25.45723	525959
25.46537	586286
25.47348	726696
25.48162	996834
25.48973	1376207
25.49785	1872824
25.50598	2292951
25.51410	2414065
25.52223	2304763
25.53035	1986794
25.53847	1602335
25.54660	1273162
25.55472	1072817
25.56283	921866
25.57097	814397
25.57908	761690
25.58722	701643
25.59533	666322
25.60345	625054
25.61158	603389
25.61970	601979
25.62783	582140
25.63595	564999
25.64407	533282
25.65220	525273
25.66032	512895
25.66845	500707
25.67657	485940
25.68468	482501
25.69282	490204
25.70093	485728
25.70905	491920
25.71718	509342
25.72530	522040
25.73343	533740
25.74155	529892
25.74967	517991
25.75780	501035
25.76592	484429
25.77405	468437
25.78217	478468
25.79028	489393
25.79842	496000
25.80653	518892
25.81465	549480
25.82278	553526
25.83090	539899
25.83903	531941
25.84715	516264
25.85527	510264
25.86340	533190
25.87152	531007
25.87965	523683
25.88777	506625
25.89588	460515
25.90402	430171
25.91213	428456
25.92027	422693
25.92838	438285
25.93650	433236
25.94463	448347
25.95275	441428
25.96087	453268
25.96900	468234
25.97712	467443
25.98525	466749
25.99337	455765
26.00148	440265
26.00962	421130
26.01773	411185
26.02587	397938
26.03398	405584
26.04210	412593
26.05023	424168
26.05835	434767
26.06647	448441
26.07460	468416
26.08272	486104
26.09085	506434
26.09897	503884
26.10708	1388173
26.11522	2187468
26.12333	2368521
26.13147	2217486
26.13958	1946754
26.14770	1760954
26.15583	1608285
26.16395	1452745
26.17208	1375115
26.18020	1268815
26.18832	1149008
26.19645	1038821
26.20457	933914
26.21268	820193
26.22082	714131
26.22893	634689
26.23707	592443
26.24518	552965
26.25330	541227
26.26143	530821
26.26955	572505
26.27768	609105
26.28580	633133
26.29392	619399
26.30205	615205
26.31017	580811
26.31830	555687
26.32642	550595
26.33453	535909
26.34267	535077
26.35078	510329
26.35890	529469
26.36703	520132
26.37515	542425
26.38328	555971
26.39140	552068
26.39952	563023
26.40765	559585
26.41577	577954
26.42390	583670
26.43202	590904
26.44013	586334
26.44827	561686
26.45638	541819
26.46450	538024
26.47263	531910
26.48075	557385
26.48888	565638
26.49700	570445
26.50512	585821
26.51325	600033
26.52137	622369
26.52950	625603
26.53762	643088
26.54573	642368
26.55387	654509
26.56198	648556
26.57012	653693
26.57823	696611
26.58635	701327
26.59448	704664
26.60260	721519
26.61072	721618
26.61885	731437
26.62697	747150
26.63510	759190
26.64322	753576
26.65133	780519
26.65947	775826
26.66758	782236
26.67572	814716
26.68383	809376
26.69195	817709
26.70008	814811
26.70820	813928
26.71633	811802
26.72445	863246
26.73257	909473
26.74070	939260
26.74882	952464
26.75693	883210
26.76507	775452
26.77318	696118
26.78132	624154
26.78943	553352
26.79755	521819
26.80568	486356
26.81380	476936
26.82193	490961
26.83005	481658
26.83817	522478
26.84630	556371
26.85442	652924
26.86253	758574
26.87067	927520
26.87878	1067767
26.88692	1074803
26.89503	984223
26.90315	843403
26.91128	672803
26.91940	576456
26.92753	534313
26.93565	620553
26.94377	1017336
26.95190	2681481
26.96002	8264200
26.96815	2.390699E+07
26.97627	4.806537E+07
26.98438	7.029617E+07
26.99252	8.859331E+07
27.00063	9.858855E+07
27.00875	1.030986E+08
27.01688	1.001527E+08
27.02500	8.892526E+07
27.03313	7.164412E+07
27.04125	5.461889E+07
27.04937	4.033144E+07
27.05750	2.843919E+07
27.06562	2.026897E+07
27.07375	1.465451E+07
27.08187	1.097239E+07
27.08998	8847660
27.09812	7436933
27.10623	6474315
27.11435	5869641
27.12248	5195897
27.13060	4832428
27.13873	4489481
27.14685	4113528
27.15497	3875900
27.16310	3749297
27.17122	3494220
27.17935	3305052
27.18747	3132056
27.19558	2971748
27.20372	2908112
27.21183	2805471
27.21997	2664241
27.22808	2517068
27.23620	2388988
27.24433	2369107
27.25245	2283034
27.26057	2184094
27.26870	2140253
27.27682	2030300
27.28495	2004995
27.29307	1954920
27.30118	1953211
27.30932	1906039
27.31743	1833036
27.32557	1796572
27.33368	1777755
27.34180	1729699
27.34993	1696712
27.35805	1636678
27.36618	1618610
27.37430	1597098
27.38242	1614235
27.39055	1628958
27.39867	1613132
27.40678	1573804
27.41492	1598753
27.42303	1565103
27.43117	1537002
27.43928	1481747
27.44740	1453190
27.45553	1407422
27.46365	1421149
27.47178	1402484
27.47990	1440350
27.48802	1402309
27.49615	1338460
27.50427	1346467
27.51240	1368759
27.52052	1470711
27.52863	1652374
27.53677	1954933
27.54488	2220827
27.55300	2268539
27.56113	2097026
27.56925	1849363
27.57738	1633009
27.58550	1507535
27.59362	1441062
27.60175	1452763
27.60987	1595593
27.61800	1765502
27.62612	1903957
27.63423	1882020
27.64237	1802229
27.65048	1625880
27.65860	1439257
27.66673	1350448
27.67485	1255867
27.68298	1188448
27.69110	1166616
27.69922	1141734
27.70735	1106239
27.71547	1095005
27.72360	1092360
27.73172	1071728
27.73983	1086973
27.74797	1090369
27.75608	1090907
27.76422	1103228
27.77233	1146685
27.78045	1140250
27.78858	1144470
27.79670	1103663
27.80482	1132938
27.81295	1106512
27.82107	1078443
27.82920	1097025
27.83732	1083293
27.84543	1064323
27.85357	1106091
27.86168	1123653
27.86982	1138005
27.87793	1211825
27.88605	1223929
27.89418	1235949
27.90230	1231671
27.91042	1190432
27.91855	1128142
27.92667	1025466
27.93480	992015
27.94292	965396
27.95103	932411
27.95917	918354
27.96728	944901
27.97542	937370
27.98353	983352
27.99165	990406
27.99978	1015313
28.00790	1029464
28.01603	1013450
28.02415	987107
28.03227	941810
28.04040	877060
28.04852	844358
28.05663	836799
28.06477	824781
28.07288	814220
28.08102	802285
28.08913	796550
28.09725	788957
28.10538	765979
28.11350	766592
28.12163	734202
28.12975	742570
28.13787	736783
28.14600	709203
28.15412	709075
28.16223	712469
28.17037	693774
28.17848	729976
28.18662	794856
28.19473	979873
28.20285	1347552
28.21098	1934871
28.21910	2508651
28.22723	2737743
28.23535	2613204
28.24347	2287539
28.25160	2045870
28.25972	2357192
28.26785	4305203
28.27597	1.01014E+07
28.28408	2.162442E+07
28.29222	3.738324E+07
28.30033	5.488001E+07
28.30845	6.758606E+07
28.31658	7.559127E+07
28.32470	7.778237E+07
28.33283	7.345032E+07
28.34095	6.718115E+07
28.34907	6.024298E+07
28.35720	5.255793E+07
28.36532	4.497152E+07
28.37345	3.683267E+07
28.38157	3.145314E+07
28.38968	2.696663E+07
28.39782	2.301976E+07
28.40593	1.921189E+07
28.41407	1.587014E+07
28.42218	1.317673E+07
28.43030	1.073784E+07
28.43843	9316772
28.44655	7788183
28.45467	6764169
28.46280	6136677
28.47092	5528937
28.47905	4968602
28.48717	4549207
28.49528	4298548
28.50342	3985995
28.51153	3785584
28.51967	3646273
28.52778	3462396
28.53590	3248618
28.54403	3173274
28.55215	3010127
28.56028	2894520
28.56840	2798187
28.57652	2677138
28.58465	2595087
28.59277	2495673
28.60088	2429060
28.60902	2309369
28.61713	2238139
28.62527	2205395
28.63338	2128374
28.64150	2119008
28.64963	2103432
28.65775	2117421
28.66588	2139291
28.67400	2139215
28.68212	2023124
28.69025	1991229
28.69837	1912216
28.70648	1866629
28.71462	1793092
28.72273	1761666
28.73087	1743514
28.73898	1740988
28.74710	1926453
28.75523	2486282
28.76335	3758658
28.77148	5599882
28.77960	6992941
28.78772	7180952
28.79585	6249848
28.80397	4741307
28.81210	3450657
28.82022	2468527
28.82833	1938030
28.83647	1620451
28.84458	1546703
28.85270	1493985
28.86083	1469283
28.86895	1429685
28.87708	1448305
28.88520	1407181
28.89332	1429340
28.90145	1414391
28.90957	1427491
28.91770	1424240
28.92582	1442255
28.93393	1417292
28.94207	1379942
28.95018	1383815
28.95830	1358999
28.96643	1357928
28.97455	1361161
28.98268	1369248
28.99080	1351640
28.99892	1330585
29.00705	1340197
29.01517	1331424
29.02330	1318418
29.03142	1310887
29.03953	1313308
29.04767	1275035
29.05578	1268514
29.06392	1256768
29.07203	1277493
29.08015	1232838
29.08828	1238134
29.09640	1240084
29.10452	1239427
29.11265	1234389
29.12077	1248169
29.12890	1255700
29.13702	1245547
29.14513	1251657
29.15327	1236330
29.16138	1244607
29.16952	1255385
29.17763	1254235
29.18575	1275649
29.19388	1237987
29.20200	1200427
29.21013	1188723
29.21825	1155380
29.22637	1156084
29.23450	1177665
29.24262	1186517
29.25073	1194665
29.25887	1241621
29.26698	1239224
29.27512	1261977
29.28323	1284116
29.29135	1256093
29.29948	1271454
29.30760	1232797
29.31573	1222319
29.32385	1225345
29.33197	1223881
29.34010	1186142
29.34822	1176097
29.35633	1174594
29.36447	1139898
29.37258	1146646
29.38072	1146595
29.38883	1173986
29.39695	1234820
29.40508	1289919
29.41320	1377272
29.42133	1452244
29.42945	1477439
29.43757	1500801
29.44570	1442981
29.45382	1349293
29.46195	1231295
29.47007	1137987
29.47818	1064273
29.48632	1035122
29.49443	1092876
29.50255	1201175
29.51068	1273526
29.51880	1368226
29.52693	1371790
29.53505	1310200
29.54317	1206022
29.55130	1150939
29.55942	1040573
29.56755	959854
29.57567	923930
29.58378	906951
29.59192	897443
29.60003	869101
29.60817	861440
29.61628	875542
29.62440	847270
29.63253	891448
29.64065	906810
29.64877	941597
29.65690	952811
29.66502	969324
29.67315	992994
29.68127	938204
29.68938	920348
29.69752	882370
29.70563	850486
29.71377	834180
29.72188	820182
29.73000	831277
29.73813	842510
29.74625	866825
29.75437	910025
29.76250	893486
29.77062	879052
29.77875	867808
29.78687	823069
29.79498	777318
29.80312	773985
29.81123	780726
29.81937	744510
29.82748	753273
29.83560	732181
29.84373	723516
29.85185	724475
29.85998	721397
29.86810	732930
29.87622	742020
29.88435	765150
29.89247	826066
29.90058	912230
29.90872	1014568
29.91683	1110300
29.92497	1189617
29.93308	1371907
29.94120	1690600
29.94933	2518364
29.95745	4235957
29.96558	7285721
29.97370	1.155523E+07
29.98182	1.736082E+07
29.98995	2.333247E+07
29.99807	2.762243E+07
30.00618	3.051783E+07
30.01432	3.147658E+07
30.02243	3.088437E+07
30.03057	2.947535E+07
30.03868	2.740725E+07
30.04680	2.454767E+07
30.05493	2.151966E+07
30.06305	1.825128E+07
30.07118	1.509686E+07
30.07930	1.222304E+07
30.08742	1.015526E+07
30.09555	8552295
30.10367	6990194
30.11180	5832808
30.11992	4951999
30.12803	4176477
30.13617	3564125
30.14428	3126620
30.15240	2945901
30.16053	2881003
30.16865	2849903
30.17678	2756866
30.18490	2558668
30.19302	2362982
30.20115	2093457
30.20927	1885738
30.21740	1736569
30.22552	1702936
30.23363	1682284
30.24177	1663851
30.24988	1621785
30.25802	1532044
30.26613	1427167
30.27425	1357714
30.28238	1321644
30.29050	1275161
30.29862	1264091
30.30675	1236585
30.31487	1261046
30.32300	1196367
30.33112	1202390
30.33923	1210712
30.34737	1208707
30.35548	1214730
30.36362	1217417
30.37173	1197564
30.37985	1167110
30.38798	1149220
30.39610	1148591
30.40422	1171936
30.41235	1240604
30.42047	1322668
30.42860	1384210
30.43672	1457338
30.44483	1467527
30.45297	1441920
30.46108	1365761
30.46922	1272763
30.47733	1236486
30.48545	1212662
30.49358	1185400
30.50170	1190605
30.50983	1188131
30.51795	1213181
30.52607	1216063
30.53420	1192003
30.54232	1245929
30.55043	1259272
30.55857	1278444
30.56668	1252840
30.57482	1242223
30.58293	1214394
30.59105	1181857
30.59918	1138892
30.60730	1152881
30.61543	1130196
30.62355	1078143
30.63167	1071164
30.63980	1022086
30.64792	1008159
30.65605	968743
30.66417	934504
30.67228	906938
30.68042	893813
30.68853	886320
30.69665	857867
30.70478	883985
30.71290	880853
30.72103	879427
30.72915	899478
30.73727	868543
30.74540	835012
30.75352	823997
30.76165	820882
30.76977	792108
30.77788	791207
30.78602	771436
30.79413	785075
30.80225	816700
30.81038	836926
30.81850	877687
30.82663	911384
30.83475	900493
30.84287	886248
30.85100	829692
30.85912	786638
30.86725	780802
30.87537	753459
30.88348	784907
30.89162	808166
30.89973	808901
30.90787	806964
30.91598	786247
30.92410	756134
30.93223	725863
30.94035	705948
30.94847	684878
30.95660	688336
30.96472	691052
30.97285	709499
30.98097	719793
30.98908	735204
30.99722	737647
31.00533	724972
31.01347	723210
31.02158	738391
31.02970	739297
31.03783	739742
31.04595	742715
31.05408	727800
31.06220	721804
31.07032	719738
31.07845	710788
31.08657	730006
31.09468	776459
31.10282	828495
31.11093	960515
31.11907	1039403
31.12718	1104219
31.13530	1098156
31.14343	1115761
31.15155	1157558
31.15968	1307767
31.16780	1609538
31.17592	2357285
31.18405	4063478
31.19217	8394145
31.20028	1.713971E+07
31.20842	3.07852E+07
31.21653	4.681288E+07
31.22467	6.377783E+07
31.23278	7.805192E+07
31.24090	8.830729E+07
31.24903	9.279854E+07
31.25715	8.878538E+07
31.26528	7.432231E+07
31.27340	5.474036E+07
31.28152	3.411959E+07
31.28965	1.781796E+07
31.29777	7607037
31.30590	3134005
31.31402	1521877
31.32213	1037875
31.33027	897531
31.33838	803127
31.34650	782149
31.35463	754253
31.36275	744522
31.37088	731457
31.37900	724356
31.38712	725274
31.39525	733253
31.40337	747629
31.41150	820273
31.41962	909260
31.42773	1069129
31.43587	1214604
31.44398	1268078
31.45210	1215580
31.46023	1132763
31.46835	965413
31.47648	862125
31.48460	791119
31.49272	759827
31.50085	724401
31.50897	722094
31.51710	691964
31.52522	690407
31.53333	684136
31.54147	688835
31.54958	704266
31.55772	698012
31.56583	693432
31.57395	682727
31.58208	701379
31.59020	691368
31.59832	724990
31.60645	741110
31.61457	765466
31.62270	756247
31.63082	795484
31.63893	847415
31.64707	939144
31.65518	1032103
31.66332	1145790
31.67143	1251761
31.67955	1356542
31.68768	1390221
31.69580	1407292
31.70393	1346146
31.71205	1193314
31.72017	987901
31.72830	858356
31.73642	730973
31.74453	656973
31.75267	602664
31.76078	602117
31.76892	571383
31.77703	598354
31.78515	577443
31.79328	593569
31.80140	597861
31.80953	600668
31.81765	603879
31.82577	602223
31.83390	600615
31.84202	597295
31.85013	602680
31.85827	622523
31.86638	645551
31.87452	685842
31.88263	703393
31.89075	733948
31.89888	827006
31.90700	961750
31.91513	1279350
31.92325	1929552
31.93137	2987816
31.93950	4880669
31.94762	7725801
31.95575	1.103622E+07
31.96387	1.471415E+07
31.97198	1.77009E+07
31.98012	1.958553E+07
31.98823	2.018346E+07
31.99635	1.935926E+07
32.00448	1.82746E+07
32.01260	1.701619E+07
32.02073	1.511087E+07
32.02885	1.322646E+07
32.03697	1.114822E+07
32.04510	9126303
32.05322	7424120
32.06135	6223561
32.06947	5510992
32.07758	5056644
32.08572	5063199
32.09383	5222089
32.10197	5196976
32.11008	4699655
32.11820	3937791
32.12633	3265647
32.13445	2660563
32.14257	2238726
32.15070	1921080
32.15882	1761230
32.16695	1617184
32.17507	1551287
32.18318	1471552
32.19132	1443412
32.19943	1373208
32.20757	1339909
32.21568	1274162
32.22380	1230371
32.23193	1217562
32.24005	1177534
32.24817	1144167
32.25630	1122301
32.26442	1082053
32.27255	1054617
32.28067	1044948
32.28878	1016454
32.29692	1007895
32.30503	1005299
32.31317	990123
32.32128	985541
32.32940	995086
32.33753	985306
32.34565	1020548
32.35378	1023783
32.36190	1038493
32.37002	1036258
32.37815	1033019
32.38627	1000920
32.39438	940703
32.40252	901791
32.41063	861315
32.41877	850262
32.42688	822765
32.43500	816448
32.44313	810496
32.45125	806557
32.45938	820453
32.46750	821783
32.47562	803322
32.48375	815194
32.49187	791244
32.49998	776920
32.50812	770790
32.51623	761065
32.52437	738964
32.53248	736523
32.54060	731619
32.54873	732007
32.55685	719690
32.56498	711126
32.57310	724632
32.58122	720787
32.58935	731255
32.59747	737159
32.60560	709146
32.61372	707507
32.62183	683910
32.62997	707790
32.63808	809441
32.64620	1165520
32.65433	1953826
32.66245	3220414
32.67058	4303517
32.67870	4642734
32.68682	4144284
32.69495	3283506
32.70307	2366468
32.71120	1703935
32.71932	1234147
32.72743	1003293
32.73557	861964
32.74368	806374
32.75182	748636
32.75993	749932
32.76805	732047
32.77618	710866
32.78430	686993
32.79242	674925
32.80055	654629
32.80867	638743
32.81680	625416
32.82492	623245
32.83303	624442
32.84117	637548
32.84928	643908
32.85742	649989
32.86553	646285
32.87365	627153
32.88178	617379
32.88990	633858
32.89803	628118
32.90615	628418
32.91427	655591
32.92240	675102
32.93052	696476
32.93863	703641
32.94677	695459
32.95488	667960
32.96302	651868
32.97113	628615
32.97925	601034
32.98738	575995
32.99550	570542
33.00363	572412
33.01175	579365
33.01987	585386
33.02800	580756
33.03612	580357
33.04423	595502
33.05237	573765
33.06048	581549
33.06862	600819
33.07673	610128
33.08485	641817
33.09298	711663
33.10110	817341
33.10923	1014324
33.11735	1333113
33.12547	1726439
33.13360	1971089
33.14172	1950048
33.14985	1711422
33.15797	1342108
33.16608	1018000
33.17422	812095
33.18233	673102
33.19045	614718
33.19858	646085
33.20670	678109
33.21483	769668
33.22295	896578
33.23107	978249
33.23920	1005578
33.24732	960076
33.25545	874795
33.26357	822463
33.27168	760996
33.27982	698743
33.28793	702409
33.29605	678387
33.30418	682490
33.31230	704907
33.32043	709769
33.32855	708824
33.33667	704808
33.34480	710893
33.35292	684914
33.36105	652195
33.36917	621563
33.37728	601185
33.38542	591483
33.39353	579548
33.40167	574712
33.40978	569843
33.41790	562728
33.42603	571515
33.43415	580806
33.44227	573999
33.45040	565809
33.45852	566952
33.46665	563678
33.47477	556666
33.48288	539435
33.49102	541924
33.49913	519306
33.50727	530916
33.51538	511845
33.52350	517003
33.53163	519690
33.53975	536674
33.54788	551298
33.55600	576143
33.56412	604083
33.57225	635192
33.58037	640850
33.58848	654831
33.59662	633297
33.60473	615912
33.61287	594234
33.62098	554984
33.62910	549309
33.63723	548675
33.64535	516621
33.65348	530250
33.66160	527158
33.66972	539885
33.67785	549565
33.68597	560072
33.69408	536599
33.70222	558501
33.71033	551691
33.71847	527137
33.72658	505743
33.73470	514789
33.74283	507706
33.75095	511843
33.75908	520361
33.76720	559215
33.77532	654014
33.78345	758337
33.79157	925780
33.79970	1093040
33.80782	1277650
33.81593	1352216
33.82407	1337227
33.83218	1240278
33.84030	1151520
33.84843	1098184
33.85655	1053077
33.86468	1023245
33.87280	980528
33.88092	904469
33.88905	854421
33.89717	865903
33.90530	905998
33.91342	1041112
33.92153	1231624
33.92967	1469041
33.93778	1550946
33.94592	1575496
33.95403	1438242
33.96215	1227090
33.97028	1026207
33.97840	854287
33.98652	732941
33.99465	677105
34.00277	614521
34.01090	611490
34.01902	592331
34.02713	607638
34.03527	597154
34.04338	609847
34.05152	587756
34.05963	597750
34.06775	612524
34.07588	614916
34.08400	611007
34.09212	614242
34.10025	610685
34.10837	593086
34.11650	606933
34.12462	602497
34.13273	624627
34.14087	651495
34.14898	645435
34.15712	669914
34.16523	714259
34.17335	738357
34.18148	772008
34.18960	799753
34.19773	805796
34.20585	794983
34.21397	799397
34.22210	780609
34.23022	772547
34.23833	763465
34.24647	802071
34.25458	793153
34.26272	832321
34.27083	852345
34.27895	868586
34.28708	876486
34.29520	880873
34.30333	875472
34.31145	899633
34.31957	895335
34.32770	890674
34.33582	906577
34.34393	880863
34.35207	892239
34.36018	894940
34.36832	899108
34.37643	881275
34.38455	892353
34.39268	869397
34.40080	854490
34.40893	860183
34.41705	828139
34.42517	801398
34.43330	785119
34.44142	786667
34.44955	740051
34.45767	730757
34.46578	713807
34.47392	710162
34.48203	703702
34.49015	702734
34.49828	717727
34.50640	746136
34.51453	837054
34.52265	1128717
34.53077	1812509
34.53890	3232929
34.54702	5625735
34.55515	9317804
34.56327	1.325793E+07
34.57138	1.592712E+07
34.57952	1.710672E+07
34.58763	1.714247E+07
34.59577	1.514125E+07
34.60388	1.319769E+07
34.61200	1.068498E+07
34.62013	8328168
34.62825	6410698
34.63637	5058473
34.64450	4134248
34.65262	3339578
34.66075	2779717
34.66887	2402956
34.67698	2139598
34.68512	1990790
34.69323	1824200
34.70137	1750390
34.70948	1633824
34.71760	1591413
34.72573	1537766
34.73385	1557340
34.74197	1568781
34.75010	1555235
34.75822	1527764
34.76635	1450566
34.77447	1356401
34.78258	1266084
34.79072	1208974
34.79883	1142558
34.80697	1103036
34.81508	1073309
34.82320	1056274
34.83133	1034269
34.83945	1037895
34.84758	1035035
34.85570	1038512
34.86382	1035586
34.87195	1042395
34.88007	1037366
34.88818	1012891
34.89632	972291
34.90443	951881
34.91257	953347
34.92068	938689
34.92880	939422
34.93693	940956
34.94505	947264
34.95318	995792
34.96130	1028389
34.96942	1101694
34.97755	1192075
34.98567	1253844
34.99380	1260752
35.00192	1214431
35.01003	1191897
35.01817	1175344
35.02628	1148576
35.03440	1148710
35.04253	1126261
35.05065	1096442
35.05878	1076800
35.06690	1066776
35.07502	1044222
35.08315	1039337
35.09127	1021310
35.09940	991233
35.10752	1019230
35.11563	1057976
35.12377	1219393
35.13188	1535638
35.14000	2050005
35.14813	2784928
35.15625	3562533
35.16438	4161899
35.17250	4513110
35.18062	4512130
35.18875	3965185
35.19687	3198172
35.20500	2352277
35.21312	1690300
35.22123	1228358
35.22937	992372
35.23748	887328
35.24562	850215
35.25373	807911
35.26185	800628
35.26998	808816
35.27810	812531
35.28622	836457
35.29435	845359
35.30247	827185
35.31060	813078
35.31872	793610
35.32683	784524
35.33497	772590
35.34308	756589
35.35122	743767
35.35933	729663
35.36745	742810
35.37558	726111
35.38370	715009
35.39183	707053
35.39995	702134
35.40807	701157
35.41620	684242
35.42432	673405
35.43243	671622
35.44057	680947
35.44868	651959
35.45682	656240
35.46493	676512
35.47305	671334
35.48118	684568
35.48930	674469
35.49743	688538
35.50555	700940
35.51367	697688
35.52180	702106
35.52992	723709
35.53803	726375
35.54617	741181
35.55428	765009
35.56242	769664
35.57053	801989
35.57865	823905
35.58678	851759
35.59490	859702
35.60303	870092
35.61115	878631
35.61927	842963
35.62740	847477
35.63552	852277
35.64365	823839
35.65177	842865
35.65988	841609
35.66802	878665
35.67613	1033505
35.68425	1281651
35.69238	1530672
35.70050	1658774
35.70863	1594970
35.71675	1444824
35.72487	1292907
35.73300	1130837
35.74112	1041291
35.74925	982197
35.75737	937950
35.76548	885689
35.77362	843087
35.78173	833739
35.78985	798964
35.79798	789658
35.80610	774959
35.81423	789226
35.82235	813691
35.83047	842779
35.83860	864411
35.84672	897996
35.85485	923557
35.86297	919196
35.87108	874451
35.87922	854239
35.88733	831819
35.89547	775903
35.90358	773684
35.91170	731804
35.91983	713630
35.92795	721713
35.93607	692325
35.94420	694398
35.95232	703077
35.96045	688627
35.96857	715178
35.97668	722401
35.98482	716066
35.99293	710575
36.00107	679246
36.00918	676591
36.01730	700361
36.02543	736017
36.03355	832668
36.04168	1086371
36.04980	1676035
36.05792	2678380
36.06605	4521830
36.07417	6948763
36.08228	9453580
36.09042	1.063335E+07
36.09853	1.009715E+07
36.10667	8598844
36.11478	6387308
36.12290	4595700
36.13103	3442369
36.13915	2885432
36.14728	2636223
36.15540	2560185
36.16352	2474454
36.17165	2425322
36.17977	2462803
36.18788	2549394
36.19602	2728737
36.20413	2848636
36.21227	3115345
36.22038	3216784
36.22850	3173036
36.23663	2902084
36.24475	2649907
36.25288	2329867
36.26100	2129935
36.26912	1964327
36.27725	1924612
36.28537	2042919
36.29350	2342513
36.30162	3008605
36.30973	4071881
36.31787	5303636
36.32598	6164765
36.33410	6229801
36.34223	5691665
36.35035	4884117
36.35848	4299012
36.36660	4127412
36.37472	4505464
36.38285	5038665
36.39097	5870284
36.39910	6240353
36.40722	6095320
36.41533	5492207
36.42347	4553106
36.43158	3614261
36.43972	2730831
36.44783	2188128
36.45595	1749778
36.46408	1476803
36.47220	1270513
36.48032	1084691
36.48845	981209
36.49657	902238
36.50470	863242
36.51282	832610
36.52093	859261
36.52907	905502
36.53718	936936
36.54532	977116
36.55343	997982
36.56155	990426
36.56968	949191
36.57780	883439
36.58592	821717
36.59405	773711
36.60217	753667
36.61030	784808
36.61842	846163
36.62653	905145
36.63467	963877
36.64278	1027475
36.65092	1058722
36.65903	1058747
36.66715	1047690
36.67528	1067050
36.68340	1020129
36.69153	983019
36.69965	926349
36.70777	848898
36.71590	799060
36.72402	766349
36.73213	745363
36.74027	728305
36.74838	737363
36.75652	717122
36.76463	699202
36.77275	706216
36.78088	693321
36.78900	661415
36.79713	667335
36.80525	673689
36.81337	664313
36.82150	692632
36.82962	719824
36.83773	731813
36.84587	735404
36.85398	708085
36.86212	687426
36.87023	659255
36.87835	637834
36.88648	615950
36.89460	605490
36.90273	605180
36.91085	594958
36.91897	595548
36.92710	588792
36.93522	593589
36.94335	593512
36.95147	585298
36.95958	578773
36.96772	599711
36.97583	609559
36.98395	595905
36.99208	592097
37.00020	580713
37.00833	593421
37.01645	567200
37.02457	561198
37.03270	556374
37.04082	558558
37.04895	573270
37.05707	570585
37.06518	595934
37.07332	607176
37.08143	609560
37.08957	612726
37.09768	617689
37.10580	615341
37.11393	607506
37.12205	602483
37.13017	603561
37.13830	603820
37.14642	600721
37.15455	616438
37.16267	656780
37.17078	678920
37.17892	687137
37.18703	713567
37.19517	735349
37.20328	775109
37.21140	773477
37.21953	770727
37.22765	774650
37.23578	735454
37.24390	740714
37.25202	743247
37.26015	736027
37.26827	732316
37.27638	720441
37.28452	729225
37.29263	731440
37.30077	783183
37.30888	790013
37.31700	853929
37.32513	1002321
37.33325	1434370
37.34138	2364863
37.34950	4078223
37.35762	6420573
37.36575	8730855
37.37387	1.009697E+07
37.38198	1.042538E+07
37.39012	9598948
37.39823	8422287
37.40637	6868482
37.41448	5704975
37.42260	4619711
37.43073	3764097
37.43885	3113511
37.44698	2634546
37.45510	2292397
37.46322	2061132
37.47135	1889899
37.47947	1837341
37.48760	1729233
