Z:\data\JTB-E02\BACandBLUE\JTB-E02-199-11.D Wed Feb 27 12:26:25 2019
Start of data points
2.09538	70398
2.10350	72532
2.11163	67672
2.11975	66580
2.12788	69107
2.13600	71646
2.14412	65598
2.15225	65947
2.16037	66362
2.16850	67719
2.17662	64912
2.18473	61595
2.19287	60611
2.20098	59094
2.20910	63026
2.21723	61768
2.22535	59504
2.23348	59306
2.24160	55906
2.24972	58046
2.25785	117790
2.26597	470478
2.27410	606243
2.28222	843661
2.29033	919978
2.29847	554806
2.30658	384403
2.31472	320483
2.32283	278566
2.33095	250589
2.33908	228423
2.34720	211664
2.35532	181266
2.36345	180849
2.37157	166443
2.37970	162118
2.38782	152450
2.39593	154967
2.40407	150127
2.41218	177411
2.42032	165961
2.42843	159023
2.43655	141017
2.44468	136191
2.45280	128782
2.46092	129438
2.46905	124345
2.47717	119260
2.48530	116565
2.49342	116634
2.50153	122844
2.50967	115949
2.51778	110511
2.52592	116428
2.53403	112855
2.54215	113365
2.55028	137835
2.55840	179795
2.56653	303540
2.57465	342642
2.58277	272167
2.59090	232909
2.59902	332453
2.60713	478776
2.61527	608997
2.62338	687886
2.63152	500183
2.63963	356564
2.64775	292898
2.65588	241072
2.66400	214406
2.67213	199272
2.68025	183521
2.68837	166682
2.69650	160177
2.70462	146897
2.71275	142072
2.72087	144493
2.72898	135734
2.73712	137657
2.74523	127462
2.75335	131354
2.76148	139380
2.76960	388851
2.77773	1181216
2.78585	1717341
2.79397	2437562
2.80210	2107634
2.81022	1345294
2.81835	979948
2.82647	810287
2.83458	644636
2.84272	539982
2.85083	468421
2.85895	426707
2.86708	398994
2.87520	367110
2.88333	335238
2.89145	311508
2.89957	279906
2.90770	264745
2.91582	233789
2.92395	213225
2.93207	204238
2.94018	186498
2.94832	178872
2.95643	183310
2.96457	184351
2.97268	183055
2.98080	181722
2.98893	182013
2.99705	232179
3.00517	308928
3.01330	361179
3.02142	330615
3.02955	247705
3.03767	207292
3.04578	179781
3.05392	169591
3.06203	173857
3.07017	212090
3.07828	499992
3.08640	1177771
3.09453	2142917
3.10265	3461649
3.11077	4046403
3.11890	4343410
3.12702	3629667
3.13515	2576541
3.14327	1956796
3.15138	1542709
3.15952	1307440
3.16763	1099979
3.17577	1066111
3.18388	1232389
3.19200	1485556
3.20013	1749066
3.20825	1716780
3.21638	1335641
3.22450	1055575
3.23262	914790
3.24075	789415
3.24887	706954
3.25698	615514
3.26512	565029
3.27323	538925
3.28137	612189
3.28948	1326333
3.29760	3369909
3.30573	7011825
3.31385	1.021324E+07
3.32198	1.073013E+07
3.33010	8349047
3.33822	5591384
3.34635	3830157
3.35447	2889218
3.36260	2272662
3.37072	1912762
3.37883	1663699
3.38697	1475745
3.39508	1339206
3.40320	1247206
3.41133	1147195
3.41945	1067449
3.42758	970958
3.43570	901978
3.44382	828237
3.45195	768560
3.46007	737964
3.46820	700643
3.47632	712944
3.48443	692435
3.49257	678928
3.50068	669388
3.50880	631337
3.51693	611993
3.52505	590227
3.53318	591113
3.54130	556028
3.54942	538491
3.55755	517559
3.56567	524323
3.57380	583777
3.58192	651853
3.59003	617495
3.59817	544662
3.60628	479589
3.61442	447715
3.62253	434573
3.63065	430278
3.63878	420028
3.64690	407623
3.65502	687984
3.66315	2585417
3.67127	7421217
3.67940	1.286738E+07
3.68752	1.564649E+07
3.69563	1.406439E+07
3.70377	9715836
3.71188	6553747
3.72002	5063471
3.72813	4228462
3.73625	3657954
3.74438	3135281
3.75250	2803193
3.76063	2504730
3.76875	2286577
3.77687	2148859
3.78500	2004752
3.79312	1997961
3.80123	2264655
3.80937	2981618
3.81748	3781162
3.82562	4178542
3.83373	3693721
3.84185	2864058
3.84998	2305473
3.85810	2005869
3.86623	1822979
3.87435	1632292
3.88247	1523937
3.89060	1425860
3.89872	1328595
3.90683	1286855
3.91497	1292165
3.92308	1312936
3.93122	1370436
3.93933	1441398
3.94745	1661897
3.95558	2514587
3.96370	3769453
3.97183	4713583
3.97995	4511237
3.98807	3770342
3.99620	4542312
4.00432	8641296
4.01245	1.49763E+07
4.02057	1.933211E+07
4.02868	1.824823E+07
4.03682	1.277542E+07
4.04493	7480399
4.05305	4807823
4.06118	3482608
4.06930	2748010
4.07743	2262608
4.08555	1918804
4.09367	1683545
4.10180	1527691
4.10992	1380680
4.11805	1263214
4.12617	1163553
4.13428	1096061
4.14242	1089557
4.15053	1081221
4.15865	1070205
4.16678	1046492
4.17490	1021341
4.18303	972647
4.19115	904517
4.19927	854201
4.20740	1112778
4.21552	2432422
4.22365	5276298
4.23177	8478684
4.23988	1.14048E+07
4.24802	1.285419E+07
4.25613	1.130301E+07
4.26427	8127259
4.27238	5649650
4.28050	4180688
4.28863	3202568
4.29675	2629871
4.30487	2183712
4.31300	1876528
4.32112	1611367
4.32925	1437094
4.33737	1318889
4.34548	1210476
4.35362	1171087
4.36173	1164843
4.36987	1210032
4.37798	1192517
4.38610	1065269
4.39423	939749
4.40235	838871
4.41048	772095
4.41860	717048
4.42672	695554
4.43485	657828
4.44297	631812
4.45108	604074
4.45922	573276
4.46733	557348
4.47547	547353
4.48358	542491
4.49170	535941
4.49983	505538
4.50795	507478
4.51608	487505
4.52420	485844
4.53232	484680
4.54045	489679
4.54857	487021
4.55670	491394
4.56482	482542
4.57293	448963
4.58107	434572
4.58918	409202
4.59730	406807
4.60543	390943
4.61355	406769
4.62168	449643
4.62980	574513
4.63792	790313
4.64605	995502
4.65417	1015169
4.66230	866028
4.67042	717475
4.67853	612828
4.68667	575426
4.69478	521628
4.70290	473225
4.71103	415102
4.71915	394654
4.72728	381331
4.73540	357842
4.74352	351303
4.75165	348020
4.75977	343119
4.76790	320952
4.77602	325285
4.78413	329256
4.79227	362529
4.80038	421108
4.80852	501930
4.81663	523167
4.82475	481640
4.83288	452009
4.84100	438326
4.84912	454395
4.85725	452133
4.86537	434150
4.87350	401585
4.88162	373196
4.88973	348426
4.89787	334475
4.90598	322266
4.91412	301321
4.92223	301341
4.93035	295320
4.93848	352781
4.94660	567862
4.95472	1053295
4.96285	1813641
4.97097	2390329
4.97910	2567854
4.98722	2246548
4.99533	1769311
5.00347	1395948
5.01158	1089225
5.01972	961791
5.02783	880709
5.03595	883945
5.04408	883060
5.05220	890314
5.06033	831473
5.06845	739102
5.07657	665686
5.08470	607994
5.09282	565728
5.10093	543020
5.10907	518760
5.11718	489935
5.12532	473317
5.13343	464458
5.14155	466325
5.14968	475755
5.15780	534011
5.16593	612109
5.17405	667688
5.18217	654678
5.19030	618937
5.19842	583114
5.20655	627443
5.21467	647646
5.22278	623454
5.23092	592327
5.23903	543449
5.24715	481831
5.25528	443285
5.26340	419442
5.27153	376164
5.27965	379006
5.28777	337193
5.29590	331704
5.30402	338815
5.31215	324153
5.32027	327771
5.32838	336055
5.33652	356483
5.34463	406841
5.35275	403961
5.36088	388362
5.36900	359071
5.37713	337560
5.38525	351622
5.39337	375444
5.40150	411710
5.40962	413263
5.41775	398263
5.42587	351052
5.43398	320472
5.44212	323746
5.45023	344149
5.45837	366360
5.46648	393296
5.47460	385603
5.48273	343762
5.49085	315995
5.49897	285502
5.50710	290545
5.51522	279330
5.52335	279316
5.53147	292591
5.53958	280670
5.54772	293551
5.55583	355524
5.56397	530203
5.57208	763080
5.58020	980401
5.58833	999085
5.59645	824158
5.60458	613050
5.61270	464329
5.62082	397634
5.62895	345490
5.63707	337435
5.64518	327088
5.65332	307462
5.66143	297101
5.66957	275308
5.67768	277076
5.68580	306612
5.69393	323122
5.70205	356307
5.71018	377072
5.71830	361334
5.72642	325648
5.73455	295335
5.74267	269281
5.75078	256357
5.75892	244516
5.76703	238935
5.77517	238548
5.78328	233351
5.79140	228457
5.79953	223888
5.80765	222176
5.81578	210479
5.82390	223620
5.83202	215699
5.84015	223543
5.84827	225119
5.85640	223083
5.86452	218120
5.87263	207910
5.88077	213660
5.88888	213729
5.89700	200486
5.90513	208010
5.91325	220494
5.92138	218755
5.92950	222402
5.93762	207750
5.94575	204637
5.95387	225758
5.96200	329712
5.97012	639088
5.97823	1215566
5.98637	1806553
5.99448	2043937
6.00260	1768125
6.01073	1296002
6.01885	899628
6.02698	645859
6.03510	510401
6.04322	441242
6.05135	388513
6.05947	346389
6.06760	327805
6.07572	298882
6.08383	297082
6.09197	284350
6.10008	280848
6.10822	266324
6.11633	269147
6.12445	292626
6.13258	351637
6.14070	465775
6.14882	577795
6.15695	623731
6.16507	573584
6.17320	460444
6.18132	385745
6.18943	333310
6.19757	302967
6.20568	283938
6.21382	267998
6.22193	266933
6.23005	256612
6.23818	262675
6.24630	265958
6.25443	303532
6.26255	337861
6.27067	357435
6.27880	339359
6.28692	307903
6.29503	286501
6.30317	265682
6.31128	253300
6.31942	258606
6.32753	257692
6.33565	261211
6.34378	268424
6.35190	261780
6.36003	251475
6.36815	255363
6.37627	254891
6.38440	250090
6.39252	253373
6.40063	257081
6.40877	268085
6.41688	257763
6.42502	257573
6.43313	244291
6.44125	254756
6.44938	256588
6.45750	267411
6.46563	281257
6.47375	270250
6.48187	266202
6.49000	256380
6.49812	267838
6.50625	252668
6.51437	262240
6.52248	266058
6.53062	278370
6.53873	269876
6.54685	267427
6.55498	282343
6.56310	334634
6.57123	484378
6.57935	749469
6.58747	993970
6.59560	1014008
6.60372	833808
6.61185	583202
6.61997	433643
6.62808	376143
6.63622	354902
6.64433	483046
6.65247	1103854
6.66058	2972119
6.66870	6151865
6.67683	8669822
6.68495	8614317
6.69307	6289737
6.70120	3844181
6.70932	2367017
6.71745	1678172
6.72557	1330224
6.73368	1129950
6.74182	1009623
6.74993	862564
6.75807	762093
6.76618	683804
6.77430	633645
6.78243	580325
6.79055	543667
6.79867	501376
6.80680	463846
6.81492	435495
6.82305	411329
6.83117	383775
6.83928	388255
6.84742	380858
6.85553	399950
6.86367	401628
6.87178	401860
6.87990	382788
6.88803	339000
6.89615	291842
6.90428	267951
6.91240	245370
6.92052	232174
6.92865	221033
6.93677	216348
6.94488	203374
6.95302	203207
6.96113	200867
6.96927	220713
6.97738	252307
6.98550	272656
6.99363	268610
7.00175	247124
7.00988	217518
7.01800	202641
7.02612	226345
7.03425	247067
7.04237	268953
7.05048	303961
7.05862	335823
7.06673	395481
7.07487	399913
7.08298	373999
7.09110	337882
7.09923	288161
7.10735	258435
7.11548	246306
7.12360	228442
7.13172	222089
7.13985	215358
7.14797	233302
7.15610	261952
7.16422	303275
7.17233	330811
7.18047	325430
7.18858	292872
7.19670	247083
7.20483	227854
7.21295	274275
7.22108	456256
7.22920	899729
7.23732	1603619
7.24545	2108337
7.25357	2140137
7.26170	1618204
7.26982	1043746
7.27793	671002
7.28607	429362
7.29418	311754
7.30232	226520
7.31043	187644
7.31855	186775
7.32668	185690
7.33480	183528
7.34292	179579
7.35105	172371
7.35917	164177
7.36730	159112
7.37542	152474
7.38353	153681
7.39167	154445
7.39978	155371
7.40792	142554
7.41603	147313
7.42415	141268
7.43228	137568
7.44040	137131
7.44852	138831
7.45665	137657
7.46477	137538
7.47290	141206
7.48102	136499
7.48913	137335
7.49727	133909
7.50538	143153
7.51352	195056
7.52163	354025
7.52975	749464
7.53788	1460539
7.54600	2572613
7.55413	3795986
7.56225	4657314
7.57037	4727625
7.57850	4108668
7.58662	3015895
7.59473	1970928
7.60287	1232038
7.61098	808556
7.61912	550138
7.62723	433949
7.63535	342014
7.64348	287535
7.65160	249515
7.65973	221589
7.66785	199686
7.67597	174636
7.68410	161728
7.69222	156508
7.70035	156999
7.70847	144764
7.71658	151991
7.72472	145801
7.73283	148893
7.74095	139263
7.74908	142719
7.75720	145031
7.76533	161224
7.77345	173598
7.78157	183152
7.78970	195235
7.79782	203610
7.80595	207238
7.81407	221753
7.82218	221460
7.83032	204885
7.83843	183881
7.84655	183915
7.85468	170776
7.86280	175826
7.87093	198818
7.87905	225239
7.88717	254376
7.89530	283757
7.90342	261865
7.91155	220292
7.91967	192655
7.92778	204094
7.93592	266163
7.94403	380188
7.95217	471180
7.96028	479668
7.96840	435084
7.97653	319662
7.98465	232146
7.99277	174222
8.00090	158408
8.00902	125776
8.01715	122410
8.02527	116913
8.03338	113170
8.04152	112882
8.04963	106233
8.05777	110605
8.06588	109743
8.07400	111208
8.08213	102513
8.09025	99092
8.09838	93080
8.10650	99076
8.11462	94639
8.12275	99329
8.13087	101137
8.13898	111534
8.14712	129911
8.15523	146930
8.16337	153245
8.17148	147615
8.17960	132692
8.18773	117362
8.19585	107414
8.20398	97830
8.21210	98186
8.22022	91912
8.22835	96818
8.23647	89473
8.24458	84962
8.25272	88649
8.26083	83610
8.26897	82673
8.27708	81789
8.28520	81725
8.29333	84621
8.30145	89196
8.30958	104366
8.31770	117182
8.32582	122970
8.33395	123540
8.34207	117720
8.35020	100914
8.35832	96019
8.36643	85063
8.37457	87311
8.38268	90213
8.39080	95150
8.39893	87494
8.40705	82831
8.41518	77365
8.42330	78826
8.43142	77230
8.43955	76099
8.44767	75077
8.45580	73733
8.46392	79003
8.47203	83046
8.48017	85357
8.48828	83870
8.49640	76490
8.50453	72048
8.51265	73609
8.52078	75872
8.52890	92416
8.53702	131438
8.54515	219907
8.55327	329557
8.56140	400315
8.56952	375907
8.57763	308274
8.58577	211152
8.59388	157996
8.60202	132144
8.61013	122313
8.61825	117698
8.62638	112521
8.63450	108250
8.64262	97932
8.65075	91714
8.65887	87514
8.66700	80679
8.67512	84980
8.68323	85269
8.69137	80889
8.69948	86815
8.70762	81575
8.71573	79974
8.72385	80733
8.73198	78821
8.74010	74993
8.74823	71199
8.75635	81605
8.76447	97937
8.77260	150330
8.78072	263160
8.78883	418900
8.79697	559308
8.80508	625738
8.81322	554828
8.82133	456575
8.82945	339404
8.83758	263560
8.84570	227490
8.85383	229026
8.86195	223976
8.87007	220323
8.87820	204404
8.88632	198815
8.89443	183582
8.90257	176477
8.91068	168304
8.91882	164118
8.92693	158092
8.93505	157962
8.94318	181317
8.95130	188525
8.95943	197313
8.96755	200095
8.97567	199811
8.98380	183995
8.99192	196672
9.00005	196266
9.00817	186730
9.01628	167377
9.02442	156906
9.03253	135717
9.04065	130904
9.04878	128075
9.05690	126210
9.06503	121180
9.07315	116993
9.08127	126403
9.08940	133997
9.09752	135952
9.10565	167903
9.11377	205520
9.12188	242872
9.13002	251974
9.13813	238369
9.14627	203046
9.15438	162395
9.16250	140310
9.17063	128983
9.17875	124065
9.18687	118107
9.19500	118785
9.20312	113464
9.21125	109175
9.21937	111079
9.22748	109093
9.23562	114474
9.24373	118279
9.25187	117955
9.25998	124054
9.26810	114644
9.27623	117067
9.28435	112661
9.29247	106779
9.30060	105241
9.30872	102726
9.31685	99602
9.32497	95258
9.33308	95593
9.34122	97062
9.34933	100097
9.35747	96379
9.36558	101927
9.37370	112705
9.38183	118413
9.38995	138824
9.39808	162524
9.40620	180566
9.41432	197936
9.42245	223738
9.43057	262833
9.43868	289968
9.44682	302988
9.45493	296253
9.46307	257862
9.47118	204578
9.47930	164128
9.48743	127669
9.49555	116628
9.50368	111829
9.51180	120885
9.51992	162452
9.52805	183095
9.53617	194435
9.54428	195504
9.55242	178266
9.56053	154116
9.56867	128727
9.57678	112954
9.58490	107871
9.59303	101551
9.60115	106493
9.60928	96328
9.61740	91221
9.62552	79284
9.63365	77597
9.64177	75448
9.64990	75011
9.65802	70303
9.66613	70528
9.67427	68592
9.68238	68633
9.69050	66788
9.69863	65782
9.70675	67328
9.71488	63631
9.72300	54679
9.73112	60580
9.73925	64644
9.74737	61990
9.75550	59451
9.76362	60496
9.77173	57052
9.77987	58284
9.78798	53453
9.79612	56860
9.80423	55574
9.81235	53559
9.82048	54585
9.82860	60101
9.83672	56122
9.84485	57004
9.85297	53301
9.86110	59085
9.86922	66763
9.87733	63134
9.88547	64938
9.89358	69755
9.90172	59200
9.90983	61283
9.91795	66630
9.92608	86914
9.93420	134057
9.94232	194705
9.95045	282216
9.95857	356685
9.96670	348464
9.97482	323807
9.98293	245948
9.99107	176960
9.99918	131578
10.00732	113935
10.01543	96066
10.02355	97217
10.03168	85152
10.03980	84742
10.04793	81004
10.05605	77385
10.06417	80616
10.07230	88260
10.08042	88476
10.08853	89827
10.09667	89633
10.10478	95214
10.11292	93655
10.12103	86898
10.12915	87111
10.13728	81388
10.14540	75970
10.15353	65249
10.16165	67865
10.16977	72390
10.17790	62063
10.18602	65663
10.19415	68205
10.20227	66632
10.21038	62484
10.21852	63905
10.22663	66380
10.23475	69293
10.24288	69890
10.25100	79040
10.25913	85676
10.26725	119252
10.27537	229134
10.28350	503791
10.29162	1097110
10.29975	1953713
10.30787	2970840
10.31598	4053619
10.32412	5634897
10.33223	8142273
10.34035	1.072539E+07
10.34848	1.207339E+07
10.35660	1.173593E+07
10.36473	9760436
10.37285	7316647
10.38097	5535202
10.38910	4092171
10.39722	2906348
10.40535	1919204
10.41347	1176986
10.42158	772088
10.42972	557731
10.43783	513084
10.44597	515295
10.45408	532485
10.46220	536316
10.47033	508713
10.47845	473074
10.48657	431159
10.49470	389232
10.50282	345778
10.51095	304694
10.51907	284481
10.52718	268367
10.53532	249302
10.54343	240437
10.55157	235515
10.55968	212433
10.56780	205759
10.57593	201252
10.58405	202143
10.59217	194288
10.60030	181890
10.60842	173154
10.61655	167716
10.62467	160130
10.63278	150410
10.64092	145947
10.64903	141205
10.65717	137492
10.66528	133666
10.67340	129518
10.68153	135776
10.68965	147800
10.69778	145651
10.70590	158137
10.71402	151994
10.72215	152251
10.73027	142074
10.73838	138834
10.74652	122078
10.75463	122577
10.76277	117398
10.77088	117951
10.77900	113706
10.78713	113401
10.79525	113504
10.80338	121979
10.81150	133901
10.81962	139145
10.82775	133439
10.83587	135169
10.84400	117195
10.85212	107571
10.86023	94856
10.86837	92760
10.87648	89920
10.88460	87629
10.89273	87062
10.90085	85705
10.90898	85570
10.91710	82417
10.92522	80268
10.93335	80237
10.94147	80760
10.94960	76451
10.95772	80028
10.96583	76720
10.97397	80686
10.98208	80682
10.99022	93533
10.99833	96715
11.00645	110801
11.01458	111471
11.02270	112066
11.03082	101560
11.03895	92883
11.04707	85491
11.05520	86248
11.06332	85759
11.07143	91522
11.07957	108982
11.08768	113839
11.09582	123432
11.10393	128355
11.11205	123716
11.12018	113835
11.12830	99441
11.13642	89984
11.14455	83268
11.15267	76309
11.16080	77623
11.16892	82290
11.17703	76368
11.18517	78421
11.19328	84506
11.20142	79869
11.20953	78738
11.21765	81235
11.22578	68233
11.23390	67455
11.24203	62635
11.25015	64258
11.25827	62562
11.26640	56540
11.27452	58474
11.28263	56501
11.29077	60366
11.29888	88867
11.30702	158579
11.31513	343988
11.32325	752600
11.33138	1450972
11.33950	2344871
11.34763	3097297
11.35575	3306777
11.36387	2952844
11.37200	2201122
11.38012	1463934
11.38823	957015
11.39637	679788
11.40448	566248
11.41262	507560
11.42073	469333
11.42885	435746
11.43698	391568
11.44510	339596
11.45323	307122
11.46135	271418
11.46947	251021
11.47760	234932
11.48572	218811
11.49385	234469
11.50197	263752
11.51008	270874
11.51822	278644
11.52633	242573
11.53445	216966
11.54258	186587
11.55070	179611
11.55883	171275
11.56695	163629
11.57507	165940
11.58320	155106
11.59132	152342
11.59945	139169
11.60757	149860
11.61568	171143
11.62382	192871
11.63193	202529
11.64007	195155
11.64818	172771
11.65630	146038
11.66443	124477
11.67255	121404
11.68067	123216
11.68880	116864
11.69692	121547
11.70505	130681
11.71317	134238
11.72128	121476
11.72942	115672
11.73753	105240
11.74567	105486
11.75378	95806
11.76190	95151
11.77003	90729
11.77815	93896
11.78627	80564
11.79440	76326
11.80252	77701
11.81065	76744
11.81877	74325
11.82688	79033
11.83502	73954
11.84313	80052
11.85127	85116
11.85938	101861
11.86750	105404
11.87563	101337
11.88375	100144
11.89188	89369
11.90000	82657
11.90812	74608
11.91625	72493
11.92437	77128
11.93248	71019
11.94062	73104
11.94873	71272
11.95687	69865
11.96498	72763
11.97310	64308
11.98123	65752
11.98935	63730
11.99748	69756
12.00560	77519
12.01372	79710
12.02185	86813
12.02997	91726
12.03810	82863
12.04622	80403
12.05433	76912
12.06247	65258
12.07058	68966
12.07870	72505
12.08683	84948
12.09495	115227
12.10308	188282
12.11120	353211
12.11932	649947
12.12745	1071891
12.13557	1492275
12.14370	1711700
12.15182	1653976
12.15993	1311290
12.16807	862311
12.17618	532435
12.18430	353417
12.19243	269453
12.20055	256386
12.20868	256196
12.21680	253612
12.22492	240138
12.23305	217571
12.24117	205867
12.24930	187934
12.25742	177854
12.26553	160099
12.27367	161727
12.28178	151229
12.28992	150388
12.29803	144341
12.30615	128810
12.31428	121828
12.32240	109475
12.33052	111549
12.33865	103918
12.34677	101538
12.35490	100795
12.36302	98085
12.37113	93795
12.37927	98932
12.38738	96536
12.39552	92688
12.40363	103040
12.41175	109254
12.41988	135895
12.42800	156260
12.43612	191171
12.44425	200464
12.45237	187334
12.46050	164100
12.46862	146234
12.47673	126866
12.48487	117490
12.49298	110425
12.50112	98725
12.50923	106716
12.51735	98462
12.52548	101908
12.53360	108124
12.54173	112852
12.54985	120308
12.55797	125790
12.56610	125125
12.57422	131862
12.58233	125609
12.59047	123050
12.59858	104714
12.60672	95478
12.61483	95263
12.62295	97125
12.63108	92200
12.63920	89545
12.64733	84668
12.65545	80372
12.66357	82747
12.67170	78067
12.67982	73992
12.68795	75567
12.69607	76025
12.70418	70463
12.71232	71304
12.72043	71194
12.72855	74825
12.73668	75058
12.74480	76621
12.75293	81129
12.76105	76101
12.76917	71225
12.77730	70696
12.78542	66043
12.79355	59530
12.80167	64348
12.80978	61076
12.81792	61279
12.82603	59448
12.83415	53846
12.84228	53101
12.85040	54710
12.85853	48222
12.86665	45295
12.87477	50289
12.88290	48495
12.89102	52443
12.89915	59530
12.90727	48358
12.91538	53237
12.92352	47051
12.93163	48239
12.93977	45932
12.94788	49857
12.95600	47202
12.96413	50367
12.97225	50571
12.98037	58114
12.98850	53851
12.99662	59617
13.00475	59144
13.01287	54775
13.02098	48879
13.02912	52671
13.03723	54689
13.04537	54078
13.05348	51158
13.06160	56119
13.06973	54301
13.07785	53377
13.08598	53001
13.09410	49933
13.10222	47788
13.11035	47905
13.11847	49880
13.12658	50344
13.13472	48505
13.14283	47968
13.15097	46647
13.15908	49963
13.16720	43988
13.17533	53542
13.18345	48549
13.19158	54154
13.19970	54976
13.20782	53161
13.21595	58457
13.22407	56761
13.23218	61729
13.24032	59414
13.24843	55258
13.25657	55639
13.26468	56535
13.27280	55066
13.28093	49952
13.28905	52661
13.29718	49528
13.30530	43962
13.31342	43916
13.32155	48354
13.32967	44334
13.33780	46589
13.34592	50190
13.35403	44859
13.36217	46425
13.37028	43713
13.37840	41440
13.38653	41957
13.39465	44133
13.40278	44881
13.41090	43056
13.41902	40415
13.42715	45233
13.43527	42690
13.44340	44138
13.45152	44600
13.45963	47658
13.46777	51183
13.47588	53383
13.48402	52935
13.49213	48515
13.50025	47517
13.50838	48671
13.51650	50662
13.52462	50809
13.53275	50372
13.54087	48906
13.54900	48896
13.55712	50313
13.56523	51382
13.57337	60307
13.58148	61374
13.58962	62105
13.59773	64645
13.60585	67839
13.61398	65242
13.62210	69584
13.63022	68922
13.63835	67157
13.64647	64075
13.65460	53739
13.66272	54145
13.67083	54581
13.67897	44308
13.68708	43913
13.69522	46112
13.70333	45770
13.71145	44311
13.71958	48333
13.72770	45997
13.73583	50277
13.74395	50486
13.75207	51821
13.76020	62376
13.76832	81135
13.77643	104091
13.78457	146275
13.79268	172184
13.80082	204572
13.80893	219773
13.81705	262716
13.82518	319998
13.83330	387910
13.84143	450259
13.84955	467327
13.85767	455453
13.86580	378199
13.87392	304379
13.88203	235582
13.89017	196220
13.89828	163713
13.90642	135395
13.91453	113512
13.92265	103786
13.93078	94164
13.93890	89543
13.94703	78159
13.95515	79397
13.96327	86698
13.97140	98199
13.97952	106515
13.98765	143789
13.99577	147877
14.00388	154013
14.01202	134667
14.02013	117641
14.02825	102344
14.03638	88570
14.04450	84578
14.05263	76642
14.06075	73843
14.06887	76172
14.07700	79368
14.08512	73386
14.09325	66887
14.10137	74768
14.10948	62703
14.11762	61599
14.12573	59695
14.13387	60211
14.14198	63500
14.15010	73586
14.15823	79723
14.16635	94383
14.17447	95093
14.18260	94598
14.19072	98671
14.19885	111050
14.20697	148140
14.21508	202540
14.22322	230704
14.23133	280411
14.23947	280464
14.24758	254296
14.25570	245749
14.26383	226939
14.27195	215154
14.28007	185267
14.28820	165118
14.29632	149583
14.30445	132581
14.31257	121929
14.32068	107804
14.32882	113239
14.33693	112496
14.34507	104752
14.35318	97190
14.36130	91447
14.36943	86122
14.37755	73949
14.38568	70388
14.39380	66011
14.40192	66617
14.41005	68809
14.41817	68657
14.42628	80443
14.43442	80638
14.44253	77547
14.45067	79195
14.45878	69577
14.46690	69732
14.47503	70094
14.48315	78246
14.49128	80532
14.49940	82426
14.50752	74220
14.51565	77515
14.52377	67694
14.53190	70637
14.54002	66752
14.54813	65485
14.55627	57534
14.56438	61844
14.57250	60401
14.58063	53450
14.58875	51954
14.59688	50860
14.60500	48681
14.61312	49645
14.62125	47385
14.62937	47061
14.63750	46337
14.64562	50268
14.65373	47818
14.66187	43009
14.66998	44513
14.67810	40397
14.68623	43845
14.69435	44747
14.70248	46329
14.71060	43930
14.71872	43587
14.72685	45767
14.73497	49328
14.74310	45587
14.75122	48550
14.75933	55197
14.76747	51097
14.77558	56846
14.78372	57352
14.79183	63143
14.79995	101947
14.80808	211284
14.81620	560985
14.82432	1313143
14.83245	2528160
14.84057	3762010
14.84870	4503331
14.85682	4326139
14.86493	3235345
14.87307	2060637
14.88118	1242242
14.88932	751402
14.89743	516045
14.90555	397487
14.91368	338578
14.92180	304619
14.92992	271992
14.93805	252650
14.94617	229873
14.95430	211938
14.96242	192933
14.97053	189270
14.97867	173042
14.98678	169586
14.99492	158703
15.00303	152623
15.01115	145152
15.01928	140423
15.02740	140045
15.03553	138203
15.04365	130776
15.05177	127504
15.05990	124833
15.06802	110986
15.07613	111384
15.08427	105504
15.09238	99392
15.10052	92206
15.10863	96755
15.11675	100170
15.12488	95842
15.13300	88022
15.14113	92038
15.14925	106762
15.15737	106592
15.16550	100435
15.17362	102088
15.18175	94636
15.18987	75128
15.19798	74791
15.20612	69469
15.21423	66218
15.22235	65270
15.23048	62813
15.23860	61533
15.24673	63597
15.25485	63070
15.26297	60297
15.27110	56275
15.27922	52683
15.28735	57718
15.29547	52936
15.30358	52924
15.31172	50161
15.31983	52627
15.32795	56106
15.33608	52225
15.34420	54718
15.35233	50605
15.36045	51807
15.36857	50069
15.37670	52638
15.38482	49965
15.39295	47022
15.40107	51687
15.40918	52929
15.41732	54385
15.42543	51258
15.43357	49066
15.44168	51937
15.44980	48982
15.45793	59517
15.46605	67934
15.47417	76004
15.48230	133141
15.49042	207933
15.49855	302546
15.50667	401465
15.51478	450093
15.52292	471493
15.53103	448284
15.53917	421936
15.54728	433225
15.55540	429435
15.56353	397284
15.57165	334369
15.57978	258830
15.58790	198306
15.59602	143814
15.60415	122115
15.61227	101630
15.62038	100384
15.62852	91302
15.63663	88960
15.64477	87862
15.65288	80499
15.66100	79156
15.66913	72853
15.67725	75426
15.68538	68686
15.69350	72550
15.70162	62938
15.70975	64664
15.71787	62487
15.72598	61625
15.73412	59057
15.74223	60811
15.75037	58541
15.75848	64292
15.76660	80321
15.77473	105221
15.78285	150625
15.79098	215007
15.79910	267287
15.80722	296783
15.81535	267053
15.82347	210921
15.83160	160484
15.83972	121666
15.84783	92765
15.85597	89503
15.86408	84484
15.87220	78215
15.88033	72164
15.88845	75804
15.89658	78576
15.90470	75193
15.91282	73935
15.92095	69499
15.92907	70935
15.93720	67480
15.94532	71870
15.95343	66919
15.96157	71609
15.96968	66666
15.97780	76473
15.98593	80304
15.99405	84371
16.00218	85979
16.01030	80645
16.01842	89530
16.02655	94035
16.03467	91357
16.04280	91296
16.05092	87801
16.05903	74857
16.06717	75608
16.07528	71801
16.08342	61858
16.09153	63886
16.09965	61511
16.10778	60725
16.11590	55926
16.12402	59080
16.13215	67966
16.14027	65257
16.14840	68834
16.15652	72969
16.16463	74768
16.17277	72826
16.18088	73502
16.18902	70209
16.19713	64167
16.20525	59529
16.21338	62460
16.22150	61034
16.22963	57777
16.23775	58378
16.24587	53318
16.25400	53978
16.26212	54810
16.27023	57283
16.27837	57226
16.28648	62217
16.29462	62101
16.30273	66187
16.31085	69843
16.31898	76772
16.32710	72790
16.33523	69686
16.34335	63715
16.35147	67961
16.35960	67991
16.36772	68004
16.37585	80838
16.38397	92421
16.39208	96927
16.40022	90587
16.40833	88754
16.41645	75571
16.42458	71288
16.43270	59193
16.44083	61392
16.44895	69552
16.45707	88411
16.46520	149167
16.47332	263339
16.48145	460658
16.48957	692235
16.49768	823415
16.50582	791872
16.51393	639121
16.52205	447363
16.53018	267169
16.53830	189975
16.54643	137898
16.55455	117122
16.56267	103872
16.57080	89467
16.57892	91173
16.58705	89752
16.59517	81570
16.60328	92462
16.61142	95921
16.61953	103566
16.62767	98851
16.63578	92805
16.64390	88929
16.65203	83785
16.66015	75536
16.66827	70858
16.67640	66974
16.68452	61993
16.69265	60422
16.70077	62454
16.70888	67865
16.71702	61194
16.72513	56067
16.73327	57203
16.74138	52944
16.74950	60112
16.75763	56464
16.76575	67524
16.77387	61934
16.78200	66450
16.79012	61187
16.79825	57588
16.80637	56711
16.81448	52871
16.82262	60569
16.83073	49453
16.83887	58303
16.84698	51231
16.85510	48316
16.86323	43539
16.87135	46590
16.87948	48357
16.88760	47312
16.89572	47174
16.90385	45610
16.91197	45919
16.92008	45538
16.92822	46343
16.93633	48641
16.94447	45337
16.95258	43061
16.96070	47290
16.96883	49157
16.97695	41770
16.98508	46714
16.99320	48087
17.00132	44983
17.00945	43934
17.01757	51284
17.02570	50295
17.03382	46086
17.04193	53164
17.05007	56021
17.05818	55751
17.06630	57106
17.07443	53931
17.08255	57402
17.09068	52362
17.09880	57875
17.10692	54521
17.11505	55824
17.12317	55333
17.13130	55810
17.13942	60089
17.14753	60957
17.15567	53468
17.16378	65177
17.17190	61264
17.18003	54661
17.18815	51359
17.19628	50826
17.20440	49645
17.21252	47911
17.22065	49869
17.22877	49416
17.23690	43759
17.24502	48588
17.25313	47847
17.26127	50249
17.26938	44878
17.27752	46867
17.28563	46295
17.29375	45849
17.30188	45726
17.31000	48814
17.31812	50016
17.32625	51940
17.33437	55362
17.34250	63850
17.35062	74913
17.35873	70668
17.36687	74517
17.37498	72036
17.38312	73093
17.39123	73896
17.39935	76321
17.40748	71429
17.41560	69482
17.42373	80199
17.43185	73937
17.43997	83751
17.44810	76381
17.45622	73885
17.46433	67669
17.47247	64949
17.48058	61707
17.48872	60773
17.49683	61311
17.50495	51557
17.51308	52342
17.52120	51217
17.52933	48824
17.53745	54668
17.54557	51403
17.55370	53030
17.56182	61035
17.56993	65415
17.57807	82192
17.58618	120418
17.59432	180256
17.60243	275238
17.61055	380929
17.61868	445474
17.62680	477129
17.63493	419977
17.64305	344238
17.65117	270865
17.65930	255748
17.66742	248860
17.67555	265462
17.68367	271651
17.69178	258682
17.69992	220886
17.70803	186261
17.71615	151190
17.72428	128633
17.73240	124359
17.74053	110997
17.74865	111612
17.75677	109664
17.76490	98546
17.77302	89943
17.78115	81875
17.78927	85203
17.79738	75614
17.80552	75213
17.81363	76707
17.82175	83650
17.82988	88048
17.83800	92803
17.84613	101464
17.85425	102794
17.86237	106742
17.87050	107681
17.87862	116700
17.88675	107494
17.89487	97740
17.90298	84221
17.91112	79021
17.91923	68683
17.92737	61843
17.93548	63054
17.94360	59301
17.95173	56957
17.95985	53148
17.96797	55025
17.97610	54353
17.98422	51800
17.99235	47877
18.00047	51398
18.00858	53532
18.01672	55890
18.02483	63458
18.03297	72571
18.04108	92424
18.04920	99008
18.05733	109851
18.06545	137439
18.07358	211816
18.08170	373529
18.08982	657132
18.09795	1009963
18.10607	1319344
18.11418	1359592
18.12232	1214460
18.13043	935320
18.13857	677877
18.14668	483377
18.15480	376664
18.16293	329671
18.17105	280668
18.17918	259828
18.18730	240303
18.19542	218538
18.20355	198268
18.21167	184648
18.21978	167924
18.22792	159083
18.23603	152680
18.24417	140189
18.25228	142704
18.26040	130771
18.26853	115939
18.27665	115422
18.28478	105383
18.29290	95519
18.30102	91577
18.30915	73411
18.31727	69692
18.32540	69511
18.33352	58965
18.34163	60009
18.34977	59161
18.35788	54379
18.36600	57556
18.37413	56955
18.38225	55304
18.39038	51809
18.39850	53814
18.40662	56634
18.41475	63342
18.42287	72791
18.43100	89575
18.43912	96467
18.44723	118426
18.45537	130521
18.46348	153280
18.47162	156379
18.47973	183952
18.48785	200260
18.49598	206364
18.50410	203967
18.51222	180283
18.52035	148104
18.52847	121911
18.53660	99434
18.54472	81893
18.55283	79429
18.56097	75090
18.56908	69443
18.57722	65064
18.58533	62607
18.59345	64564
18.60158	67612
18.60970	74898
18.61782	80596
18.62595	90527
18.63407	94576
18.64220	90988
18.65032	86405
18.65843	89411
18.66657	90167
18.67468	71042
18.68282	68297
18.69093	68139
18.69905	64155
18.70718	61396
18.71530	63157
18.72343	57678
18.73155	58229
18.73967	56992
18.74780	54743
18.75592	53965
18.76403	51250
18.77217	51872
18.78028	53621
18.78842	51553
18.79653	50297
18.80465	49951
18.81278	50315
18.82090	51271
18.82903	49580
18.83715	50472
18.84527	50917
18.85340	52998
18.86152	52497
18.86963	55296
18.87777	65009
18.88588	71405
18.89402	76904
18.90213	73138
18.91025	70285
18.91838	70970
18.92650	58593
18.93463	64226
18.94275	65342
18.95087	59294
18.95900	62997
18.96712	63070
18.97525	63382
18.98337	66766
18.99148	64542
18.99962	56282
19.00773	55815
19.01585	53469
19.02398	62695
19.03210	54582
19.04023	51892
19.04835	52534
19.05647	50983
19.06460	51884
19.07272	46536
19.08085	53059
19.08897	60384
19.09708	69812
19.10522	77870
19.11333	96550
19.12147	104138
19.12958	104294
19.13770	99656
19.14583	86952
19.15395	81649
19.16207	69445
19.17020	73643
19.17832	73469
19.18645	74959
19.19457	80190
19.20268	77089
19.21082	75515
19.21893	71326
19.22707	72103
19.23518	63251
19.24330	57585
19.25143	53326
19.25955	56266
19.26767	55720
19.27580	55931
19.28392	58067
19.29205	59919
19.30017	65409
19.30828	71063
19.31642	66573
19.32453	67310
19.33267	64895
19.34078	65975
19.34890	66046
19.35703	70222
19.36515	72833
19.37328	80236
19.38140	88098
19.38952	101709
19.39765	107602
19.40577	93140
19.41388	78851
19.42202	71214
19.43013	62082
19.43827	57141
19.44638	61567
19.45450	62413
19.46263	53705
19.47075	58998
19.47888	53905
19.48700	57022
19.49512	74699
19.50325	86562
19.51137	124709
19.51950	181878
19.52762	235553
19.53573	263687
19.54387	264603
19.55198	238760
19.56010	190482
19.56823	166166
19.57635	151738
19.58448	133564
19.59260	124222
19.60072	121111
19.60885	118586
19.61697	111896
19.62510	116357
19.63322	119866
19.64133	125164
19.64947	153765
19.65758	222433
19.66570	333219
19.67383	472912
19.68195	569298
19.69008	640682
19.69820	638777
19.70632	551700
19.71445	449128
19.72257	374796
19.73070	304353
19.73882	265267
19.74693	229062
19.75507	204794
19.76318	194563
19.77132	184316
19.77943	175366
19.78755	184923
19.79568	192453
19.80380	218334
19.81192	225420
19.82005	232091
19.82817	222398
19.83630	207141
19.84442	198668
19.85253	228141
19.86067	440592
19.86878	1166271
19.87692	3200308
19.88503	7682339
19.89315	1.512607E+07
19.90128	2.447388E+07
19.90940	3.17536E+07
19.91753	3.518958E+07
19.92565	3.374834E+07
19.93377	2.904232E+07
19.94190	2.200362E+07
19.95002	1.423181E+07
19.95813	9413748
19.96627	6615318
19.97438	5192099
19.98252	4264909
19.99063	3622032
19.99875	3278972
20.00688	3000943
20.01500	2811891
20.02313	2609400
20.03125	2414447
20.03937	2141379
20.04750	1900141
20.05562	1641604
20.06373	1398171
20.07187	1149652
20.07998	952735
20.08812	816501
20.09623	703508
20.10435	652441
20.11248	601730
20.12060	537054
20.12873	481069
20.13685	454879
20.14497	430021
20.15310	465674
20.16122	569858
20.16935	762250
20.17747	1082412
20.18558	1491089
20.19372	1913160
20.20183	2211684
20.20995	2277147
20.21808	2197534
20.22620	1896380
20.23433	1587892
20.24245	1342230
20.25057	1196174
20.25870	1204578
20.26682	1326056
20.27495	1533959
20.28307	1715984
20.29118	1782849
20.29932	1726018
20.30743	1545000
20.31555	1295260
20.32368	1034404
20.33180	792115
20.33993	613933
20.34805	475480
20.35617	376235
20.36430	304819
20.37242	256172
20.38055	221116
20.38867	190880
20.39678	186707
20.40492	171001
20.41303	163691
20.42117	153800
20.42928	148996
20.43740	156145
20.44553	168378
20.45365	187882
20.46177	206584
20.46990	205741
20.47802	201620
20.48615	180668
20.49427	164462
20.50238	154462
20.51052	140324
20.51863	133211
20.52677	125179
20.53488	119148
20.54300	106822
20.55113	114567
20.55925	107091
20.56738	106768
20.57550	110300
20.58362	98075
20.59175	100178
20.59987	95099
20.60798	97655
20.61612	99448
20.62423	96121
20.63237	99543
20.64048	103985
20.64860	105456
20.65673	112180
20.66485	105172
20.67298	101148
20.68110	114540
20.68922	110658
20.69735	95103
20.70547	94268
20.71358	94659
20.72172	87924
20.72983	82810
20.73797	86617
20.74608	83861
20.75420	87772
20.76233	90446
20.77045	94241
20.77858	97995
20.78670	108375
20.79482	123957
20.80295	174218
20.81107	242465
20.81920	345716
20.82732	452409
20.83543	483306
20.84357	463163
20.85168	392036
20.85980	287357
20.86793	200492
20.87605	151092
20.88418	120186
20.89230	116810
20.90042	113722
20.90855	114333
20.91667	117658
20.92480	134881
20.93292	144797
20.94103	152911
20.94917	156721
20.95728	159588
20.96542	148956
20.97353	144848
20.98165	121143
20.98978	105222
20.99790	100298
21.00602	95655
21.01415	89863
21.02227	88436
21.03040	93642
21.03852	93301
21.04663	94459
21.05477	95856
21.06288	94687
21.07102	87318
21.07913	86536
21.08725	81139
21.09538	79865
21.10350	77236
21.11162	72827
21.11975	74306
21.12787	78879
21.13600	85645
21.14412	96735
21.15223	121069
21.16037	157477
21.16848	180008
21.17662	185061
21.18473	198610
21.19285	177622
21.20098	147845
21.20910	121077
21.21723	108548
21.22535	98677
21.23347	90176
21.24160	93571
21.24972	87293
21.25783	86357
21.26597	84349
21.27408	85145
21.28222	79903
21.29033	77819
21.29845	79517
21.30658	75483
21.31470	75296
21.32283	75739
21.33095	72883
21.33907	76875
21.34720	71749
21.35532	70989
21.36343	71647
21.37157	75701
21.37968	79587
21.38782	78192
21.39593	80112
21.40405	89358
21.41218	105030
21.42030	112290
21.42843	123671
21.43655	136689
21.44467	138636
21.45280	125847
21.46092	118401
21.46905	107052
21.47717	98653
21.48528	89615
21.49342	86377
21.50153	79483
21.50965	76987
21.51778	73512
21.52590	78926
21.53403	71570
21.54215	70215
21.55027	71238
21.55840	74086
21.56652	72931
21.57465	76635
21.58277	76398
21.59088	79282
21.59902	76850
21.60713	90907
21.61527	86241
21.62338	94774
21.63150	92184
21.63963	97072
21.64775	103549
21.65587	131936
21.66400	138655
21.67212	140047
21.68025	138667
21.68837	130518
21.69648	121948
21.70462	113351
21.71273	107249
21.72087	90472
21.72898	85162
21.73710	76422
21.74523	75999
21.75335	76637
21.76148	73286
21.76960	73825
21.77772	74950
21.78585	72600
21.79397	71684
21.80208	71341
21.81022	75913
21.81833	77964
21.82647	81488
21.83458	90010
21.84270	95454
21.85083	114018
21.85895	125452
21.86708	119510
21.87520	124853
21.88332	109383
21.89145	100867
21.89957	83752
21.90768	81909
21.91582	75750
21.92393	74893
21.93207	67949
21.94018	70613
21.94830	66447
21.95643	62247
21.96455	62489
21.97268	63132
21.98080	62560
21.98892	61574
21.99705	58763
22.00517	61307
22.01330	57396
22.02142	60513
22.02953	56384
22.03767	59846
22.04578	64874
22.05390	61666
22.06203	65286
22.07015	59012
22.07828	62575
22.08640	62920
22.09452	62860
22.10265	55126
22.11077	56894
22.11890	54820
22.12702	54111
22.13513	57058
22.14327	58146
22.15138	52431
22.15950	51873
22.16763	56114
22.17575	55641
22.18388	56708
22.19200	47530
22.20012	59423
22.20825	48267
22.21637	52042
22.22450	52642
22.23262	56644
22.24073	59567
22.24887	65545
22.25698	68386
22.26512	67817
22.27323	62237
22.28135	66108
22.28948	63848
22.29760	67997
22.30572	69524
22.31385	89545
22.32197	100316
22.33010	121820
22.33822	144025
22.34633	172321
22.35447	172804
22.36258	158354
22.37072	138186
22.37883	108455
22.38695	90301
22.39508	86823
22.40320	92600
22.41133	109617
22.41945	129143
22.42757	137238
22.43570	149852
22.44382	154243
22.45193	133874
22.46007	110794
22.46818	99704
22.47632	84534
22.48443	80457
22.49255	78008
22.50068	85789
22.50880	90260
22.51693	95553
22.52505	105832
22.53317	109990
22.54130	107465
22.54942	102454
22.55753	89800
22.56567	85460
22.57378	78284
22.58192	75099
22.59003	64170
22.59815	68453
22.60628	59779
22.61440	55298
22.62253	55699
22.63065	49929
22.63877	52770
22.64690	53758
22.65502	54557
22.66315	54398
22.67127	57723
22.67938	65201
22.68752	71663
22.69563	76719
22.70375	82842
22.71188	86103
22.72000	89083
22.72813	90171
22.73625	88329
22.74437	77850
22.75250	72132
22.76062	66053
22.76875	61665
22.77687	65647
22.78498	61295
22.79312	63540
22.80123	68861
22.80937	73401
22.81748	82775
22.82560	77143
22.83373	84156
22.84185	82259
22.84997	84181
22.85810	79995
22.86622	83201
22.87435	98954
22.88247	111452
22.89058	125619
22.89872	142613
22.90683	160535
22.91497	167257
22.92308	162514
22.93120	176171
22.93933	178644
22.94745	178989
22.95557	159387
22.96370	151001
22.97182	136794
22.97995	122422
22.98807	117873
22.99618	99364
23.00432	100704
23.01243	94717
23.02057	97003
23.02868	90798
23.03680	82851
23.04493	79294
23.05305	81099
23.06118	81187
23.06930	86286
23.07742	82414
23.08555	83805
23.09367	84505
23.10178	88595
23.10992	76343
23.11803	79570
23.12617	75468
23.13428	70112
23.14240	70586
23.15053	70932
23.15865	72702
23.16678	71286
23.17490	67284
23.18302	60284
23.19115	69585
23.19927	63747
23.20738	64086
23.21552	62500
23.22363	62371
23.23177	62684
23.23988	67150
23.24800	68012
23.25613	79709
23.26425	82818
23.27238	96605
23.28050	92074
23.28862	91886
23.29675	85508
23.30487	81337
23.31300	70570
23.32112	67565
23.32923	65948
23.33737	67103
23.34548	75917
23.35360	85865
23.36173	104877
23.36985	123183
23.37798	143728
23.38610	144309
23.39422	142263
23.40235	140125
23.41047	127882
23.41860	122532
23.42672	116788
23.43483	112558
23.44297	107521
23.45108	96721
23.45922	94022
23.46733	92935
23.47545	88714
23.48358	86037
23.49170	82161
23.49982	88659
23.50795	89702
23.51607	81507
23.52420	89142
23.53232	85513
23.54043	87707
23.54857	95043
23.55668	101390
23.56482	125340
23.57293	132559
23.58105	146958
23.58918	177490
23.59730	208241
23.60542	252600
23.61355	273493
23.62167	280576
23.62980	259644
23.63792	242449
23.64603	260000
23.65417	317598
23.66228	425331
23.67042	538624
23.67853	633670
23.68665	663072
23.69478	587419
23.70290	448472
23.71103	335901
23.71915	252523
23.72727	199570
23.73540	168504
23.74352	148980
23.75163	150530
23.75977	209461
23.76788	415771
23.77602	904665
23.78413	1945395
23.79225	3468270
23.80038	4874079
23.80850	5303340
23.81663	5077321
23.82475	4157143
23.83287	3095179
23.84100	2254539
23.84912	1559767
23.85725	1169399
23.86537	884307
23.87348	695525
23.88162	593586
23.88973	526940
23.89785	443837
23.90598	412139
23.91410	396286
23.92223	356535
23.93035	344966
23.93847	325224
23.94660	300907
23.95472	280055
23.96285	275505
23.97097	255577
23.97908	243889
23.98722	222270
23.99533	217509
24.00345	216534
24.01158	208213
24.01970	206207
24.02783	198490
24.03595	203481
24.04407	203729
24.05220	214986
24.06032	218261
24.06845	219557
24.07657	210761
24.08468	191537
24.09282	183858
24.10093	173847
24.10907	176781
24.11718	158515
24.12530	153401
24.13343	157650
24.14155	153310
24.14967	173280
24.15780	168154
24.16592	187704
24.17405	187103
24.18217	185932
24.19028	173576
24.19842	171717
24.20653	178602
24.21467	174879
24.22278	179512
24.23090	168950
24.23903	163431
24.24715	156517
24.25528	147297
24.26340	133960
24.27152	122586
24.27965	123360
24.28777	116420
24.29588	113411
24.30402	122460
24.31213	120962
24.32027	117299
24.32838	119315
24.33650	110591
24.34463	113003
24.35275	119566
24.36088	113062
24.36900	114269
24.37712	113818
24.38525	120603
24.39337	127789
24.40148	144420
24.40962	176043
24.41773	199926
24.42587	221117
24.43398	206604
24.44210	181915
24.45023	139784
24.45835	117904
24.46648	109507
24.47460	112746
24.48272	117105
24.49085	119991
24.49897	127375
24.50710	125120
24.51522	139364
24.52333	141044
24.53147	159772
24.53958	196307
24.54770	229884
24.55583	278122
24.56395	306225
24.57208	320235
24.58020	306376
24.58832	278546
24.59645	245092
24.60457	209041
24.61270	172116
24.62082	161165
24.62893	137098
24.63707	138315
24.64518	125357
24.65330	119000
24.66143	113267
24.66955	114427
24.67768	109289
24.68580	106218
24.69392	106793
24.70205	97877
24.71017	90480
24.71830	90693
24.72642	91620
24.73453	91515
24.74267	86544
24.75078	92590
24.75892	82620
24.76703	86919
24.77515	85738
24.78328	88994
24.79140	87752
24.79952	84531
24.80765	88146
24.81577	86564
24.82390	82649
24.83202	88461
24.84013	92672
24.84827	101624
24.85638	118795
24.86452	142873
24.87263	181308
24.88075	233905
24.88888	293528
24.89700	361432
24.90513	411440
24.91325	413246
24.92137	364999
24.92950	310274
24.93762	226896
24.94573	168945
24.95387	128400
24.96198	106045
24.97012	88335
24.97823	84452
24.98635	88349
24.99448	77505
25.00260	74335
25.01073	73509
25.01885	74578
25.02697	74537
25.03510	68782
25.04322	71110
25.05133	70671
25.05947	70368
25.06758	77274
25.07572	68644
25.08383	70660
25.09195	72892
25.10008	83941
25.10820	98311
25.11633	163583
25.12445	298894
25.13257	595517
25.14070	1089797
25.14882	1705954
25.15695	2263303
25.16507	2481568
25.17318	2264607
25.18132	1764090
25.18943	1237791
25.19755	746963
25.20568	462671
25.21380	304947
25.22193	209304
25.23005	163523
25.23817	140926
25.24630	142174
25.25442	144983
25.26255	165346
25.27067	179614
25.27878	198879
25.28692	209574
25.29503	200426
25.30317	200583
25.31128	178292
25.31940	162845
25.32753	155628
25.33565	142741
25.34377	134834
25.35190	136132
25.36002	133288
25.36815	126019
25.37627	129429
25.38438	122111
25.39252	121383
25.40063	129292
25.40877	125390
25.41688	122489
25.42500	128225
25.43313	127839
25.44125	124449
25.44937	132170
25.45750	131960
25.46562	130794
25.47375	128625
25.48187	128589
25.48998	145918
25.49812	136269
25.50623	138853
25.51437	133196
25.52248	140055
25.53060	131932
25.53873	132781
25.54685	125862
25.55498	124975
25.56310	119320
25.57122	115994
25.57935	118978
25.58747	124057
25.59558	119727
25.60372	120324
25.61183	115928
25.61997	118135
25.62808	120602
25.63620	112536
25.64433	124400
25.65245	116709
25.66058	128196
25.66870	129077
25.67682	127107
25.68495	125924
25.69307	128647
25.70118	128540
25.70932	131435
25.71743	124905
25.72557	121903
25.73368	120600
25.74180	119307
25.74993	117950
25.75805	118554
25.76618	111809
25.77430	110582
25.78242	107945
25.79055	104623
25.79867	99599
25.80680	95577
25.81492	103164
25.82303	100698
25.83117	102438
25.83928	107533
25.84740	107482
25.85553	104568
25.86365	103125
25.87178	100249
25.87990	95146
25.88802	86666
25.89615	85936
25.90427	79423
25.91240	79915
25.92052	78326
25.92863	72661
25.93677	71511
25.94488	75016
25.95302	72756
25.96113	72127
25.96925	69397
25.97738	68606
25.98550	63582
25.99362	69266
26.00175	64839
26.00987	69820
26.01800	59719
26.02612	61917
26.03423	56835
26.04237	61020
26.05048	56599
26.05862	64807
26.06673	63876
26.07485	66920
26.08298	65402
26.09110	66492
26.09923	65697
26.10735	68864
26.11547	64899
26.12360	70460
26.13172	67218
26.13983	63789
26.14797	69420
26.15608	79370
26.16422	75543
26.17233	80187
26.18045	81790
26.18858	79232
26.19670	80227
26.20483	77587
26.21295	73517
26.22107	66197
26.22920	68323
26.23732	73816
26.24543	72937
26.25357	78573
26.26168	94372
26.26982	108347
26.27793	118331
26.28605	123051
26.29418	126897
26.30230	129769
26.31043	136268
26.31855	126953
26.32667	134340
26.33480	131080
26.34292	143921
26.35105	145021
26.35917	170551
26.36728	219938
26.37542	298710
26.38353	430907
26.39165	598175
26.39978	743251
26.40790	867086
26.41603	915842
26.42415	860062
26.43227	678217
26.44040	498425
26.44852	377545
26.45665	273961
26.46477	208691
26.47288	183689
26.48102	177139
26.48913	157775
26.49725	160790
26.50538	159507
26.51350	145329
26.52163	137326
26.52975	145096
26.53787	136218
26.54600	135376
26.55412	127001
26.56225	125984
26.57037	128094
26.57848	124853
26.58662	121234
26.59473	123371
26.60287	123995
26.61098	125961
26.61910	136578
26.62723	123559
26.63535	120274
26.64347	120843
26.65160	122564
26.65972	117197
26.66785	126015
26.67597	124888
26.68408	124640
26.69222	124610
26.70033	126297
26.70847	114042
26.71658	114434
26.72470	117868
26.73283	119269
26.74095	113511
26.74907	117125
26.75720	110066
26.76532	116332
26.77345	113921
26.78157	109981
26.78968	114308
26.79782	113576
26.80593	112125
26.81407	114395
26.82218	117642
26.83030	121900
26.83843	125165
26.84655	117390
26.85468	112463
26.86280	117105
26.87092	110874
26.87905	107130
26.88717	102944
26.89528	101605
26.90342	104487
26.91153	102413
26.91967	99627
26.92778	99764
26.93590	100971
26.94403	100338
26.95215	91944
26.96028	106317
26.96840	118353
26.97652	136052
26.98465	187191
26.99277	309197
27.00090	571302
27.00902	998787
27.01713	1669214
27.02527	2354226
27.03338	2797289
27.04150	2839617
27.04963	2412529
27.05775	1932119
27.06588	1441720
27.07400	1041427
27.08212	757582
27.09025	592665
27.09837	480774
27.10650	408039
27.11462	376391
27.12273	332361
27.13087	287848
27.13898	265423
27.14712	255139
27.15523	245962
27.16335	230317
27.17148	224944
27.17960	235280
27.18772	230014
27.19585	248431
27.20397	237536
27.21210	223513
27.22022	210333
27.22833	190783
27.23647	173226
27.24458	163629
27.25272	158526
27.26083	146981
27.26895	141421
27.27708	139047
27.28520	125323
27.29332	132922
27.30145	121747
27.30957	122354
27.31770	127059
27.32582	122167
27.33393	117899
27.34207	121774
27.35018	123133
27.35832	115761
27.36643	119275
27.37455	113426
27.38268	117399
27.39080	106622
27.39893	108408
27.40705	107557
27.41517	103523
27.42330	107112
27.43142	102439
27.43953	99633
27.44767	98212
27.45578	100623
27.46392	98361
27.47203	97518
27.48015	98409
27.48828	85203
27.49640	92963
27.50453	87826
27.51265	86459
27.52077	94390
27.52890	88793
27.53702	79425
27.54513	82257
27.55327	87426
27.56138	85950
27.56952	86546
27.57763	88113
27.58575	86007
27.59388	95586
27.60200	103929
27.61013	104748
27.61825	112716
27.62637	107170
27.63450	100729
27.64262	100336
27.65075	95152
27.65887	84079
27.66698	92854
27.67512	86144
27.68323	89256
27.69135	87201
27.69948	82246
27.70760	85925
27.71573	82787
27.72385	77578
27.73197	75579
27.74010	73185
27.74822	72367
27.75635	74353
27.76447	71845
27.77258	67955
27.78072	71378
27.78883	71613
27.79697	69063
27.80508	71832
27.81320	69784
27.82133	76286
27.82945	76165
27.83757	75034
27.84570	70891
27.85382	68870
27.86195	71605
27.87007	71804
27.87818	70738
27.88632	71753
27.89443	68961
27.90257	64461
27.91068	63073
27.91880	60959
27.92693	65301
27.93505	62750
27.94317	62944
27.95130	63648
27.95942	65217
27.96755	61965
27.97567	64127
27.98378	65247
27.99192	61403
28.00003	58309
28.00817	62348
28.01628	65234
28.02440	71740
28.03253	75558
28.04065	87924
28.04878	99432
28.05690	98952
28.06502	109741
28.07315	105586
28.08127	102995
28.08938	93903
28.09752	84664
28.10563	80629
28.11377	77254
28.12188	74348
28.13000	72936
28.13813	70746
28.14625	68693
28.15438	58544
28.16250	60277
28.17062	59863
28.17875	60608
28.18687	61583
28.19500	64643
28.20312	65637
28.21123	81421
28.21937	85869
28.22748	92204
28.23560	100373
28.24373	89650
28.25185	86606
28.25998	82789
28.26810	76626
28.27622	65096
28.28435	65768
28.29247	66798
28.30060	71095
28.30872	76879
28.31683	88299
28.32497	97113
28.33308	122735
28.34120	161687
28.34933	190924
28.35745	230369
28.36558	274123
28.37370	291761
28.38182	306839
28.38995	311712
28.39807	308375
28.40620	299266
28.41432	276242
28.42243	245222
28.43057	229838
28.43868	192353
28.44682	174609
28.45493	155910
28.46305	147252
28.47118	138389
28.47930	130991
28.48742	122764
28.49555	126963
28.50367	116103
28.51180	126046
28.51992	112580
28.52803	108846
28.53617	106783
28.54428	105191
28.55242	89435
28.56053	91381
28.56865	81127
28.57678	87601
28.58490	82962
28.59302	79228
28.60115	76005
28.60927	67465
28.61740	78332
28.62552	79258
28.63363	82519
28.64177	84907
28.64988	86393
28.65802	85642
28.66613	86380
28.67425	93068
28.68238	87300
28.69050	84212
28.69863	82935
28.70675	78883
28.71487	71046
28.72300	76060
28.73112	69445
28.73923	69754
28.74737	62253
28.75548	70796
28.76362	68788
28.77173	80503
28.77985	93734
28.78798	108857
28.79610	116314
28.80423	117335
28.81235	104436
28.82047	91894
28.82860	83545
28.83672	77878
28.84485	71897
28.85297	66939
28.86108	72221
28.86922	66543
28.87733	64828
28.88545	68111
28.89358	64915
28.90170	66819
28.90983	73089
28.91795	71415
28.92607	70147
28.93420	76096
28.94232	72654
28.95045	67254
28.95857	73722
28.96668	72573
28.97482	71366
28.98293	68643
28.99105	68001
28.99918	68223
29.00730	64293
29.01543	61206
29.02355	60662
29.03167	61153
29.03980	60541
29.04792	59303
29.05605	60514
29.06417	58870
29.07228	58317
29.08042	55561
29.08853	56170
29.09667	62907
29.10478	68824
29.11290	62949
29.12103	60139
29.12915	60318
29.13727	59810
29.14540	60696
29.15352	57963
29.16165	62230
29.16977	60447
29.17788	56260
29.18602	64055
29.19413	63109
29.20227	70380
29.21038	81616
29.21850	81449
29.22663	92420
29.23475	93751
29.24288	93288
29.25100	95212
29.25912	87883
29.26725	89470
29.27537	86142
29.28348	81481
29.29162	75183
29.29973	73900
29.30787	62697
29.31598	65423
29.32410	59497
29.33223	61078
29.34035	56249
29.34848	55238
29.35660	58004
29.36472	55759
29.37285	53394
29.38097	57206
29.38908	53302
29.39722	57042
29.40533	59612
29.41347	59700
29.42158	59302
29.42970	60455
29.43783	60907
29.44595	63465
29.45408	54676
29.46220	59033
29.47032	58668
29.47845	55700
29.48657	54036
29.49470	58900
29.50282	60727
29.51093	63747
29.51907	65312
29.52718	64025
29.53530	60630
29.54343	60732
29.55155	58602
29.55968	58855
29.56780	49932
29.57592	53498
29.58405	51022
29.59217	55514
29.60030	48147
29.60842	48292
29.61653	54822
29.62467	52254
29.63278	54302
29.64092	50867
29.64903	49518
29.65715	53464
29.66528	46660
29.67340	52129
29.68152	52244
29.68965	57006
29.69777	57906
29.70590	60268
29.71402	55969
29.72213	58809
29.73027	55020
29.73838	56071
29.74652	52475
29.75463	53095
29.76275	54404
29.77088	51728
29.77900	49259
29.78712	48325
29.79525	53005
29.80337	49363
29.81150	50848
29.81962	50601
29.82773	47164
29.83587	49647
29.84398	44539
29.85212	51327
29.86023	50267
29.86835	53108
29.87648	61025
29.88460	65037
29.89273	78428
29.90085	94926
29.90897	117163
29.91710	128528
29.92522	124564
29.93333	111508
29.94147	91594
29.94958	79749
29.95772	73857
29.96583	71348
29.97395	73706
29.98208	78114
29.99020	94224
29.99833	110784
30.00645	124468
30.01457	128169
30.02270	143092
30.03082	153630
30.03893	155360
30.04707	149342
30.05518	155191
30.06332	150528
30.07143	143135
30.07955	139484
30.08768	131615
30.09580	127509
30.10393	121118
30.11205	111513
30.12017	115138
30.12830	100260
30.13642	94320
30.14455	87378
30.15267	89014
30.16078	90493
30.16892	83634
30.17703	83458
30.18515	83053
30.19328	82695
30.20140	84173
30.20953	86228
30.21765	91064
30.22577	84212
30.23390	78633
30.24202	75676
30.25015	65047
30.25827	68935
30.26638	63166
30.27452	56926
30.28263	60438
30.29077	58349
30.29888	58049
30.30700	62541
30.31513	58080
30.32325	62527
30.33137	60386
30.33950	59212
30.34762	59668
30.35575	62243
30.36387	61737
30.37198	62789
30.38012	59789
30.38823	58879
30.39637	57908
30.40448	55868
30.41260	54883
30.42073	58839
30.42885	56955
30.43697	61981
30.44510	53303
30.45322	54590
30.46135	50806
30.46947	54080
30.47758	55827
30.48572	51259
30.49383	50885
30.50197	54708
30.51008	54754
30.51820	51041
30.52633	50880
30.53445	51642
30.54258	51106
30.55070	54751
30.55882	52098
30.56695	54727
30.57507	54563
30.58318	56573
30.59132	51561
30.59943	50860
30.60757	54044
30.61568	53123
30.62380	53735
30.63193	52352
30.64005	50660
30.64818	47959
30.65630	53699
30.66442	51664
30.67255	50456
30.68067	50048
30.68880	49819
30.69692	52342
30.70503	47975
30.71317	49626
30.72128	49750
30.72940	48673
30.73753	52141
30.74565	47306
30.75378	52630
30.76190	52539
30.77002	48974
30.77815	50722
30.78627	52685
30.79440	55003
30.80252	63954
30.81063	70955
30.81877	76507
30.82688	84184
30.83500	79315
30.84313	71671
30.85125	68911
30.85938	60011
30.86750	60486
30.87562	59714
30.88375	57296
30.89187	62992
30.90000	59689
30.90812	59246
30.91623	57722
30.92437	52938
30.93248	54384
30.94062	52314
30.94873	57292
30.95685	56505
30.96498	57400
30.97310	55973
30.98122	56790
30.98935	57978
30.99747	52463
31.00560	53467
31.01372	54593
31.02183	57412
31.02997	64909
31.03808	72691
31.04622	81383
31.05433	81552
31.06245	74778
31.07058	72629
31.07870	66806
31.08682	75089
31.09495	86768
31.10307	114114
31.11120	146712
31.11932	165014
31.12743	178762
31.13557	162404
31.14368	142568
31.15182	112475
31.15993	82712
31.16805	68572
31.17618	69797
31.18430	72068
31.19243	69881
31.20055	84813
31.20867	99910
31.21680	125920
31.22492	159376
31.23303	173889
31.24117	170610
31.24928	151665
31.25742	132308
31.26553	110842
31.27365	81262
31.28178	68823
31.28990	67393
31.29803	52324
31.30615	55590
31.31427	55381
31.32240	54521
31.33052	52283
31.33865	52859
31.34677	49411
31.35488	58652
31.36302	56034
31.37113	53567
31.37925	55261
31.38738	57810
31.39550	66405
31.40363	67563
31.41175	64785
31.41987	62864
31.42800	59821
31.43612	62330
31.44425	52918
31.45237	54949
31.46048	53888
31.46862	56797
31.47673	50608
31.48487	51845
31.49298	49236
31.50110	51752
31.50923	53120
31.51735	54976
31.52547	55266
31.53360	56165
31.54172	59429
31.54985	54037
31.55797	54940
31.56608	55113
31.57422	55157
31.58233	54174
31.59047	50454
31.59858	44720
31.60670	46886
31.61483	45840
31.62295	45997
31.63107	45970
31.63920	46009
31.64732	45626
31.65545	50794
31.66357	53140
31.67168	50636
31.67982	51522
31.68793	51505
31.69607	54370
31.70418	53779
31.71230	52997
31.72043	53434
31.72855	52975
31.73668	51246
31.74480	51278
31.75292	50693
31.76105	53521
31.76917	50484
31.77728	55993
31.78542	52271
31.79353	53138
31.80167	54135
31.80978	58597
31.81790	55215
31.82603	59103
31.83415	59965
31.84228	59031
31.85040	58681
31.85852	59683
31.86665	64483
31.87477	65696
31.88288	65819
31.89102	62898
31.89913	62810
31.90727	67553
31.91538	72152
31.92350	71001
31.93163	84030
31.93975	88610
31.94788	95209
31.95600	104435
31.96412	110232
31.97225	124142
31.98037	115522
31.98850	116167
31.99662	127547
32.00473	125158
32.01287	122885
32.02098	118754
32.02910	111270
32.03723	103909
32.04535	100780
32.05348	102444
32.06160	94162
32.06972	84864
32.07785	89686
32.08597	83389
32.09410	86845
32.10222	80760
32.11033	79850
32.11847	75982
32.12658	72028
32.13470	71612
32.14283	66994
32.15095	63387
32.15908	65228
32.16720	61249
32.17532	57738
32.18345	60347
32.19157	61708
32.19970	64411
32.20782	59144
32.21593	58230
32.22407	59030
32.23218	60331
32.24032	60158
32.24843	54648
32.25655	59532
32.26468	59695
32.27280	60267
32.28092	59783
32.28905	62703
32.29717	60731
32.30530	58751
32.31342	59515
32.32153	57283
32.32967	61376
32.33778	56990
32.34592	57475
32.35403	62052
32.36215	62430
32.37028	61609
32.37840	59442
32.38653	56679
32.39465	55746
32.40277	53393
32.41090	52676
32.41902	53964
32.42713	53807
32.43527	51089
32.44338	46647
32.45152	51122
32.45963	54204
32.46775	55067
32.47588	49905
32.48400	52538
32.49213	49084
32.50025	45815
32.50837	49900
32.51650	50688
32.52462	49196
32.53275	48732
32.54087	45496
32.54898	47180
32.55712	49557
32.56523	49930
32.57335	52793
32.58148	55547
32.58960	48173
32.59773	49870
32.60585	47596
32.61397	47635
32.62210	45954
32.63022	50470
32.63835	53164
32.64647	51016
32.65458	54931
32.66272	55480
32.67083	64719
32.67895	79648
32.68708	83171
32.69520	82438
32.70333	74604
32.71145	71118
32.71957	62094
32.72770	62779
32.73582	54676
32.74395	60003
32.75207	56035
32.76018	53027
32.76832	52661
32.77643	48692
32.78457	50025
32.79268	49382
32.80080	46188
32.80893	46230
32.81705	50699
32.82517	46681
32.83330	50539
32.84142	51503
32.84955	46154
32.85767	50140
32.86578	45676
32.87392	48883
32.88203	46439
32.89017	53867
32.89828	59423
32.90640	54528
32.91453	62053
32.92265	56803
32.93077	56583
32.93890	51472
32.94702	47767
32.95515	44618
32.96327	43746
32.97138	54212
32.97952	51788
32.98763	54122
32.99577	54272
33.00388	63994
33.01200	65112
33.02013	62835
33.02825	70768
33.03638	59418
33.04450	58709
33.05262	52928
33.06075	50161
33.06887	53747
33.07698	60796
33.08512	68093
33.09323	67528
33.10137	80951
33.10948	83866
33.11760	93207
33.12573	99859
33.13385	93082
33.14198	92708
33.15010	85680
33.15822	72819
33.16635	65634
33.17447	62173
33.18260	58834
33.19072	54360
33.19883	53516
33.20697	49051
33.21508	54196
33.22320	54355
33.23133	54161
33.23945	58172
33.24758	57986
33.25570	60675
33.26382	55352
33.27195	53756
33.28007	54984
33.28820	53388
33.29632	55406
33.30443	51893
33.31257	52936
33.32068	52053
33.32880	48421
33.33693	54876
33.34505	51678
33.35318	52169
33.36130	57362
33.36942	53523
33.37755	55457
33.38567	60017
33.39380	53627
33.40192	49696
33.41003	50642
33.41817	51174
33.42628	44845
33.43442	45457
33.44253	45383
33.45065	45666
33.45878	43130
33.46690	44790
33.47502	52645
33.48315	44883
33.49127	46611
33.49940	44025
33.50752	51592
33.51563	51635
33.52377	48539
33.53188	46029
33.54002	47254
33.54813	52128
33.55625	56606
33.56438	53728
33.57250	54086
33.58063	59815
33.58875	54351
33.59687	53102
33.60500	48386
33.61312	51604
33.62123	47191
33.62937	42542
33.63748	46423
33.64562	51907
33.65373	50938
33.66185	52911
33.66998	52156
33.67810	55388
33.68623	53129
33.69435	55104
33.70247	52707
33.71060	52359
33.71872	51607
33.72683	45811
33.73497	45770
33.74308	49325
33.75122	45877
33.75933	49787
33.76745	47217
33.77558	49439
33.78370	48490
33.79183	49867
33.79995	48191
33.80807	48281
33.81620	49448
33.82432	45614
33.83245	51477
33.84057	47442
33.84868	49638
33.85682	55182
33.86493	53299
33.87305	53211
33.88118	49024
33.88930	53484
33.89743	52078
33.90555	54202
33.91367	56751
33.92180	54029
33.92992	49271
33.93805	55798
33.94617	54600
33.95428	50945
33.96242	49648
33.97053	48918
33.97867	46764
33.98678	52485
33.99490	43241
34.00303	47965
34.01115	47218
34.01927	50424
34.02740	50257
34.03552	47803
34.04365	48487
34.05177	48812
34.05988	52478
34.06802	46312
34.07613	48967
34.08427	45881
34.09238	47919
34.10050	48637
34.10863	49334
34.11675	51536
34.12487	50734
34.13300	50907
34.14112	54561
34.14925	53063
34.15737	47741
34.16548	49982
34.17362	47160
34.18173	50871
34.18987	52587
34.19798	54174
34.20610	49955
34.21423	49899
34.22235	52878
34.23048	50776
34.23860	49072
34.24672	46114
34.25485	47919
34.26297	45401
34.27108	44603
34.27922	49123
34.28733	49617
34.29547	52813
34.30358	54679
34.31170	49606
34.31983	55410
34.32795	51967
34.33608	50584
34.34420	45054
34.35232	49661
34.36045	51625
34.36857	49691
34.37668	45509
34.38482	53240
34.39293	49986
34.40107	52072
34.40918	47247
34.41730	51336
34.42543	49326
34.43355	54999
34.44168	51624
34.44980	46665
34.45792	53044
34.46605	54147
34.47417	47274
34.48230	54542
34.49042	48475
34.49853	49354
34.50667	51716
34.51478	52170
34.52290	54349
34.53103	57593
34.53915	72693
34.54728	75729
34.55540	83826
34.56352	94827
34.57165	100140
34.57977	103484
34.58790	104738
34.59602	90014
34.60413	87986
34.61227	80902
34.62038	75859
34.62852	68628
34.63663	65176
34.64475	69076
34.65288	65321
34.66100	59195
34.66912	60480
34.67725	60771
34.68537	64081
34.69350	60818
34.70162	60807
34.70973	60243
34.71787	56314
34.72598	60838
34.73412	55832
34.74223	54304
34.75035	54857
34.75848	56697
34.76660	60582
34.77472	57561
34.78285	59316
34.79097	61429
34.79910	58967
34.80722	59453
34.81533	55171
34.82347	61886
34.83158	60565
34.83972	58561
34.84783	56676
34.85595	58389
34.86408	60967
34.87220	51513
34.88033	53567
34.88845	54703
34.89657	54979
34.90470	54928
34.91282	55412
34.92093	55672
34.92907	54797
34.93718	54384
34.94532	64983
34.95343	67445
34.96155	92269
34.96968	128080
34.97780	168321
34.98593	220914
34.99405	245734
35.00217	227287
35.01030	191990
35.01842	140001
35.02655	109658
35.03467	80562
35.04278	71785
35.05092	63584
35.05903	64104
35.06715	63813
35.07528	61693
35.08340	57416
35.09153	63372
35.09965	64521
35.10777	59217
35.11590	58640
35.12402	56650
35.13215	60841
35.14027	59873
35.14838	60828
35.15652	60327
35.16463	63378
35.17275	58886
35.18088	67819
35.18900	65305
35.19713	60893
35.20525	60509
35.21337	59002
35.22150	56944
35.22962	57038
35.23775	55107
35.24587	58255
35.25398	53657
35.26212	57338
35.27023	58134
35.27837	52752
35.28648	56534
35.29460	55208
35.30273	55331
35.31085	54058
35.31897	60836
35.32710	57076
35.33522	49831
35.34335	51335
35.35147	56579
35.35958	57652
35.36772	53096
35.37583	50767
35.38397	52596
35.39208	50542
35.40020	57679
35.40833	64621
35.41645	62094
35.42457	61709
35.43270	64012
35.44082	68688
35.44895	69879
35.45707	66809
35.46518	61666
35.47332	62369
35.48143	62775
35.48957	63182
35.49768	57565
35.50580	57913
35.51393	57450
35.52205	60901
35.53018	59131
35.53830	59480
35.54642	55708
35.55455	56369
35.56267	56092
35.57078	55031
35.57892	58123
35.58703	54663
35.59517	55418
35.60328	63133
35.61140	55327
35.61953	58986
35.62765	61286
35.63578	56400
35.64390	52772
35.65202	54824
35.66015	56252
35.66827	55443
35.67640	55435
35.68452	58024
35.69263	59664
35.70077	60201
35.70888	64171
35.71700	60157
35.72513	64938
35.73325	64086
35.74138	64252
35.74950	59700
35.75762	67048
35.76575	62923
35.77387	68506
35.78200	67065
35.79012	69403
35.79823	68327
35.80637	60240
35.81448	61365
35.82260	61813
35.83073	59022
35.83885	55211
35.84698	52765
35.85510	57000
35.86322	56459
35.87135	56620
35.87947	55211
35.88760	55040
35.89572	54498
35.90383	54292
35.91197	57071
35.92008	60028
35.92822	58721
35.93633	57219
35.94445	58828
35.95258	57968
35.96070	53057
35.96882	57281
35.97695	55025
35.98507	55979
35.99320	58637
36.00132	52733
36.00943	57663
36.01757	54885
36.02568	58860
36.03382	56649
36.04193	57110
36.05005	59386
36.05818	60665
36.06630	63382
36.07443	58658
36.08255	59260
36.09067	59064
36.09880	55932
36.10692	54392
36.11503	62734
36.12317	55328
36.13128	57438
36.13942	62553
36.14753	64569
36.15565	63562
36.16378	65710
36.17190	66403
36.18003	64352
36.18815	66289
36.19627	61315
36.20440	60709
36.21252	62492
36.22063	61264
36.22877	56545
36.23688	53909
36.24502	59299
36.25313	57633
36.26125	59373
36.26938	62440
36.27750	59074
36.28563	60889
36.29375	55350
36.30187	63986
36.31000	68904
36.31812	74378
36.32625	83536
36.33437	85861
36.34248	88908
36.35062	85490
36.35873	79809
36.36685	68808
36.37498	66910
36.38310	67906
36.39123	65458
36.39935	62145
36.40747	62102
36.41560	63908
36.42372	63619
36.43185	60515
36.43997	59567
36.44808	63246
36.45622	55786
36.46433	60781
36.47245	60622
36.48058	62097
36.48870	53932
36.49683	57503
36.50495	58853
36.51307	55976
36.52120	60350
36.52932	60219
36.53745	60087
36.54557	57243
36.55368	57741
36.56182	58328
36.56993	55196
36.57807	55681
36.58618	54148
36.59430	59421
36.60243	56355
36.61055	54890
36.61867	60124
36.62680	59251
36.63492	55339
36.64305	60248
36.65117	60497
36.65928	57313
36.66742	60638
36.67553	60180
36.68367	59380
36.69178	60754
36.69990	63763
36.70803	62460
36.71615	57376
36.72428	61972
36.73240	58128
36.74052	60128
36.74865	55351
36.75677	56217
36.76488	58186
36.77302	55397
36.78113	54510
36.78927	60521
36.79738	58606
36.80550	60068
36.81363	65567
36.82175	61378
36.82988	59356
36.83800	57408
36.84612	64235
36.85425	56463
36.86237	60722
36.87050	61524
36.87862	61685
36.88673	58519
36.89487	60407
36.90298	58792
36.91110	57817
36.91923	59895
36.92735	58724
36.93548	58910
36.94360	62829
36.95172	63999
36.95985	73309
36.96797	65291
36.97610	72649
36.98422	72610
36.99233	67422
37.00047	69777
37.00858	65400
37.01670	70393
37.02483	64224
37.03295	59066
37.04108	64604
37.04920	60070
37.05732	61597
37.06545	61725
37.07357	64423
37.08170	68589
37.08982	66492
37.09793	72537
37.10607	65777
37.11418	67376
37.12232	68931
37.13043	71396
37.13855	70221
37.14668	74867
37.15480	67346
37.16292	67071
37.17105	69461
37.17917	73336
37.18730	70881
37.19542	75402
37.20353	72219
37.21167	69658
37.21978	72489
37.22792	72762
37.23603	72670
37.24415	75156
37.25228	74654
37.26040	71849
37.26852	72244
37.27665	71046
37.28477	76184
37.29290	74025
37.30102	67028
37.30913	65967
37.31727	67893
37.32538	70714
37.33352	75245
37.34163	76466
37.34975	85532
37.35788	82127
37.36600	90535
37.37413	92824
37.38225	95469
37.39037	98126
37.39850	92912
37.40662	91896
37.41473	86806
37.42287	89075
37.43098	85762
37.43912	90252
37.44723	84998
37.45535	82824
37.46348	81575
37.47160	85838
37.47973	83323
37.48785	79518
