C:\MassHunter\GCMS\1\data\JTB-E02\BACandBLUE\JTB-E18-008-07.D Wed May 15 11:36:13 2019
Start of data points
2.09517	92187
2.10330	92338
2.11142	96494
2.11953	100227
2.12767	99915
2.13578	94389
2.14392	95219
2.15203	92248
2.16015	93347
2.16828	83777
2.17640	81300
2.18452	80550
2.19265	73144
2.20077	73464
2.20890	74262
2.21702	69391
2.22513	71157
2.23327	69761
2.24138	65802
2.24952	60830
2.25763	62642
2.26575	133046
2.27388	725970
2.28200	1396406
2.29012	885755
2.29825	449552
2.30637	324405
2.31450	273069
2.32262	244602
2.33073	213669
2.33887	201624
2.34698	190483
2.35512	172406
2.36323	166393
2.37135	156481
2.37948	153374
2.38760	153371
2.39573	144698
2.40385	143181
2.41197	135286
2.42010	145153
2.42822	138220
2.43633	140237
2.44447	133332
2.45258	128730
2.46072	127449
2.46883	123918
2.47695	121104
2.48508	120364
2.49320	143797
2.50133	149399
2.50945	127580
2.51757	122324
2.52570	123810
2.53382	118092
2.54195	121085
2.55007	131433
2.55818	180116
2.56632	219632
2.57443	181033
2.58255	159210
2.59068	142639
2.59880	155668
2.60693	326719
2.61505	569544
2.62317	482810
2.63130	310863
2.63942	228716
2.64755	199500
2.65567	173994
2.66378	155707
2.67192	146688
2.68003	141124
2.68815	135612
2.69628	133422
2.70440	124392
2.71253	122902
2.72065	120065
2.72877	122717
2.73690	125748
2.74502	112376
2.75315	119339
2.76127	109357
2.76938	133671
2.77752	572321
2.78563	1899551
2.79377	2380145
2.80188	1456533
2.81000	871623
2.81813	692988
2.82625	583104
2.83437	471151
2.84250	403740
2.85062	332493
2.85875	306411
2.86687	284117
2.87498	248668
2.88312	225430
2.89123	216727
2.89937	206101
2.90748	195023
2.91560	181591
2.92373	167801
2.93185	173603
2.93997	162015
2.94810	153220
2.95622	157030
2.96435	164589
2.97247	174626
2.98058	158391
2.98872	149391
2.99683	159588
3.00497	165401
3.01308	170838
3.02120	156642
3.02933	147621
3.03745	140845
3.04558	128017
3.05370	131122
3.06182	129718
3.06995	131676
3.07807	229172
3.08618	811183
3.09432	1901266
3.10243	2704938
3.11057	3218072
3.11868	2765526
3.12680	1776610
3.13493	1216128
3.14305	939624
3.15118	760917
3.15930	640157
3.16742	593510
3.17555	622140
3.18367	853449
3.19180	1633972
3.19992	2112143
3.20803	1631435
3.21617	1127903
3.22428	899138
3.23240	758530
3.24053	653391
3.24865	571769
3.25678	512022
3.26490	458264
3.27302	412958
3.28115	435573
3.28927	834989
3.29740	2310654
3.30552	4818264
3.31363	6063926
3.32177	5034866
3.32988	3323865
3.33802	2246870
3.34613	1726871
3.35425	1423331
3.36238	1197250
3.37050	1076651
3.37862	953080
3.38675	873376
3.39487	807387
3.40300	744700
3.41112	711501
3.41923	667370
3.42737	654585
3.43548	642115
3.44362	623811
3.45173	593849
3.45985	570141
3.46798	570073
3.47610	562977
3.48422	546024
3.49235	538748
3.50047	499766
3.50860	494330
3.51672	482816
3.52483	490227
3.53297	486416
3.54108	511263
3.54922	513678
3.55733	480076
3.56545	540452
3.57358	702370
3.58170	791831
3.58983	671947
3.59795	563464
3.60607	518695
3.61420	493394
3.62232	486778
3.63043	479820
3.63857	475403
3.64668	465276
3.65482	581336
3.66293	2089594
3.67105	8803077
3.67918	1.862047E+07
3.68730	2.045326E+07
3.69543	1.436276E+07
3.70355	8569611
3.71167	5964629
3.71980	4791575
3.72792	4033408
3.73603	3509351
3.74417	3076847
3.75228	2757346
3.76042	2513103
3.76853	2325260
3.77665	2127584
3.78478	1992450
3.79290	1870804
3.80103	1938439
3.80915	2334333
3.81727	2847360
3.82540	2750057
3.83352	2225306
3.84165	1844562
3.84977	1646189
3.85788	1512725
3.86602	1411194
3.87413	1315289
3.88225	1261019
3.89038	1194372
3.89850	1155808
3.90663	1104215
3.91475	1128210
3.92287	1283471
3.93100	1415010
3.93912	1403409
3.94725	1523763
3.95537	2502527
3.96348	4240041
3.97162	5030700
3.97973	4024373
3.98787	2791173
3.99598	3262300
4.00410	7366343
4.01223	1.412222E+07
4.02035	1.634901E+07
4.02847	1.242253E+07
4.03660	7144504
4.04472	4137750
4.05285	2882445
4.06097	2239990
4.06908	1840420
4.07722	1601506
4.08533	1421674
4.09347	1292453
4.10158	1203431
4.10970	1122823
4.11783	1048491
4.12595	965221
4.13407	926214
4.14220	894029
4.15032	890674
4.15845	864152
4.16657	826458
4.17468	809626
4.18282	798619
4.19093	753405
4.19907	766161
4.20718	1120668
4.21530	3108399
4.22343	8089700
4.23155	1.38088E+07
4.23968	1.604881E+07
4.24780	1.328689E+07
4.25592	8461105
4.26405	5389778
4.27217	3892505
4.28028	3038597
4.28842	2437647
4.29653	2015650
4.30467	1741866
4.31278	1563114
4.32090	1427631
4.32903	1333841
4.33715	1245617
4.34528	1183666
4.35340	1166556
4.36152	1237958
4.36965	1295925
4.37777	1213650
4.38590	1062310
4.39402	947822
4.40213	864421
4.41027	816536
4.41838	773652
4.42650	736769
4.43463	724122
4.44275	701196
4.45088	670459
4.45900	650879
4.46712	632754
4.47525	622964
4.48337	606791
4.49150	599065
4.49962	587524
4.50773	573839
4.51587	562506
4.52398	557031
4.53210	549698
4.54023	557706
4.54835	563834
4.55648	551851
4.56460	532802
4.57272	510874
4.58085	500196
4.58897	479092
4.59710	476538
4.60522	470683
4.61333	484087
4.62147	549017
4.62958	782268
4.63772	1100123
4.64583	1306124
4.65395	1168353
4.66208	906735
4.67020	752449
4.67832	692351
4.68645	636298
4.69457	593386
4.70270	532637
4.71082	502812
4.71893	465789
4.72707	440784
4.73518	427474
4.74332	416017
4.75143	403502
4.75955	400626
4.76768	397511
4.77580	395722
4.78392	392502
4.79205	451978
4.80017	523235
4.80830	571538
4.81642	555504
4.82453	502181
4.83267	481140
4.84078	497371
4.84892	528605
4.85703	521593
4.86515	500481
4.87328	458464
4.88140	429120
4.88953	394837
4.89765	383529
4.90577	360334
4.91390	365753
4.92202	369825
4.93013	430400
4.93827	744809
4.94638	1465197
4.95452	2609029
4.96263	3430774
4.97075	3418300
4.97888	2658723
4.98700	1839500
4.99513	1319550
5.00325	1039061
5.01137	887818
5.01950	809179
5.02762	832404
5.03575	913620
5.04387	983346
5.05198	941115
5.06012	830173
5.06823	740141
5.07635	689198
5.08448	653427
5.09260	598124
5.10073	579492
5.10885	564882
5.11697	554100
5.12510	539237
5.13322	521244
5.14135	529205
5.14947	571142
5.15758	668187
5.16572	774514
5.17383	796677
5.18195	744068
5.19008	686213
5.19820	709366
5.20633	755025
5.21445	777346
5.22257	745828
5.23070	665539
5.23882	602759
5.24695	545201
5.25507	517073
5.26318	482520
5.27132	449614
5.27943	427336
5.28757	425447
5.29568	415265
5.30380	400510
5.31193	393408
5.32005	405431
5.32817	411862
5.33630	427347
5.34442	433573
5.35255	427238
5.36067	407955
5.36878	394435
5.37692	404856
5.38503	418941
5.39317	455939
5.40128	482239
5.40940	487529
5.41753	443254
5.42565	413030
5.43378	381299
5.44190	410339
5.45002	440452
5.45815	462873
5.46627	478889
5.47438	432877
5.48252	398728
5.49063	368385
5.49877	346353
5.50688	341103
5.51500	345230
5.52313	337210
5.53125	332725
5.53938	340589
5.54750	389911
5.55562	507287
5.56375	777884
5.57187	1085887
5.57998	1186963
5.58812	1035957
5.59623	790344
5.60437	611809
5.61248	480105
5.62060	431717
5.62873	401292
5.63685	389641
5.64498	383820
5.65310	365383
5.66122	347260
5.66935	353383
5.67747	356404
5.68560	368580
5.69372	398619
5.70183	392696
5.70997	373989
5.71808	376453
5.72620	350558
5.73433	332036
5.74245	323070
5.75058	310654
5.75870	312089
5.76682	302127
5.77495	295871
5.78307	299048
5.79120	300948
5.79932	291727
5.80743	277745
5.81557	289293
5.82368	284740
5.83182	285376
5.83993	290951
5.84805	285075
5.85618	286333
5.86430	273481
5.87242	273415
5.88055	269141
5.88867	269252
5.89680	272232
5.90492	282052
5.91303	270189
5.92117	272182
5.92928	257585
5.93742	247476
5.94553	230557
5.95365	251337
5.96178	303318
5.96990	447205
5.97802	637984
5.98615	792297
5.99427	825038
6.00240	674577
6.01052	499159
6.01863	395480
6.02677	313551
6.03488	278235
6.04302	263427
6.05113	255839
6.05925	236963
6.06738	231468
6.07550	237456
6.08363	229896
6.09175	218915
6.09987	222997
6.10800	222645
6.11612	228370
6.12423	281499
6.13237	423466
6.14048	631796
6.14862	759723
6.15673	694001
6.16485	548009
6.17298	419358
6.18110	353724
6.18923	302294
6.19735	286237
6.20547	268875
6.21360	258358
6.22172	244810
6.22983	250886
6.23797	251833
6.24608	276536
6.25422	324847
6.26233	353534
6.27045	349019
6.27858	317960
6.28670	275604
6.29483	270626
6.30295	245557
6.31107	241117
6.31920	250442
6.32732	256476
6.33545	280525
6.34357	300957
6.35168	284383
6.35982	267468
6.36793	246913
6.37605	248565
6.38418	239006
6.39230	248127
6.40043	229636
6.40855	227355
6.41667	223536
6.42480	229140
6.43292	226960
6.44105	234885
6.44917	232122
6.45728	224935
6.46542	224475
6.47353	228402
6.48167	228200
6.48978	220373
6.49790	222168
6.50603	216485
6.51415	225073
6.52227	224709
6.53040	230650
6.53852	235140
6.54665	226631
6.55477	261493
6.56288	382019
6.57102	615002
6.57913	889601
6.58727	982940
6.59538	805984
6.60350	578360
6.61163	407259
6.61975	331127
6.62787	285246
6.63600	279725
6.64412	322540
6.65225	552380
6.66037	1060068
6.66848	1649966
6.67662	1850829
6.68473	1719299
6.69287	1153360
6.70098	762260
6.70910	540092
6.71723	434234
6.72535	380161
6.73348	335108
6.74160	304193
6.74972	287912
6.75785	277004
6.76597	260596
6.77408	268457
6.78222	249119
6.79033	248843
6.79847	237630
6.80658	222625
6.81470	209818
6.82283	202263
6.83095	199398
6.83908	201171
6.84720	231152
6.85532	283500
6.86345	337783
6.87157	370353
6.87970	328507
6.88782	265052
6.89593	203169
6.90407	160338
6.91218	146695
6.92030	126661
6.92843	125933
6.93655	119904
6.94468	115554
6.95280	115583
6.96092	126486
6.96905	150906
6.97717	175254
6.98530	193551
6.99342	177024
7.00153	161096
7.00967	147532
7.01778	134246
7.02590	127751
7.03403	128515
7.04215	142280
7.05028	155346
7.05840	202281
7.06652	242013
7.07465	289199
7.08277	291358
7.09090	262036
7.09902	221988
7.10713	188273
7.11527	153899
7.12338	138528
7.13152	135990
7.13963	152875
7.14775	182318
7.15588	254644
7.16400	289529
7.17212	298703
7.18025	269482
7.18837	289660
7.19650	544521
7.20462	1124863
7.21273	1927366
7.22087	2388788
7.22898	2157425
7.23712	1498165
7.24523	921134
7.25335	510947
7.26148	304810
7.26960	201412
7.27772	158538
7.28585	134516
7.29397	136115
7.30210	138262
7.31022	133005
7.31833	134544
7.32647	139842
7.33458	138676
7.34272	146418
7.35083	138961
7.35895	131628
7.36708	126451
7.37520	125075
7.38333	114378
7.39145	121134
7.39957	121150
7.40770	118158
7.41582	114356
7.42393	119864
7.43207	110220
7.44018	109509
7.44832	108813
7.45643	113095
7.46455	114841
7.47268	108046
7.48080	106026
7.48893	105322
7.49705	104437
7.50517	99675
7.51330	112111
7.52142	182382
7.52955	359723
7.53767	794396
7.54578	1599627
7.55392	2756675
7.56203	3870481
7.57015	4612105
7.57828	4561975
7.58640	3821906
7.59453	2732438
7.60265	1769491
7.61077	1086826
7.61890	675888
7.62702	460176
7.63515	346842
7.64327	279046
7.65138	235962
7.65952	193048
7.66763	164475
7.67577	146928
7.68388	132400
7.69200	124158
7.70013	120401
7.70825	122189
7.71637	135547
7.72450	148863
7.73262	164647
7.74075	185952
7.74887	196742
7.75698	205022
7.76512	203503
7.77323	199692
7.78137	192137
7.78948	182094
7.79760	190931
7.80573	207427
7.81385	209579
7.82197	203827
7.83010	184534
7.83822	164204
7.84635	154831
7.85447	160274
7.86258	171790
7.87072	199250
7.87883	235917
7.88697	266459
7.89508	288673
7.90320	272697
7.91133	243213
7.91945	192549
7.92758	177767
7.93570	186268
7.94382	203299
7.95195	196789
7.96007	198627
7.96818	169779
7.97632	146156
7.98443	130757
7.99257	114332
8.00068	110992
8.00880	105816
8.01693	101659
8.02505	104173
8.03318	105697
8.04130	107389
8.04942	95698
8.05755	103752
8.06567	100841
8.07378	96588
8.08192	97336
8.09003	93226
8.09817	95459
8.10628	91684
8.11440	87108
8.12253	91925
8.13065	102745
8.13878	121399
8.14690	147676
8.15502	152258
8.16315	151325
8.17127	140663
8.17940	119250
8.18752	105975
8.19563	98513
8.20377	97220
8.21188	87798
8.22000	89758
8.22813	89916
8.23625	83584
8.24438	84560
8.25250	86004
8.26062	82692
8.26875	82648
8.27687	77483
8.28500	79237
8.29312	80322
8.30123	82230
8.30937	94616
8.31748	105487
8.32562	123518
8.33373	130248
8.34185	120330
8.34998	109887
8.35810	98015
8.36622	85625
8.37435	82640
8.38247	77105
8.39060	80295
8.39872	80412
8.40683	76705
8.41497	78646
8.42308	69373
8.43122	72672
8.43933	71111
8.44745	71746
8.45558	69727
8.46370	76312
8.47182	78731
8.47995	68350
8.48807	75721
8.49620	72668
8.50432	79358
8.51243	92838
8.52057	143999
8.52868	217591
8.53682	302047
8.54493	324820
8.55305	285599
8.56118	200109
8.56930	145081
8.57743	103103
8.58555	93388
8.59367	97825
8.60180	95957
8.60992	102838
8.61803	100235
8.62617	96713
8.63428	95365
8.64242	84926
8.65053	81836
8.65865	79531
8.66678	78249
8.67490	74460
8.68303	78154
8.69115	76345
8.69927	78986
8.70740	73557
8.71552	78528
8.72365	78423
8.73177	70165
8.73988	71567
8.74802	86159
8.75613	124072
8.76425	245156
8.77238	476395
8.78050	761730
8.78863	981710
8.79675	965789
8.80487	787606
8.81300	539826
8.82112	361916
8.82925	271754
8.83737	250244
8.84548	245388
8.85362	241487
8.86173	236464
8.86985	216480
8.87798	212879
8.88610	202967
8.89423	188028
8.90235	199085
8.91047	189863
8.91860	194941
8.92672	202854
8.93485	213968
8.94297	224799
8.95108	219510
8.95922	220630
8.96733	206092
8.97547	210705
8.98358	245556
8.99170	235900
8.99983	234260
9.00795	216157
9.01607	191475
9.02420	169886
9.03232	154362
9.04045	153285
9.04857	149573
9.05668	142892
9.06482	135822
9.07293	135721
9.08107	145006
9.08918	158828
9.09730	180599
9.10543	232620
9.11355	282705
9.12167	308848
9.12980	302371
9.13792	262222
9.14605	216296
9.15417	174068
9.16228	158770
9.17042	140877
9.17853	135721
9.18667	136841
9.19478	135576
9.20290	133490
9.21103	131773
9.21915	132636
9.22728	130941
9.23540	125946
9.24352	124955
9.25165	130292
9.25977	130242
9.26788	131676
9.27602	125543
9.28413	117614
9.29227	118993
9.30038	119905
9.30850	112903
9.31663	113511
9.32475	109727
9.33288	107109
9.34100	111364
9.34912	108068
9.35725	110586
9.36537	102275
9.37350	105350
9.38162	102755
9.38973	111616
9.39787	123393
9.40598	144461
9.41410	169943
9.42223	224138
9.43035	280747
9.43848	325008
9.44660	356046
9.45472	322524
9.46285	276745
9.47097	216781
9.47910	175295
9.48722	139411
9.49533	130689
9.50347	129717
9.51158	149566
9.51970	172126
9.52783	202638
9.53595	207360
9.54408	196328
9.55220	168937
9.56032	143757
9.56845	125805
9.57657	113665
9.58470	107829
9.59282	115793
9.60093	117468
9.60907	103038
9.61718	91291
9.62532	80537
9.63343	77112
9.64155	78823
9.64968	79848
9.65780	82303
9.66592	72153
9.67405	78791
9.68217	74995
9.69030	72921
9.69842	67714
9.70653	68211
9.71467	67890
9.72278	68004
9.73092	63216
9.73903	62059
9.74715	60454
9.75528	61148
9.76340	60082
9.77153	58185
9.77965	56329
9.78777	58495
9.79590	62607
9.80402	56797
9.81213	55615
9.82027	54980
9.82838	58467
9.83652	58989
9.84463	58573
9.85275	56768
9.86088	63819
9.86900	65732
9.87713	58868
9.88525	59166
9.89337	56260
9.90150	66234
9.90962	70375
9.91773	70739
9.92587	90483
9.93398	132761
9.94212	226959
9.95023	350813
9.95835	467613
9.96648	507101
9.97460	455513
9.98273	371424
9.99085	266621
9.99897	191238
10.00710	139153
10.01522	111127
10.02335	102517
10.03147	94424
10.03958	91713
10.04772	93242
10.05583	101623
10.06395	101555
10.07208	97343
10.08020	98110
10.08833	103524
10.09645	92295
10.10457	86583
10.11270	89136
10.12082	83521
10.12895	81924
10.13707	82849
10.14518	79705
10.15332	77008
10.16143	77609
10.16955	75414
10.17768	67842
10.18580	68085
10.19393	71808
10.20205	62921
10.21017	65902
10.21830	77094
10.22642	78184
10.23455	83680
10.24267	89348
10.25078	116943
10.25892	199520
10.26703	439214
10.27517	963965
10.28328	1808929
10.29140	2898441
10.29953	4146896
10.30765	5837266
10.31577	8406525
10.32390	1.151758E+07
10.33202	1.333022E+07
10.34015	1.28287E+07
10.34827	1.001946E+07
10.35638	7185280
10.36452	5614200
10.37263	5071655
10.38077	4637889
10.38888	3849066
10.39700	2772337
10.40513	1756146
10.41325	1147532
10.42138	793941
10.42950	687615
10.43762	684314
10.44575	667840
10.45387	647983
10.46198	594381
10.47012	537464
10.47823	481451
10.48637	409233
10.49448	379544
10.50260	349935
10.51073	319483
10.51885	304936
10.52698	281795
10.53510	270527
10.54322	247326
10.55135	252782
10.55947	244957
10.56758	237753
10.57572	225239
10.58383	207482
10.59197	203387
10.60008	189843
10.60820	188427
10.61633	186426
10.62445	171295
10.63258	167403
10.64070	168482
10.64882	158247
10.65695	147371
10.66507	153523
10.67320	150513
10.68132	152749
10.68943	162902
10.69757	167830
10.70568	175079
10.71380	172386
10.72193	165444
10.73005	161874
10.73818	152520
10.74630	139815
10.75442	137996
10.76255	133590
10.77067	130438
10.77880	137551
10.78692	127972
10.79503	137950
10.80317	149331
10.81128	158578
10.81942	156689
10.82753	163398
10.83565	142368
10.84378	126293
10.85190	114330
10.86002	106926
10.86815	104528
10.87627	106180
10.88440	100784
10.89252	93251
10.90063	99086
10.90877	93860
10.91688	92454
10.92502	94211
10.93313	89860
10.94125	91327
10.94938	91919
10.95750	92341
10.96562	90319
10.97375	92339
10.98187	100211
10.99000	105313
10.99812	112451
11.00623	122955
11.01437	123292
11.02248	123641
11.03062	115851
11.03873	108222
11.04685	97083
11.05498	96550
11.06310	96643
11.07123	103312
11.07935	114784
11.08747	121961
11.09560	133905
11.10372	132037
11.11183	126426
11.11997	116876
11.12808	103707
11.13622	96681
11.14433	86447
11.15245	85717
11.16058	87844
11.16870	88175
11.17683	88558
11.18495	87632
11.19307	92907
11.20120	89781
11.20932	85067
11.21745	69209
11.22557	70919
11.23368	64409
11.24182	62433
11.24993	67011
11.25805	62074
11.26618	61391
11.27430	61107
11.28243	64787
11.29055	74987
11.29867	123125
11.30680	251997
11.31492	575019
11.32305	1230297
11.33117	2140680
11.33928	3100800
11.34742	3746886
11.35553	3538628
11.36365	2917944
11.37178	2072433
11.37990	1379589
11.38803	945747
11.39615	733349
11.40427	627359
11.41240	551590
11.42052	475236
11.42865	402917
11.43677	345704
11.44488	307247
11.45302	266946
11.46113	243405
11.46927	228399
11.47738	221864
11.48550	241214
11.49363	247644
11.50175	249301
11.50987	243597
11.51800	219173
11.52612	208517
11.53425	175476
11.54237	172004
11.55048	161063
11.55862	160103
11.56673	165681
11.57487	166037
11.58298	166325
11.59110	170911
11.59923	182563
11.60735	211176
11.61547	220671
11.62360	235666
11.63172	206192
11.63985	171697
11.64797	142009
11.65608	126663
11.66422	113953
11.67233	115335
11.68047	118552
11.68858	121221
11.69670	125343
11.70483	137754
11.71295	129244
11.72108	131788
11.72920	111012
11.73732	105975
11.74545	98627
11.75357	91912
11.76168	85701
11.76982	89300
11.77793	89250
11.78607	80484
11.79418	80134
11.80230	81375
11.81043	77834
11.81855	73585
11.82668	73393
11.83480	76058
11.84292	69448
11.85105	73681
11.85917	71073
11.86730	71778
11.87542	77629
11.88353	65231
11.89167	70951
11.89978	65283
11.90790	68912
11.91603	73422
11.92415	78761
11.93228	75431
11.94040	76760
11.94852	73383
11.95665	67490
11.96477	62135
11.97290	65042
11.98102	71645
11.98913	83029
11.99727	115934
12.00538	129505
12.01350	138673
12.02163	132704
12.02975	116991
12.03788	104929
12.04600	91131
12.05412	91022
12.06225	89239
12.07037	90160
12.07850	98733
12.08662	105202
12.09473	130226
12.10287	194846
12.11098	327546
12.11912	534501
12.12723	833792
12.13535	1087325
12.14348	1209971
12.15160	1119771
12.15972	860510
12.16785	578044
12.17597	387386
12.18410	273813
12.19222	239901
12.20033	223953
12.20847	214234
12.21658	191994
12.22472	175677
12.23283	160877
12.24095	150924
12.24908	147455
12.25720	139394
12.26533	132635
12.27345	124688
12.28157	127706
12.28970	123041
12.29782	111929
12.30593	111938
12.31407	108698
12.32218	99281
12.33032	100057
12.33843	96279
12.34655	93241
12.35468	90045
12.36280	89379
12.37093	92344
12.37905	94959
12.38717	94698
12.39530	103714
12.40342	124431
12.41153	142475
12.41967	171587
12.42778	181247
12.43592	171127
12.44403	154656
12.45215	136429
12.46028	139205
12.46840	131460
12.47653	122795
12.48465	114485
12.49277	104576
12.50090	100579
12.50902	98663
12.51715	101834
12.52527	95290
12.53338	107070
12.54152	114053
12.54963	130501
12.55775	137889
12.56588	140762
12.57400	135415
12.58213	115897
12.59025	120249
12.59837	109220
12.60650	100102
12.61462	100644
12.62275	99066
12.63087	99021
12.63898	93901
12.64712	87801
12.65523	82288
12.66335	83466
12.67148	80888
12.67960	72175
12.68773	77003
12.69585	71960
12.70397	70998
12.71210	73339
12.72022	78320
12.72835	76467
12.73647	82203
12.74458	84421
12.75272	82656
12.76083	72207
12.76897	71637
12.77708	68769
12.78520	65961
12.79333	71083
12.80145	59717
12.80957	60667
12.81770	58459
12.82582	58334
12.83395	53017
12.84207	52276
12.85018	53321
12.85832	51711
12.86643	49194
12.87457	53959
12.88268	53029
12.89080	52519
12.89893	49157
12.90705	50080
12.91518	50146
12.92330	50013
12.93142	51425
12.93955	51066
12.94767	55362
12.95578	62716
12.96392	76050
12.97203	92625
12.98017	99034
12.98828	105610
12.99640	97126
13.00453	85399
13.01265	65983
13.02078	66763
13.02890	62328
13.03702	57351
13.04515	53452
13.05327	54256
13.06138	53014
13.06952	53151
13.07763	53794
13.08577	59488
13.09388	53291
13.10200	51909
13.11013	50743
13.11825	51197
13.12638	51902
13.13450	53296
13.14262	56077
13.15075	52071
13.15887	56532
13.16700	55651
13.17512	51810
13.18323	55691
13.19137	57194
13.19948	62263
13.20760	62972
13.21573	64150
13.22385	68698
13.23198	64374
13.24010	62859
13.24822	61287
13.25635	55518
13.26447	57398
13.27260	57107
13.28072	54789
13.28883	54459
13.29697	48768
13.30508	47247
13.31322	50483
13.32133	50802
13.32945	48361
13.33758	51667
13.34570	47929
13.35382	48035
13.36195	48589
13.37007	47460
13.37820	45130
13.38632	47339
13.39443	45588
13.40257	48127
13.41068	44940
13.41882	52636
13.42693	47201
13.43505	49015
13.44318	45088
13.45130	48091
13.45942	58271
13.46755	57798
13.47567	57985
13.48380	57034
13.49192	53433
13.50003	57279
13.50817	51764
13.51628	53940
13.52442	52529
13.53253	49951
13.54065	52378
13.54878	51080
13.55690	50870
13.56503	54385
13.57315	59362
13.58127	65570
13.58940	68473
13.59752	74185
13.60563	70544
13.61377	72872
13.62188	70612
13.63002	67190
13.63813	62747
13.64625	54576
13.65438	53302
13.66250	54636
13.67063	48535
13.67875	46509
13.68687	44975
13.69500	43304
13.70312	48847
13.71123	42891
13.71937	43208
13.72748	47364
13.73562	55165
13.74373	74419
13.75185	117086
13.75998	198086
13.76810	292353
13.77623	395836
13.78435	435863
13.79247	416250
13.80060	394095
13.80872	401271
13.81685	440642
13.82497	521865
13.83308	619878
13.84122	643587
13.84933	621548
13.85745	522951
13.86558	421321
13.87370	312378
13.88183	257397
13.88995	197800
13.89807	166610
13.90620	149023
13.91432	131732
13.92245	124689
13.93057	113478
13.93868	111155
13.94682	104841
13.95493	99163
13.96307	105863
13.97118	111623
13.97930	110431
13.98743	116560
13.99555	110049
14.00367	114049
14.01180	98303
14.01992	101302
14.02805	101024
14.03617	96620
14.04428	98092
14.05242	100516
14.06053	91551
14.06867	95340
14.07678	90043
14.08490	87498
14.09303	87371
14.10115	86266
14.10928	84962
14.11740	86181
14.12552	82918
14.13365	88045
14.14177	99265
14.14988	109002
14.15802	112615
14.16613	126114
14.17427	141772
14.18238	168984
14.19050	212257
14.19863	289481
14.20675	356820
14.21488	395774
14.22300	381171
14.23112	350179
14.23925	306778
14.24737	295681
14.25548	279765
14.26362	254144
14.27173	235334
14.27987	209074
14.28798	185242
14.29610	168895
14.30423	152308
14.31235	152788
14.32048	139405
14.32860	134058
14.33672	125927
14.34485	126669
14.35297	115254
14.36110	102088
14.36922	94676
14.37733	77079
14.38547	75332
14.39358	76906
14.40170	79560
14.40983	79297
14.41795	82915
14.42608	84037
14.43420	81813
14.44232	76269
14.45045	77769
14.45857	77426
14.46670	83809
14.47482	85663
14.48293	93693
14.49107	93049
14.49918	91852
14.50730	86836
14.51543	83165
14.52355	81552
14.53168	80762
14.53980	75500
14.54792	72757
14.55605	72455
14.56417	66900
14.57230	63044
14.58042	61216
14.58853	58564
14.59667	57584
14.60478	55162
14.61292	56076
14.62103	56654
14.62915	54510
14.63728	55585
14.64540	54450
14.65352	51015
14.66165	55875
14.66977	51262
14.67790	47863
14.68602	47842
14.69413	53163
14.70227	53829
14.71038	51075
14.71852	55099
14.72663	60233
14.73475	55774
14.74288	57762
14.75100	68236
14.75913	57919
14.76725	64494
14.77537	66772
14.78350	96208
14.79162	186519
14.79973	486712
14.80787	1225811
14.81598	2476707
14.82412	4158230
14.83223	5339953
14.84035	5553642
14.84848	4642858
14.85660	3221954
14.86473	2003762
14.87285	1176143
14.88097	740583
14.88910	528463
14.89722	441586
14.90533	361652
14.91347	329464
14.92158	293784
14.92972	273207
14.93783	246574
14.94595	231488
14.95408	216143
14.96220	201876
14.97033	192512
14.97845	179362
14.98657	167254
14.99470	164030
15.00282	162072
15.01095	155622
15.01907	145441
15.02718	145977
15.03532	141541
15.04343	143159
15.05155	136102
15.05968	129095
15.06780	126161
15.07593	118277
15.08405	114599
15.09217	106746
15.10030	103748
15.10842	102254
15.11655	103652
15.12467	111847
15.13278	115364
15.14092	122925
15.14903	126786
15.15717	117486
15.16528	108404
15.17340	87306
15.18153	85681
15.18965	74760
15.19777	71178
15.20590	67964
15.21402	67866
15.22215	68413
15.23027	62050
15.23838	66568
15.24652	62135
15.25463	60283
15.26277	55917
15.27088	57994
15.27900	61821
15.28713	59473
15.29525	58126
15.30337	56910
15.31150	56826
15.31962	56261
15.32775	56078
15.33587	56854
15.34398	53528
15.35212	51264
15.36023	52092
15.36837	52092
15.37648	52465
15.38460	53763
15.39273	53627
15.40085	54659
15.40898	52451
15.41710	57367
15.42522	50235
15.43335	53979
15.44147	52841
15.44958	50905
15.45772	63733
15.46583	96687
15.47397	145333
15.48208	231195
15.49020	350518
15.49833	461187
15.50645	533868
15.51458	543094
15.52270	492694
15.53082	430818
15.53895	367342
15.54707	316977
15.55518	266684
15.56332	212601
15.57143	186447
15.57957	144183
15.58768	118128
15.59580	102906
15.60393	91327
15.61205	82929
15.62018	81905
15.62830	79067
15.63642	73934
15.64455	71590
15.65267	72825
15.66080	73442
15.66892	70947
15.67703	60865
15.68517	64954
15.69328	66215
15.70140	62378
15.70953	67851
15.71765	56504
15.72578	55026
15.73390	55483
15.74202	61393
15.75015	72099
15.75827	97301
15.76640	151584
15.77452	226947
15.78263	301605
15.79077	363165
15.79888	352081
15.80702	280415
15.81513	216590
15.82325	154221
15.83138	117275
15.83950	102805
15.84762	91548
15.85575	87068
15.86387	84218
15.87200	81509
15.88012	81300
15.88823	78234
15.89637	83997
15.90448	71563
15.91262	73104
15.92073	71021
15.92885	68376
15.93698	68790
15.94510	68445
15.95322	73352
15.96135	75037
15.96947	72321
15.97760	75499
15.98572	80804
15.99383	77025
16.00197	84472
16.01008	82978
16.01822	88160
16.02633	95753
16.03445	100700
16.04258	92338
16.05070	90167
16.05883	85589
16.06695	74749
16.07507	69883
16.08320	69159
16.09132	68910
16.09943	68522
16.10757	65184
16.11568	69002
16.12382	75165
16.13193	78509
16.14005	83613
16.14818	79160
16.15630	84944
16.16443	81228
16.17255	77411
16.18067	72891
16.18880	68766
16.19692	70630
16.20505	64012
16.21317	61733
16.22128	66926
16.22942	62856
16.23753	66247
16.24565	60973
16.25378	60128
16.26190	63550
16.27003	65403
16.27815	62343
16.28627	68193
16.29440	80800
16.30252	85917
16.31065	85733
16.31877	85907
16.32688	79186
16.33502	72229
16.34313	70652
16.35125	75625
16.35938	78764
16.36750	90379
16.37563	94805
16.38375	95001
16.39187	98196
16.40000	86886
16.40812	72219
16.41625	68870
16.42437	67412
16.43248	63939
16.44062	82781
16.44873	124719
16.45687	257443
16.46498	477617
16.47310	777689
16.48123	1053854
16.48935	1108622
16.49747	966171
16.50560	693299
16.51372	437022
16.52185	280661
16.52997	192559
16.53808	154176
16.54622	139497
16.55433	119041
16.56247	114134
16.57058	100770
16.57870	98562
16.58683	97966
16.59495	97453
16.60308	101203
16.61120	101194
16.61932	97397
16.62745	99707
16.63557	88006
16.64368	81293
16.65182	80644
16.65993	77659
16.66807	75361
16.67618	70329
16.68430	75891
16.69243	72957
16.70055	68928
16.70868	67732
16.71680	65392
16.72492	63256
16.73305	66806
16.74117	65904
16.74928	63987
16.75742	69636
16.76553	70874
16.77367	72324
16.78178	67943
16.78990	64393
16.79803	61504
16.80615	57937
16.81428	54041
16.82240	54072
16.83052	52064
16.83865	53783
16.84677	53389
16.85490	51426
16.86302	50243
16.87113	54646
16.87927	45634
16.88738	48710
16.89550	50937
16.90363	48645
16.91175	51115
16.91988	52728
16.92800	53583
16.93612	52350
16.94425	51376
16.95237	52155
16.96050	48526
16.96862	47500
16.97673	47702
16.98487	53410
16.99298	51290
17.00110	51138
17.00923	53808
17.01735	54838
17.02548	56090
17.03360	55410
17.04172	55395
17.04985	57028
17.05797	58340
17.06610	54026
17.07422	58115
17.08233	52248
17.09047	52737
17.09858	56741
17.10672	58805
17.11483	58102
17.12295	60759
17.13108	62310
17.13920	61477
17.14732	62328
17.15545	67749
17.16357	65238
17.17170	60271
17.17982	59387
17.18793	57663
17.19607	52369
17.20418	52597
17.21232	49891
17.22043	52893
17.22855	48841
17.23668	57315
17.24480	52734
17.25293	51732
17.26105	50415
17.26917	50824
17.27730	46982
17.28542	50942
17.29353	49066
17.30167	53773
17.30978	58772
17.31792	56662
17.32603	66061
17.33415	77914
17.34228	89450
17.35040	100286
17.35853	104690
17.36665	104860
17.37477	103019
17.38290	97763
17.39102	94348
17.39913	94378
17.40727	90290
17.41538	92225
17.42352	92256
17.43163	95016
17.43975	94528
17.44788	85306
17.45600	81957
17.46413	80107
17.47225	68357
17.48037	69269
17.48850	57308
17.49662	63041
17.50475	59706
17.51287	60409
17.52098	62615
17.52912	66203
17.53723	56566
17.54535	61014
17.55348	67351
17.56160	79910
17.56973	107999
17.57785	176644
17.58597	254392
17.59410	376388
17.60222	482409
17.61035	551151
17.61847	532291
17.62658	446662
17.63472	329299
17.64283	243472
17.65097	195044
17.65908	160800
17.66720	141638
17.67533	131532
17.68345	124087
17.69157	109399
17.69970	112809
17.70782	109374
17.71595	107788
17.72407	109064
17.73218	104863
17.74032	107069
17.74843	102403
17.75657	99970
17.76468	90007
17.77280	83544
17.78093	84370
17.78905	83862
17.79717	88934
17.80530	98893
17.81342	117159
17.82155	142400
17.82967	163168
17.83778	167680
17.84592	161729
17.85403	162052
17.86217	159387
17.87028	147381
17.87840	137611
17.88653	123642
17.89465	105873
17.90278	90477
17.91090	78394
17.91902	74656
17.92715	72447
17.93527	68383
17.94338	69056
17.95152	64715
17.95963	62194
17.96777	63734
17.97588	63133
17.98400	64759
17.99213	60327
18.00025	63710
18.00838	72077
18.01650	81452
18.02462	96649
18.03275	115296
18.04087	135201
18.04898	145761
18.05712	194656
18.06523	325370
18.07337	590567
18.08148	991452
18.08960	1409140
18.09773	1646568
18.10585	1523369
18.11398	1272544
18.12210	947662
18.13022	661929
18.13835	496351
18.14647	405304
18.15460	340825
18.16272	304994
18.17083	265450
18.17897	245934
18.18708	209694
18.19520	201043
18.20333	190075
18.21145	176771
18.21958	159323
18.22770	146108
18.23582	144842
18.24395	143447
18.25207	130784
18.26020	129942
18.26832	117663
18.27643	108978
18.28457	99691
18.29268	86343
18.30082	78020
18.30893	72915
18.31705	62947
18.32518	60619
18.33330	58974
18.34142	57494
18.34955	61024
18.35767	60215
18.36580	60520
18.37392	59356
18.38203	64204
18.39017	60933
18.39828	64579
18.40642	68048
18.41453	77857
18.42265	98552
18.43078	125741
18.43890	149525
18.44703	164838
18.45515	189749
18.46327	200334
18.47140	216075
18.47952	219361
18.48763	222701
18.49577	198674
18.50388	174823
18.51202	147431
18.52013	116947
18.52825	100356
18.53638	87940
18.54450	78350
18.55263	78160
18.56075	73430
18.56887	74491
18.57700	70986
18.58512	72446
18.59323	77100
18.60137	82759
18.60948	90619
18.61762	100634
18.62573	107126
18.63385	109338
18.64198	102712
18.65010	96606
18.65823	83310
18.66635	84621
18.67447	72519
18.68260	67485
18.69072	64454
18.69885	63815
18.70697	66376
18.71508	64726
18.72322	63067
18.73133	61766
18.73945	61798
18.74758	57047
18.75570	58963
18.76383	59548
18.77195	56162
18.78007	56108
18.78820	57461
18.79632	57136
18.80445	58635
18.81257	57118
18.82068	59785
18.82882	58929
18.83693	52044
18.84505	55344
18.85318	61892
18.86130	64535
18.86943	73498
18.87755	78628
18.88567	75920
18.89380	83501
18.90192	72621
18.91005	76684
18.91817	67408
18.92628	67035
18.93442	73055
18.94253	73190
18.95067	73394
18.95878	71599
18.96690	78600
18.97503	75932
18.98315	72149
18.99127	67880
18.99940	66689
19.00752	66501
19.01565	60455
19.02377	61775
19.03188	62432
19.04002	60005
19.04813	58066
19.05627	64377
19.06438	76292
19.07250	102874
19.08063	169566
19.08875	275185
19.09688	390637
19.10500	507941
19.11312	549153
19.12125	514436
19.12937	401436
19.13748	298105
19.14562	210703
19.15373	154169
19.16187	132000
19.16998	107243
19.17810	99261
19.18623	88092
19.19435	86799
19.20248	86493
19.21060	76309
19.21872	73105
19.22685	72711
19.23497	66732
19.24308	66493
19.25122	63813
19.25933	67113
19.26747	69929
19.27558	70104
19.28370	73360
19.29183	82469
19.29995	85796
19.30808	93767
19.31620	105424
19.32432	104790
19.33245	107132
19.34057	107703
19.34870	113444
19.35682	126394
19.36493	150585
19.37307	164394
19.38118	167713
19.38930	163226
19.39743	152936
19.40555	136936
19.41368	129084
19.42180	120165
19.42992	117805
19.43805	120980
19.44617	116311
19.45430	111104
19.46242	111128
19.47053	111076
19.47867	126705
19.48678	145067
19.49492	190569
19.50303	248231
19.51115	309032
19.51928	351823
19.52740	349841
19.53552	306525
19.54365	250240
19.55177	211912
19.55990	170547
19.56802	146750
19.57613	130294
19.58427	114247
19.59238	114127
19.60052	109723
19.60863	109297
19.61675	110572
19.62488	105647
19.63300	121126
19.64112	155991
19.64925	220812
19.65737	293038
19.66550	383894
19.67362	463447
19.68173	484680
19.68987	457595
19.69798	420113
19.70612	361622
19.71423	312499
19.72235	270100
19.73048	238647
19.73860	207897
19.74673	191719
19.75485	171283
19.76297	172228
19.77110	169202
19.77922	176593
19.78733	204641
19.79547	215976
19.80358	230272
19.81172	237530
19.81983	221249
19.82795	188662
19.83608	165216
19.84420	150182
19.85233	167986
19.86045	248658
19.86857	469173
19.87670	928009
19.88482	1575474
19.89293	2358455
19.90107	2934450
19.90918	2970737
19.91732	2717030
19.92543	2134734
19.93355	1547472
19.94168	1097311
19.94980	820018
19.95793	644716
19.96605	541918
19.97417	503339
19.98230	461286
19.99042	452344
19.99855	408426
20.00667	394363
20.01478	371881
20.02292	353493
20.03103	334985
20.03915	332167
20.04728	307397
20.05540	284935
20.06353	304714
20.07165	323106
20.07977	359443
20.08790	389903
20.09602	372504
20.10415	340857
20.11227	294149
20.12038	253922
20.12852	211043
20.13663	208905
20.14477	248552
20.15288	355584
20.16100	555490
20.16913	898973
20.17725	1302722
20.18537	1780181
20.19350	2108519
20.20162	2286688
20.20975	2144615
20.21787	1804070
20.22598	1454739
20.23412	1174176
20.24223	1038213
20.25037	1031446
20.25848	1206280
20.26660	1445535
20.27473	1634914
20.28285	1679090
20.29097	1579355
20.29910	1375029
20.30722	1082539
20.31535	844293
20.32347	616261
20.33158	445548
20.33972	329492
20.34783	253252
20.35597	211897
20.36408	176157
20.37220	161175
20.38033	142638
20.38845	131849
20.39658	131755
20.40470	125039
20.41282	123819
20.42095	121936
20.42907	130182
20.43718	139625
20.44532	148414
20.45343	153905
20.46157	150385
20.46968	147365
20.47780	133357
20.48593	126929
20.49405	108284
20.50218	104249
20.51030	95259
20.51842	99252
20.52655	95168
20.53467	89477
20.54280	91265
20.55092	94123
20.55903	89125
20.56717	89721
20.57528	86258
20.58340	84219
20.59153	81621
20.59965	76404
20.60778	79733
20.61590	80006
20.62402	83838
20.63215	87074
20.64027	90397
20.64840	91280
20.65652	93164
20.66463	93317
20.67277	90906
20.68088	87729
20.68900	85204
20.69713	78420
20.70525	76349
20.71338	76708
20.72150	70196
20.72962	74569
20.73775	71897
20.74587	76918
20.75400	82334
20.76212	84715
20.77023	81253
20.77837	103480
20.78648	137266
20.79462	200512
20.80273	319463
20.81085	443155
20.81898	533902
20.82710	558880
20.83522	476710
20.84335	365558
20.85147	258525
20.85960	180079
20.86772	134882
20.87583	113525
20.88397	106823
20.89208	106159
20.90022	105121
20.90833	112038
20.91645	120724
20.92458	137387
20.93270	144386
20.94082	161178
20.94895	148945
20.95707	143180
20.96520	127706
20.97332	118394
20.98143	105739
20.98957	94443
20.99768	86764
21.00582	88432
21.01393	84253
21.02205	85698
21.03018	84719
21.03830	86487
21.04643	89236
21.05455	86748
21.06267	81080
21.07080	83696
21.07892	80320
21.08703	84959
21.09517	78463
21.10328	71540
21.11142	75538
21.11953	77894
21.12765	85165
21.13578	97620
21.14390	139830
21.15203	170289
21.16015	209502
21.16827	233945
21.17640	224445
21.18452	192387
21.19265	157034
21.20077	128097
21.20888	112547
21.21702	100114
21.22513	93261
21.23325	82065
21.24138	86012
21.24950	82233
21.25763	85812
21.26575	79794
21.27387	81480
21.28200	81206
21.29012	79555
21.29825	73610
21.30637	77220
21.31448	77145
21.32262	76104
21.33073	78801
21.33885	73385
21.34698	74518
21.35510	69847
21.36323	79449
21.37135	80877
21.37947	87695
21.38760	94517
21.39572	116584
21.40385	137910
21.41197	147970
21.42008	155907
21.42822	153501
21.43633	132455
21.44447	114463
21.45258	98411
21.46070	88985
21.46883	84826
21.47695	86260
21.48507	81581
21.49320	76544
21.50132	76743
21.50945	73671
21.51757	74259
21.52568	76481
21.53382	78138
21.54193	76034
21.55007	73838
21.55818	80450
21.56630	79399
21.57443	79870
21.58255	80651
21.59068	87091
21.59880	81351
21.60692	87909
21.61505	92850
21.62317	99889
21.63128	105378
21.63942	115021
21.64753	126805
21.65567	126803
21.66378	132224
21.67190	128490
21.68003	131314
21.68815	117894
21.69628	105142
21.70440	98085
21.71252	89813
21.72065	83276
21.72877	83094
21.73688	80191
21.74502	79082
21.75313	79887
21.76127	72003
21.76938	78227
21.77750	77579
21.78563	76211
21.79375	77853
21.80188	77207
21.81000	82844
21.81812	89561
21.82625	94370
21.83437	105053
21.84250	110958
21.85062	121352
21.85873	110503
21.86687	100480
21.87498	91577
21.88310	86799
21.89123	86398
21.89935	80659
21.90748	73561
21.91560	70597
21.92372	75464
21.93185	69308
21.93997	69186
21.94810	67327
21.95622	62085
21.96433	60473
21.97247	56199
21.98058	60855
21.98872	62730
21.99683	60040
22.00495	58928
22.01308	61417
22.02120	67335
22.02932	63830
22.03745	68687
22.04557	67291
22.05370	68031
22.06182	66732
22.06993	64513
22.07807	67775
22.08618	69508
22.09432	61014
22.10243	61177
22.11055	62402
22.11868	62568
22.12680	62841
22.13492	58399
22.14305	62996
22.15117	61319
22.15930	62415
22.16742	63245
22.17553	60311
22.18367	65537
22.19178	59685
22.19992	63344
22.20803	62307
22.21615	61312
22.22428	66324
22.23240	70726
22.24053	70514
22.24865	71593
22.25677	65749
22.26490	73778
22.27302	66654
22.28113	71029
22.28927	75634
22.29738	78184
22.30552	78423
22.31363	74801
22.32175	74569
22.32988	73715
22.33800	74930
22.34613	70988
22.35425	67870
22.36237	67061
22.37050	68323
22.37862	70014
22.38673	80879
22.39487	94534
22.40298	121021
22.41112	148640
22.41923	172338
22.42735	181714
22.43548	173508
22.44360	153986
22.45173	133089
22.45985	111169
22.46797	105209
22.47610	98370
22.48422	108671
22.49235	119765
22.50047	130899
22.50858	143587
22.51672	149345
22.52483	152862
22.53295	143629
22.54108	138186
22.54920	125910
22.55733	111331
22.56545	101292
22.57357	100109
22.58170	86405
22.58982	87522
22.59795	86464
22.60607	83877
22.61418	82020
22.62232	74655
22.63043	75541
22.63857	71105
22.64668	76414
22.65480	74147
22.66293	76214
22.67105	77951
22.67917	81551
22.68730	80395
22.69542	88575
22.70355	96465
22.71167	99743
22.71978	107301
22.72792	104103
22.73603	101628
22.74417	91033
22.75228	84395
22.76040	74245
22.76853	77679
22.77665	79064
22.78477	84425
22.79290	92516
22.80102	106833
22.80915	115343
22.81727	122926
22.82538	104389
22.83352	103341
22.84163	96666
22.84977	88165
22.85788	100984
22.86600	109358
22.87413	130553
22.88225	155931
22.89038	180854
22.89850	191178
22.90662	188737
22.91475	184836
22.92287	182345
22.93098	187450
22.93912	176187
22.94723	160128
22.95537	153179
22.96348	146120
22.97160	137828
22.97973	130242
22.98785	127570
22.99598	117184
23.00410	111515
23.01222	113016
23.02035	112997
23.02847	107646
23.03660	105333
23.04472	108706
23.05283	114888
23.06097	120558
23.06908	113980
23.07720	124619
23.08533	120649
23.09345	116762
23.10158	112064
23.10970	108368
23.11782	111204
23.12595	107016
23.13407	99553
23.14220	103508
23.15032	104021
23.15843	97087
23.16657	103722
23.17468	99371
23.18280	99212
23.19093	95926
23.19905	96066
23.20718	94260
23.21530	91210
23.22342	94841
23.23155	89782
23.23967	94797
23.24780	101584
23.25592	106935
23.26403	107380
23.27217	109489
23.28028	104425
23.28842	102856
23.29653	102238
23.30465	97319
23.31278	96686
23.32090	97212
23.32902	98939
23.33715	113821
23.34527	143591
23.35340	166197
23.36152	196869
23.36963	231797
23.37777	254476
23.38588	262610
23.39402	276211
23.40213	283370
23.41025	278166
23.41838	278362
23.42650	277694
23.43462	268193
23.44275	257797
23.45087	259278
23.45900	233077
23.46712	226242
23.47523	208161
23.48337	200779
23.49148	192373
23.49962	186524
23.50773	168202
23.51585	165821
23.52398	155188
23.53210	155068
23.54023	158161
23.54835	165567
23.55647	164115
23.56460	193258
23.57272	218886
23.58083	264506
23.58897	336772
23.59708	396373
23.60522	423862
23.61333	418834
23.62145	382065
23.62958	301824
23.63770	250311
23.64583	199866
23.65395	186900
23.66207	171707
23.67020	162523
23.67832	164807
23.68645	157434
23.69457	146999
23.70268	132788
23.71082	126235
23.71893	121574
23.72705	113193
23.73518	120283
23.74330	137249
23.75143	218420
23.75955	417916
23.76767	867704
23.77580	1600069
23.78392	2506177
23.79205	3198307
23.80017	3306437
23.80828	3093037
23.81642	2566311
23.82453	2005694
23.83267	1435365
23.84078	1066748
23.84890	817555
23.85703	655745
23.86515	559591
23.87327	465235
23.88140	409163
23.88952	366969
23.89765	360953
23.90577	343952
23.91388	309220
23.92202	300546
23.93013	284779
23.93827	252120
23.94638	235049
23.95450	218427
23.96263	204969
23.97075	202231
23.97887	190116
23.98700	181338
23.99512	175297
24.00325	175462
24.01137	186071
24.01948	185710
24.02762	204618
24.03573	209471
24.04387	199660
24.05198	192703
24.06010	181434
24.06823	171020
24.07635	162947
24.08448	146342
24.09260	142657
24.10072	138607
24.10885	137084
24.11697	136759
24.12508	141987
24.13322	156699
24.14133	165130
24.14947	167096
24.15758	178342
24.16570	178642
24.17383	172445
24.18195	162942
24.19008	169318
24.19820	167743
24.20632	169400
24.21445	171333
24.22257	162558
24.23068	150924
24.23882	138140
24.24693	126784
24.25507	119352
24.26318	108718
24.27130	111118
24.27943	106618
24.28755	103167
24.29568	98677
24.30380	108330
24.31192	107815
24.32005	104195
24.32817	106478
24.33630	109517
24.34442	107006
24.35253	97035
24.36067	100548
24.36878	101509
24.37690	113518
24.38503	131035
24.39315	165448
24.40128	203337
24.40940	223249
24.41752	219226
24.42565	193897
24.43377	156936
24.44190	134491
24.45002	116218
24.45813	117009
24.46627	118898
24.47438	139257
24.48252	147582
24.49063	152872
24.49875	156409
24.50688	152200
24.51500	149968
24.52312	147857
24.53125	149996
24.53937	156073
24.54750	168551
24.55562	160108
24.56373	168205
24.57187	155493
24.57998	140877
24.58812	122992
24.59623	113211
24.60435	113217
24.61248	96700
24.62060	87073
24.62872	94092
24.63685	94828
24.64497	91907
24.65310	86532
24.66122	94617
24.66933	86130
24.67747	89491
24.68558	94441
24.69372	107195
24.70183	113883
24.70995	114076
24.71808	118682
24.72620	117860
24.73433	119814
24.74245	119789
24.75057	129722
24.75870	126157
24.76682	135871
24.77493	139468
24.78307	137341
24.79118	138209
24.79932	140904
24.80743	146085
24.81555	148348
24.82368	149646
24.83180	157278
24.83993	177646
24.84805	203633
24.85617	253418
24.86430	321953
24.87242	422346
24.88055	520595
24.88867	625650
24.89678	641538
24.90492	600578
24.91303	488522
24.92115	385596
24.92928	294740
24.93740	220030
24.94553	183034
24.95365	156950
24.96177	142965
24.96990	135000
24.97802	131543
24.98615	137135
24.99427	138142
25.00238	129722
25.01052	130401
25.01863	128632
25.02675	128424
25.03488	127663
25.04300	126126
25.05113	123128
25.05925	125977
25.06737	125624
25.07550	127386
25.08362	124231
25.09175	144546
25.09987	195450
25.10798	342990
25.11612	615262
25.12423	1163948
25.13237	1900971
25.14048	2686681
25.14860	3124713
25.15673	3022649
25.16485	2493977
25.17297	1795142
25.18110	1170126
25.18922	728074
25.19735	456844
25.20547	312642
25.21358	233099
25.22172	196109
25.22983	184963
25.23797	186767
25.24608	214139
25.25420	231854
25.26233	259370
25.27045	267612
25.27857	273201
25.28670	249559
25.29482	230701
25.30295	198433
25.31107	174531
25.31918	172983
25.32732	156022
25.33543	150223
25.34357	144821
25.35168	135737
25.35980	128446
25.36793	116909
25.37605	119588
25.38418	111479
25.39230	106104
25.40042	111218
25.40855	108528
25.41667	105607
25.42478	102442
25.43292	110275
25.44103	107182
25.44917	106328
25.45728	107382
25.46540	110772
25.47353	108381
25.48165	109376
25.48978	118633
25.49790	115112
25.50602	101884
25.51415	104879
25.52227	102780
25.53040	97401
25.53852	98651
25.54663	95109
25.55477	93180
25.56288	92003
25.57100	91328
25.57913	95378
25.58725	91125
25.59538	90130
25.60350	84150
25.61162	84156
25.61975	80550
25.62787	84403
25.63600	79732
25.64412	79805
25.65223	84796
25.66037	82853
25.66848	83434
25.67660	83782
25.68473	93260
25.69285	95434
25.70098	96815
25.70910	96575
25.71722	91718
25.72535	83247
25.73347	81745
25.74160	82507
25.74972	74053
25.75783	74159
25.76597	73411
25.77408	75220
25.78222	79054
25.79033	77738
25.79845	77318
25.80658	79698
25.81470	78400
25.82282	77175
25.83095	83291
25.83907	82329
25.84720	84321
25.85532	85440
25.86343	88454
25.87157	86164
25.87968	83116
25.88782	82488
25.89593	81074
25.90405	77361
25.91218	72711
25.92030	75330
25.92843	77543
25.93655	75276
25.94467	75217
25.95280	81000
25.96092	78409
25.96903	83559
25.97717	83825
25.98528	91569
25.99342	95888
26.00153	93721
26.00965	104719
26.01778	103780
26.02590	104859
26.03403	108731
26.04215	110566
26.05027	116154
26.05840	110856
26.06652	112249
26.07463	123745
26.08277	123839
26.09088	134350
26.09902	123959
26.10713	130948
26.11525	134921
26.12338	127342
26.13150	133851
26.13963	135819
26.14775	143295
26.15587	157118
26.16400	143130
26.17212	134611
26.18025	141774
26.18837	132197
26.19648	136318
26.20462	122334
26.21273	126374
26.22085	116275
26.22898	114969
26.23710	109778
26.24523	112762
26.25335	116229
26.26147	113501
26.26960	113163
26.27772	111493
26.28585	108831
26.29397	106072
26.30208	108632
26.31022	105320
26.31833	99899
26.32647	102562
26.33458	104560
26.34270	112946
26.35083	135124
26.35895	195251
26.36707	284236
26.37520	423086
26.38332	585840
26.39145	755149
26.39957	884003
26.40768	900912
26.41582	802707
26.42393	655214
26.43207	474993
26.44018	338443
26.44830	243208
26.45643	177726
26.46455	150483
26.47267	130195
26.48080	126576
26.48892	114872
26.49705	109221
26.50517	107289
26.51328	97504
26.52142	101509
26.52953	93775
26.53767	90699
26.54578	90666
26.55390	86248
26.56203	89515
26.57015	88906
26.57828	95129
26.58640	88236
26.59452	88602
26.60265	87060
26.61077	86176
26.61888	83899
26.62702	93701
26.63513	81105
26.64327	87053
26.65138	76557
26.65950	84146
26.66763	87930
26.67575	86275
26.68388	85082
26.69200	85045
26.70012	83000
26.70825	82297
26.71637	85092
26.72448	82206
26.73262	81258
26.74073	88405
26.74887	77686
26.75698	85659
26.76510	76724
26.77323	80765
26.78135	79979
26.78948	82003
26.79760	81146
26.80572	88284
26.81385	89605
26.82197	86580
26.83010	83372
26.83822	85438
26.84633	78605
26.85447	76509
26.86258	77607
26.87070	81305
26.87883	78055
26.88695	78964
26.89508	75272
26.90320	72706
26.91132	71329
26.91945	76104
26.92757	72239
26.93570	72995
26.94382	75696
26.95193	75778
26.96007	80332
26.96818	104023
26.97632	136824
26.98443	204004
26.99255	313802
27.00068	474081
27.00880	689331
27.01692	930202
27.02505	1099619
27.03317	1174387
27.04130	1081409
27.04942	937658
27.05753	760651
27.06567	606647
27.07378	481954
27.08192	402069
27.09003	340317
27.09815	285847
27.10628	248510
27.11440	233611
27.12252	223342
27.13065	203577
27.13877	194664
27.14690	185496
27.15502	178246
27.16313	191451
27.17127	192777
27.17938	197853
27.18752	200738
27.19563	211151
27.20375	203739
27.21188	194994
27.22000	173963
27.22813	165752
27.23625	156642
27.24437	146614
27.25250	139534
27.26062	127564
27.26873	131190
27.27687	120787
27.28498	118920
27.29312	111112
27.30123	113124
27.30935	117478
27.31748	107510
27.32560	114181
27.33373	112030
27.34185	111662
27.34997	107702
27.35810	109512
27.36622	106949
27.37435	108716
27.38247	106031
27.39058	102446
27.39872	100501
27.40683	102756
27.41495	99114
27.42308	98953
27.43120	101378
27.43933	102616
27.44745	97206
27.45557	98651
27.46370	93474
27.47182	91585
27.47995	93217
27.48807	89497
27.49618	97766
27.50432	94931
27.51243	85766
27.52055	84341
27.52868	89038
27.53680	88705
27.54493	89443
27.55305	87501
27.56117	86846
27.56930	88223
27.57742	101865
27.58555	109553
27.59367	112559
27.60178	124354
27.60992	122758
27.61803	121479
27.62617	117385
27.63428	114083
27.64240	107887
27.65053	96757
27.65865	97787
27.66677	95136
27.67490	91691
27.68302	101939
27.69115	99161
27.69927	95676
27.70738	95535
27.71552	94376
27.72363	85929
27.73177	84187
27.73988	81404
27.74800	87380
27.75613	81949
27.76425	80616
27.77237	80071
27.78050	78662
27.78862	86410
27.79675	84818
27.80487	86243
27.81298	80684
27.82112	85205
27.82923	83089
27.83737	81977
27.84548	82931
27.85360	79728
27.86173	80185
27.86985	75898
27.87798	82411
27.88610	79343
27.89422	83157
27.90235	77102
27.91047	77605
27.91858	74093
27.92672	76445
27.93483	78568
27.94297	80642
27.95108	77106
27.95920	66885
27.96733	72310
27.97545	74549
27.98358	75979
27.99170	74339
27.99982	76217
28.00795	81961
28.01607	93605
28.02420	99072
28.03232	115758
28.04043	131209
28.04857	143257
28.05668	145412
28.06480	137315
28.07293	132635
28.08105	117461
28.08918	101930
28.09730	92906
28.10542	90085
28.11355	85080
28.12167	86566
28.12980	80316
28.13792	77467
28.14603	75968
28.15417	79940
28.16228	77283
28.17040	74028
28.17853	77374
28.18665	82908
28.19478	93681
28.20290	101950
28.21102	117321
28.21915	117337
28.22727	113519
28.23540	115215
28.24352	106233
28.25163	95870
28.25977	88934
28.26788	85517
28.27602	81496
28.28413	87632
28.29225	85511
28.30038	89724
28.30850	110692
28.31662	123284
28.32475	147701
28.33287	168026
28.34100	181082
28.34912	207737
28.35723	236272
28.36537	265654
28.37348	269973
28.38162	283497
28.38973	266136
28.39785	284378
28.40598	253789
28.41410	252480
28.42223	231526
28.43035	211192
28.43847	196924
28.44660	179755
28.45472	162255
28.46283	169527
28.47097	155878
28.47908	148397
28.48722	153912
28.49533	151813
28.50345	141227
28.51158	141121
28.51970	136066
28.52783	126665
28.53595	120959
28.54407	111581
28.55220	106453
28.56032	103917
28.56843	97600
28.57657	98811
28.58468	96017
28.59282	101244
28.60093	98224
28.60905	99727
28.61718	102186
28.62530	106496
28.63343	104200
28.64155	113796
28.64967	111294
28.65780	115178
28.66592	112448
28.67405	117282
28.68217	107590
28.69028	107385
28.69842	103627
28.70653	94406
28.71465	93103
28.72278	84202
28.73090	89404
28.73903	94237
28.74715	92549
28.75527	99413
28.76340	113220
28.77152	129683
28.77965	143559
28.78777	148920
28.79588	138064
28.80402	129051
28.81213	117004
28.82025	106994
28.82838	100500
28.83650	90465
28.84463	90097
28.85275	89678
28.86087	91875
28.86900	89465
28.87712	88960
28.88525	89728
28.89337	97020
28.90148	100330
28.90962	100924
28.91773	96627
28.92587	95072
28.93398	101160
28.94210	94084
28.95023	88323
28.95835	97298
28.96647	96483
28.97460	95143
28.98272	85522
28.99085	82782
28.99897	86616
29.00708	89519
29.01522	81889
29.02333	83460
29.03147	80570
29.03958	80868
29.04770	83748
29.05583	83207
29.06395	78946
29.07208	83043
29.08020	80857
29.08832	81861
29.09645	76798
29.10457	86001
29.11268	86132
29.12082	79198
29.12893	84099
29.13707	80004
29.14518	79218
29.15330	79431
29.16143	82677
29.16955	85333
29.17768	78381
29.18580	86424
29.19392	95388
29.20205	101557
29.21017	105518
29.21830	117231
29.22642	115688
29.23453	129922
29.24267	141625
29.25078	160040
29.25890	184248
29.26703	202955
29.27515	211531
29.28328	198999
29.29140	169013
29.29952	138159
29.30765	116113
29.31577	97498
29.32390	85447
29.33202	82775
29.34013	79150
29.34827	76085
29.35638	74340
29.36450	76188
29.37263	75557
29.38075	75847
29.38888	77435
29.39700	73451
29.40512	80483
29.41325	78823
29.42137	74826
29.42950	74140
29.43762	77171
29.44573	78484
29.45387	76761
29.46198	72037
29.47012	80343
29.47823	79213
29.48635	80846
29.49448	84300
29.50260	90245
29.51072	81764
29.51885	87392
29.52697	83072
29.53510	80337
29.54322	73026
29.55133	75923
29.55947	71304
29.56758	70491
29.57572	73280
29.58383	65550
29.59195	63846
29.60008	69450
29.60820	68303
29.61632	67048
29.62445	70120
29.63257	72930
29.64070	72362
29.64882	70684
29.65693	69259
29.66507	66417
29.67318	71235
29.68132	71579
29.68943	70537
29.69755	76925
29.70568	78690
29.71380	75960
29.72193	77969
29.73005	73214
29.73817	71852
29.74630	70362
29.75442	75208
29.76253	67704
29.77067	68296
29.77878	68199
29.78692	64349
29.79503	65630
29.80315	65229
29.81128	71755
29.81940	63645
29.82753	62714
29.83565	62946
29.84377	64727
29.85190	66033
29.86002	61900
29.86815	69734
29.87627	73611
29.88438	81210
29.89252	87641
29.90063	96192
29.90875	97575
29.91688	98342
29.92500	93279
29.93313	83788
29.94125	83529
29.94937	77953
29.95750	81992
29.96562	89661
29.97375	93786
29.98187	106782
29.98998	115492
29.99812	124923
30.00623	135365
30.01435	147284
30.02248	156109
30.03060	155603
30.03873	149984
30.04685	152560
30.05497	155955
30.06310	154558
30.07122	153797
30.07935	149476
30.08747	138757
30.09558	138149
30.10372	139542
30.11183	130166
30.11997	122007
30.12808	117234
30.13620	116185
30.14433	114973
30.15245	109920
30.16057	106978
30.16870	108113
30.17682	111440
30.18495	111594
30.19307	114787
30.20118	110020
30.20932	109899
30.21743	110706
30.22557	108878
30.23368	97222
30.24180	91332
30.24993	91020
30.25805	80309
30.26618	81395
30.27430	85681
30.28242	77123
30.29055	79720
30.29867	82057
30.30678	84578
30.31492	80504
30.32303	73640
30.33117	77291
30.33928	72816
30.34740	76926
30.35553	78519
30.36365	80426
30.37178	82572
30.37990	81117
30.38802	78391
30.39615	73493
30.40427	73396
30.41238	69289
30.42052	75332
30.42863	71777
30.43677	72204
30.44488	70098
30.45300	71140
30.46113	72302
30.46925	70437
30.47738	71063
30.48550	67713
30.49362	71561
30.50175	74296
30.50987	72164
30.51800	71432
30.52612	69890
30.53423	68836
30.54237	68289
30.55048	75187
30.55860	67526
30.56673	76379
30.57485	72706
30.58298	73472
30.59110	79312
30.59922	73092
30.60735	74600
30.61547	73038
30.62360	73197
30.63172	72487
30.63983	74576
30.64797	68971
30.65608	68518
30.66420	71252
30.67233	64806
30.68045	63786
30.68858	69456
30.69670	68403
30.70482	69878
30.71295	63395
30.72107	68791
30.72920	66751
30.73732	63408
30.74543	67618
30.75357	69317
30.76168	66566
30.76982	73633
30.77793	74150
30.78605	87679
30.79418	97668
30.80230	106914
30.81042	112790
30.81855	124165
30.82667	113547
30.83480	106199
30.84292	97400
30.85103	87492
30.85917	81914
30.86728	81536
30.87542	80728
30.88353	83050
30.89165	79839
30.89978	87931
30.90790	82371
30.91603	75200
30.92415	75345
30.93227	71055
30.94040	68611
30.94852	74185
30.95663	73770
30.96477	68883
30.97288	73151
30.98102	74240
30.98913	68844
30.99725	69259
31.00538	62730
31.01350	72056
31.02163	65985
31.02975	69589
31.03787	69267
31.04600	69053
31.05412	72263
31.06223	73049
31.07037	71048
31.07848	80999
31.08662	82602
31.09473	90239
31.10285	100993
31.11098	96584
31.11910	99397
31.12723	97006
31.13535	88566
31.14347	84637
31.15160	79201
31.15972	88745
31.16785	91054
31.17597	101896
31.18408	114923
31.19222	143652
31.20033	180917
31.20845	237303
31.21658	300648
31.22470	324624
31.23283	330599
31.24095	293149
31.24907	238780
31.25720	186684
31.26532	145027
31.27345	111722
31.28157	105165
31.28968	93550
31.29782	90717
31.30593	94530
31.31407	87511
31.32218	88229
31.33030	83598
31.33843	86233
31.34655	85851
31.35467	85452
31.36280	82021
31.37092	79335
31.37905	85087
31.38717	86273
31.39528	84405
31.40342	82287
31.41153	86954
31.41967	85335
31.42778	85793
31.43590	82300
31.44403	80930
31.45215	80754
31.46027	78805
31.46840	80471
31.47652	79414
31.48465	82180
31.49277	84247
31.50088	86708
31.50902	86466
31.51713	91255
31.52527	85811
31.53338	88946
31.54150	92715
31.54963	86369
31.55775	82014
31.56588	80812
31.57400	82523
31.58212	78634
31.59025	77701
31.59837	72381
31.60648	72598
31.61462	75511
31.62273	77884
31.63087	78596
31.63898	72577
31.64710	78020
31.65523	77152
31.66335	81276
31.67148	75381
31.67960	80436
31.68772	81673
31.69585	73265
31.70397	71768
31.71210	68147
31.72022	72872
31.72833	71160
31.73647	68953
31.74458	70096
31.75270	68702
31.76083	73353
31.76895	71388
31.77708	73390
31.78520	75819
31.79332	74218
31.80145	75294
31.80957	80902
31.81770	80606
31.82582	77176
31.83393	79217
31.84207	83535
31.85018	78652
31.85830	76315
31.86643	80436
31.87455	80490
31.88268	86616
31.89080	90772
31.89892	89519
31.90705	94783
31.91517	97125
31.92330	105960
31.93142	121411
31.93953	126496
31.94767	135698
31.95578	142809
31.96392	147593
31.97203	158778
31.98015	165261
31.98828	161484
31.99640	165696
32.00452	161487
32.01265	161426
32.02077	161043
32.02890	157124
32.03702	152978
32.04513	145332
32.05327	138835
32.06138	133718
32.06952	136656
32.07763	131029
32.08575	127788
32.09388	128328
32.10200	119430
32.11012	117739
32.11825	109439
32.12637	107818
32.13450	111203
32.14262	105044
32.15073	102122
32.15887	102164
32.16698	100453
32.17512	101747
32.18323	99204
32.19135	107344
32.19948	98539
32.20760	96915
32.21573	97770
32.22385	92767
32.23197	94629
32.24010	101141
32.24822	95736
32.25633	101611
32.26447	95338
32.27258	96578
32.28072	97634
32.28883	91848
32.29695	97071
32.30508	91219
32.31320	94951
32.32133	89693
32.32945	93622
32.33757	87788
32.34570	91546
32.35382	91201
32.36195	93746
32.37007	93716
32.37818	89116
32.38632	93417
32.39443	93799
32.40255	86116
32.41068	86262
32.41880	83343
32.42693	81720
32.43505	82926
32.44317	83555
32.45130	82108
32.45942	81310
32.46755	85764
32.47567	84233
32.48378	78846
32.49192	82688
32.50003	84900
32.50815	82573
32.51628	81453
32.52440	80366
32.53253	83290
32.54065	77075
32.54877	82124
32.55690	85560
32.56502	82960
32.57315	81195
32.58127	77973
32.58938	84606
32.59752	83230
32.60563	78693
32.61377	78802
32.62188	75545
32.63000	72870
32.63813	80979
32.64625	85754
32.65437	94725
32.66250	103959
32.67062	114221
32.67875	122804
32.68687	119422
32.69498	113862
32.70312	106723
32.71123	98824
32.71937	88566
32.72748	85813
32.73560	84362
32.74373	87070
32.75185	88109
32.75998	85375
32.76810	80609
32.77622	84251
32.78435	80200
32.79247	79581
32.80058	77758
32.80872	79592
32.81683	77871
32.82497	81333
32.83308	75763
32.84120	78903
32.84933	72644
32.85745	79377
32.86558	76766
32.87370	80104
32.88182	80444
32.88995	82981
32.89807	93110
32.90618	95234
32.91432	90740
32.92243	89991
32.93057	90152
32.93868	84508
32.94680	81915
32.95493	81655
32.96305	78260
32.97118	81242
32.97930	85741
32.98742	91392
32.99555	92494
33.00367	96573
33.01180	103307
33.01992	98958
33.02803	93783
33.03617	83415
33.04428	81515
33.05240	86385
33.06053	91247
33.06865	92415
33.07678	97044
33.08490	106289
33.09302	119226
33.10115	128243
33.10927	121489
33.11740	125609
33.12552	126099
33.13363	116609
33.14177	110953
33.14988	99233
33.15800	96600
33.16613	89512
33.17425	86098
33.18238	77985
33.19050	79730
33.19862	81506
33.20675	84617
33.21487	83671
33.22300	86870
33.23112	85160
33.23923	84221
33.24737	84024
33.25548	89051
33.26362	80069
33.27173	83190
33.27985	78648
33.28798	77628
33.29610	78449
33.30422	79035
33.31235	83280
33.32047	78340
33.32860	81012
33.33672	81250
33.34483	84079
33.35297	81154
33.36108	85309
33.36922	90132
33.37733	91721
33.38545	79186
33.39358	80354
33.40170	74958
33.40983	80655
33.41795	73809
33.42607	72289
33.43420	76896
33.44232	79310
33.45043	78114
33.45857	74833
33.46668	74215
33.47482	75814
33.48293	77338
33.49105	78175
33.49918	79564
33.50730	80786
33.51543	78103
33.52355	80791
33.53167	80646
33.53980	78575
33.54792	88290
33.55605	86970
33.56417	82187
33.57228	82769
33.58042	80268
33.58853	80879
33.59665	80317
33.60478	74998
33.61290	75080
33.62103	75365
33.62915	78484
33.63727	82351
33.64540	82293
33.65352	91521
33.66165	77284
33.66977	81972
33.67788	80352
33.68602	86001
33.69413	78833
33.70225	73270
33.71038	69449
33.71850	77417
33.72663	76842
33.73475	79767
33.74287	78290
33.75100	71893
33.75912	70035
33.76725	70877
33.77537	74828
33.78348	69575
33.79162	74018
33.79973	75353
33.80787	71565
33.81598	75256
33.82410	78246
33.83223	77247
33.84035	77788
33.84847	76594
33.85660	76086
33.86472	77921
33.87285	82604
33.88097	78980
33.88908	77690
33.89722	85445
33.90533	86229
33.91347	91216
33.92158	88006
33.92970	91085
33.93783	87428
33.94595	89197
33.95407	87414
33.96220	88731
33.97032	85943
33.97845	88966
33.98657	86562
33.99468	89354
34.00282	91589
34.01093	90270
34.01907	91874
34.02718	89971
34.03530	95042
34.04343	99252
34.05155	100934
34.05968	102114
34.06780	108199
34.07592	117223
34.08405	119968
34.09217	124918
34.10028	128415
34.10842	137111
34.11653	144306
34.12467	150683
34.13278	151458
34.14090	164437
34.14903	167501
34.15715	175323
34.16528	180450
34.17340	187178
34.18152	187554
34.18965	189800
34.19777	190913
34.20590	194849
34.21402	195981
34.22213	194102
34.23027	191904
34.23838	192361
34.24650	184217
34.25463	190547
34.26275	190656
34.27088	194053
34.27900	190519
34.28712	199304
34.29525	200334
34.30337	193694
34.31150	189155
34.31962	190440
34.32773	183206
34.33587	193231
34.34398	178648
34.35210	170593
34.36023	172356
34.36835	177968
34.37648	169136
34.38460	162444
34.39272	154189
34.40085	159942
34.40897	149592
34.41710	148820
34.42522	150182
34.43333	146374
34.44147	150975
34.44958	142990
34.45772	147060
34.46583	150967
34.47395	141351
34.48208	141064
34.49020	144584
34.49832	141697
34.50645	152415
34.51457	149189
34.52270	162363
34.53082	176234
34.53893	194737
34.54707	205469
34.55518	207350
34.56332	210389
34.57143	209287
34.57955	206771
34.58768	199228
34.59580	184151
34.60393	175793
34.61205	172204
34.62017	158395
34.62830	154777
34.63642	162967
34.64453	147727
34.65267	145090
34.66078	146778
34.66892	145735
34.67703	137118
34.68515	132845
34.69328	132229
34.70140	136643
34.70953	135964
34.71765	126321
34.72577	132100
34.73390	125685
34.74202	129462
34.75013	121847
34.75827	129157
34.76638	125420
34.77452	128868
34.78263	126152
34.79075	127426
34.79888	126625
34.80700	124088
34.81513	128680
34.82325	123874
34.83137	129960
34.83950	131033
34.84762	130280
34.85575	132611
34.86387	140787
34.87198	144830
34.88012	140927
34.88823	142098
34.89635	144595
34.90448	147507
34.91260	143759
34.92073	150415
34.92885	155399
34.93697	160050
34.94510	151699
34.95322	155478
34.96135	160711
34.96947	169392
34.97758	169056
34.98572	172250
34.99383	163914
35.00195	165068
35.01008	164518
35.01820	154739
35.02633	153470
35.03445	162423
35.04257	147318
35.05070	148161
35.05882	142088
35.06695	139366
35.07507	143646
35.08318	132767
35.09132	128651
35.09943	126737
35.10757	123088
35.11568	121405
35.12380	121012
35.13193	122125
35.14005	124205
35.14817	123013
35.15630	125889
35.16442	126782
35.17255	127532
35.18067	129081
35.18878	119619
35.19692	119452
35.20503	112462
35.21317	111404
35.22128	114979
35.22940	114121
35.23753	110806
35.24565	114265
35.25378	115843
35.26190	116306
35.27002	112390
35.27815	117598
35.28627	113290
35.29438	115348
35.30252	106742
35.31063	111809
35.31877	108133
35.32688	110443
35.33500	114403
35.34313	115925
35.35125	113731
35.35938	113275
35.36750	111251
35.37562	114681
35.38375	119294
35.39187	118714
35.39998	121983
35.40812	121579
35.41623	136209
35.42437	132537
35.43248	135005
35.44060	134627
35.44873	133473
35.45685	125067
35.46498	126631
35.47310	128659
35.48122	117106
35.48935	120347
35.49747	110871
35.50560	112333
35.51372	110032
35.52183	108129
35.52997	108687
35.53808	105177
35.54620	102791
35.55433	111392
35.56245	104769
35.57058	100827
35.57870	104927
35.58682	107970
35.59495	101909
35.60307	101529
35.61120	105497
35.61932	104148
35.62743	100363
35.63557	103300
35.64368	102633
35.65182	107984
35.65993	105444
35.66805	113017
35.67618	111280
35.68430	117693
35.69242	117622
35.70055	120808
35.70867	118862
35.71680	121894
35.72492	119855
35.73303	122992
35.74117	124385
35.74928	125576
35.75742	129093
35.76553	130742
35.77365	137557
35.78178	133341
35.78990	128248
35.79802	125545
35.80615	120102
35.81427	115364
35.82240	111687
35.83052	117160
35.83863	116871
35.84677	111584
35.85488	110121
35.86302	103926
35.87113	107758
35.87925	109658
35.88738	104671
35.89550	110791
35.90363	107570
35.91175	108493
35.91987	105546
35.92800	98505
35.93612	105964
35.94423	103026
35.95237	101681
35.96048	107194
35.96862	105266
35.97673	102291
35.98485	102872
35.99298	107150
36.00110	104212
36.00923	107293
36.01735	112617
36.02547	115850
36.03360	114559
36.04172	121274
36.04983	114536
36.05797	115208
36.06608	112845
36.07422	116809
36.08233	110342
36.09045	109807
36.09858	111441
36.10670	111639
36.11483	109549
36.12295	116206
36.13107	117230
36.13920	119153
36.14732	116728
36.15545	116832
36.16357	116247
36.17168	116546
36.17982	113036
36.18793	107519
36.19605	114968
36.20418	107723
36.21230	107856
36.22043	110441
36.22855	101724
36.23667	103248
36.24480	102429
36.25292	104825
36.26105	101092
36.26917	102260
36.27728	101043
36.28542	108674
36.29353	114221
36.30167	120132
36.30978	126167
36.31790	138168
36.32603	136651
36.33415	136546
36.34227	131445
36.35040	122397
36.35852	117095
36.36665	111738
36.37477	111933
36.38288	105974
36.39102	115283
36.39913	111525
36.40727	110291
36.41538	107829
36.42350	113409
36.43163	111606
36.43975	105079
36.44787	105269
36.45600	108598
36.46412	104877
36.47225	104179
36.48037	98537
36.48848	100063
36.49662	103706
36.50473	106912
36.51287	102235
36.52098	104255
36.52910	106548
36.53723	104026
36.54535	103477
36.55348	102467
36.56160	105683
36.56972	100370
36.57785	102629
36.58597	94613
36.59408	98830
36.60222	100200
36.61033	101285
36.61847	103646
36.62658	102313
36.63470	105930
36.64283	107111
36.65095	99728
36.65908	111888
36.66720	109396
36.67532	111899
36.68345	109493
36.69157	107014
36.69970	103743
36.70782	112087
36.71593	109350
36.72407	111111
36.73218	108386
36.74030	108229
36.74843	104818
36.75655	106053
36.76468	110404
36.77280	105136
36.78092	113223
36.78905	109368
36.79717	106689
36.80530	106138
36.81342	110821
36.82153	109767
36.82967	103443
36.83778	102954
36.84590	110370
36.85403	107313
36.86215	107805
36.87028	106490
36.87840	109433
36.88652	109334
36.89465	110162
36.90277	106042
36.91090	100764
36.91902	107866
36.92713	103389
36.93527	105658
36.94338	113934
36.95152	113257
36.95963	119698
36.96775	113066
36.97588	125283
36.98400	119507
36.99212	120270
37.00025	116374
37.00837	108714
37.01650	110273
37.02462	111207
37.03273	105269
37.04087	101450
37.04898	109761
37.05712	110416
37.06523	106196
37.07335	108484
37.08148	116291
37.08960	108421
37.09773	114374
37.10585	116321
37.11397	113507
37.12210	115426
37.13022	116228
37.13833	113600
37.14647	120002
37.15458	116538
37.16272	113517
37.17083	108852
37.17895	109894
37.18708	110230
37.19520	110680
37.20333	109311
37.21145	112146
37.21957	107536
37.22770	111939
37.23582	104183
37.24393	105653
37.25207	104594
37.26018	104614
37.26832	102317
37.27643	102949
37.28455	105173
37.29268	102022
37.30080	107295
37.30893	105735
37.31705	110927
37.32517	121343
37.33330	126828
37.34142	140091
37.34955	149500
37.35767	160470
37.36578	164072
37.37392	160710
37.38203	160680
37.39015	151699
37.39828	149058
37.40640	140825
37.41453	141429
37.42265	136081
37.43077	138615
37.43890	135214
37.44702	129541
37.45515	134602
37.46327	134978
37.47138	132530
37.47952	132198
37.48763	134539
