Z:\data\JTB-E02\BACandBLUE\JTB-E02-205-15.D Sun Mar 10 14:59:22 2019
Start of data points
2.09515,62059
2.10328,60277
2.11140,67231
2.11952,63808
2.12765,66004
2.13577,66079
2.14390,65848
2.15202,66088
2.16013,61049
2.16827,61100
2.17638,58229
2.18452,61175
2.19263,59107
2.20075,57540
2.20888,63747
2.21700,55455
2.22512,55922
2.23325,56767
2.24137,54055
2.24950,65360
2.25762,326618
2.26573,1164752
2.27387,1247166
2.28198,625863
2.29012,395855
2.29823,320324
2.30635,271984
2.31448,248876
2.32260,226174
2.33073,209818
2.33885,196211
2.34697,178933
2.35510,167711
2.36322,165269
2.37133,144974
2.37947,147629
2.38758,140596
2.39572,135062
2.40383,141254
2.41195,139562
2.42008,127300
2.42820,125519
2.43633,124044
2.44445,123101
2.45257,121216
2.46070,110489
2.46882,110324
2.47693,116447
2.48507,129120
2.49318,120274
2.50132,107997
2.50943,112793
2.51755,106930
2.52568,107817
2.53380,109642
2.54193,127845
2.55005,183328
2.55817,182262
2.56630,146868
2.57442,133179
2.58255,133002
2.59067,308343
2.59878,1101219
2.60692,1550384
2.61503,985067
2.62315,591108
2.63128,425207
2.63940,333835
2.64753,261198
2.65565,234684
2.66377,195122
2.67190,177092
2.68002,166555
2.68815,149979
2.69627,143072
2.70438,134318
2.71252,121721
2.72063,130173
2.72877,121605
2.73688,111226
2.74500,111265
2.75313,111332
2.76125,132932
2.76937,319896
2.77750,657058
2.78562,583028
2.79375,352014
2.80187,268359
2.80998,241606
2.81812,207603
2.82623,184215
2.83437,158329
2.84248,156727
2.85060,152567
2.85873,139931
2.86685,140253
2.87497,129882
2.88310,124734
2.89122,119337
2.89935,117943
2.90747,111242
2.91558,107487
2.92372,109321
2.93183,101845
2.93997,104481
2.94808,103124
2.95620,111330
2.96433,109746
2.97245,105077
2.98058,100413
2.98870,113082
2.99682,113810
3.00495,123009
3.01307,109026
3.02118,100504
3.02932,92773
3.03743,93369
3.04557,91945
3.05368,96399
3.06180,107823
3.06993,307080
3.07805,1250999
3.08618,2884999
3.09430,4846635
3.10242,6657839
3.11055,5742764
3.11867,3696120
3.12678,2671591
3.13492,2079123
3.14303,1712477
3.15117,1426524
3.15928,1216775
3.16740,1069234
3.17553,1169422
3.18365,1591756
3.19178,1695368
3.19990,1353237
3.20802,1049427
3.21615,894620
3.22427,777440
3.23240,714923
3.24052,632884
3.24863,577371
3.25677,522696
3.26488,493124
3.27300,491458
3.28113,681173
3.28925,1655633
3.29738,3566184
3.30550,4945703
3.31362,4696372
3.32175,3537700
3.32987,2571380
3.33800,1964508
3.34612,1643927
3.35423,1414955
3.36237,1237049
3.37048,1091937
3.37862,1012968
3.38673,895117
3.39485,834171
3.40298,789944
3.41110,739082
3.41922,677481
3.42735,644921
3.43547,606642
3.44360,564950
3.45172,538122
3.45983,542760
3.46797,540643
3.47608,517579
3.48422,481997
3.49233,465402
3.50045,449254
3.50858,425082
3.51670,421730
3.52482,409575
3.53295,410162
3.54107,400387
3.54920,378361
3.55732,357939
3.56543,350566
3.57357,342637
3.58168,348360
3.58982,317409
3.59793,310729
3.60605,322826
3.61418,322745
3.62230,309953
3.63043,309275
3.63855,294111
3.64667,320600
3.65480,803693
3.66292,2953073
3.67103,6471067
3.67917,7406765
3.68728,5225593
3.69542,3259083
3.70353,2447035
3.71165,1979568
3.71978,1676469
3.72790,1474331
3.73603,1331107
3.74415,1201027
3.75227,1096577
3.76040,1010897
3.76852,952136
3.77665,879540
3.78477,891823
3.79288,1091747
3.80102,2052673
3.80913,3278433
3.81725,3384012
3.82538,2570735
3.83350,1824161
3.84163,1496954
3.84975,1304822
3.85787,1154330
3.86600,1055052
3.87412,973779
3.88225,897053
3.89037,857736
3.89848,809638
3.90662,808407
3.91473,868951
3.92285,958548
3.93098,949974
3.93910,1058520
3.94723,1926013
3.95535,3557600
3.96347,4499606
3.97160,3746986
3.97972,2513676
3.98785,2558940
3.99597,5443228
4.00408,1.099231E+07
4.01222,1.382724E+07
4.02033,1.091342E+07
4.02847,6503654
4.03658,3887235
4.04470,2677244
4.05283,2068124
4.06095,1704918
4.06907,1452912
4.07720,1248719
4.08532,1112486
4.09345,979849
4.10157,924819
4.10968,852770
4.11782,806438
4.12593,744219
4.13407,750414
4.14218,748533
4.15030,724152
4.15843,707427
4.16655,707893
4.17467,680839
4.18280,644968
4.19092,590434
4.19905,741743
4.20717,1963759
4.21528,6042437
4.22342,1.23266E+07
4.23153,1.684799E+07
4.23967,1.664194E+07
4.24778,1.240647E+07
4.25590,8304990
4.26403,5967202
4.27215,4499640
4.28028,3540002
4.28840,2852090
4.29652,2344393
4.30465,1951994
4.31277,1701444
4.32088,1470618
4.32902,1286843
4.33713,1157181
4.34527,1071869
4.35338,999420
4.36150,954078
4.36963,899113
4.37775,834323
4.38588,759234
4.39400,700084
4.40212,662353
4.41025,608924
4.41837,576387
4.42650,554371
4.43462,537151
4.44273,511681
4.45087,490501
4.45898,465709
4.46710,451694
4.47523,458594
4.48335,413921
4.49148,412147
4.49960,411521
4.50772,395242
4.51585,382861
4.52397,372021
4.53210,377775
4.54022,372801
4.54833,375632
4.55647,355773
4.56458,347108
4.57270,335068
4.58083,322255
4.58895,325194
4.59708,313455
4.60520,315989
4.61332,331343
4.62145,390690
4.62957,509224
4.63770,615708
4.64582,584916
4.65393,501897
4.66207,412046
4.67018,375082
4.67832,345159
4.68643,335237
4.69455,311350
4.70268,300010
4.71080,301275
4.71892,309878
4.72705,298081
4.73517,288949
4.74330,273460
4.75142,264479
4.75953,266002
4.76767,265627
4.77578,303914
4.78392,490378
4.79203,1067009
4.80015,1867930
4.80828,2150025
4.81640,1779103
4.82453,1294016
4.83265,1001724
4.84077,857152
4.84890,759530
4.85702,681507
4.86513,592819
4.87327,541212
4.88138,494824
4.88952,454634
4.89763,444132
4.90575,420814
4.91388,392590
4.92200,387808
4.93013,428553
4.93825,613537
4.94637,1127073
4.95450,1957396
4.96262,2730734
4.97073,2907325
4.97887,2482787
4.98698,1868177
4.99512,1376553
5.00323,1116028
5.01135,925953
5.01948,834014
5.02760,840616
5.03573,877745
5.04385,858585
5.05197,763743
5.06010,699067
5.06822,629722
5.07635,577809
5.08447,548690
5.09258,524798
5.10072,491743
5.10883,474607
5.11695,451426
5.12508,437889
5.13320,428283
5.14133,429923
5.14945,444159
5.15757,490666
5.16570,510404
5.17382,493540
5.18195,466020
5.19007,432612
5.19818,450428
5.20632,454722
5.21443,451492
5.22257,434319
5.23068,428395
5.23880,422805
5.24693,389887
5.25505,371422
5.26317,340797
5.27130,331421
5.27942,316473
5.28755,300143
5.29567,296550
5.30378,287093
5.31192,289779
5.32003,293910
5.32817,318211
5.33628,341628
5.34440,349023
5.35253,317221
5.36065,298077
5.36877,282081
5.37690,291335
5.38502,268356
5.39315,286888
5.40127,269904
5.40938,274761
5.41752,263686
5.42563,250858
5.43377,251568
5.44188,250206
5.45000,254304
5.45813,261079
5.46625,260165
5.47438,244605
5.48250,234532
5.49062,233838
5.49875,223819
5.50687,235972
5.51498,239449
5.52312,237728
5.53123,236079
5.53937,233694
5.54748,231357
5.55560,255968
5.56373,299031
5.57185,333775
5.57998,341832
5.58810,329373
5.59622,289391
5.60435,272705
5.61247,251571
5.62058,242087
5.62872,239305
5.63683,238946
5.64497,232456
5.65308,228681
5.66120,225918
5.66933,230528
5.67745,266989
5.68558,320767
5.69370,354539
5.70182,348211
5.70995,310615
5.71807,271316
5.72620,233958
5.73432,225602
5.74243,214612
5.75057,208904
5.75868,206638
5.76680,197647
5.77493,203514
5.78305,191093
5.79118,196756
5.79930,191099
5.80742,188587
5.81555,186649
5.82367,183241
5.83180,185727
5.83992,180421
5.84803,182785
5.85617,184807
5.86428,179430
5.87242,175849
5.88053,183445
5.88865,177050
5.89678,179137
5.90490,171677
5.91302,169713
5.92115,152943
5.92927,149000
5.93740,153175
5.94552,165324
5.95363,187859
5.96177,212411
5.96988,265393
5.97802,319565
5.98613,379184
5.99425,386873
6.00238,338604
6.01050,291486
6.01862,239360
6.02675,213128
6.03487,189517
6.04300,174771
6.05112,169695
6.05923,168982
6.06737,155139
6.07548,154810
6.08362,157989
6.09173,147096
6.09985,146625
6.10798,153342
6.11610,169546
6.12423,211429
6.13235,290678
6.14047,393416
6.14860,434229
6.15672,404991
6.16483,322778
6.17297,261115
6.18108,231118
6.18922,214144
6.19733,200909
6.20545,195162
6.21358,185412
6.22170,182218
6.22983,180758
6.23795,180346
6.24607,173936
6.25420,186900
6.26232,185093
6.27045,182552
6.27857,176807
6.28668,178594
6.29482,178691
6.30293,170298
6.31105,175086
6.31918,183612
6.32730,190895
6.33543,223504
6.34355,237276
6.35167,223504
6.35980,208886
6.36792,197244
6.37605,194453
6.38417,184369
6.39228,187573
6.40042,193655
6.40853,187649
6.41665,186353
6.42478,189774
6.43290,190623
6.44103,191911
6.44915,186364
6.45727,199006
6.46540,190408
6.47352,190814
6.48165,197526
6.48977,195791
6.49788,196473
6.50602,198251
6.51413,200097
6.52227,209182
6.53038,196954
6.53850,201633
6.54663,196312
6.55475,195217
6.56287,212662
6.57100,234247
6.57912,252897
6.58725,254887
6.59537,245301
6.60348,227241
6.61162,216838
6.61973,214432
6.62787,216482
6.63598,211632
6.64410,228363
6.65223,280492
6.66035,394880
6.66847,506754
6.67660,522911
6.68472,445205
6.69285,351501
6.70097,282979
6.70908,263598
6.71722,253640
6.72533,247798
6.73347,246008
6.74158,204966
6.74970,181761
6.75783,176900
6.76595,163855
6.77408,159570
6.78220,153578
6.79032,144691
6.79845,147053
6.80657,146474
6.81468,133220
6.82282,137857
6.83093,134474
6.83907,133464
6.84718,142747
6.85530,155993
6.86343,153357
6.87155,147764
6.87968,132696
6.88780,120958
6.89592,111519
6.90405,105524
6.91217,103246
6.92030,97841
6.92842,97180
6.93653,97746
6.94467,90386
6.95278,97261
6.96090,109107
6.96903,137909
6.97715,155744
6.98528,172024
6.99340,160564
7.00152,134914
7.00965,112931
7.01777,101994
7.02590,100310
7.03402,98374
7.04213,98268
7.05027,95582
7.05838,98505
7.06652,96139
7.07463,93891
7.08275,95539
7.09088,88731
7.09900,85138
7.10712,84046
7.11525,84781
7.12337,87479
7.13150,87200
7.13962,93302
7.14773,114384
7.15587,152416
7.16398,173666
7.17212,174176
7.18023,158620
7.18835,136027
7.19648,122673
7.20460,179694
7.21272,424303
7.22085,1038205
7.22897,1991967
7.23710,2701482
7.24522,2614477
7.25333,1919674
7.26147,1175271
7.26958,721152
7.27772,467332
7.28583,290264
7.29395,189941
7.30208,141184
7.31020,123392
7.31833,119737
7.32645,117830
7.33457,114694
7.34270,113720
7.35082,108626
7.35893,105313
7.36707,99040
7.37518,97065
7.38332,99114
7.39143,110140
7.39955,98852
7.40768,91552
7.41580,95156
7.42393,89290
7.43205,88754
7.44017,91856
7.44830,89809
7.45642,94996
7.46453,88625
7.47267,86219
7.48078,86556
7.48892,84250
7.49703,82998
7.50515,84872
7.51328,87499
7.52140,110365
7.52953,142615
7.53765,203401
7.54577,281382
7.55390,345180
7.56202,376672
7.57015,355893
7.57827,301335
7.58638,226683
7.59452,168508
7.60263,131652
7.61075,116796
7.61888,105838
7.62700,100065
7.63513,90443
7.64325,89532
7.65137,83238
7.65950,81474
7.66762,82581
7.67575,74763
7.68387,78416
7.69198,77471
7.70012,78331
7.70823,83752
7.71637,74223
7.72448,77090
7.73260,76961
7.74073,71166
7.74885,73542
7.75697,72703
7.76510,74380
7.77322,75277
7.78135,75393
7.78947,79939
7.79758,82294
7.80572,89962
7.81383,97919
7.82197,95940
7.83008,87523
7.83820,86574
7.84633,78628
7.85445,85510
7.86257,90443
7.87070,114939
7.87882,139886
7.88695,166014
7.89507,171499
7.90318,153856
7.91132,127095
7.91943,123483
7.92757,164562
7.93568,231626
7.94380,302926
7.95193,352953
7.96005,313583
7.96818,239878
7.97630,187192
7.98442,137883
7.99255,111672
8.00067,90002
8.00878,81714
8.01692,81932
8.02503,84068
8.03317,74382
8.04128,79514
8.04940,77520
8.05753,73716
8.06565,76698
8.07378,74902
8.08190,73270
8.09002,73169
8.09815,68178
8.10627,66495
8.11440,65954
8.12252,68673
8.13063,77293
8.13877,82600
8.14688,101333
8.15500,103569
8.16313,102578
8.17125,86255
8.17938,82658
8.18750,72419
8.19562,68267
8.20375,66588
8.21187,66245
8.22000,68238
8.22812,69401
8.23623,70553
8.24437,69245
8.25248,59342
8.26060,69124
8.26873,64308
8.27685,58670
8.28498,62265
8.29310,68631
8.30122,64288
8.30935,62034
8.31747,69911
8.32560,70618
8.33372,68388
8.34183,71283
8.34997,64143
8.35808,67345
8.36622,66565
8.37433,64696
8.38245,68102
8.39058,66650
8.39870,64725
8.40682,64886
8.41495,65013
8.42307,64724
8.43120,57143
8.43932,57548
8.44743,59497
8.45557,59629
8.46368,61432
8.47182,57337
8.47993,57792
8.48805,60248
8.49618,59785
8.50430,60274
8.51242,72559
8.52055,121696
8.52867,289940
8.53680,651998
8.54492,1192435
8.55303,1687201
8.56117,1689714
8.56928,1342848
8.57742,858881
8.58553,443020
8.59365,252824
8.60178,183956
8.60990,165493
8.61803,142749
8.62615,137972
8.63427,128821
8.64240,121634
8.65052,106575
8.65863,108698
8.66677,106043
8.67488,97703
8.68302,101658
8.69113,92649
8.69925,92245
8.70738,86281
8.71550,89263
8.72363,84485
8.73175,85507
8.73987,76564
8.74800,81608
8.75612,86476
8.76425,109712
8.77237,184871
8.78048,310387
8.78862,475028
8.79673,596801
8.80485,626724
8.81298,520403
8.82110,407768
8.82923,300230
8.83735,227949
8.84547,200811
8.85360,193814
8.86172,195373
8.86985,189352
8.87797,182959
8.88608,171288
8.89422,160669
8.90233,152900
8.91045,140015
8.91858,140360
8.92670,142208
8.93483,153098
8.94295,166028
8.95107,183050
8.95920,172744
8.96732,169980
8.97545,152485
8.98357,144129
8.99168,137314
8.99982,126548
9.00793,132285
9.01607,121577
9.02418,111750
9.03230,108062
9.04043,104260
9.04855,103622
9.05667,103529
9.06480,99746
9.07292,99705
9.08105,100051
9.08917,102719
9.09728,106846
9.10542,116906
9.11353,126198
9.12167,124645
9.12978,127628
9.13790,116178
9.14603,102679
9.15415,104153
9.16228,106705
9.17040,93950
9.17852,94784
9.18665,93062
9.19477,91277
9.20288,89550
9.21102,93724
9.21913,95915
9.22727,92288
9.23538,86424
9.24350,91874
9.25163,84920
9.25975,83911
9.26788,89817
9.27600,84950
9.28412,84713
9.29225,81524
9.30037,79909
9.30848,76799
9.31662,79199
9.32473,80061
9.33287,75771
9.34098,73053
9.34910,76482
9.35723,73236
9.36535,69585
9.37348,80201
9.38160,74839
9.38972,72251
9.39785,79325
9.40597,75514
9.41410,84247
9.42222,88391
9.43033,103502
9.43847,107242
9.44658,108135
9.45470,104020
9.46283,96708
9.47095,91305
9.47908,86054
9.48720,79220
9.49532,74066
9.50345,77119
9.51157,78185
9.51970,88245
9.52782,95825
9.53593,95407
9.54407,91504
9.55218,89583
9.56032,90794
9.56843,90849
9.57655,106258
9.58468,119288
9.59280,143466
9.60092,141354
9.60905,129675
9.61717,104195
9.62530,82505
9.63342,65728
9.64153,61533
9.64967,60656
9.65778,54941
9.66592,57754
9.67403,58276
9.68215,60375
9.69028,55493
9.69840,54321
9.70652,58743
9.71465,51830
9.72277,51690
9.73090,48799
9.73902,53706
9.74713,54227
9.75527,52946
9.76338,48805
9.77152,48359
9.77963,45901
9.78775,48377
9.79588,49748
9.80400,49727
9.81213,49259
9.82025,49988
9.82837,52102
9.83650,48638
9.84462,46226
9.85273,45834
9.86087,52291
9.86898,55799
9.87712,54383
9.88523,52550
9.89335,53286
9.90148,52986
9.90960,47653
9.91773,47864
9.92585,49363
9.93397,51661
9.94210,59736
9.95022,73549
9.95833,82667
9.96647,81936
9.97458,75372
9.98272,72763
9.99083,67977
9.99895,66283
10.00708,63232
10.01520,67818
10.02333,68470
10.03145,69963
10.03957,68015
10.04770,59280
10.05582,61455
10.06395,54798
10.07207,60688
10.08018,57293
10.08832,60775
10.09643,61953
10.10455,61881
10.11268,58450
10.12080,52329
10.12893,56926
10.13705,54334
10.14517,51405
10.15330,52506
10.16142,50042
10.16955,59920
10.17767,50360
10.18578,46635
10.19392,47693
10.20203,50707
10.21017,46734
10.21828,46478
10.22640,49299
10.23453,52295
10.24265,59102
10.25077,60215
10.25890,94561
10.26702,192213
10.27515,485974
10.28327,1193748
10.29138,2468590
10.29952,4157883
10.30763,6197077
10.31577,9135008
10.32388,1.380992E+07
10.33200,2.079282E+07
10.34013,2.858603E+07
10.34825,3.465932E+07
10.35637,3.535679E+07
10.36450,2.850137E+07
10.37262,1.67672E+07
10.38075,7429772
10.38887,3273874
10.39698,1839758
10.40512,1293334
10.41323,1059446
10.42137,879957
10.42948,779509
10.43760,694232
10.44573,621420
10.45385,564977
10.46198,538267
10.47010,490394
10.47822,441787
10.48635,417721
10.49447,389656
10.50258,361909
10.51072,353281
10.51883,336014
10.52697,318310
10.53508,330841
10.54320,325234
10.55133,334503
10.55945,316999
10.56758,286499
10.57570,261198
10.58382,255988
10.59195,239926
10.60007,232611
10.60820,228087
10.61632,195275
10.62443,188307
10.63257,189117
10.64068,186096
10.64880,177629
10.65693,172119
10.66505,168894
10.67318,161684
10.68130,158167
10.68942,155120
10.69755,152017
10.70567,152364
10.71380,148662
10.72192,152246
10.73003,139938
10.73817,138048
10.74628,135527
10.75440,136799
10.76253,124446
10.77065,136902
10.77878,122701
10.78690,119873
10.79502,120464
10.80315,112407
10.81127,107648
10.81940,113009
10.82752,108143
10.83563,107848
10.84377,102418
10.85188,101536
10.86002,100287
10.86813,100663
10.87625,97459
10.88438,95352
10.89250,92421
10.90062,93164
10.90875,91900
10.91687,88743
10.92500,87678
10.93312,85286
10.94123,85860
10.94937,91663
10.95748,84190
10.96562,86225
10.97373,87040
10.98185,85238
10.98998,79797
10.99810,78626
11.00622,78970
11.01435,74403
11.02247,76042
11.03060,79756
11.03872,71594
11.04683,71876
11.05497,70612
11.06308,70283
11.07122,74232
11.07933,74692
11.08745,73606
11.09558,79274
11.10370,73448
11.11183,76524
11.11995,66925
11.12807,65759
11.13620,60133
11.14432,60321
11.15243,54364
11.16057,54302
11.16868,55555
11.17682,59973
11.18493,60928
11.19305,64150
11.20118,67062
11.20930,61605
11.21743,56884
11.22555,53834
11.23367,51555
11.24180,52874
11.24992,46494
11.25805,48914
11.26617,47696
11.27428,45892
11.28242,51914
11.29053,47596
11.29865,47198
11.30678,59448
11.31490,81074
11.32303,110968
11.33115,147986
11.33927,199582
11.34740,232731
11.35552,228236
11.36365,198500
11.37177,156496
11.37988,124743
11.38802,97225
11.39613,82012
11.40425,76846
11.41238,72960
11.42050,71586
11.42863,70067
11.43675,74246
11.44487,66221
11.45300,61492
11.46112,58897
11.46925,62528
11.47737,75725
11.48548,98439
11.49362,131693
11.50173,163438
11.50987,169736
11.51798,162439
11.52610,140224
11.53423,126256
11.54235,114436
11.55047,114484
11.55860,108299
11.56672,107746
11.57485,85373
11.58297,78468
11.59108,79720
11.59922,86451
11.60733,107136
11.61547,128938
11.62358,161605
11.63170,171018
11.63983,148557
11.64795,133244
11.65608,101611
11.66420,80683
11.67232,73831
11.68045,65259
11.68857,61828
11.69668,64923
11.70482,62093
11.71293,61936
11.72107,64357
11.72918,60994
11.73730,63719
11.74543,63913
11.75355,62643
11.76168,58615
11.76980,62534
11.77792,50439
11.78605,59704
11.79417,50796
11.80228,53453
11.81042,52315
11.81853,56901
11.82667,49095
11.83478,52784
11.84290,50770
11.85103,50576
11.85915,53285
11.86728,53565
11.87540,50403
11.88352,49865
11.89165,44949
11.89977,48515
11.90790,47649
11.91602,51872
11.92413,52642
11.93227,57107
11.94038,66469
11.94850,59066
11.95663,53839
11.96475,52309
11.97288,47251
11.98100,48765
11.98912,48250
11.99725,56746
12.00537,70545
12.01350,80120
12.02162,80476
12.02973,78817
12.03787,73452
12.04598,64039
12.05410,55240
12.06223,54119
12.07035,51986
12.07848,51403
12.08660,50803
12.09472,51545
12.10285,48242
12.11097,52362
12.11910,54463
12.12722,53601
12.13533,61000
12.14347,58265
12.15158,55452
12.15972,53974
12.16783,55460
12.17595,47101
12.18408,49436
12.19220,46152
12.20032,44149
12.20845,46000
12.21657,50244
12.22470,47856
12.23282,48160
12.24093,52227
12.24907,49691
12.25718,51126
12.26532,50133
12.27343,44192
12.28155,46444
12.28968,47993
12.29780,44458
12.30593,49262
12.31405,45361
12.32217,43407
12.33030,47806
12.33842,45427
12.34653,43963
12.35467,46009
12.36278,41214
12.37092,47018
12.37903,44943
12.38715,42464
12.39528,43784
12.40340,48126
12.41153,55532
12.41965,79009
12.42777,91334
12.43590,102883
12.44402,105059
12.45215,85995
12.46027,80313
12.46838,70487
12.47652,59326
12.48463,52654
12.49275,47750
12.50088,48220
12.50900,46471
12.51713,52671
12.52525,53360
12.53337,64570
12.54150,96598
12.54962,173908
12.55775,298362
12.56587,477846
12.57398,605563
12.58212,592356
12.59023,484492
12.59835,325635
12.60648,205359
12.61460,130535
12.62273,106015
12.63085,85801
12.63897,78989
12.64710,74257
12.65522,68610
12.66335,64447
12.67147,61369
12.67958,59694
12.68772,57162
12.69583,59583
12.70397,61298
12.71208,58215
12.72020,64717
12.72833,67635
12.73645,73423
12.74457,78944
12.75270,70491
12.76082,69847
12.76895,66078
12.77707,54770
12.78518,64273
12.79332,53763
12.80143,46232
12.80957,48965
12.81768,46245
12.82580,46747
12.83393,43387
12.84205,43971
12.85017,49740
12.85830,44602
12.86642,43542
12.87455,45974
12.88267,42500
12.89078,41510
12.89892,47063
12.90703,38551
12.91517,39882
12.92328,39639
12.93140,41586
12.93953,44217
12.94765,38748
12.95578,44364
12.96390,38349
12.97202,41840
12.98015,40407
12.98827,42844
12.99638,43374
13.00452,44538
13.01263,40434
13.02077,41913
13.02888,43735
13.03700,43413
13.04513,42290
13.05325,41497
13.06138,38516
13.06950,38040
13.07762,43254
13.08575,42999
13.09387,48323
13.10200,51448
13.11012,44877
13.11823,40934
13.12637,36443
13.13448,40023
13.14260,38128
13.15073,38195
13.15885,37225
13.16698,41485
13.17510,41320
13.18322,40718
13.19135,42036
13.19947,46528
13.20760,45494
13.21572,49670
13.22383,46900
13.23197,47161
13.24008,47209
13.24820,43460
13.25633,46926
13.26445,45109
13.27258,43279
13.28070,44020
13.28882,39604
13.29695,38530
13.30507,42667
13.31320,35565
13.32132,33656
13.32943,38020
13.33757,40341
13.34568,36735
13.35382,38972
13.36193,37500
13.37005,37456
13.37818,38266
13.38630,35817
13.39442,34595
13.40255,35593
13.41067,36024
13.41880,37625
13.42692,35899
13.43503,37171
13.44317,32438
13.45128,37919
13.45942,40365
13.46753,33113
13.47565,35003
13.48378,36047
13.49190,36984
13.50003,34251
13.50815,37080
13.51627,39422
13.52440,38104
13.53252,39430
13.54063,40700
13.54877,36076
13.55688,37456
13.56502,37134
13.57313,38610
13.58125,41068
13.58938,42473
13.59750,40162
13.60563,44169
13.61375,49617
13.62187,56107
13.63000,53063
13.63812,57971
13.64623,53182
13.65437,47993
13.66248,41490
13.67062,36125
13.67873,37118
13.68685,37450
13.69498,32800
13.70310,33657
13.71123,32124
13.71935,35426
13.72747,36454
13.73560,37478
13.74372,43951
13.75185,48936
13.75997,64292
13.76808,95810
13.77622,131797
13.78433,170278
13.79245,191742
13.80058,210711
13.80870,198158
13.81683,197899
13.82495,184960
13.83307,197566
13.84120,200957
13.84932,188180
13.85745,172808
13.86557,143790
13.87368,118117
13.88182,104657
13.88993,88569
13.89805,79943
13.90618,69526
13.91430,66726
13.92243,62187
13.93055,62017
13.93867,59032
13.94680,55557
13.95492,57969
13.96305,73019
13.97117,96404
13.97928,138977
13.98742,164397
13.99553,167638
14.00367,176020
14.01178,137475
14.01990,120273
14.02803,92290
14.03615,81792
14.04427,78300
14.05240,68509
14.06052,67712
14.06865,64259
14.07677,68363
14.08488,63344
14.09302,62268
14.10113,57109
14.10927,53710
14.11738,53200
14.12550,52438
14.13363,51119
14.14175,54628
14.14988,61062
14.15800,57442
14.16612,56018
14.17425,50967
14.18237,60666
14.19048,60818
14.19862,74739
14.20673,99201
14.21487,123945
14.22298,162744
14.23110,183198
14.23923,190868
14.24735,190082
14.25548,186486
14.26360,165596
14.27172,158012
14.27985,137589
14.28797,122343
14.29608,110414
14.30422,97156
14.31233,92339
14.32047,83862
14.32858,83151
14.33670,88611
14.34483,76694
14.35295,74622
14.36108,75611
14.36920,71239
14.37732,69880
14.38545,53657
14.39357,57601
14.40170,50417
14.40982,54248
14.41793,59165
14.42607,66347
14.43418,70709
14.44230,70864
14.45043,64590
14.45855,54654
14.46668,56525
14.47480,51046
14.48292,48526
14.49105,48479
14.49917,49437
14.50730,44346
14.51542,46319
14.52353,45053
14.53167,49759
14.53978,51771
14.54792,47008
14.55603,44686
14.56415,45861
14.57228,41808
14.58040,40141
14.58852,44921
14.59665,47089
14.60477,42025
14.61290,40504
14.62102,38437
14.62913,44042
14.63727,37666
14.64538,38629
14.65352,39415
14.66163,40652
14.66975,38832
14.67788,37659
14.68600,33988
14.69412,35539
14.70225,34618
14.71037,37285
14.71850,37823
14.72662,41784
14.73473,39902
14.74287,39854
14.75098,41276
14.75912,39454
14.76723,38476
14.77535,40956
14.78348,47559
14.79160,57864
14.79973,118511
14.80785,298721
14.81597,730957
14.82410,1548689
14.83222,2677296
14.84033,3520452
14.84847,3632413
14.85658,3108380
14.86472,2260196
14.87283,1434392
14.88095,882396
14.88908,590975
14.89720,427368
14.90533,354920
14.91345,313936
14.92157,270618
14.92970,243069
14.93782,217176
14.94593,209502
14.95407,196878
14.96218,179439
14.97032,169673
14.97843,171768
14.98655,151182
14.99468,143273
15.00280,134988
15.01093,132248
15.01905,127318
15.02717,123500
15.03530,124512
15.04342,114905
15.05155,106102
15.05967,107321
15.06778,107189
15.07592,99578
15.08403,93218
15.09215,99225
15.10028,89980
15.10840,98396
15.11653,87981
15.12465,88055
15.13277,86076
15.14090,97982
15.14902,108234
15.15715,113526
15.16527,97776
15.17338,89885
15.18152,82175
15.18963,68184
15.19777,61086
15.20588,55557
15.21400,56001
15.22213,55433
15.23025,56454
15.23837,51193
15.24650,48696
15.25462,45945
15.26275,54175
15.27087,47414
15.27898,44716
15.28712,47179
15.29523,44776
15.30337,42748
15.31148,43526
15.31960,45074
15.32773,45527
15.33585,41331
15.34397,43445
15.35210,50599
15.36022,41314
15.36835,43955
15.37647,42408
15.38458,42444
15.39272,46032
15.40083,49394
15.40897,43934
15.41708,40810
15.42520,42534
15.43333,41088
15.44145,44062
15.44958,42107
15.45770,41076
15.46582,43831
15.47395,46257
15.48207,50472
15.49018,58497
15.49832,61499
15.50643,71898
15.51457,78705
15.52268,77822
15.53080,72030
15.53893,69009
15.54705,70415
15.55518,65815
15.56330,59772
15.57142,55482
15.57955,48797
15.58767,53962
15.59580,48422
15.60392,46405
15.61203,45186
15.62017,47686
15.62828,42569
15.63640,41183
15.64453,40104
15.65265,43225
15.66078,41849
15.66890,40575
15.67702,49578
15.68515,43640
15.69327,41684
15.70140,46370
15.70952,37388
15.71763,35233
15.72577,39691
15.73388,42663
15.74200,42685
15.75013,44786
15.75825,49503
15.76638,69465
15.77450,105856
15.78262,157302
15.79075,227301
15.79887,277558
15.80700,274898
15.81512,255519
15.82323,193256
15.83137,129587
15.83948,102283
15.84762,81762
15.85573,70472
15.86385,66062
15.87198,69955
15.88010,64301
15.88822,61787
15.89635,59174
15.90447,55744
15.91260,55664
15.92072,57096
15.92883,58599
15.93697,56344
15.94508,52893
15.95322,50810
15.96133,56822
15.96945,59971
15.97758,65910
15.98570,74258
15.99383,74860
16.00195,77304
16.01007,76207
16.01820,89725
16.02632,87417
16.03443,92488
16.04257,94487
16.05068,86168
16.05882,79395
16.06693,69160
16.07505,62116
16.08318,58311
16.09130,53421
16.09943,52495
16.10755,54084
16.11567,48822
16.12380,50848
16.13192,52458
16.14003,50887
16.14817,57651
16.15628,60090
16.16442,51256
16.17253,54035
16.18065,50458
16.18878,44336
16.19690,43337
16.20503,44304
16.21315,50742
16.22127,45646
16.22940,50686
16.23752,45439
16.24565,43862
16.25377,45737
16.26188,47484
16.27002,45241
16.27813,47987
16.28625,46010
16.29438,48745
16.30250,50523
16.31063,48950
16.31875,46787
16.32687,46343
16.33500,44385
16.34312,49757
16.35125,53066
16.35937,51265
16.36748,67323
16.37562,78913
16.38373,85888
16.39185,86570
16.39998,86256
16.40810,75026
16.41623,67103
16.42435,56633
16.43247,47627
16.44060,56989
16.44872,61841
16.45685,87032
16.46497,153446
16.47308,272187
16.48122,431369
16.48933,600750
16.49747,650483
16.50558,612381
16.51370,448353
16.52183,314422
16.52995,196278
16.53807,142262
16.54620,106505
16.55432,94745
16.56245,95295
16.57057,82971
16.57868,79047
16.58682,75927
16.59493,79975
16.60307,81072
16.61118,80916
16.61930,81477
16.62743,82000
16.63555,78852
16.64368,72581
16.65180,71687
16.65992,66007
16.66805,62315
16.67617,62247
16.68428,58792
16.69242,59520
16.70053,53318
16.70867,49646
16.71678,52346
16.72490,53972
16.73303,50166
16.74115,57076
16.74928,47139
16.75740,47596
16.76552,52946
16.77365,54937
16.78177,56335
16.78988,56802
16.79802,50590
16.80613,46816
16.81427,46504
16.82238,49959
16.83050,42647
16.83863,50689
16.84675,40922
16.85488,37945
16.86300,38777
16.87112,38739
16.87925,39111
16.88737,41109
16.89550,39499
16.90362,41529
16.91173,37346
16.91987,42269
16.92798,41870
16.93610,45713
16.94423,37583
16.95235,42471
16.96048,38781
16.96860,37248
16.97672,39615
16.98485,44990
16.99297,39634
17.00110,41008
17.00922,46578
17.01733,41732
17.02547,42867
17.03358,44424
17.04172,41751
17.04983,49179
17.05795,48636
17.06608,48143
17.07420,52547
17.08232,50557
17.09045,46501
17.09857,45837
17.10670,46087
17.11482,45034
17.12293,45908
17.13107,45488
17.13918,44958
17.14732,45909
17.15543,44113
17.16355,45371
17.17168,46399
17.17980,47092
17.18792,43033
17.19605,43738
17.20417,40945
17.21230,37265
17.22042,37997
17.22853,39508
17.23667,35683
17.24478,38079
17.25292,36444
17.26103,38564
17.26915,39171
17.27728,40815
17.28540,40938
17.29353,36895
17.30165,41871
17.30977,38565
17.31790,38113
17.32602,41601
17.33413,42563
17.34227,41766
17.35038,45628
17.35852,49254
17.36663,49930
17.37475,52061
17.38288,50244
17.39100,50757
17.39913,50373
17.40725,46991
17.41537,50848
17.42350,46583
17.43162,49304
17.43973,45419
17.44787,49855
17.45598,47546
17.46412,46814
17.47223,49407
17.48035,44805
17.48848,42795
17.49660,37766
17.50473,42969
17.51285,40690
17.52097,40658
17.52910,39646
17.53722,41437
17.54535,42435
17.55347,44913
17.56158,51488
17.56972,59521
17.57783,86465
17.58595,137815
17.59408,219532
17.60220,318127
17.61033,423702
17.61845,469139
17.62657,463781
17.63470,403271
17.64282,330757
17.65095,260537
17.65907,239840
17.66718,250849
17.67532,270672
17.68343,260226
17.69157,240020
17.69968,199452
17.70780,165671
17.71593,138032
17.72405,109063
17.73217,98625
17.74030,98331
17.74842,87561
17.75655,84769
17.76467,74435
17.77278,72088
17.78092,68305
17.78903,62332
17.79717,71539
17.80528,66927
17.81340,61895
17.82153,64505
17.82965,66830
17.83778,67517
17.84590,75083
17.85402,69991
17.86215,82920
17.87027,80433
17.87838,71400
17.88652,73562
17.89463,64812
17.90277,61123
17.91088,57900
17.91900,49971
17.92713,51128
17.93525,46558
17.94338,47153
17.95150,46379
17.95962,45965
17.96775,44923
17.97587,45074
17.98398,43162
17.99212,48390
18.00023,43029
18.00837,49101
18.01648,46657
18.02460,56117
18.03273,61559
18.04085,73147
18.04898,78829
18.05710,81898
18.06522,80218
18.07335,92452
18.08147,122004
18.08960,153942
18.09772,217218
18.10583,226086
18.11397,242746
18.12208,228300
18.13020,193504
18.13833,171434
18.14645,162096
18.15458,149231
18.16270,134652
18.17082,124544
18.17895,118677
18.18707,112780
18.19520,107797
18.20332,102309
18.21143,97363
18.21957,89254
18.22768,91037
18.23580,80377
18.24393,85150
18.25205,74634
18.26018,78632
18.26830,78010
18.27642,71646
18.28455,66099
18.29267,63079
18.30080,51848
18.30892,53055
18.31703,49407
18.32517,48160
18.33328,43973
18.34142,45361
18.34953,50842
18.35765,45397
18.36578,45123
18.37390,44318
18.38202,42669
18.39015,40570
18.39827,43217
18.40640,43535
18.41452,43702
18.42263,44145
18.43077,44681
18.43888,50549
18.44702,55102
18.45513,64534
18.46325,80406
18.47138,110881
18.47950,137950
18.48763,163207
18.49575,174376
18.50387,171685
18.51200,145991
18.52012,119143
18.52823,98645
18.53637,84592
18.54448,62269
18.55262,60085
18.56073,59218
18.56885,51008
18.57698,50439
18.58510,50376
18.59323,52803
18.60135,52424
18.60947,51978
18.61760,58009
18.62572,56528
18.63383,51981
18.64197,60635
18.65008,51770
18.65822,57558
18.66633,73075
18.67445,103261
18.68258,148554
18.69070,188741
18.69883,207756
18.70695,213821
18.71507,227263
18.72320,228255
18.73132,237923
18.73945,249083
18.74757,249318
18.75568,245520
18.76382,232095
18.77193,245774
18.78005,245499
18.78818,251917
18.79630,240073
18.80443,236257
18.81255,246134
18.82067,245390
18.82880,240501
18.83692,236641
18.84505,241011
18.85317,237215
18.86128,228424
18.86942,231898
18.87753,231983
18.88567,232790
18.89378,233176
18.90190,230648
18.91003,227400
18.91815,223762
18.92627,232274
18.93440,232007
18.94252,229509
18.95065,236826
18.95877,246456
18.96688,248753
18.97502,253035
18.98313,248709
18.99127,245259
18.99938,232436
19.00750,233246
19.01563,220698
19.02375,213848
19.03187,212776
19.04000,205613
19.04812,211857
19.05625,206249
19.06437,195499
19.07248,204366
19.08062,206712
19.08873,217335
19.09687,223136
19.10498,242124
19.11310,247345
19.12123,261080
19.12935,246892
19.13748,240077
19.14560,237868
19.15372,225248
19.16185,216461
19.16997,212165
19.17808,218447
19.18622,213054
19.19433,208213
19.20247,214580
19.21058,205440
19.21870,203811
19.22683,198344
19.23495,192350
19.24308,184657
19.25120,180773
19.25932,184062
19.26745,184239
19.27557,182870
19.28368,195957
19.29182,207351
19.29993,227226
19.30807,227448
19.31618,218682
19.32430,221361
19.33243,217146
19.34055,194353
19.34868,188408
19.35680,198777
19.36492,204363
19.37305,211567
19.38117,222923
19.38930,227857
19.39742,222695
19.40553,203556
19.41367,196965
19.42178,185328
19.42990,169696
19.43803,169993
19.44615,170138
19.45428,164250
19.46240,156377
19.47052,158580
19.47865,156838
19.48677,159766
19.49490,161052
19.50302,167509
19.51113,177715
19.51927,209390
19.52738,228710
19.53552,252666
19.54363,244114
19.55175,215538
19.55988,195926
19.56800,175371
19.57612,162340
19.58425,151698
19.59237,143229
19.60050,145255
19.60862,145929
19.61673,135373
19.62487,143359
19.63298,139384
19.64112,152731
19.64923,192560
19.65735,238421
19.66548,330174
19.67360,427451
19.68172,516479
19.68985,558125
19.69797,526300
19.70610,453576
19.71422,374828
19.72233,313695
19.73047,266729
19.73858,243568
19.74672,209985
19.75483,195993
19.76295,182527
19.77108,170962
19.77920,159523
19.78733,158086
19.79545,154091
19.80357,156374
19.81170,153777
19.81982,155012
19.82793,152300
19.83607,150454
19.84418,147481
19.85232,140694
19.86043,142576
19.86855,177444
19.87668,255395
19.88480,420471
19.89293,681459
19.90105,1050700
19.90917,1413341
19.91730,1657477
19.92542,1731881
19.93355,1681771
19.94167,1545818
19.94978,1444430
19.95792,1369313
19.96603,1293014
19.97415,1193996
19.98228,1136442
19.99040,1073233
19.99853,1013959
20.00665,951623
20.01477,938561
20.02290,883047
20.03102,844651
20.03915,799437
20.04727,739671
20.05538,630172
20.06352,532090
20.07163,435488
20.07975,361875
20.08788,295940
20.09600,256546
20.10413,247944
20.11225,237062
20.12037,217243
20.12850,222264
20.13662,210648
20.14475,197193
20.15287,200882
20.16098,207177
20.16912,210584
20.17723,221068
20.18537,229151
20.19348,240280
20.20160,241373
20.20973,233212
20.21785,230707
20.22597,210942
20.23410,201576
20.24222,203228
20.25035,203954
20.25847,227945
20.26658,272958
20.27472,357876
20.28283,453957
20.29097,545074
20.29908,590489
20.30720,583449
20.31533,509935
20.32345,426626
20.33158,335179
20.33970,265657
20.34782,217345
20.35595,182942
20.36407,158632
20.37218,140537
20.38032,136936
20.38843,118268
20.39657,117286
20.40468,117562
20.41280,114731
20.42093,107154
20.42905,112303
20.43718,123685
20.44530,134594
20.45342,148960
20.46155,155361
20.46967,153677
20.47778,149164
20.48592,145903
20.49403,133841
20.50217,117091
20.51028,113165
20.51840,107118
20.52653,102701
20.53465,97872
20.54278,93791
20.55090,99106
20.55902,97013
20.56715,91764
20.57527,86185
20.58340,89041
20.59152,85892
20.59963,81314
20.60777,83726
20.61588,83081
20.62400,81629
20.63213,78222
20.64025,85951
20.64838,79312
20.65650,82482
20.66462,74104
20.67275,80460
20.68087,81297
20.68900,81345
20.69712,81820
20.70523,77839
20.71337,78309
20.72148,75237
20.72960,77303
20.73773,77513
20.74585,77463
20.75398,75818
20.76210,78684
20.77022,81161
20.77835,76849
20.78647,79403
20.79460,99304
20.80272,112453
20.81083,137426
20.81897,168865
20.82708,203933
20.83522,210457
20.84333,191896
20.85145,156503
20.85958,132628
20.86770,104608
20.87582,94844
20.88395,88375
20.89207,82805
20.90020,78152
20.90832,69691
20.91643,74647
20.92457,77965
20.93268,76911
20.94082,71879
20.94893,70547
20.95705,73326
20.96518,77144
20.97330,71802
20.98143,68463
20.98955,71056
20.99767,70049
21.00580,68316
21.01392,75149
21.02203,72341
21.03017,70354
21.03828,67709
21.04642,72305
21.05453,69698
21.06265,72470
21.07078,76148
21.07890,73815
21.08703,70651
21.09515,69596
21.10327,66821
21.11140,66045
21.11952,64589
21.12763,75730
21.13577,72559
21.14388,73654
21.15202,80921
21.16013,95414
21.16825,99404
21.17638,106454
21.18450,106433
21.19263,93244
21.20075,86895
21.20887,84682
21.21700,76824
21.22512,74682
21.23325,74497
21.24137,71031
21.24948,74926
21.25762,72540
21.26573,66519
21.27385,66605
21.28198,69727
21.29010,69129
21.29823,62521
21.30635,67736
21.31447,66322
21.32260,66037
21.33072,61308
21.33885,56601
21.34697,64505
21.35508,61707
21.36322,61387
21.37133,61608
21.37947,64754
21.38758,63786
21.39570,59847
21.40383,66583
21.41195,62833
21.42007,68605
21.42820,71436
21.43632,71876
21.44445,77288
21.45257,76541
21.46068,70430
21.46882,72056
21.47693,69769
21.48507,61376
21.49318,62156
21.50130,68717
21.50943,58429
21.51755,59870
21.52567,60334
21.53380,57217
21.54192,58164
21.55005,58272
21.55817,57645
21.56628,57167
21.57442,57342
21.58253,56540
21.59067,59380
21.59878,62303
21.60690,61739
21.61503,63776
21.62315,66605
21.63128,70219
21.63940,73998
21.64752,86639
21.65565,104417
21.66377,102477
21.67188,110220
21.68002,103057
21.68813,96264
21.69627,88942
21.70438,80248
21.71250,74757
21.72063,65739
21.72875,58609
21.73688,54249
21.74500,57786
21.75312,55385
21.76125,59412
21.76937,52621
21.77748,50739
21.78562,57424
21.79373,48778
21.80187,55868
21.80998,54296
21.81810,54096
21.82623,56128
21.83435,63996
21.84248,76509
21.85060,87292
21.85872,95031
21.86685,98454
21.87497,97159
21.88310,92424
21.89122,73492
21.89933,67959
21.90747,59414
21.91558,54261
21.92370,54663
21.93183,47800
21.93995,52681
21.94808,52462
21.95620,50740
21.96432,48422
21.97245,48055
21.98057,48430
21.98870,43892
21.99682,41620
22.00493,47794
22.01307,44124
22.02118,42844
22.02932,44289
22.03743,45168
22.04555,43013
22.05368,48026
22.06180,47304
22.06992,47042
22.07805,46449
22.08617,41754
22.09430,44364
22.10242,47211
22.11053,47611
22.11867,45780
22.12678,41996
22.13492,47643
22.14303,53181
22.15115,43201
22.15928,48423
22.16740,44045
22.17552,42580
22.18365,42945
22.19177,44068
22.19990,43533
22.20802,49040
22.21613,40541
22.22427,42897
22.23238,47497
22.24052,47871
22.24863,49838
22.25675,45961
22.26488,50787
22.27300,48294
22.28113,49488
22.28925,50502
22.29737,55569
22.30550,74572
22.31362,93625
22.32173,114500
22.32987,142374
22.33798,174837
22.34612,190590
22.35423,196815
22.36235,192814
22.37048,173763
22.37860,143996
22.38673,131609
22.39485,127371
22.40297,131347
22.41110,148796
22.41922,154129
22.42735,160765
22.43547,157751
22.44358,153385
22.45172,139017
22.45983,134498
22.46795,117120
22.47608,111063
22.48420,109143
22.49233,108241
22.50045,111594
22.50857,111006
22.51670,123391
22.52482,114583
22.53295,110158
22.54107,111666
22.54918,107734
22.55732,102568
22.56543,101614
22.57355,104623
22.58168,93583
22.58980,87950
22.59793,88905
22.60605,92550
22.61417,88528
22.62230,88413
22.63042,89151
22.63855,86471
22.64667,83059
22.65478,87828
22.66292,85334
22.67103,86288
22.67917,89121
22.68728,95029
22.69540,94295
22.70353,102073
22.71165,104476
22.71977,106238
22.72790,107144
22.73602,98585
22.74415,96403
22.75227,94234
22.76038,82591
22.76852,72395
22.77663,67204
22.78477,67265
22.79288,72007
22.80100,77908
22.80913,83824
22.81725,89651
22.82537,88965
22.83350,80878
22.84162,78062
22.84975,72715
22.85787,70929
22.86598,64512
22.87412,62683
22.88223,68814
22.89037,69973
22.89848,73479
22.90660,82815
22.91473,86726
22.92285,112306
22.93098,119817
22.93910,136628
22.94722,156971
22.95535,152355
22.96347,129496
22.97158,124440
22.97972,103470
22.98783,97179
22.99597,91274
23.00408,87352
23.01220,76259
23.02033,73247
23.02845,69865
23.03658,79701
23.04470,95066
23.05282,103731
23.06095,118874
23.06907,114244
23.07720,117574
23.08532,124533
23.09343,135423
23.10157,129720
23.10968,125752
23.11780,134258
23.12593,124952
23.13405,126928
23.14218,129826
23.15030,136352
23.15842,129530
23.16655,136490
23.17467,130535
23.18280,128705
23.19092,127867
23.19903,124406
23.20717,123152
23.21528,129336
23.22342,124634
23.23153,126614
23.23965,130546
23.24778,143061
23.25590,151495
23.26402,159053
23.27215,161027
23.28027,164580
23.28840,162645
23.29652,148251
23.30463,134403
23.31277,136411
23.32088,126059
23.32902,129105
23.33713,125917
23.34525,134143
23.35338,138169
23.36150,160338
23.36962,193030
23.37775,209085
23.38587,242924
23.39400,281476
23.40212,311282
23.41023,348033
23.41837,361235
23.42648,376900
23.43462,380139
23.44273,379679
23.45085,374188
23.45898,351298
23.46710,350620
23.47523,329816
23.48335,307848
23.49147,296134
23.49960,272102
23.50772,266529
23.51583,245954
23.52397,225635
23.53208,224841
23.54022,205481
23.54833,199436
23.55645,190720
23.56458,184782
23.57270,183070
23.58083,186765
23.58895,193618
23.59707,200253
23.60520,204460
23.61332,213460
23.62143,216847
23.62957,215898
23.63768,216961
23.64582,275610
23.65393,357139
23.66205,491926
23.67018,611753
23.67830,691715
23.68643,677245
23.69455,586494
23.70267,474617
23.71080,363187
23.71892,287032
23.72705,237066
23.73517,199346
23.74328,179700
23.75142,168962
23.75953,203984
23.76765,303577
23.77578,537440
23.78390,955640
23.79203,1591333
23.80015,2259097
23.80827,2625500
23.81640,2502202
23.82452,2243191
23.83265,1781887
23.84077,1291957
23.84888,984357
23.85702,754742
23.86513,612007
23.87327,513292
23.88138,443735
23.88950,403267
23.89763,354849
23.90575,325193
23.91387,301722
23.92200,284605
23.93012,267818
23.93825,249026
23.94637,240761
23.95448,221490
23.96262,208178
23.97073,206286
23.97887,190391
23.98698,182206
23.99510,182002
24.00323,182485
24.01135,184401
24.01947,210115
24.02760,264739
24.03572,331086
24.04385,389380
24.05197,401651
24.06008,373838
24.06822,310215
24.07633,247610
24.08447,189803
24.09258,165381
24.10070,150495
24.10883,141705
24.11695,137550
24.12508,127947
24.13320,137518
24.14132,131210
24.14945,135179
24.15757,136416
24.16568,148438
24.17382,136270
24.18193,133915
24.19007,129722
24.19818,123924
24.20630,123027
24.21443,123712
24.22255,122706
24.23068,120695
24.23880,115240
24.24692,104783
24.25505,104938
24.26317,101720
24.27130,92355
24.27942,88649
24.28753,89685
24.29567,94378
24.30378,86505
24.31190,85290
24.32003,88409
24.32815,83395
24.33628,80325
24.34440,86905
24.35252,81165
24.36065,78489
24.36877,77651
24.37690,75658
24.38502,70143
24.39313,80936
24.40127,86125
24.40938,101526
24.41750,114820
24.42563,110083
24.43375,114009
24.44188,105800
24.45000,86840
24.45812,82099
24.46625,78378
24.47437,71105
24.48250,74059
24.49062,72592
24.49873,79471
24.50687,73042
24.51498,72747
24.52312,88206
24.53123,92142
24.53935,94895
24.54748,101023
24.55560,98637
24.56372,88832
24.57185,90725
24.57997,89555
24.58810,81151
24.59622,84642
24.60433,78816
24.61247,74455
24.62058,75618
24.62872,66913
24.63683,71562
24.64495,70745
24.65308,67696
24.66120,67413
24.66932,65778
24.67745,72465
24.68557,67406
24.69370,68331
24.70182,66636
24.70993,65588
24.71807,61220
24.72618,59812
24.73432,59951
24.74243,59807
24.75055,67737
24.75868,86215
24.76680,118194
24.77493,152431
24.78305,166274
24.79117,173311
24.79930,178712
24.80742,188435
24.81553,198055
24.82367,196856
24.83178,203490
24.83992,214311
24.84803,234064
24.85615,250899
24.86428,286719
24.87240,318223
24.88053,383255
24.88865,463994
24.89677,527581
24.90490,592621
24.91302,576251
24.92115,531900
24.92927,429472
24.93738,374876
24.94552,311168
24.95363,279312
24.96175,258850
24.96988,241873
24.97800,226717
24.98613,225947
24.99425,218665
25.00237,220244
25.01050,214768
25.01862,207873
25.02675,213621
25.03487,202594
25.04298,208499
25.05112,197872
25.05923,203165
25.06735,208235
25.07548,205992
25.08360,197708
25.09173,203974
25.09985,205854
25.10797,237335
25.11610,292373
25.12422,464005
25.13235,745480
25.14047,1193334
25.14858,1682087
25.15672,2037289
25.16483,2081206
25.17297,1778716
25.18108,1313379
25.18920,934673
25.19733,633463
25.20545,444967
25.21357,328806
25.22170,267289
25.22982,226074
25.23795,226474
25.24607,212115
25.25418,229166
25.26232,230151
25.27043,244446
25.27857,235446
25.28668,218619
25.29480,187450
25.30293,163548
25.31105,148517
25.31918,127165
25.32730,114797
25.33542,105788
25.34355,100928
25.35167,90275
25.35978,81748
25.36792,81043
25.37603,77873
25.38417,77230
25.39228,70267
25.40040,70352
25.40853,70986
25.41665,67124
25.42478,65126
25.43290,71511
25.44102,69340
25.44915,68603
25.45727,68106
25.46538,65149
25.47352,64254
25.48163,66025
25.48977,68666
25.49788,70721
25.50600,67203
25.51413,69280
25.52225,66015
25.53038,67919
25.53850,60687
25.54662,59085
25.55475,57247
25.56287,58720
25.57100,62699
25.57912,57603
25.58723,57250
25.59537,62167
25.60348,66341
25.61160,62172
25.61973,61027
25.62785,61313
25.63598,70603
25.64410,70822
25.65222,81553
25.66035,79991
25.66847,89423
25.67660,102752
25.68472,128547
25.69283,182393
25.70097,241716
25.70908,284203
25.71720,294735
25.72533,300943
25.73345,305228
25.74158,326091
25.74970,333193
25.75782,326945
25.76595,319697
25.77407,316167
25.78220,322430
25.79032,328019
25.79843,331746
25.80657,315101
25.81468,324513
25.82282,317255
25.83093,323056
25.83905,316110
25.84718,325696
25.85530,318245
25.86342,310478
25.87155,316168
25.87967,306685
25.88780,300623
25.89592,302762
25.90403,289561
25.91217,281447
25.92028,281803
25.92842,285780
25.93653,286242
25.94465,291064
25.95278,287990
25.96090,268994
25.96903,275787
25.97715,268008
25.98527,263079
25.99340,257144
26.00152,265705
26.00963,257683
26.01777,253219
26.02588,251171
26.03402,255016
26.04213,244235
26.05025,247308
26.05838,248126
26.06650,247309
26.07463,237719
26.08275,239385
26.09087,237477
26.09900,236806
26.10712,240498
26.11523,222449
26.12337,237267
26.13148,244873
26.13962,243933
26.14773,225777
26.15585,237986
26.16398,230030
26.17210,241655
26.18023,234321
26.18835,223243
26.19647,227127
26.20460,213602
26.21272,208821
26.22085,207651
26.22897,204118
26.23708,199177
26.24522,192577
26.25333,195076
26.26145,198862
26.26958,190362
26.27770,191467
26.28583,191717
26.29395,184911
26.30207,184030
26.31020,186479
26.31832,183114
26.32645,184461
26.33457,176444
26.34268,174360
26.35082,168822
26.35893,172467
26.36707,172346
26.37518,179799
26.38330,189083
26.39143,182527
26.39955,183439
26.40767,197652
26.41580,194351
26.42392,184120
26.43205,184130
26.44017,167187
26.44828,166345
26.45642,168490
26.46453,162963
26.47267,158313
26.48078,162077
26.48890,159018
26.49703,154887
26.50515,155814
26.51327,142724
26.52140,149257
26.52952,143252
26.53765,144212
26.54577,148188
26.55388,135819
26.56202,136610
26.57013,132067
26.57827,129165
26.58638,127794
26.59450,129863
26.60263,126271
26.61075,132566
26.61888,130380
26.62700,132512
26.63512,128393
26.64325,127398
26.65137,125972
26.65948,124059
26.66762,123790
26.67573,132311
26.68387,126413
26.69198,126755
26.70010,125242
26.70823,116927
26.71635,115539
26.72448,115830
26.73260,113623
26.74072,113521
26.74885,102759
26.75697,106674
26.76510,110313
26.77322,101897
26.78133,110637
26.78947,103071
26.79758,104028
26.80570,103523
26.81383,103584
26.82195,106030
26.83008,108801
26.83820,105443
26.84632,100817
26.85445,103025
26.86257,95662
26.87070,92839
26.87882,93513
26.88693,92586
26.89507,95639
26.90318,93198
26.91130,90786
26.91943,81694
26.92755,85535
26.93568,85395
26.94380,85970
26.95192,92142
26.96005,86346
26.96817,91956
26.97630,92530
26.98442,113029
26.99253,146772
27.00067,240427
27.00878,353442
27.01692,535871
27.02503,719655
27.03315,858511
27.04128,905936
27.04940,886534
27.05752,769676
27.06565,628113
27.07377,525456
27.08190,403036
27.09002,329959
27.09813,287765
27.10627,244640
27.11438,224924
27.12252,197316
27.13063,188863
27.13875,175197
27.14688,155978
27.15500,165441
27.16312,154897
27.17125,143220
27.17937,151961
27.18750,143347
27.19562,139921
27.20373,131397
27.21187,134276
27.21998,127403
27.22812,122150
27.23623,117340
27.24435,115977
27.25248,114827
27.26060,110985
27.26873,105579
27.27685,99319
27.28497,96946
27.29310,97616
27.30122,89297
27.30933,92533
27.31747,93145
27.32558,88001
27.33372,83511
27.34183,85819
27.34995,84180
27.35808,88477
27.36620,88738
27.37433,88552
27.38245,83752
27.39057,84443
27.39870,82855
27.40682,86905
27.41495,80833
27.42307,79654
27.43118,73851
27.43932,78901
27.44743,80570
27.45555,77759
27.46368,73745
27.47180,73752
27.47993,77950
27.48805,76741
27.49617,68101
27.50430,77871
27.51242,68268
27.52055,72537
27.52867,71919
27.53678,70361
27.54492,72666
27.55303,74955
27.56115,75980
27.56928,72363
27.57740,73459
27.58553,72923
27.59365,77794
27.60177,88610
27.60990,84460
27.61802,88456
27.62615,83353
27.63427,78423
27.64238,74418
27.65052,70918
27.65863,67622
27.66677,65316
27.67488,62247
27.68300,64217
27.69113,65215
27.69925,62939
27.70737,64022
27.71550,62038
27.72362,61142
27.73175,55345
27.73987,64417
27.74798,56802
27.75612,66259
27.76423,56156
27.77237,58001
27.78048,63913
27.78860,60260
27.79673,60865
27.80485,61576
27.81298,64346
27.82110,61832
27.82922,61862
27.83735,61834
27.84547,67269
27.85358,64169
27.86172,65653
27.86983,57836
27.87797,64690
27.88608,62280
27.89420,62819
27.90233,57332
27.91045,55265
27.91858,60311
27.92670,56725
27.93482,50441
27.94295,54986
27.95107,55871
27.95918,53632
27.96732,52576
27.97543,55397
27.98357,55350
27.99168,54462
27.99980,57844
28.00793,53436
28.01605,59159
28.02418,63201
28.03230,61504
28.04042,59464
28.04855,56735
28.05667,61627
28.06480,68151
28.07292,56810
28.08103,58251
28.08917,60275
28.09728,52566
28.10540,55158
28.11353,50481
28.12165,52814
28.12978,48700
28.13790,51221
28.14602,50553
28.15415,51731
28.16227,51998
28.17040,48907
28.17852,50531
28.18663,55837
28.19477,57475
28.20288,60091
28.21100,66495
28.21913,77846
28.22725,84070
28.23538,90353
28.24350,82026
28.25162,80376
28.25975,75937
28.26787,68341
28.27600,61771
28.28412,59769
28.29223,57034
28.30037,56790
28.30848,55913
28.31662,60866
28.32473,57727
28.33285,71831
28.34098,83202
28.34910,96456
28.35722,111733
28.36535,128559
28.37347,139951
28.38160,154916
28.38972,165257
28.39783,175234
28.40597,175244
28.41408,174240
28.42222,164076
28.43033,150661
28.43845,137757
28.44658,129738
28.45470,132027
28.46283,121991
28.47095,106797
28.47907,97478
28.48720,95209
28.49532,93118
28.50343,92009
28.51157,87330
28.51968,82981
28.52782,79286
28.53593,82197
28.54405,79215
28.55218,72044
28.56030,75022
28.56843,71991
28.57655,67062
28.58467,71272
28.59280,69949
28.60092,71110
28.60903,65140
28.61717,64370
28.62528,65380
28.63342,61493
28.64153,60202
28.64965,67919
28.65778,70906
28.66590,69791
28.67403,68848
28.68215,72135
28.69027,70871
28.69840,71026
28.70652,70417
28.71465,65401
28.72277,60675
28.73088,58712
28.73902,57524
28.74713,60380
28.75525,58475
28.76338,60113
28.77150,70283
28.77963,67471
28.78775,74665
28.79587,77055
28.80400,81524
28.81212,78053
28.82025,74743
28.82837,71876
28.83648,80509
28.84462,64410
28.85273,65502
28.86087,61656
28.86898,68065
28.87710,65915
28.88523,62106
28.89335,69072
28.90147,68231
28.90960,70063
28.91772,66396
28.92585,72250
28.93397,67850
28.94208,65946
28.95022,64646
28.95833,63499
28.96647,75783
28.97458,71259
28.98270,73667
28.99083,66601
28.99895,64589
29.00707,59616
29.01520,59234
29.02332,57436
29.03145,54969
29.03957,59088
29.04768,56234
29.05582,54542
29.06393,51841
29.07207,54392
29.08018,56754
29.08830,60068
29.09643,57622
29.10455,59847
29.11268,63902
29.12080,61892
29.12892,60261
29.13705,55662
29.14517,53111
29.15328,54392
29.16142,59657
29.16953,56460
29.17767,54948
29.18578,59050
29.19390,65846
29.20203,67441
29.21015,78587
29.21828,86472
29.22640,91935
29.23452,89124
29.24265,90358
29.25077,76747
29.25888,65860
29.26702,66870
29.27513,60765
29.28327,56111
29.29138,57194
29.29950,48445
29.30763,57436
29.31575,48838
29.32388,53211
29.33200,53894
29.34012,50635
29.34825,50748
29.35637,53210
29.36450,50220
29.37262,48756
29.38073,47632
29.38887,52717
29.39698,47515
29.40510,53444
29.41323,62906
29.42135,60639
29.42948,67283
29.43760,65669
29.44572,69106
29.45385,62155
29.46197,60476
29.47010,58519
29.47822,53965
29.48633,55232
29.49447,55407
29.50258,57267
29.51072,54864
29.51883,58204
29.52695,57231
29.53508,58893
29.54320,54823
29.55132,53228
29.55945,51426
29.56757,50125
29.57570,51169
29.58382,51059
29.59193,48910
29.60007,48912
29.60818,48902
29.61632,47903
29.62443,49173
29.63255,49749
29.64068,50894
29.64880,51544
29.65693,50444
29.66505,48535
29.67317,48495
29.68130,46715
29.68942,54568
29.69753,52196
29.70567,48622
29.71378,51796
29.72192,58526
29.73003,52410
29.73815,47105
29.74628,49934
29.75440,46997
29.76253,49898
29.77065,49162
29.77877,47368
29.78690,43802
29.79502,44576
29.80313,42220
29.81127,42494
29.81938,43871
29.82752,45271
29.83563,46117
29.84375,45203
29.85188,51306
29.86000,56599
29.86813,80591
29.87625,152252
29.88437,281111
29.89250,523027
29.90062,801185
29.90875,1015671
29.91687,1112448
29.92498,1000806
29.93312,723061
29.94123,458098
29.94935,261593
29.95748,153410
29.96560,106411
29.97373,92429
29.98185,82392
29.98997,82654
29.99810,89208
30.00622,90450
30.01435,95502
30.02247,98381
30.03058,97153
30.03872,107400
30.04683,111218
30.05495,108374
30.06308,111994
30.07120,104035
30.07933,98053
30.08745,105761
30.09557,99932
30.10370,95095
30.11182,95757
30.11995,92495
30.12807,91549
30.13618,87807
30.14432,79753
30.15243,80892
30.16057,80511
30.16868,78814
30.17680,74445
30.18493,71661
30.19305,71582
30.20117,68850
30.20930,66523
30.21742,66876
30.22555,65521
30.23367,68299
30.24178,65297
30.24992,62870
30.25803,56216
30.26617,59607
30.27428,58258
30.28240,54633
30.29053,59559
30.29865,58483
30.30678,57260
30.31490,59107
30.32302,58956
30.33115,54578
30.33927,56192
30.34738,57906
30.35552,53774
30.36363,56018
30.37177,55222
30.37988,54636
30.38800,52494
30.39613,50913
30.40425,53743
30.41238,50399
30.42050,53573
30.42862,50974
30.43675,54332
30.44487,55825
30.45298,55723
30.46112,52052
30.46923,53476
30.47737,54234
30.48548,53390
30.49360,52184
30.50173,60486
30.50985,53558
30.51798,57190
30.52610,52576
30.53422,54631
30.54235,59695
30.55047,55909
30.55860,53163
30.56672,58749
30.57483,58455
30.58297,55293
30.59108,56777
30.59920,55354
30.60733,56601
30.61545,52359
30.62358,56068
30.63170,54357
30.63982,55688
30.64795,57836
30.65607,53541
30.66420,52242
30.67232,52541
30.68043,52216
30.68857,53306
30.69668,52703
30.70482,48439
30.71293,54364
30.72105,52839
30.72918,54695
30.73730,52842
30.74542,50323
30.75355,49712
30.76167,54362
30.76980,52426
30.77792,60897
30.78603,78789
30.79417,109880
30.80228,152246
30.81042,197975
30.81853,247176
30.82665,258458
30.83478,236151
30.84290,186356
30.85102,142569
30.85915,107562
30.86727,79888
30.87540,64263
30.88352,68077
30.89163,57164
30.89977,58679
30.90788,56468
30.91602,53708
30.92413,61869
30.93225,48921
30.94038,53807
30.94850,55862
30.95663,50806
30.96475,51894
30.97287,54057
30.98100,50938
30.98912,50646
30.99723,49559
31.00537,49288
31.01348,53449
31.02162,48974
31.02973,53972
31.03785,55292
31.04598,58413
31.05410,55325
31.06223,60409
31.07035,57113
31.07847,65333
31.08660,69865
31.09472,92289
31.10283,121645
31.11097,148428
31.11908,159467
31.12722,163472
31.13533,153138
31.14345,120597
31.15158,94409
31.15970,80197
31.16783,64142
31.17595,59649
31.18407,57208
31.19220,59344
31.20032,65037
31.20845,76239
31.21657,77696
31.22468,86966
31.23282,89603
31.24093,88838
31.24905,81611
31.25718,79272
31.26530,64774
31.27343,63312
31.28155,52818
31.28967,52135
31.29780,49419
31.30592,49109
31.31405,44666
31.32217,48786
31.33028,50610
31.33842,49212
31.34653,50373
31.35467,52069
31.36278,52202
31.37090,56441
31.37903,63943
31.38715,70522
31.39527,80743
31.40340,79650
31.41152,86998
31.41965,80542
31.42777,80931
31.43588,75329
31.44402,70281
31.45213,78531
31.46027,73910
31.46838,70713
31.47650,73611
31.48463,70773
31.49275,73824
31.50087,79811
31.50900,74944
31.51712,68940
31.52525,69653
31.53337,69613
31.54148,69940
31.54962,71446
31.55773,72564
31.56587,65489
31.57398,70809
31.58210,76245
31.59023,69777
31.59835,72650
31.60648,74118
31.61460,69367
31.62272,66672
31.63085,64477
31.63897,70361
31.64708,73720
31.65522,77019
31.66333,78013
31.67147,74902
31.67958,77948
31.68770,76715
31.69583,79486
31.70395,68880
31.71208,72787
31.72020,65714
31.72832,67860
31.73645,67333
31.74457,64313
31.75270,68526
31.76082,61597
31.76893,66203
31.77707,64485
31.78518,63554
31.79330,65156
31.80143,64844
31.80955,68750
31.81768,65283
31.82580,69500
31.83392,65998
31.84205,64777
31.85017,63881
31.85830,68059
31.86642,69285
31.87453,71760
31.88267,74651
31.89078,71339
31.89890,71870
31.90703,76345
31.91515,76957
31.92328,80168
31.93140,78121
31.93952,77864
31.94765,86531
31.95577,86325
31.96390,89858
31.97202,87048
31.98013,89616
31.98827,88617
31.99638,94871
32.00452,88809
32.01263,87628
32.02075,87409
32.02888,91411
32.03700,86172
32.04512,82567
32.05325,80690
32.06137,76499
32.06950,78851
32.07762,77618
32.08573,71336
32.09387,80803
32.10198,66972
32.11012,65949
32.11823,64399
32.12635,64492
32.13448,59581
32.14260,61857
32.15072,60333
32.15885,58998
32.16697,62998
32.17510,55428
32.18322,60473
32.19133,59280
32.19947,53990
32.20758,55963
32.21572,52318
32.22383,57844
32.23195,52236
32.24008,53279
32.24820,54650
32.25633,60937
32.26445,64256
32.27257,60996
32.28070,60247
32.28882,58185
32.29693,59853
32.30507,58778
32.31318,56677
32.32132,53660
32.32943,60859
32.33755,55017
32.34568,52877
32.35380,54278
32.36193,56153
32.37005,56158
32.37817,53231
32.38630,52522
32.39442,55523
32.40255,50936
32.41067,53480
32.41878,52017
32.42692,48229
32.43503,50025
32.44315,52007
32.45128,47137
32.45940,51383
32.46753,45958
32.47565,49517
32.48377,50462
32.49190,49315
32.50002,49951
32.50815,50380
32.51627,47307
32.52438,49101
32.53252,47471
32.54063,49126
32.54875,50655
32.55688,51130
32.56500,52454
32.57313,47762
32.58125,48292
32.58937,50440
32.59750,46980
32.60562,45514
32.61375,47201
32.62187,44907
32.62998,53999
32.63812,44111
32.64623,47967
32.65437,48272
32.66248,47741
32.67060,50396
32.67873,52914
32.68685,57288
32.69497,59122
32.70310,59806
32.71122,60895
32.71935,55411
32.72747,52904
32.73558,49076
32.74372,49941
32.75183,55941
32.75997,48282
32.76808,46640
32.77620,47181
32.78433,44207
32.79245,48045
32.80058,45028
32.80870,46563
32.81682,42830
32.82495,44743
32.83307,46420
32.84118,44675
32.84932,47101
32.85743,44344
32.86557,46065
32.87368,43013
32.88180,45890
32.88993,48027
32.89805,51619
32.90618,47167
32.91430,43445
32.92242,45678
32.93055,46339
32.93867,44882
32.94678,46243
32.95492,47952
32.96303,48987
32.97117,47320
32.97928,49454
32.98740,50906
32.99553,54170
33.00365,57978
33.01178,60438
33.01990,59688
33.02802,59305
33.03615,58810
33.04427,57585
33.05240,56875
33.06052,52600
33.06863,51782
33.07677,55070
33.08488,63470
33.09300,61047
33.10113,70549
33.10925,77113
33.11738,91636
33.12550,96658
33.13362,100686
33.14175,101579
33.14987,87968
33.15800,74434
33.16612,65876
33.17423,55005
33.18237,52574
33.19048,56867
33.19862,50091
33.20673,48376
33.21485,49771
33.22298,50396
33.23110,49140
33.23922,50255
33.24735,54760
33.25547,47015
33.26360,50039
33.27172,44018
33.27983,41614
33.28797,43733
33.29608,51750
33.30422,45012
33.31233,47203
33.32045,44642
33.32858,50809
33.33670,50804
33.34482,43672
33.35295,46500
33.36107,46998
33.36920,47788
33.37732,47786
33.38543,51342
33.39357,50936
33.40168,49589
33.40982,45059
33.41793,42528
33.42605,48148
33.43418,44769
33.44230,44414
33.45043,44821
33.45855,43196
33.46667,40426
33.47480,41081
33.48292,43886
33.49103,40468
33.49917,42995
33.50728,44802
33.51542,43430
33.52353,46334
33.53165,44219
33.53978,45716
33.54790,45944
33.55603,49933
33.56415,48379
33.57227,46724
33.58040,49804
33.58852,51983
33.59663,47948
33.60477,43595
33.61288,44700
33.62102,45448
33.62913,44469
33.63725,48346
33.64538,44662
33.65350,47956
33.66163,48639
33.66975,44937
33.67787,43974
33.68600,49328
33.69412,47164
33.70225,48697
33.71037,45078
33.71848,49944
33.72662,43855
33.73473,45992
33.74285,42724
33.75098,41186
33.75910,45552
33.76723,44621
33.77535,46330
33.78347,41980
33.79160,45330
33.79972,44781
33.80785,48783
33.81597,47716
33.82408,46610
33.83222,44402
33.84033,46759
33.84847,47109
33.85658,49132
33.86470,45974
33.87283,51523
33.88095,47091
33.88907,48445
33.89720,47729
33.90532,47895
33.91345,47994
33.92157,55615
33.92968,45085
33.93782,48279
33.94593,47208
33.95407,43155
33.96218,52208
33.97030,44575
33.97843,47821
33.98655,46952
33.99467,48779
34.00280,47375
34.01092,45252
34.01905,47669
34.02717,43229
34.03528,48042
34.04342,44646
34.05153,47244
34.05967,45289
34.06778,51758
34.07590,44866
34.08403,45756
34.09215,47679
34.10028,46143
34.10840,43120
34.11652,51026
34.12465,43423
34.13277,43004
34.14088,46000
34.14902,46184
34.15713,45365
34.16527,47369
34.17338,47289
34.18150,46692
34.18963,50830
34.19775,49758
34.20588,43681
34.21400,39974
34.22212,44815
34.23025,45016
34.23837,47032
34.24650,43946
34.25462,43037
34.26273,46654
34.27087,45810
34.27898,42819
34.28710,45044
34.29523,42562
34.30335,44328
34.31148,44102
34.31960,42093
34.32772,43516
34.33585,40930
34.34397,44712
34.35210,47405
34.36022,46993
34.36833,43088
34.37647,45573
34.38458,47531
34.39270,43484
34.40083,47246
34.40895,47039
34.41708,44702
34.42520,46469
34.43332,43777
34.44145,41155
34.44957,39794
34.45770,45591
34.46582,43601
34.47393,44533
34.48207,49483
34.49018,45252
34.49832,44076
34.50643,44885
34.51455,51296
34.52268,49225
34.53080,46867
34.53892,48428
34.54705,53710
34.55517,56969
34.56330,59640
34.57142,67157
34.57953,61622
34.58767,61092
34.59578,60879
34.60392,57925
34.61203,61008
34.62015,58643
34.62828,52623
34.63640,54301
34.64452,53288
34.65265,61019
34.66077,50180
34.66890,51522
34.67702,48055
34.68513,50693
34.69327,49096
34.70138,51575
34.70952,46417
34.71763,51195
34.72575,50057
34.73388,49496
34.74200,49123
34.75013,46916
34.75825,46922
34.76637,46203
34.77450,50178
34.78262,46527
34.79073,50229
34.79887,49063
34.80698,50765
34.81512,49114
34.82323,49939
34.83135,47339
34.83948,48970
34.84760,47766
34.85573,51602
34.86385,42835
34.87197,46561
34.88010,54427
34.88822,46869
34.89635,47383
34.90447,48624
34.91258,50702
34.92072,46291
34.92883,51321
34.93695,51069
34.94508,59758
34.95320,80179
34.96133,108558
34.96945,170539
34.97757,248892
34.98570,319922
34.99382,346138
35.00195,305686
35.01007,231108
35.01818,153830
35.02632,104224
35.03443,79007
35.04257,69613
35.05068,62233
35.05880,64789
35.06693,58541
35.07505,60874
35.08317,56860
35.09130,51108
35.09942,55702
35.10755,60489
35.11567,55265
35.12378,50383
35.13192,52685
35.14003,54203
35.14817,56125
35.15628,47684
35.16440,57247
35.17253,52569
35.18065,50652
35.18877,53612
35.19690,52183
35.20502,52792
35.21315,51797
35.22127,48580
35.22938,48280
35.23752,47838
35.24563,48644
35.25377,50121
35.26188,59142
35.27000,53128
35.27813,52234
35.28625,57291
35.29438,54165
35.30250,52780
35.31062,53655
35.31875,50671
35.32687,51608
35.33498,45369
35.34312,51742
35.35123,51650
35.35937,50491
35.36748,47088
35.37560,44438
35.38373,48975
35.39185,46798
35.39998,47053
35.40810,49471
35.41622,53567
35.42435,49631
35.43247,50320
35.44058,47155
35.44872,52145
35.45683,51721
35.46497,49441
35.47308,52498
35.48120,50617
35.48933,51546
35.49745,53839
35.50558,50995
35.51370,52914
35.52182,46223
35.52995,53232
35.53807,51477
35.54620,52846
35.55432,50123
35.56243,51777
35.57057,52441
35.57868,52620
35.58680,53991
35.59493,49171
35.60305,51090
35.61118,49734
35.61930,51621
35.62742,48591
35.63555,53005
35.64367,50636
35.65180,51721
35.65992,50132
35.66803,44109
35.67617,49461
35.68428,49864
35.69242,52287
35.70053,56148
35.70865,58275
35.71678,50518
35.72490,56639
35.73302,54204
35.74115,50608
35.74927,54370
35.75740,46516
35.76552,51398
35.77363,57058
35.78177,55220
35.78988,57065
35.79802,52203
35.80613,57091
35.81425,52672
35.82238,49476
35.83050,51080
35.83862,50776
35.84675,52351
35.85487,52202
35.86300,51460
35.87112,51742
35.87923,52685
35.88737,51119
35.89548,49232
35.90362,50089
35.91173,46968
35.91985,44064
35.92798,52495
35.93610,46255
35.94423,48535
35.95235,46229
35.96047,53204
35.96860,51719
35.97672,51446
35.98483,46749
35.99297,50594
36.00108,54788
36.00922,55518
36.01733,50945
36.02545,50345
36.03358,51921
36.04170,51245
36.04983,52734
36.05795,51955
36.06607,53614
36.07420,49838
36.08232,50874
36.09045,52245
36.09857,55484
36.10668,50049
36.11482,50988
36.12293,51161
36.13105,51201
36.13918,51026
36.14730,49825
36.15543,50541
36.16355,52852
36.17167,57823
36.17980,58477
36.18792,49949
36.19605,51022
36.20417,46127
36.21228,52631
36.22042,50428
36.22853,50801
36.23665,49850
36.24478,48519
36.25290,47723
36.26103,50885
36.26915,52408
36.27727,49266
36.28540,47327
36.29352,54780
36.30165,52042
36.30977,55758
36.31788,57902
36.32602,56500
36.33413,61739
36.34227,65313
36.35038,60849
36.35850,57568
36.36663,56949
36.37475,57311
36.38287,48501
36.39100,53742
36.39912,51673
36.40725,53617
36.41537,52092
36.42348,53167
36.43162,49554
36.43973,56713
36.44787,52097
36.45598,53698
36.46410,47909
36.47223,50728
36.48035,50691
36.48847,49822
36.49660,53641
36.50472,51221
36.51285,55787
36.52097,48029
36.52908,52329
36.53722,55355
36.54533,55102
36.55347,54539
36.56158,51657
36.56970,51745
36.57783,49636
36.58595,53292
36.59408,49464
36.60220,51445
36.61032,53237
36.61845,55292
36.62657,58995
36.63468,52054
36.64282,53161
36.65093,51671
36.65907,58961
36.66718,56916
36.67530,52439
36.68343,53411
36.69155,55450
36.69968,53477
36.70780,52869
36.71592,55962
36.72405,53687
36.73217,55960
36.74030,53652
36.74842,50992
36.75653,56096
36.76467,51630
36.77278,50487
36.78090,49005
36.78903,54277
36.79715,51188
36.80528,53999
36.81340,53749
36.82152,57721
36.82965,53069
36.83777,54689
36.84590,57398
36.85402,56830
36.86213,64785
36.87027,61529
36.87838,64669
36.88650,63855
36.89463,61496
36.90275,65576
36.91088,61323
36.91900,64646
36.92712,66219
36.93525,67842
36.94337,68180
36.95150,69226
36.95962,72337
36.96773,70804
36.97587,76915
36.98398,82670
36.99212,81374
37.00023,80238
37.00835,72245
37.01648,79001
37.02460,70672
37.03272,70139
37.04085,70202
37.04897,68219
37.05710,68781
37.06522,65745
37.07333,67601
37.08147,66472
37.08958,64752
37.09772,68223
37.10583,64388
37.11395,70506
37.12208,65758
37.13020,68020
37.13833,65623
37.14645,66276
37.15457,64442
37.16270,64895
37.17082,66669
37.17893,68417
37.18707,66913
37.19518,65952
37.20332,65959
37.21143,69694
37.21955,66818
37.22768,71748
37.23580,61819
37.24393,66462
37.25205,66680
37.26017,61963
37.26830,65745
37.27642,66632
37.28453,62415
37.29267,60989
37.30078,65309
37.30892,68555
37.31703,61046
37.32515,64296
37.33328,66294
37.34140,70159
37.34953,65347
37.35765,66004
37.36577,73741
37.37390,74410
37.38202,72547
37.39015,74385
37.39827,73426
37.40638,73233
37.41452,70170
37.42263,70036
37.43075,72107
37.43888,66764
37.44700,68340
37.45513,64858
37.46325,67435
37.47137,59815
37.47950,64962
37.48762,59069
