C:\MassHunter\GCMS\1\data\JTB-E02\BACandBLUE\JTB-E18-016-08.D Thu Jun 27 10:35:00 2019
Start of data points
2.09525,45953
2.10338,49058
2.11150,46596
2.11963,49292
2.12775,44301
2.13587,44832
2.14400,43918
2.15212,46991
2.16025,49501
2.16837,47130
2.17648,38976
2.18462,43599
2.19273,44540
2.20085,41222
2.20898,41122
2.21710,42873
2.22523,38604
2.23335,38653
2.24147,37493
2.24960,38715
2.25772,39317
2.26585,39290
2.27397,105424
2.28208,884353
2.29022,1532183
2.29833,642576
2.30647,291055
2.31458,214669
2.32270,180026
2.33083,162694
2.33895,147252
2.34707,142309
2.35520,123871
2.36332,119075
2.37145,109670
2.37957,101273
2.38768,102815
2.39582,98133
2.40393,93589
2.41207,91068
2.42018,90220
2.42830,89446
2.43643,91357
2.44455,82537
2.45268,80978
2.46080,85119
2.46892,88694
2.47705,106917
2.48517,84329
2.49328,87247
2.50142,110046
2.50953,99629
2.51767,84590
2.52578,81325
2.53390,81421
2.54203,73058
2.55015,81293
2.55828,90101
2.56640,127825
2.57452,158665
2.58265,119385
2.59077,97659
2.59888,91709
2.60702,140750
2.61513,719273
2.62327,1433490
2.63138,856688
2.63950,410864
2.64763,290959
2.65575,218671
2.66388,181278
2.67200,149930
2.68012,130302
2.68825,125419
2.69637,116299
2.70450,109058
2.71262,104875
2.72073,98146
2.72887,93850
2.73698,89190
2.74510,90267
2.75323,85352
2.76135,84519
2.76948,85239
2.77760,85623
2.78572,111038
2.79385,243444
2.80197,251762
2.81010,163763
2.81822,130001
2.82633,141354
2.83447,130408
2.84258,115535
2.85072,99389
2.85883,91125
2.86695,88791
2.87508,86152
2.88320,83705
2.89132,80310
2.89945,78959
2.90757,75697
2.91570,74222
2.92382,72354
2.93193,72918
2.94007,67669
2.94818,71047
2.95632,69149
2.96443,81711
2.97255,115832
2.98068,113826
2.98880,89452
2.99692,83875
3.00505,79169
3.01317,80176
3.02130,76987
3.02942,70899
3.03753,71130
3.04567,72729
3.05378,70837
3.06192,65882
3.07003,65418
3.07815,74222
3.08628,223593
3.09440,1314263
3.10253,3390801
3.11065,4891702
3.11877,6163222
3.12690,4906449
3.13502,2829207
3.14313,1938777
3.15127,1506034
3.15938,1187391
3.16752,982672
3.17563,858984
3.18375,771836
3.19188,911615
3.20000,1553933
3.20813,1781921
3.21625,1297698
3.22437,921088
3.23250,768938
3.24062,640645
3.24875,574860
3.25687,502960
3.26498,455195
3.27312,404789
3.28123,371048
3.28935,368770
3.29748,565140
3.30560,1407020
3.31373,2989375
3.32185,3926308
3.32997,3440475
3.33810,2432657
3.34622,1765758
3.35435,1421263
3.36247,1174998
3.37058,1031205
3.37872,918406
3.38683,797964
3.39495,739665
3.40308,692894
3.41120,623532
3.41933,586422
3.42745,552761
3.43557,554243
3.44370,510716
3.45182,487602
3.45995,471779
3.46807,457004
3.47618,476148
3.48432,477126
3.49243,447815
3.50057,435879
3.50868,415330
3.51680,392579
3.52493,394044
3.53305,375453
3.54117,373030
3.54930,390737
3.55742,375892
3.56555,368296
3.57367,379946
3.58178,454381
3.58992,483785
3.59803,423397
3.60617,377059
3.61428,362174
3.62240,368402
3.63053,370800
3.63865,359074
3.64677,342740
3.65490,328470
3.66302,344237
3.67115,708332
3.67927,2516892
3.68738,5359436
3.69552,5609133
3.70363,3590816
3.71177,2187233
3.71988,1595597
3.72800,1339288
3.73613,1151850
3.74425,1036192
3.75238,915936
3.76050,835004
3.76862,784854
3.77675,746464
3.78487,714155
3.79298,680337
3.80112,665932
3.80923,845108
3.81737,1580122
3.82548,2398137
3.83360,2192712
3.84173,1503918
3.84985,1125999
3.85798,950126
3.86610,837247
3.87422,758485
3.88235,709104
3.89047,664480
3.89860,617016
3.90672,585229
3.91483,583076
3.92297,593434
3.93108,726256
3.93920,825491
3.94733,820235
3.95545,1158649
3.96358,2873827
3.97170,5656198
3.97982,6781751
3.98795,5107383
3.99607,3283755
4.00420,4776463
4.01232,1.354431E+07
4.02043,2.743246E+07
4.02857,3.251882E+07
4.03668,2.458393E+07
4.04480,1.32527E+07
4.05293,7143257
4.06105,4722521
4.06918,3494844
4.07730,2768685
4.08542,2293791
4.09355,1938649
4.10167,1672794
4.10980,1495970
4.11792,1332307
4.12603,1223553
4.13417,1142094
4.14228,1100298
4.15042,1141423
4.15853,1206745
4.16665,1138827
4.17478,1008839
4.18290,925726
4.19102,848773
4.19915,802171
4.20727,781313
4.21540,1308494
4.22352,4020744
4.23163,1.038222E+07
4.23977,1.674761E+07
4.24788,1.832595E+07
4.25602,1.391784E+07
4.26413,8034233
4.27225,5180423
4.28038,3830496
4.28850,2972629
4.29663,2398699
4.30475,2015038
4.31287,1732584
4.32100,1524188
4.32912,1362164
4.33723,1260050
4.34537,1170295
4.35348,1118739
4.36162,1070765
4.36973,1043061
4.37785,977386
4.38598,913448
4.39410,860567
4.40223,809027
4.41035,774092
4.41847,747212
4.42660,715338
4.43472,693016
4.44283,661356
4.45097,647022
4.45908,618286
4.46722,601050
4.47533,581935
4.48345,562893
4.49158,562103
4.49970,546468
4.50783,528232
4.51595,514228
4.52407,499878
4.53220,494743
4.54032,492339
4.54845,477301
4.55657,467103
4.56468,469595
4.57282,445220
4.58093,446122
4.58905,423327
4.59718,422974
4.60530,414009
4.61343,408282
4.62155,399924
4.62967,429309
4.63780,564699
4.64592,728988
4.65405,810058
4.66217,729357
4.67028,581245
4.67842,499695
4.68653,451655
4.69465,425621
4.70278,413125
4.71090,384570
4.71903,375766
4.72715,363894
4.73527,359518
4.74340,363093
4.75152,337139
4.75965,338931
4.76777,325572
4.77588,326312
4.78402,325622
4.79213,325234
4.80027,369563
4.80838,440028
4.81650,490841
4.82463,465988
4.83275,421084
4.84087,400229
4.84900,385141
4.85712,397809
4.86525,388308
4.87337,378727
4.88148,356943
4.88962,350623
4.89773,326284
4.90587,315208
4.91398,311290
4.92210,296397
4.93023,307933
4.93835,378122
4.94648,607452
4.95460,1190454
4.96272,2005839
4.97085,2594581
4.97897,2554015
4.98708,2044173
4.99522,1513049
5.00333,1164237
5.01147,925008
5.01958,809919
5.02770,778741
5.03583,924707
5.04395,1220569
5.05208,1446824
5.06020,1325692
5.06832,1086102
5.07645,888851
5.08457,774905
5.09270,711346
5.10082,666686
5.10893,631283
5.11707,581718
5.12518,564240
5.13330,532439
5.14143,515644
5.14955,500211
5.15768,514735
5.16580,533771
5.17392,555876
5.18205,552158
5.19017,520516
5.19830,495989
5.20642,496681
5.21453,505722
5.22267,519183
5.23078,503692
5.23890,484009
5.24703,472242
5.25515,459457
5.26328,423955
5.27140,388911
5.27952,391003
5.28765,355233
5.29577,361407
5.30390,351791
5.31202,344463
5.32013,336627
5.32827,356542
5.33638,359334
5.34452,382501
5.35263,397897
5.36075,374280
5.36888,355223
5.37700,339942
5.38512,326010
5.39325,333596
5.40137,329916
5.40950,336677
5.41762,326505
5.42573,307925
5.43387,306190
5.44198,307253
5.45012,313244
5.45823,315566
5.46635,305925
5.47448,301810
5.48260,302276
5.49072,280649
5.49885,279700
5.50697,279071
5.51510,278515
5.52322,293697
5.53133,287529
5.53947,281997
5.54758,279502
5.55572,284807
5.56383,274376
5.57195,296720
5.58008,308609
5.58820,301655
5.59633,299099
5.60445,281505
5.61257,276012
5.62070,265811
5.62882,266923
5.63693,275016
5.64507,283551
5.65318,293170
5.66132,284255
5.66943,278906
5.67755,281488
5.68568,297690
5.69380,322260
5.70193,347844
5.71005,336818
5.71817,300169
5.72630,279330
5.73442,270658
5.74255,259142
5.75067,252253
5.75878,250806
5.76692,245756
5.77503,244919
5.78315,246776
5.79128,235351
5.79940,239567
5.80753,232477
5.81565,234769
5.82377,233163
5.83190,234990
5.84002,230572
5.84815,234818
5.85627,235851
5.86438,226368
5.87252,220156
5.88063,221228
5.88875,220697
5.89688,220070
5.90500,210762
5.91313,186634
5.92125,159188
5.92937,154823
5.93750,160230
5.94562,167222
5.95375,174321
5.96187,202392
5.96998,221101
5.97812,264371
5.98623,289249
5.99437,320437
6.00248,331919
6.01060,295353
6.01873,251887
6.02685,211655
6.03497,186778
6.04310,180354
6.05122,184574
6.05935,168079
6.06747,164869
6.07558,157796
6.08372,153704
6.09183,152651
6.09997,157450
6.10808,155487
6.11620,151491
6.12433,159598
6.13245,210011
6.14058,300147
6.14870,434262
6.15682,513002
6.16495,456055
6.17307,370821
6.18118,295775
6.18932,244751
6.19743,224934
6.20557,216043
6.21368,213506
6.22180,194723
6.22993,198702
6.23805,202669
6.24618,188747
6.25430,192937
6.26242,200283
6.27055,201478
6.27867,204394
6.28678,192685
6.29492,192160
6.30303,193686
6.31117,200806
6.31928,194557
6.32740,198345
6.33553,200395
6.34365,206829
6.35178,206498
6.35990,211308
6.36802,207022
6.37615,204584
6.38427,200629
6.39240,204025
6.40052,200246
6.40863,203698
6.41677,195775
6.42488,194692
6.43300,204594
6.44113,201068
6.44925,200066
6.45738,192710
6.46550,186037
6.47362,196497
6.48175,196573
6.48987,199472
6.49800,198744
6.50612,199442
6.51423,198835
6.52237,204396
6.53048,203200
6.53860,205483
6.54673,214917
6.55485,204559
6.56298,202997
6.57110,215108
6.57922,215302
6.58735,234002
6.59547,238195
6.60360,230079
6.61172,222919
6.61983,209808
6.62797,216656
6.63608,215515
6.64422,214615
6.65233,222735
6.66045,272872
6.66858,360920
6.67670,464384
6.68482,487321
6.69295,415129
6.70107,349704
6.70920,286814
6.71732,260159
6.72543,251385
6.73357,245865
6.74168,247606
6.74982,240428
6.75793,239486
6.76605,235124
6.77418,233970
6.78230,234393
6.79043,237035
6.79855,236088
6.80667,196266
6.81480,181762
6.82292,170399
6.83103,167974
6.83917,163219
6.84728,174219
6.85542,188234
6.86353,209962
6.87165,215127
6.87978,197065
6.88790,158049
6.89603,131864
6.90415,108946
6.91227,105590
6.92040,100817
6.92852,99697
6.93663,97118
6.94477,96776
6.95288,96408
6.96102,100107
6.96913,110888
6.97725,123467
6.98538,141723
6.99350,141340
7.00163,131518
7.00975,115387
7.01787,104311
7.02600,96808
7.03412,91771
7.04225,91600
7.05037,91797
7.05848,87557
7.06662,88589
7.07473,82858
7.08285,82084
7.09098,81638
7.09910,80727
7.10723,80971
7.11535,81402
7.12347,82968
7.13160,78709
7.13972,84964
7.14785,103445
7.15597,140228
7.16408,198319
7.17222,228944
7.18033,216962
7.18847,185548
7.19658,140965
7.20470,116506
7.21283,104531
7.22095,117271
7.22907,165812
7.23720,373151
7.24532,797288
7.25345,1293026
7.26157,1521038
7.26968,1303755
7.27782,872584
7.28593,519312
7.29407,346149
7.30218,278536
7.31030,248143
7.31843,214400
7.32655,167973
7.33467,127356
7.34280,109657
7.35092,104225
7.35905,99381
7.36717,101393
7.37528,107461
7.38342,112777
7.39153,105624
7.39967,107636
7.40778,99744
7.41590,95096
7.42403,88474
7.43215,88458
7.44028,85509
7.44840,78818
7.45652,79443
7.46465,83312
7.47277,83138
7.48088,83326
7.48902,74194
7.49713,77416
7.50527,81502
7.51338,89564
7.52150,107841
7.52963,139967
7.53775,187883
7.54588,239076
7.55400,264797
7.56212,258242
7.57025,237534
7.57837,182100
7.58650,148320
7.59462,119757
7.60273,104119
7.61087,91188
7.61898,90906
7.62710,90130
7.63523,79569
7.64335,80515
7.65148,73314
7.65960,77880
7.66772,74237
7.67585,71813
7.68397,75374
7.69210,68223
7.70022,72468
7.70833,71727
7.71647,72084
7.72458,71983
7.73270,76803
7.74083,69963
7.74895,73641
7.75708,69882
7.76520,72052
7.77332,71267
7.78145,73354
7.78957,74517
7.79770,75999
7.80582,82684
7.81393,87088
7.82207,83250
7.83018,83654
7.83832,72387
7.84643,71258
7.85455,73745
7.86268,75164
7.87080,75919
7.87892,84716
7.88705,80900
7.89517,79788
7.90330,73744
7.91142,71889
7.91953,69887
7.92767,71329
7.93578,89624
7.94392,113151
7.95203,129017
7.96015,138581
7.96828,117329
7.97640,109363
7.98452,89919
7.99265,79463
8.00077,71840
8.00890,74252
8.01702,68108
8.02513,68735
8.03327,69447
8.04138,65879
8.04952,68564
8.05763,64515
8.06575,61674
8.07388,63123
8.08200,64601
8.09013,59082
8.09825,64639
8.10637,59699
8.11450,60580
8.12262,60150
8.13073,65202
8.13887,69528
8.14698,83684
8.15512,96330
8.16323,95842
8.17135,89647
8.17948,83626
8.18760,76844
8.19573,66353
8.20385,65593
8.21197,57874
8.22010,59343
8.22822,60034
8.23635,61020
8.24447,58637
8.25258,55257
8.26072,58607
8.26883,55380
8.27695,54841
8.28508,58663
8.29320,58695
8.30133,59123
8.30945,67688
8.31757,66869
8.32570,69016
8.33382,63985
8.34195,58546
8.35007,60724
8.35818,57035
8.36632,57240
8.37443,55989
8.38255,61236
8.39068,59555
8.39880,60223
8.40693,56616
8.41505,51508
8.42317,53707
8.43130,50965
8.43942,55860
8.44755,51644
8.45567,52421
8.46378,51703
8.47192,49025
8.48003,52064
8.48817,57994
8.49628,51911
8.50440,48532
8.51253,49466
8.52065,52791
8.52877,56986
8.53690,74330
8.54502,123127
8.55315,199399
8.56127,302875
8.56938,334762
8.57752,294413
8.58563,213588
8.59377,149426
8.60188,110810
8.61000,88243
8.61813,74623
8.62625,70465
8.63438,67925
8.64250,66466
8.65062,62493
8.65875,63181
8.66687,60489
8.67498,61650
8.68312,64009
8.69123,60554
8.69937,68464
8.70748,63336
8.71560,60459
8.72373,58112
8.73185,57760
8.73998,69188
8.74810,123940
8.75622,298775
8.76435,673729
8.77247,1286892
8.78058,1945411
8.78872,2189911
8.79683,1932111
8.80497,1369211
8.81308,852346
8.82120,527823
8.82933,344702
8.83745,259100
8.84558,240813
8.85370,229956
8.86182,245905
8.86995,243272
8.87807,223497
8.88620,207087
8.89432,196258
8.90243,182287
8.91057,178143
8.91868,163645
8.92680,163550
8.93493,156367
8.94305,167794
8.95118,163792
8.95930,182938
8.96742,176493
8.97555,166864
8.98367,157294
8.99180,144649
8.99992,142389
9.00803,133831
9.01617,128479
9.02428,120600
9.03240,122517
9.04053,118626
9.04865,118938
9.05678,111055
9.06490,110068
9.07302,114288
9.08115,110525
9.08927,106432
9.09740,110220
9.10552,121218
9.11363,128450
9.12177,133791
9.12988,123632
9.13802,124834
9.14613,115994
9.15425,109422
9.16238,108483
9.17050,107827
9.17862,97199
9.18675,98356
9.19487,94756
9.20300,92105
9.21112,97737
9.21923,97715
9.22737,92359
9.23548,93153
9.24362,93273
9.25173,90053
9.25985,83975
9.26798,93175
9.27610,86553
9.28423,85840
9.29235,85619
9.30047,83247
9.30860,82420
9.31672,82356
9.32483,80193
9.33297,79688
9.34108,81054
9.34922,79639
9.35733,82065
9.36545,79440
9.37358,79399
9.38170,81968
9.38983,83195
9.39795,77253
9.40607,85756
9.41420,92497
9.42232,99391
9.43043,109958
9.43857,113438
9.44668,113701
9.45482,105893
9.46293,98661
9.47105,88332
9.47918,82981
9.48730,81310
9.49543,79884
9.50355,77563
9.51167,83929
9.51980,90933
9.52792,90271
9.53605,90422
9.54417,85115
9.55228,77297
9.56042,78440
9.56853,66926
9.57665,65506
9.58478,77000
9.59290,81831
9.60103,82427
9.60915,74338
9.61727,59935
9.62540,54612
9.63352,48251
9.64165,49401
9.64977,50984
9.65788,45384
9.66602,46574
9.67413,43028
9.68227,45608
9.69038,47052
9.69850,42068
9.70663,43888
9.71475,41695
9.72287,47805
9.73100,40992
9.73912,42987
9.74725,41877
9.75537,42701
9.76348,41352
9.77162,47824
9.77973,37367
9.78787,42298
9.79598,42209
9.80410,40370
9.81223,43002
9.82035,41504
9.82847,40547
9.83660,41883
9.84472,36264
9.85285,40280
9.86097,43900
9.86908,44011
9.87722,46294
9.88533,48758
9.89347,47615
9.90158,50592
9.90970,47544
9.91783,48003
9.92595,53256
9.93408,62617
9.94220,91375
9.95032,136331
9.95845,166782
9.96657,192515
9.97468,184305
9.98282,156498
9.99093,115914
9.99907,98572
10.00718,80160
10.01530,74945
10.02343,72320
10.03155,66283
10.03968,61331
10.04780,55089
10.05592,54090
10.06405,54433
10.07217,52440
10.08028,49646
10.08842,54422
10.09653,54727
10.10467,57371
10.11278,53958
10.12090,50567
10.12903,54642
10.13715,47853
10.14528,52613
10.15340,50312
10.16152,49239
10.16965,47824
10.17777,49798
10.18590,45957
10.19402,43764
10.20213,48235
10.21027,47739
10.21838,47261
10.22650,46809
10.23463,52774
10.24275,52166
10.25088,55114
10.25900,60193
10.26712,85906
10.27525,171949
10.28337,405496
10.29150,831316
10.29962,1430748
10.30773,2078999
10.31587,2859744
10.32398,4157741
10.33212,5981790
10.34023,7738387
10.34835,8323142
10.35648,7032558
10.36460,4757359
10.37272,2673449
10.38085,1429641
10.38897,837281
10.39710,568355
10.40522,424603
10.41333,329733
10.42147,285529
10.42958,250872
10.43772,221762
10.44583,197982
10.45395,197078
10.46208,176496
10.47020,175343
10.47832,162018
10.48645,157393
10.49457,151308
10.50270,138708
10.51082,127588
10.51893,125255
10.52707,124057
10.53518,123597
10.54332,113348
10.55143,117820
10.55955,113306
10.56768,114957
10.57580,109773
10.58393,107909
10.59205,106079
10.60017,100405
10.60830,99965
10.61642,88086
10.62453,87595
10.63267,85337
10.64078,85497
10.64892,78522
10.65703,80846
10.66515,79299
10.67328,78045
10.68140,75513
10.68953,80287
10.69765,82966
10.70577,76394
10.71390,76184
10.72202,70543
10.73015,77080
10.73827,75758
10.74638,75801
10.75452,73441
10.76263,77136
10.77075,70788
10.77888,68330
10.78700,69364
10.79513,61922
10.80325,70856
10.81137,62497
10.81950,63131
10.82762,63373
10.83575,60567
10.84387,57669
10.85198,56575
10.86012,60730
10.86823,58671
10.87635,62519
10.88448,54761
10.89260,59883
10.90073,53924
10.90885,54407
10.91697,55978
10.92510,52633
10.93322,51433
10.94135,53809
10.94947,49460
10.95758,49831
10.96572,52169
10.97383,51901
10.98197,49158
10.99008,51178
10.99820,54334
11.00633,51078
11.01445,53061
11.02257,49025
11.03070,46328
11.03882,54481
11.04695,45677
11.05507,45618
11.06318,47893
11.07132,48770
11.07943,48303
11.08757,52857
11.09568,53079
11.10380,46914
11.11193,48733
11.12005,46522
11.12817,42057
11.13630,41796
11.14442,41865
11.15255,40800
11.16067,41558
11.16878,40922
11.17692,42933
11.18503,49661
11.19317,50531
11.20128,49080
11.20940,49002
11.21753,53809
11.22565,46574
11.23378,45793
11.24190,39739
11.25002,46021
11.25815,44661
11.26627,37563
11.27438,41420
11.28252,42045
11.29063,45301
11.29877,49625
11.30688,67041
11.31500,90533
11.32313,139150
11.33125,197087
11.33938,259931
11.34750,283760
11.35562,268316
11.36375,219076
11.37187,163455
11.38000,120748
11.38812,87329
11.39623,71772
11.40437,65952
11.41248,65293
11.42060,66611
11.42873,64754
11.43685,67272
11.44498,61152
11.45310,60943
11.46122,60324
11.46935,66910
11.47747,77470
11.48560,105246
11.49372,149214
11.50183,189068
11.50997,202180
11.51808,185787
11.52622,151632
11.53433,114751
11.54245,94940
11.55058,90349
11.55870,82400
11.56682,73338
11.57495,74931
11.58307,69982
11.59120,67200
11.59932,75083
11.60743,83308
11.61557,109371
11.62368,117069
11.63182,126543
11.63993,118363
11.64805,94283
11.65618,81757
11.66430,69472
11.67242,63100
11.68055,55336
11.68867,59638
11.69680,56321
11.70492,55338
11.71303,54875
11.72117,50234
11.72928,48581
11.73742,51950
11.74553,50396
11.75365,52102
11.76178,49999
11.76990,48063
11.77803,50644
11.78615,44907
11.79427,46260
11.80240,44674
11.81052,46216
11.81863,45320
11.82677,50030
11.83488,46656
11.84302,48307
11.85113,51301
11.85925,51789
11.86738,56109
11.87550,50742
11.88363,53915
11.89175,48922
11.89987,44726
11.90800,44660
11.91612,45660
11.92423,45957
11.93237,53258
11.94048,50629
11.94862,51085
11.95673,46606
11.96485,49145
11.97298,40835
11.98110,46020
11.98923,56398
11.99735,83599
12.00547,123563
12.01360,158994
12.02172,169794
12.02985,162412
12.03797,136440
12.04608,105558
12.05422,82387
12.06233,66301
12.07045,59138
12.07858,54768
12.08670,56415
12.09483,52366
12.10295,57252
12.11107,49835
12.11920,52528
12.12732,53436
12.13545,51343
12.14357,53479
12.15168,52909
12.15982,48569
12.16793,45736
12.17607,47553
12.18418,42306
12.19230,43860
12.20043,44275
12.20855,45303
12.21667,42874
12.22480,44169
12.23292,39131
12.24105,45528
12.24917,46089
12.25728,43205
12.26542,43203
12.27353,40557
12.28167,43788
12.28978,40587
12.29790,42650
12.30603,37460
12.31415,39319
12.32227,41839
12.33040,40540
12.33852,40247
12.34665,40016
12.35477,39721
12.36288,36675
12.37102,39761
12.37913,37452
12.38727,42582
12.39538,43083
12.40350,44317
12.41163,51599
12.41975,63133
12.42788,72791
12.43600,80330
12.44412,82063
12.45225,75130
12.46037,64004
12.46848,58533
12.47662,52321
12.48473,51858
12.49287,48393
12.50098,50054
12.50910,48090
12.51723,44544
12.52535,43319
12.53348,51181
12.54160,58454
12.54972,66714
12.55785,82318
12.56597,103710
12.57410,121731
12.58222,130267
12.59033,113756
12.59847,92263
12.60658,72976
12.61470,60890
12.62283,52300
12.63095,49480
12.63908,45108
12.64720,44180
12.65532,44708
12.66345,42067
12.67157,43184
12.67970,42252
12.68782,39782
12.69593,46708
12.70407,42501
12.71218,46574
12.72030,40873
12.72843,49108
12.73655,50856
12.74468,48541
12.75280,53049
12.76092,51476
12.76905,41922
12.77717,40658
12.78530,42973
12.79342,36877
12.80153,37084
12.80967,36680
12.81778,37450
12.82592,35176
12.83403,35697
12.84215,35171
12.85028,35184
12.85840,37977
12.86652,34253
12.87465,31346
12.88277,31830
12.89090,35652
12.89902,33222
12.90713,31954
12.91527,29587
12.92338,29626
12.93152,31093
12.93963,28525
12.94775,29178
12.95588,39369
12.96400,39148
12.97212,51129
12.98025,69542
12.98837,87670
12.99650,93873
13.00462,87470
13.01273,74994
13.02087,61188
13.02898,49508
13.03712,50842
13.04523,40303
13.05335,38769
13.06148,45002
13.06960,41165
13.07773,39061
13.08585,35936
13.09397,39921
13.10210,41630
13.11022,38943
13.11833,37068
13.12647,32137
13.13458,36738
13.14272,34995
13.15083,33684
13.15895,36892
13.16708,34040
13.17520,36501
13.18333,34998
13.19145,40144
13.19957,40056
13.20770,41327
13.21582,39488
13.22395,40946
13.23207,36544
13.24018,37784
13.24832,39182
13.25643,37840
13.26455,38061
13.27268,33578
13.28080,36184
13.28893,35897
13.29705,35264
13.30517,35909
13.31330,33172
13.32142,35300
13.32955,37573
13.33767,33677
13.34578,33566
13.35392,33445
13.36203,37568
13.37015,36527
13.37828,35036
13.38640,32786
13.39453,31197
13.40265,30626
13.41077,31116
13.41890,31436
13.42702,29772
13.43515,33497
13.44327,33163
13.45138,31462
13.45952,30417
13.46763,35665
13.47577,29034
13.48388,35776
13.49200,33490
13.50013,34108
13.50825,30173
13.51637,32313
13.52450,33499
13.53262,28959
13.54075,32165
13.54887,31781
13.55698,32165
13.56512,30228
13.57323,35430
13.58137,32274
13.58948,36580
13.59760,44149
13.60573,57525
13.61385,80564
13.62198,109782
13.63010,129057
13.63822,132793
13.64635,112090
13.65447,92247
13.66258,69753
13.67072,55173
13.67883,45014
13.68697,44413
13.69508,38443
13.70320,36990
13.71133,36921
13.71945,35298
13.72758,37380
13.73570,46162
13.74382,84917
13.75195,173127
13.76007,391190
13.76818,743795
13.77632,1106010
13.78443,1372861
13.79257,1402281
13.80068,1214313
13.80880,878602
13.81693,645707
13.82505,480254
13.83318,405041
13.84130,369155
13.84942,327941
13.85755,284834
13.86567,242975
13.87380,199709
13.88192,176662
13.89003,151625
13.89817,136460
13.90628,129050
13.91440,122716
13.92253,118320
13.93065,115364
13.93878,106630
13.94690,96203
13.95502,97471
13.96315,96433
13.97127,98326
13.97940,105769
13.98752,107419
13.99563,109303
14.00377,106733
14.01188,96771
14.02002,93218
14.02813,88461
14.03625,81061
14.04438,86573
14.05250,79598
14.06062,79522
14.06875,77374
14.07687,74824
14.08500,74135
14.09312,77120
14.10123,74178
14.10937,70353
14.11748,68037
14.12562,68192
14.13373,70544
14.14185,67494
14.14998,71254
14.15810,74730
14.16622,81001
14.17435,86979
14.18247,105498
14.19060,138487
14.19872,179119
14.20683,214931
14.21497,230652
14.22308,222514
14.23122,210963
14.23933,197167
14.24745,176429
14.25558,166628
14.26370,151039
14.27183,141221
14.27995,124233
14.28807,115563
14.29620,103146
14.30432,100324
14.31243,94629
14.32057,88642
14.32868,87214
14.33682,82500
14.34493,80424
14.35305,70422
14.36118,66961
14.36930,62169
14.37743,57033
14.38555,54654
14.39367,66494
14.40180,93982
14.40992,156896
14.41803,243153
14.42617,343947
14.43428,380644
14.44242,330540
14.45053,249620
14.45865,178899
14.46678,123729
14.47490,101645
14.48303,79007
14.49115,77000
14.49927,74840
14.50740,76187
14.51552,67730
14.52365,66657
14.53177,67403
14.53988,62872
14.54802,62324
14.55613,59430
14.56425,56075
14.57238,50443
14.58050,54491
14.58863,51113
14.59675,46115
14.60487,46651
14.61300,50814
14.62112,45302
14.62925,47197
14.63737,45011
14.64548,42660
14.65362,46348
14.66173,45271
14.66987,42583
14.67798,41842
14.68610,41983
14.69423,39613
14.70235,42845
14.71047,41952
14.71860,42693
14.72672,46630
14.73485,43333
14.74297,45898
14.75108,45979
14.75922,47337
14.76733,45312
14.77547,45229
14.78358,49145
14.79170,70790
14.79983,131755
14.80795,301770
14.81607,683929
14.82420,1271265
14.83232,1833336
14.84045,2135401
14.84857,2030747
14.85668,1552299
14.86482,1062596
14.87293,667982
14.88107,419206
14.88918,291562
14.89730,230165
14.90543,180408
14.91355,165783
14.92168,147494
14.92980,139646
14.93792,128242
14.94605,118350
14.95417,109685
14.96228,103440
14.97042,99004
14.97853,97195
14.98667,90147
14.99478,94931
15.00290,88719
15.01103,92679
15.01915,82058
15.02728,75330
15.03540,77688
15.04352,73364
15.05165,69318
15.05977,69012
15.06790,69376
15.07602,69353
15.08413,64948
15.09227,61995
15.10038,60079
15.10850,63997
15.11663,62487
15.12475,64987
15.13288,63192
15.14100,71126
15.14912,71290
15.15725,74518
15.16537,67737
15.17350,64874
15.18162,61040
15.18973,55548
15.19787,47825
15.20598,45786
15.21410,45488
15.22223,43827
15.23035,42580
15.23848,43460
15.24660,39154
15.25472,40145
15.26285,41977
15.27097,37934
15.27910,37525
15.28722,38730
15.29533,38874
15.30347,38971
15.31158,38730
15.31972,37792
15.32783,39898
15.33595,33660
15.34408,34034
15.35220,37508
15.36032,39328
15.36845,39641
15.37657,39247
15.38470,39985
15.39282,39291
15.40093,36680
15.40907,36995
15.41718,36038
15.42532,36821
15.43343,37104
15.44155,36503
15.44968,36845
15.45780,40898
15.46592,41870
15.47405,45429
15.48217,54998
15.49030,65515
15.49842,79572
15.50653,81934
15.51467,81277
15.52278,74142
15.53092,70569
15.53903,67414
15.54715,68444
15.55528,64752
15.56340,62440
15.57153,50714
15.57965,49276
15.58777,46687
15.59590,43032
15.60402,39347
15.61213,40657
15.62027,37087
15.62838,39501
15.63652,41163
15.64463,37143
15.65275,38833
15.66088,35912
15.66900,36418
15.67713,37695
15.68525,38246
15.69337,33580
15.70150,33740
15.70962,36341
15.71775,36257
15.72587,37954
15.73398,42548
15.74212,41977
15.75023,40492
15.75835,49465
15.76648,72256
15.77460,116965
15.78273,170940
15.79085,222986
15.79897,236247
15.80710,216542
15.81522,180380
15.82335,127142
15.83147,96652
15.83958,75273
15.84772,65320
15.85583,61277
15.86395,57509
15.87208,50666
15.88020,49216
15.88833,51977
15.89645,49294
15.90457,48638
15.91270,46480
15.92082,46249
15.92895,45418
15.93707,45729
15.94518,46318
15.95332,48895
15.96143,54950
15.96957,69758
15.97768,77236
15.98580,84369
15.99393,86945
16.00205,77120
16.01017,78392
16.01830,69682
16.02642,74019
16.03455,70541
16.04267,66257
16.05078,63690
16.05892,57119
16.06703,49137
16.07517,48295
16.08328,48019
16.09140,46080
16.09953,44042
16.10765,41540
16.11578,40545
16.12390,44200
16.13202,44988
16.14015,52151
16.14827,45833
16.15638,49538
16.16452,49758
16.17263,46601
16.18077,43335
16.18888,41711
16.19700,43265
16.20513,39172
16.21325,43512
16.22138,41834
16.22950,43684
16.23762,38710
16.24575,41668
16.25387,39542
16.26198,39997
16.27012,37064
16.27823,38057
16.28637,43703
16.29448,44927
16.30260,41941
16.31073,42467
16.31885,47944
16.32698,39805
16.33510,44395
16.34322,41965
16.35135,48683
16.35947,57694
16.36760,69378
16.37572,85208
16.38383,89782
16.39197,91000
16.40008,80637
16.40820,68042
16.41633,56115
16.42445,55130
16.43258,50027
16.44070,49844
16.44882,59222
16.45695,88131
16.46507,129859
16.47320,207603
16.48132,275007
16.48943,330777
16.49757,313355
16.50568,262584
16.51380,192285
16.52193,132891
16.53005,95630
16.53818,73796
16.54630,68857
16.55442,61400
16.56255,58535
16.57067,56760
16.57880,58813
16.58692,64730
16.59503,60834
16.60317,67138
16.61128,73308
16.61942,76870
16.62753,77380
16.63565,74091
16.64378,69509
16.65190,59164
16.66002,53548
16.66815,50067
16.67627,52180
16.68440,51482
16.69252,52719
16.70063,46019
16.70877,42400
16.71688,46294
16.72502,44414
16.73313,42701
16.74125,41964
16.74938,42357
16.75750,46164
16.76563,46608
16.77375,46669
16.78187,44029
16.79000,46347
16.79812,39735
16.80623,38482
16.81437,37315
16.82248,38400
16.83062,37166
16.83873,38333
16.84685,38344
16.85498,35406
16.86310,36098
16.87123,34944
16.87935,35592
16.88747,35956
16.89560,38312
16.90372,36302
16.91185,35017
16.91997,35242
16.92808,33384
16.93622,37858
16.94433,37175
16.95245,36314
16.96058,34177
16.96870,32446
16.97683,33695
16.98495,35440
16.99307,37440
17.00120,37340
17.00932,35054
17.01745,35553
17.02557,37672
17.03368,41171
17.04182,42176
17.04993,50329
17.05805,47019
17.06618,45284
17.07430,46223
17.08243,39007
17.09055,43645
17.09867,39729
17.10680,39925
17.11492,41208
17.12305,36761
17.13117,41714
17.13928,41121
17.14742,40138
17.15553,43485
17.16367,41387
17.17178,42661
17.17990,38582
17.18803,38067
17.19615,39009
17.20427,36629
17.21240,36074
17.22052,35025
17.22865,33782
17.23677,38206
17.24488,36882
17.25302,35667
17.26113,37268
17.26927,34964
17.27738,37119
17.28550,35476
17.29363,33783
17.30175,37748
17.30987,34478
17.31800,38006
17.32612,42300
17.33425,46732
17.34237,49587
17.35048,51706
17.35862,54679
17.36673,53396
17.37487,48617
17.38298,48205
17.39110,49829
17.39923,45190
17.40735,47106
17.41548,43553
17.42360,47918
17.43172,47156
17.43985,45655
17.44797,45416
17.45608,44061
17.46422,42370
17.47233,41368
17.48047,42976
17.48858,40334
17.49670,39406
17.50483,37940
17.51295,39011
17.52108,40153
17.52920,38082
17.53732,35552
17.54545,38342
17.55357,42879
17.56170,55396
17.56982,81642
17.57793,139369
17.58607,221637
17.59418,366440
17.60230,538053
17.61043,699258
17.61855,759921
17.62668,671203
17.63480,539389
17.64292,386769
17.65105,277598
17.65917,212572
17.66730,167669
17.67542,150827
17.68353,137612
17.69167,118271
17.69978,102435
17.70790,92185
17.71603,90495
17.72415,80897
17.73228,78570
17.74040,68994
17.74852,70002
17.75665,72111
17.76477,64894
17.77290,64539
17.78102,60950
17.78913,65727
17.79727,82501
17.80538,118248
17.81352,178365
17.82163,254261
17.82975,318521
17.83788,353412
17.84600,316475
17.85412,266049
17.86225,200540
17.87037,153986
17.87850,124555
17.88662,105622
17.89473,87929
17.90287,79917
17.91098,75317
17.91912,71872
17.92723,70119
17.93535,64161
17.94348,62421
17.95160,58971
17.95973,52565
17.96785,53778
17.97597,55177
17.98410,58751
17.99222,51452
18.00033,50513
18.00847,50852
18.01658,58787
18.02472,67419
18.03283,67213
18.04095,76951
18.04908,99215
18.05720,150106
18.06533,299250
18.07345,638994
18.08157,1184503
18.08970,1788733
18.09782,2249908
18.10593,2292649
18.11407,1976976
18.12218,1493917
18.13032,1051954
18.13843,739346
18.14655,565130
18.15468,450357
18.16280,391887
18.17093,333602
18.17905,303526
18.18717,273930
18.19530,253711
18.20342,228211
18.21155,205644
18.21967,200041
18.22778,181568
18.23592,172735
18.24403,165298
18.25215,154935
18.26028,143746
18.26840,128929
18.27653,117192
18.28465,100173
18.29277,90831
18.30090,72931
18.30902,68495
18.31715,61958
18.32527,58847
18.33338,53050
18.34152,51913
18.34963,51504
18.35775,49615
18.36588,52113
18.37400,54110
18.38213,51245
18.39025,46620
18.39837,50144
18.40650,50809
18.41462,49160
18.42275,53326
18.43087,56219
18.43898,60198
18.44712,68320
18.45523,86638
18.46337,120048
18.47148,155054
18.47960,202359
18.48773,221437
18.49585,216827
18.50397,201476
18.51210,170455
18.52022,128420
18.52835,104388
18.53647,86184
18.54458,83247
18.55272,91854
18.56083,118939
18.56897,148041
18.57708,169836
18.58520,175306
18.59333,191081
18.60145,203268
18.60958,208230
18.61770,214760
18.62582,219888
18.63395,209676
18.64207,219292
18.65018,212514
18.65832,218725
18.66643,210200
18.67457,210286
18.68268,205961
18.69080,201798
18.69893,202875
18.70705,196985
18.71518,197597
18.72330,200205
18.73142,197662
18.73955,197620
18.74767,188199
18.75578,204673
18.76392,189786
18.77203,198628
18.78017,183191
18.78828,189515
18.79640,187084
18.80453,183281
18.81265,176057
18.82078,182565
18.82890,180736
18.83702,188135
18.84515,178272
18.85327,174135
18.86140,169699
18.86952,176856
18.87763,171449
18.88577,168870
18.89388,165531
18.90200,170031
18.91013,162245
18.91825,164188
18.92638,159419
18.93450,167156
18.94262,172381
18.95075,156720
18.95887,164589
18.96700,164997
18.97512,156974
18.98323,164325
18.99137,155654
18.99948,160490
19.00762,150197
19.01573,149072
19.02385,147668
19.03198,143987
19.04010,141662
19.04822,142414
19.05635,146479
19.06447,157981
19.07260,195387
19.08072,265113
19.08883,373578
19.09697,522471
19.10508,635643
19.11322,694833
19.12133,659959
19.12945,554593
19.13758,426302
19.14570,330064
19.15382,261028
19.16195,223069
19.17007,194103
19.17820,171768
19.18632,171761
19.19443,159271
19.20257,151764
19.21068,148648
19.21882,148278
19.22693,145779
19.23505,136487
19.24318,135041
19.25130,131697
19.25943,127307
19.26755,129332
19.27567,131835
19.28380,138347
19.29192,137607
19.30003,140950
19.30817,138653
19.31628,137179
19.32442,135866
19.33253,130875
19.34065,128408
19.34878,130387
19.35690,144293
19.36503,171426
19.37315,180258
19.38127,185701
19.38940,188873
19.39752,169889
19.40565,159242
19.41377,136447
19.42188,128505
19.43002,124987
19.43813,122715
19.44625,115882
19.45438,110679
19.46250,111454
19.47063,116509
19.47875,124029
19.48687,141592
19.49500,172176
19.50312,194693
19.51125,234248
19.51937,235162
19.52748,215785
19.53562,182486
19.54373,149181
19.55185,130213
19.55998,121043
19.56810,112089
19.57623,110409
19.58435,103765
19.59247,97609
19.60060,100778
19.60872,91190
19.61685,98120
19.62497,99463
19.63308,95548
19.64122,114842
19.64933,134263
19.65747,165462
19.66558,214156
19.67370,248886
19.68183,277608
19.68995,279260
19.69807,261780
19.70620,235336
19.71432,221649
19.72245,196398
19.73057,173529
19.73868,152483
19.74682,147796
19.75493,134978
19.76307,119873
19.77118,117302
19.77930,115640
19.78743,116126
19.79555,115395
19.80367,117194
19.81180,117425
19.81992,110281
19.82805,108123
19.83617,106334
19.84428,113704
19.85242,165259
19.86053,339212
19.86867,810718
19.87678,1796884
19.88490,3468178
19.89303,5431890
19.90115,7177222
19.90928,7879521
19.91740,7250979
19.92552,5643454
19.93365,3887001
19.94177,2531903
19.94988,1719637
19.95802,1272216
19.96613,1020831
19.97427,887405
19.98238,784165
19.99050,724014
19.99863,678005
20.00675,637416
20.01488,587331
20.02300,546359
20.03112,512784
20.03925,448940
20.04737,410560
20.05550,350121
20.06362,287754
20.07173,233580
20.07987,203488
20.08798,179135
20.09610,171446
20.10423,156997
20.11235,146017
20.12048,142331
20.12860,139336
20.13672,131020
20.14485,131020
20.15297,119738
20.16110,129989
20.16922,127745
20.17733,136296
20.18547,143039
20.19358,146458
20.20170,152243
20.20983,140061
20.21795,137294
20.22608,125860
20.23420,132288
20.24232,132317
20.25045,140321
20.25857,153734
20.26670,186928
20.27482,213886
20.28293,246191
20.29107,259561
20.29918,247223
20.30732,231405
20.31543,198182
20.32355,178815
20.33168,155687
20.33980,131778
20.34792,110266
20.35605,99314
20.36417,94106
20.37230,85107
20.38042,89539
20.38853,81060
20.39667,76036
20.40478,75211
20.41292,76242
20.42103,80647
20.42915,83111
20.43728,89843
20.44540,87381
20.45353,94034
20.46165,93737
20.46977,92588
20.47790,91821
20.48602,89218
20.49413,80413
20.50227,74409
20.51038,79473
20.51852,72563
20.52663,68897
20.53475,67610
20.54288,67248
20.55100,67571
20.55913,68800
20.56725,65286
20.57537,65166
20.58350,68454
20.59162,63495
20.59973,64428
20.60787,64371
20.61598,58803
20.62412,65166
20.63223,67653
20.64035,62845
20.64848,68928
20.65660,62055
20.66473,68510
20.67285,66098
20.68097,68484
20.68910,64641
20.69722,62360
20.70535,61823
20.71347,58818
20.72158,62356
20.72972,60274
20.73783,59578
20.74595,60701
20.75408,62608
20.76220,67438
20.77033,64532
20.77845,67178
20.78657,79327
20.79470,107010
20.80282,139123
20.81095,185476
20.81907,225524
20.82718,237295
20.83532,226094
20.84343,181999
20.85155,139934
20.85968,105156
20.86780,90193
20.87593,79951
20.88405,74278
20.89217,72897
20.90030,68918
20.90842,73293
20.91655,65410
20.92467,65753
20.93278,68853
20.94092,64372
20.94903,70884
20.95717,64436
20.96528,60799
20.97340,59762
20.98153,63394
20.98965,59986
20.99777,60547
21.00590,56003
21.01402,56393
21.02215,55978
21.03027,57858
21.03838,59755
21.04652,58193
21.05463,59508
21.06277,61773
21.07088,60979
21.07900,58662
21.08713,58361
21.09525,60091
21.10338,54462
21.11150,55163
21.11962,57480
21.12775,58460
21.13587,61739
21.14398,64062
21.15212,72562
21.16023,78414
21.16837,76705
21.17648,79713
21.18460,77965
21.19273,69215
21.20085,64129
21.20898,60025
21.21710,57722
21.22522,58578
21.23335,54712
21.24147,56698
21.24960,57568
21.25772,55122
21.26583,56698
21.27397,54925
21.28208,59653
21.29020,52830
21.29833,49292
21.30645,54773
21.31458,53312
21.32270,48801
21.33082,48724
21.33895,44643
21.34707,46444
21.35520,47551
21.36332,47803
21.37143,50225
21.37957,51342
21.38768,59652
21.39580,71068
21.40393,78642
21.41205,82040
21.42018,88636
21.42830,86206
21.43642,74489
21.44455,64468
21.45267,59181
21.46080,58734
21.46892,52206
21.47703,49261
21.48517,51050
21.49328,52344
21.50142,51330
21.50953,48984
21.51765,46991
21.52578,48225
21.53390,47252
21.54202,43859
21.55015,45538
21.55827,45536
21.56640,48116
21.57452,51024
21.58263,53197
21.59077,58558
21.59888,62603
21.60702,66255
21.61513,67112
21.62325,69143
21.63138,69445
21.63950,78235
21.64762,81788
21.65575,80196
21.66387,78242
21.67200,76750
21.68012,80373
21.68823,80077
21.69637,75251
21.70448,71644
21.71262,61778
21.72073,63918
21.72885,59871
21.73698,55195
21.74510,56595
21.75323,53919
21.76135,52344
21.76947,51590
21.77760,51397
21.78572,49466
21.79383,55809
21.80197,52137
21.81008,56645
21.81822,60530
21.82633,62922
21.83445,68024
21.84258,71897
21.85070,78517
21.85883,70179
21.86695,65620
21.87507,65295
21.88320,57194
21.89132,53565
21.89945,53766
21.90757,52958
21.91568,51374
21.92382,48726
21.93193,49852
21.94005,45060
21.94818,44819
21.95630,44494
21.96443,44049
21.97255,44459
21.98067,38568
21.98880,41400
21.99692,40831
22.00505,44406
22.01317,41297
22.02128,43810
22.02942,44439
22.03753,50022
22.04565,50045
22.05378,55165
22.06190,60211
22.07003,70120
22.07815,70399
22.08627,69917
22.09440,68319
22.10252,70641
22.11065,72991
22.11877,71462
22.12688,76900
22.13502,80551
22.14313,80941
22.15127,76627
22.15938,77899
22.16750,78943
22.17563,80715
22.18375,78583
22.19187,78258
22.20000,75202
22.20812,79849
22.21625,79194
22.22437,79266
22.23248,82715
22.24062,75990
22.24873,77416
22.25687,75386
22.26498,74849
22.27310,67948
22.28123,71148
22.28935,63063
22.29748,65551
22.30560,65120
22.31372,62693
22.32185,64788
22.32997,65843
22.33808,61637
22.34622,60960
22.35433,58754
22.36247,58107
22.37058,53168
22.37870,56707
22.38683,54012
22.39495,65813
22.40308,72185
22.41120,86908
22.41932,98004
22.42745,108361
22.43557,101225
22.44368,100105
22.45182,84416
22.45993,76755
22.46807,70138
22.47618,67700
22.48430,72169
22.49243,87297
22.50055,88080
22.50868,87811
22.51680,87728
22.52492,75808
22.53305,73793
22.54117,68104
22.54930,63214
22.55742,64727
22.56553,61465
22.57367,63039
22.58178,71027
22.58990,84494
22.59803,93880
22.60615,105449
22.61428,106028
22.62240,113368
22.63052,114165
22.63865,119252
22.64677,122740
22.65490,119582
22.66302,128180
22.67113,128188
22.67927,128957
22.68738,131103
22.69550,136846
22.70363,141436
22.71175,148328
22.71988,150165
22.72800,151763
22.73612,148333
22.74425,144735
22.75237,142841
22.76050,138864
22.76862,139334
22.77673,141873
22.78487,151061
22.79298,156870
22.80112,166949
22.80923,182809
22.81735,185554
22.82548,177090
22.83360,171967
22.84172,161991
22.84985,143707
22.85797,142755
22.86610,138699
22.87422,136559
22.88233,141954
22.89047,140951
22.89858,160095
22.90672,175345
22.91483,201357
22.92295,223581
22.93108,246842
22.93920,245774
22.94733,225685
22.95545,202870
22.96357,178231
22.97170,156933
22.97982,146896
22.98793,138012
22.99607,128581
23.00418,120904
23.01232,120303
23.02043,119477
23.02855,112530
23.03668,110263
23.04480,110981
23.05293,105486
23.06105,98068
23.06917,100428
23.07730,102999
23.08542,103441
23.09353,100116
23.10167,93587
23.10978,101560
23.11792,91363
23.12603,88459
23.13415,94371
23.14228,89237
23.15040,90926
23.15853,87674
23.16665,85986
23.17477,87876
23.18290,89525
23.19102,90667
23.19915,84370
23.20727,85790
23.21538,80819
23.22352,82651
23.23163,83489
23.23975,82580
23.24788,78111
23.25600,90275
23.26413,89895
23.27225,94850
23.28037,93616
23.28850,94326
23.29662,86128
23.30475,82521
23.31287,80286
23.32098,78501
23.32912,87328
23.33723,89035
23.34537,115201
23.35348,151590
23.36160,214776
23.36973,289104
23.37785,392734
23.38597,519264
23.39410,635673
23.40222,748907
23.41035,810419
23.41847,838375
23.42658,855283
23.43472,834465
23.44283,815421
23.45097,774380
23.45908,725101
23.46720,679420
23.47533,633328
23.48345,569709
23.49157,535170
23.49970,496410
23.50782,453082
23.51595,421672
23.52407,385513
23.53218,365109
23.54032,329979
23.54843,303648
23.55657,295641
23.56468,293837
23.57280,291625
23.58093,291957
23.58905,320541
23.59718,359409
23.60530,371999
23.61342,363289
23.62155,341782
23.62967,298596
23.63778,271277
23.64592,247542
23.65403,244563
23.66217,254474
23.67028,238290
23.67840,231344
23.68653,211339
23.69465,191935
23.70278,174708
23.71090,156931
23.71902,144835
23.72715,136747
23.73527,132749
23.74338,147462
23.75152,206471
23.75963,342287
23.76777,640063
23.77588,1212848
23.78400,1971254
23.79213,2583132
23.80025,2867293
23.80838,2807108
23.81650,2416454
23.82462,1920897
23.83275,1513591
23.84087,1148293
23.84900,884496
23.85712,712032
23.86523,581766
23.87337,493116
23.88148,439821
23.88960,385805
23.89773,356822
23.90585,335916
23.91398,318823
23.92210,295050
23.93022,267684
23.93835,255247
23.94647,235776
23.95460,224621
23.96272,212896
23.97083,202198
23.97897,185744
23.98708,180836
23.99522,172039
24.00333,176846
24.01145,182528
24.01958,188837
24.02770,217124
24.03582,235378
24.04395,236167
24.05207,222449
24.06020,197525
24.06832,164592
24.07643,148541
24.08457,139383
24.09268,129524
24.10082,122592
24.10893,124774
24.11705,121949
24.12518,119172
24.13330,125580
24.14142,121274
24.14955,120555
24.15767,122656
24.16580,123583
24.17392,115225
24.18203,114781
24.19017,111260
24.19828,109562
24.20642,113643
24.21453,108051
24.22265,107819
24.23078,106915
24.23890,102651
24.24703,98573
24.25515,95903
24.26327,94004
24.27140,96262
24.27952,89246
24.28763,87151
24.29577,88188
24.30388,95945
24.31202,123925
24.32013,135982
24.32825,159360
24.33638,167695
24.34450,173152
24.35263,186590
24.36075,188512
24.36887,200120
24.37700,205638
24.38512,230049
24.39325,244946
24.40137,262453
24.40948,257109
24.41762,237135
24.42573,225456
24.43385,217782
24.44198,214329
24.45010,210249
24.45823,216042
24.46635,229969
24.47447,247027
24.48260,261075
24.49072,273460
24.49885,281922
24.50697,283158
24.51508,269733
24.52322,267557
24.53133,263625
24.53945,247755
24.54758,255971
24.55570,256919
24.56383,249945
24.57195,243674
24.58007,225891
24.58820,213111
24.59632,209902
24.60445,203754
24.61257,195876
24.62068,193565
24.62882,191182
24.63693,187645
24.64507,187744
24.65318,190734
24.66130,181625
24.66943,183699
24.67755,177485
24.68567,177020
24.69380,184177
24.70192,173944
24.71005,170600
24.71817,170088
24.72628,172270
24.73442,165921
24.74253,173546
24.75067,175651
24.75878,169831
24.76690,181953
24.77503,181485
24.78315,184054
24.79128,186018
24.79940,186413
24.80752,177227
24.81565,186691
24.82377,181783
24.83188,192516
24.84002,210519
24.84813,236063
24.85627,271493
24.86438,331386
24.87250,407497
24.88063,519234
24.88875,578759
24.89688,632221
24.90500,601775
24.91312,528189
24.92125,434314
24.92937,338993
24.93748,257414
24.94562,214181
24.95373,185841
24.96187,174191
24.96998,166027
24.97810,165165
24.98623,152632
24.99435,151808
25.00248,145519
25.01060,146288
25.01872,141675
25.02685,138807
25.03497,139316
25.04310,136316
25.05122,138103
25.05933,133144
25.06747,129524
25.07558,128414
25.08370,135293
25.09183,138607
25.09995,162846
25.10808,241593
25.11620,395791
25.12432,716684
25.13245,1232754
25.14057,1747022
25.14870,2088969
25.15682,2178441
25.16493,1891928
25.17307,1368416
25.18118,906963
25.18930,554306
25.19743,338349
25.20555,225336
25.21368,169873
25.22180,136269
25.22992,124496
25.23805,129765
25.24617,137590
25.25430,162541
25.26242,193805
25.27053,220687
25.27867,235684
25.28678,228196
25.29492,199259
25.30303,165910
25.31115,132254
25.31928,117932
25.32740,100082
25.33552,92186
25.34365,82690
25.35177,75759
25.35990,75295
25.36802,77551
25.37613,71785
25.38427,70953
25.39238,65830
25.40052,69462
25.40863,66178
25.41675,63937
25.42488,63194
25.43300,61213
25.44113,62889
25.44925,60835
25.45737,62767
25.46550,63669
25.47362,65839
25.48173,63351
25.48987,65557
25.49798,60835
25.50612,64604
25.51423,71658
25.52235,86130
25.53048,111181
25.53860,134856
25.54673,160649
25.55485,170092
25.56297,183051
25.57110,192371
25.57922,201692
25.58733,201776
25.59547,209435
25.60358,211239
25.61172,215796
25.61983,211418
25.62795,215533
25.63608,208144
25.64420,214384
25.65233,209782
25.66045,216212
25.66857,211953
25.67670,211907
25.68482,204684
25.69295,203181
25.70107,205907
25.70918,206161
25.71732,204944
25.72543,200155
25.73355,194610
25.74168,206087
25.74980,199186
25.75793,197736
25.76605,183389
25.77417,194989
25.78230,198184
25.79042,190629
25.79855,190756
25.80667,197561
25.81478,189636
25.82292,186546
25.83103,195471
25.83917,194368
25.84728,190567
25.85540,189798
25.86353,181395
25.87165,181271
25.87977,172721
25.88790,172763
25.89602,170447
25.90415,173615
25.91227,161733
25.92038,161842
25.92852,159970
25.93663,151046
25.94477,157410
25.95288,154410
25.96100,151925
25.96913,149642
25.97725,143038
25.98537,145617
25.99350,138143
26.00162,138618
26.00975,136955
26.01787,134975
26.02598,138271
26.03412,134055
26.04223,133485
26.05037,137378
26.05848,133562
26.06660,129117
26.07473,123216
26.08285,120026
26.09098,130047
26.09910,129878
26.10722,130431
26.11535,122619
26.12347,124340
26.13158,123033
26.13972,123532
26.14783,129881
26.15597,120302
26.16408,117157
26.17220,118480
26.18033,116222
26.18845,118649
26.19658,115244
26.20470,109928
26.21282,112027
26.22095,107212
26.22907,105955
26.23718,103687
26.24532,101787
26.25343,107216
26.26157,99336
26.26968,98394
26.27780,96264
26.28593,94077
26.29405,94640
26.30218,98572
26.31030,98182
26.31842,89340
26.32655,87416
26.33467,92831
26.34280,88470
26.35092,83244
26.35903,88554
26.36717,88464
26.37528,83789
26.38340,87033
26.39153,87326
26.39965,84745
26.40778,89247
26.41590,85514
26.42402,88528
26.43215,80089
26.44027,81958
26.44840,79976
26.45652,76759
26.46463,81179
26.47277,80638
26.48088,82351
26.48902,79272
26.49713,75495
26.50525,76644
26.51338,75324
26.52150,74721
26.52962,73243
26.53775,76406
26.54587,72304
26.55400,70544
26.56212,73451
26.57023,72572
26.57837,65843
26.58648,68782
26.59462,67690
26.60273,64348
26.61085,67804
26.61898,65345
26.62710,65593
26.63523,67257
26.64335,68103
26.65147,66497
26.65960,71233
26.66772,73774
26.67583,76866
26.68397,72044
26.69208,74055
26.70022,70917
26.70833,67016
26.71645,64909
26.72458,62479
26.73270,64523
26.74083,60430
26.74895,61294
26.75707,62603
26.76520,61923
26.77332,61135
26.78143,66794
26.78957,66517
26.79768,64764
26.80582,67710
26.81393,65630
26.82205,66334
26.83018,66151
26.83830,64967
26.84643,62942
26.85455,63689
26.86267,63706
26.87080,58916
26.87892,55324
26.88705,57927
26.89517,55098
26.90328,53642
26.91142,56169
26.91953,55024
26.92765,52737
26.93578,55890
26.94390,57146
26.95203,58313
26.96015,60461
26.96827,63018
26.97640,78182
26.98452,102865
26.99265,139587
27.00077,200588
27.00888,284499
27.01702,361161
27.02513,433681
27.03325,459697
27.04138,467116
27.04950,427836
27.05763,366641
27.06575,316113
27.07387,260849
27.08200,235472
27.09012,206854
27.09825,179164
27.10637,157026
27.11448,147499
27.12262,138918
27.13073,123660
27.13887,122466
27.14698,116027
27.15510,110103
27.16323,108358
27.17135,104192
27.17947,100446
27.18760,101969
27.19572,103177
27.20385,96324
27.21197,96139
27.22008,89018
27.22822,85469
27.23633,84784
27.24447,84190
27.25258,84043
27.26070,75671
27.26883,72074
27.27695,72989
27.28507,75989
27.29320,67929
27.30132,70975
27.30945,64974
27.31757,63763
27.32568,65956
27.33382,64645
27.34193,66863
27.35007,61305
27.35818,67310
27.36630,67420
27.37443,67138
27.38255,67388
27.39068,64479
27.39880,60500
27.40692,64769
27.41505,58423
27.42317,59990
27.43128,58085
27.43942,56306
27.44753,53095
27.45567,55302
27.46378,52893
27.47190,58258
27.48003,52388
27.48815,52931
27.49628,52777
27.50440,56742
27.51252,54772
27.52065,60592
27.52877,59602
27.53690,59463
27.54502,58399
27.55313,51755
27.56127,58033
27.56938,58198
27.57750,59089
27.58563,68454
27.59375,69910
27.60188,78461
27.61000,75931
27.61812,74441
27.62625,68264
27.63437,58965
27.64250,60883
27.65062,54156
27.65873,48596
27.66687,54203
27.67498,52324
27.68312,53969
27.69123,53607
27.69935,54438
27.70748,54884
27.71560,54426
27.72372,49898
27.73185,52537
27.73997,46591
27.74810,46253
27.75622,46685
27.76433,47327
27.77247,44527
27.78058,47907
27.78872,51066
27.79683,48209
27.80495,52790
27.81308,49911
27.82120,53274
27.82932,49689
27.83745,48147
27.84557,52251
27.85370,48952
27.86182,53290
27.86993,46078
27.87807,47494
27.88618,45640
27.89432,45511
27.90243,46922
27.91055,49341
27.91868,43448
27.92680,45896
27.93493,43917
27.94305,46732
27.95117,42948
27.95930,42245
27.96742,49292
27.97553,43137
27.98367,44517
27.99178,42287
27.99992,46457
28.00803,49574
28.01615,49335
28.02428,47284
28.03240,55581
28.04053,56305
28.04865,61194
28.05677,59398
28.06490,60074
28.07302,58603
28.08113,62984
28.08927,59983
28.09738,54022
28.10552,55325
28.11363,51082
28.12175,51888
28.12988,48225
28.13800,42654
28.14613,43560
28.15425,42296
28.16237,39261
28.17050,44602
28.17862,45825
28.18675,51358
28.19487,57334
28.20298,62533
28.21112,69257
28.21923,69617
28.22735,74465
28.23548,74581
28.24360,69282
28.25173,65070
28.25985,58349
28.26797,49875
28.27610,47358
28.28422,44822
28.29235,50100
28.30047,48212
28.30858,54740
28.31672,63544
28.32483,63230
28.33297,79190
28.34108,84926
28.34920,96994
28.35733,103486
28.36545,113316
28.37357,121690
28.38170,133837
28.38982,143334
28.39795,150592
28.40607,143108
28.41418,140177
28.42232,135292
28.43043,132820
28.43857,124267
28.44668,115284
28.45480,105697
28.46293,101064
28.47105,95219
28.47917,91375
28.48730,82810
28.49542,88797
28.50355,82911
28.51167,78663
28.51978,78311
28.52792,70526
28.53603,67778
28.54417,69190
28.55228,63965
28.56040,63688
28.56853,60541
28.57665,64679
28.58478,64069
28.59290,59546
28.60102,60852
28.60915,61545
28.61727,60106
28.62538,63481
28.63352,64209
28.64163,59800
28.64977,60591
28.65788,61264
28.66600,64922
28.67413,63442
28.68225,64012
28.69038,60868
28.69850,59483
28.70662,56265
28.71475,55293
28.72287,56010
28.73100,55854
28.73912,56276
28.74723,60475
28.75537,65839
28.76348,67447
28.77160,72917
28.77973,76740
28.78785,71683
28.79598,65189
28.80410,59757
28.81222,58032
28.82035,56962
28.82847,57368
28.83660,55326
28.84472,53734
28.85283,52454
28.86097,54141
28.86908,56466
28.87720,62412
28.88533,61708
28.89345,61944
28.90158,64971
28.90970,64772
28.91782,64475
28.92595,57584
28.93407,56814
28.94220,56548
28.95032,55508
28.95843,53221
28.96657,56918
28.97468,55155
28.98282,50698
28.99093,50747
28.99905,51071
29.00718,45036
29.01530,50570
29.02342,46022
29.03155,46388
29.03967,49096
29.04780,45176
29.05592,45594
29.06403,48398
29.07217,47232
29.08028,47518
29.08842,50417
29.09653,48374
29.10465,51610
29.11278,46409
29.12090,51585
29.12902,46755
29.13715,45441
29.14527,45089
29.15340,46620
29.16152,45331
29.16963,48648
29.17777,47933
29.18588,51399
29.19402,60421
29.20213,70428
29.21025,86903
29.21838,88352
29.22650,86761
29.23463,81571
29.24275,77111
29.25087,73522
29.25900,68504
29.26712,66626
29.27523,62374
29.28337,60469
29.29148,57176
29.29962,54301
29.30773,48883
29.31585,47459
29.32398,46655
29.33210,44878
29.34023,40970
29.34835,41431
29.35647,43423
29.36460,42534
29.37272,38368
29.38085,41012
29.38897,40993
29.39708,38680
29.40522,40465
29.41333,40738
29.42145,40947
29.42958,42700
29.43770,44975
29.44583,46459
29.45395,42786
29.46207,41234
29.47020,39863
29.47832,45590
29.48645,45946
29.49457,47085
29.50268,45392
29.51082,47925
29.51893,46745
29.52705,45550
29.53518,42861
29.54330,42550
29.55143,42982
29.55955,41194
29.56767,40807
29.57580,40368
29.58392,38113
29.59205,40852
29.60017,43901
29.60828,39192
29.61642,38525
29.62453,37471
29.63267,46072
29.64078,40191
29.64890,40396
29.65703,41914
29.66515,40704
29.67327,42696
29.68140,44640
29.68952,43400
29.69765,46218
29.70577,46177
29.71388,46679
29.72202,45723
29.73013,43071
29.73827,45519
29.74638,41533
29.75450,41120
29.76263,37859
29.77075,41342
29.77888,35333
29.78700,38281
29.79512,40330
29.80325,40579
29.81137,34316
29.81948,39410
29.82762,39458
29.83573,37855
29.84387,34764
29.85198,37224
29.86010,39805
29.86823,41864
29.87635,51656
29.88448,57335
29.89260,66601
29.90072,69258
29.90885,70515
29.91697,69014
29.92508,61709
29.93322,57213
29.94133,51722
29.94947,48209
29.95758,47031
29.96570,49908
29.97383,54231
29.98195,58043
29.99008,68865
29.99820,76618
30.00632,73916
30.01445,82300
30.02257,79260
30.03070,81007
30.03882,87680
30.04693,83938
30.05507,87955
30.06318,82622
30.07130,87097
30.07943,87477
30.08755,89482
30.09568,82082
30.10380,80865
30.11192,77508
30.12005,77201
30.12817,77276
30.13630,77849
30.14442,69769
30.15253,69250
30.16067,67238
30.16878,64694
30.17692,61603
30.18503,62261
30.19315,61172
30.20128,57525
30.20940,62083
30.21752,54025
30.22565,53722
30.23377,52718
30.24190,52664
30.25002,51106
30.25813,51364
30.26627,49805
30.27438,52049
30.28252,50831
30.29063,47852
30.29875,52672
30.30688,48811
30.31500,45826
30.32312,48747
30.33125,49212
30.33937,47339
30.34750,48622
30.35562,48219
30.36373,45104
30.37187,45462
30.37998,46587
30.38812,42214
30.39623,45980
30.40435,43747
30.41248,46440
30.42060,45405
30.42873,42881
30.43685,42296
30.44497,41636
30.45310,41794
30.46122,43203
30.46933,41819
30.47747,44153
30.48558,41618
30.49372,40994
30.50183,38716
30.50995,38785
30.51808,39998
30.52620,39904
30.53433,39887
30.54245,41890
30.55057,40530
30.55870,42020
30.56682,40827
30.57493,43263
30.58307,42968
30.59118,40786
30.59932,41836
30.60743,44652
30.61555,39212
30.62368,43570
30.63180,40335
30.63993,38255
30.64805,38962
30.65617,36967
30.66430,36158
30.67242,36397
30.68055,38469
30.68867,37200
30.69678,38038
30.70492,38344
30.71303,37345
30.72115,36414
30.72928,38544
30.73740,40625
30.74553,37858
30.75365,37216
30.76177,37490
30.76990,42664
30.77802,45769
30.78615,53670
30.79427,61514
30.80238,81444
30.81052,80810
30.81863,86271
30.82677,82229
30.83488,74436
30.84300,57413
30.85113,53785
30.85925,48837
30.86737,44030
30.87550,42698
30.88362,38598
30.89175,36871
30.89987,43162
30.90798,40480
30.91612,41882
30.92423,40698
30.93237,46988
30.94048,49689
30.94860,49735
30.95673,51406
30.96485,52349
30.97297,53632
30.98110,54229
30.98922,50057
30.99735,52877
31.00547,51450
31.01358,53453
31.02172,52098
31.02983,55047
31.03797,58532
31.04608,55993
31.05420,57828
31.06233,54279
31.07045,58859
31.07858,64490
31.08670,64612
31.09482,67007
31.10295,74831
31.11107,76511
31.11918,77189
31.12732,69416
31.13543,66763
31.14357,65430
31.15168,59911
31.15980,61663
31.16793,63554
31.17605,67359
31.18418,77575
31.19230,90473
31.20042,114271
31.20855,141725
31.21667,174372
31.22480,192872
31.23292,208585
31.24103,194153
31.24917,154716
31.25728,132178
31.26540,99970
31.27353,81374
31.28165,69460
31.28978,64094
31.29790,63845
31.30602,59415
31.31415,54456
31.32227,53288
31.33040,55482
31.33852,56540
31.34663,61098
31.35477,55356
31.36288,57516
31.37100,57001
31.37913,59790
31.38725,59725
31.39538,62368
31.40350,63268
31.41162,58552
31.41975,58295
31.42787,57174
31.43600,52014
31.44412,49396
31.45223,49388
31.46037,49458
31.46848,50479
31.47662,50610
31.48473,49173
31.49285,48733
31.50098,46946
31.50910,46800
31.51722,46200
31.52535,46849
31.53347,47906
31.54160,51085
31.54972,45372
31.55783,47251
31.56597,49391
31.57408,48560
31.58222,46800
31.59033,45621
31.59845,44129
31.60658,48533
31.61470,45200
31.62282,44348
31.63095,46354
31.63907,50208
31.64720,46337
31.65532,44640
31.66343,51586
31.67157,50073
31.67968,45800
31.68782,46296
31.69593,52587
31.70405,47683
31.71218,44542
31.72030,42158
31.72843,42408
31.73655,43000
31.74467,41156
31.75280,42494
31.76092,42997
31.76903,42123
31.77717,44094
31.78528,43122
31.79342,44680
31.80153,45027
31.80965,44655
31.81778,44810
31.82590,45334
31.83403,44772
31.84215,45789
31.85027,50452
31.85840,45311
31.86652,51171
31.87465,54317
31.88277,56466
31.89088,54837
31.89902,54812
31.90713,61398
31.91525,64658
31.92338,70285
31.93150,68349
31.93963,72617
31.94775,73334
31.95587,75897
31.96400,78975
31.97212,84636
31.98025,78147
31.98837,81285
31.99648,83995
32.00462,85963
32.01273,82364
32.02085,76609
32.02898,76688
32.03710,73007
32.04523,79412
32.05335,72667
32.06147,70512
32.06960,72032
32.07772,75438
32.08585,68169
32.09397,63777
32.10208,63278
32.11022,58467
32.11833,54137
32.12647,58365
32.13458,52881
32.14270,56353
32.15083,51825
32.15895,51412
32.16707,51599
32.17520,48702
32.18332,50803
32.19145,45806
32.19957,46410
32.20768,47071
32.21582,49580
32.22393,41914
32.23207,43609
32.24018,46816
32.24830,51256
32.25643,49827
32.26455,50066
32.27268,51920
32.28080,52071
32.28892,47003
32.29705,45818
32.30517,47024
32.31328,46717
32.32142,42532
32.32953,46428
32.33767,45586
32.34578,44161
32.35390,43452
32.36203,42835
32.37015,45080
32.37828,41905
32.38640,43198
32.39452,43987
32.40265,42872
32.41077,40894
32.41888,41833
32.42702,41834
32.43513,40987
32.44327,39500
32.45138,40830
32.45950,43658
32.46763,41860
32.47575,44456
32.48388,43364
32.49200,44666
32.50012,40765
32.50825,40806
32.51637,43015
32.52450,41099
32.53262,42191
32.54073,42782
32.54887,41050
32.55698,38966
32.56510,41814
32.57323,39742
32.58135,41603
32.58948,41772
32.59760,44267
32.60572,40000
32.61385,40525
32.62197,42427
32.63010,39748
32.63822,42632
32.64633,40337
32.65447,49729
32.66258,52288
32.67072,50838
32.67883,50353
32.68695,47276
32.69508,49807
32.70320,46040
32.71132,46883
32.71945,45423
32.72757,45697
32.73570,42945
32.74382,42873
32.75193,37779
32.76007,43204
32.76818,39752
32.77632,41439
32.78443,38284
32.79255,38321
32.80068,42101
32.80880,39762
32.81692,34384
32.82505,37619
32.83317,39741
32.84130,38224
32.84942,38419
32.85753,39932
32.86567,35088
32.87378,39117
32.88192,39218
32.89003,40620
32.89815,44436
32.90628,36626
32.91440,40754
32.92253,43192
32.93065,39944
32.93877,43306
32.94690,42394
32.95502,42850
32.96313,44668
32.97127,36792
32.97938,43094
32.98752,44714
32.99563,52647
33.00375,57525
33.01188,56891
33.02000,54374
33.02813,52212
33.03625,46098
33.04437,46874
33.05250,47562
33.06062,45467
33.06875,45447
33.07687,47834
33.08498,46818
33.09312,52492
33.10123,55812
33.10935,63089
33.11748,67458
33.12560,58039
33.13373,63634
33.14185,59483
33.14997,47310
33.15810,47799
33.16622,48636
33.17435,39933
33.18247,44336
33.19058,41387
33.19872,45008
33.20683,43526
33.21495,43282
33.22308,41147
33.23120,42463
33.23933,41014
33.24745,37466
33.25557,45096
33.26370,42751
33.27182,37572
33.27995,38567
33.28807,42660
33.29618,40482
33.30432,38281
33.31243,39947
33.32057,38559
33.32868,39411
33.33680,39221
33.34493,41003
33.35305,42555
33.36117,41885
33.36930,43524
33.37742,44717
33.38555,44291
33.39367,43898
33.40178,42834
33.40992,40765
33.41803,42541
33.42617,38235
33.43428,38358
33.44240,37622
33.45053,36062
33.45865,38600
33.46677,36082
33.47490,39475
33.48302,35674
33.49115,37994
33.49927,39911
33.50738,39129
33.51552,40582
33.52363,42273
33.53177,42031
33.53988,43397
33.54800,49275
33.55613,48114
33.56425,49086
33.57238,46028
33.58050,42789
33.58862,42512
33.59675,41154
33.60487,41271
33.61298,39394
33.62112,34672
33.62923,38075
33.63737,40384
33.64548,40250
33.65360,42983
33.66173,43251
33.66985,45948
33.67798,46158
33.68610,42366
33.69422,40657
33.70235,43286
33.71047,36793
33.71860,36927
33.72672,43787
33.73483,39842
33.74297,39648
33.75108,41173
33.75920,36791
33.76733,36282
33.77545,39209
33.78358,38928
33.79170,38538
33.79982,42081
33.80795,38936
33.81607,40642
33.82420,39803
33.83232,39233
33.84043,40988
33.84857,41313
33.85668,40083
33.86480,41041
33.87293,41186
33.88105,40780
33.88918,40233
33.89730,41890
33.90542,43508
33.91355,39813
33.92167,46567
33.92980,38184
33.93792,40291
33.94603,34927
33.95417,39536
33.96228,37824
33.97042,43781
33.97853,38800
33.98665,39035
33.99478,37540
34.00290,38368
34.01102,40010
34.01915,41620
34.02727,37523
34.03540,38161
34.04352,37974
34.05163,37290
34.05977,41811
34.06788,41726
34.07602,40969
34.08413,42219
34.09225,37095
34.10038,40166
34.10850,38633
34.11663,42697
34.12475,41098
34.13287,40410
34.14100,40128
34.14912,41725
34.15723,40091
34.16537,36435
34.17348,40994
34.18162,38127
34.18973,43153
34.19785,38707
34.20598,40587
34.21410,42339
34.22223,43526
34.23035,37213
34.23847,38384
34.24660,39344
34.25472,38855
34.26283,40583
34.27097,37944
34.27908,40251
34.28722,41957
34.29533,43478
34.30345,39024
34.31158,41401
34.31970,38269
34.32783,40011
34.33595,37466
34.34407,38381
34.35220,37555
34.36032,39017
34.36845,45175
34.37657,41279
34.38468,39278
34.39282,41417
34.40093,41328
34.40905,40055
34.41718,41220
34.42530,38930
34.43343,37061
34.44155,41582
34.44967,39074
34.45780,38990
34.46592,40131
34.47405,39074
34.48217,40480
34.49028,38013
34.49842,43079
34.50653,44690
34.51465,49069
34.52278,55981
34.53090,66957
34.53903,70893
34.54715,76642
34.55527,81436
34.56340,81480
34.57152,89925
34.57965,79196
34.58777,71878
34.59588,70084
34.60402,66133
34.61213,62836
34.62027,57189
34.62838,58394
34.63650,57172
34.64463,54840
34.65275,51249
34.66087,51159
34.66900,53832
34.67712,48687
34.68525,48125
34.69337,47371
34.70148,49407
34.70962,49438
34.71773,49863
34.72587,50537
34.73398,46242
34.74210,48466
34.75023,47139
34.75835,45371
34.76648,46791
34.77460,47246
34.78272,45862
34.79085,45343
34.79897,48829
34.80708,46254
34.81522,45400
34.82333,46799
34.83147,48429
34.83958,46148
34.84770,43085
34.85583,47373
34.86395,52396
34.87208,43004
34.88020,44796
34.88832,44903
34.89645,44059
34.90457,46435
34.91268,45265
34.92082,50754
34.92893,47443
34.93707,46582
34.94518,47091
34.95330,48665
34.96143,52683
34.96955,51310
34.97768,55200
34.98580,48114
34.99392,53773
35.00205,49354
35.01017,45818
35.01830,48338
35.02642,49715
35.03453,42439
35.04267,43823
35.05078,42221
35.05890,42471
35.06703,44358
35.07515,41484
35.08328,41283
35.09140,43341
35.09952,41744
35.10765,42310
35.11577,43450
35.12390,46076
35.13202,48960
35.14013,44163
35.14827,47394
35.15638,47091
35.16452,48907
35.17263,46447
35.18075,45553
35.18888,42411
35.19700,42392
35.20512,40518
35.21325,43872
35.22137,43319
35.22950,44430
35.23762,41083
35.24573,36218
35.25387,44412
35.26198,43720
35.27012,41722
35.27823,44416
35.28635,46110
35.29448,45582
35.30260,43840
35.31072,38226
35.31885,42881
35.32697,43708
35.33510,42674
35.34322,43488
35.35133,44479
35.35947,44097
35.36758,45493
35.37572,42854
35.38383,41258
35.39195,42482
35.40008,39927
35.40820,43599
35.41633,45763
35.42445,44490
35.43257,47617
35.44070,44450
35.44882,44349
35.45693,44284
35.46507,47783
35.47318,52770
35.48132,46838
35.48943,47849
35.49755,50052
35.50568,46580
35.51380,47099
35.52193,44413
35.53005,44930
35.53817,43225
35.54630,42493
35.55442,41365
35.56255,43956
35.57067,41044
35.57878,43739
35.58692,46480
35.59503,43270
35.60315,44910
35.61128,46350
35.61940,43535
35.62753,42913
35.63565,43313
35.64377,41581
35.65190,46784
35.66002,47216
35.66815,44745
35.67627,43731
35.68438,45155
35.69252,42626
35.70063,45871
35.70875,42150
35.71688,44446
35.72500,42044
35.73313,46323
35.74125,46394
35.74937,45758
35.75750,47320
35.76562,52731
35.77375,53780
35.78187,51005
35.78998,46741
35.79812,42679
35.80623,45342
35.81437,49514
35.82248,43823
35.83060,47352
35.83873,45972
35.84685,45837
35.85497,48037
35.86310,44735
35.87122,45739
35.87935,47241
35.88747,43221
35.89558,49655
35.90372,41008
35.91183,42935
35.91997,45930
35.92808,43326
35.93620,43867
35.94433,42784
35.95245,46077
35.96057,46284
35.96870,43909
35.97682,42124
35.98495,45926
35.99307,42523
36.00118,47247
36.00932,50048
36.01743,44134
36.02557,45833
36.03368,49862
36.04180,51701
36.04993,47979
36.05805,46316
36.06618,45855
36.07430,45253
36.08242,42717
36.09055,47761
36.09867,46870
36.10678,44007
36.11492,46552
36.12303,52024
36.13117,43976
36.13928,45080
36.14740,46583
36.15553,43815
36.16365,48117
36.17178,46452
36.17990,46948
36.18802,42022
36.19615,46453
36.20427,47007
36.21240,44120
36.22052,46060
36.22863,43104
36.23677,43088
36.24488,46049
36.25300,44968
36.26113,39085
36.26925,45179
36.27738,48545
36.28550,52148
36.29362,50430
36.30175,55623
36.30987,55897
36.31800,58581
36.32612,60533
36.33423,52731
36.34237,52052
36.35048,44850
36.35860,47421
36.36673,46454
36.37485,49162
36.38298,42111
36.39110,47747
36.39922,49673
36.40735,48340
36.41547,51133
36.42360,48936
36.43172,46672
36.43983,48306
36.44797,49386
36.45608,43619
36.46422,48072
36.47233,47650
36.48045,46484
36.48858,49796
36.49670,43244
36.50482,48652
36.51295,45255
36.52107,47849
36.52920,49610
36.53732,48139
36.54543,52515
36.55357,47480
36.56168,48108
36.56982,51070
36.57793,51100
36.58605,48744
36.59418,46091
36.60230,47840
36.61043,54985
36.61855,48236
36.62667,50223
36.63480,48303
36.64292,49296
36.65103,51517
36.65917,47172
36.66728,50058
36.67542,50684
36.68353,48340
36.69165,50716
36.69978,52728
36.70790,48986
36.71603,52067
36.72415,50981
36.73227,49386
36.74040,48604
36.74852,51420
36.75663,49547
36.76477,50367
36.77288,47273
36.78102,51977
36.78913,52273
36.79725,47588
36.80538,50619
36.81350,50744
36.82163,53371
36.82975,47325
36.83787,51502
36.84600,48347
36.85412,47428
36.86225,47220
36.87037,49563
36.87848,49412
36.88662,49954
36.89473,51148
36.90285,51338
36.91098,48247
36.91910,51594
36.92723,53277
36.93535,54909
36.94347,59085
36.95160,58714
36.95972,61520
36.96785,60884
36.97597,64131
36.98408,61238
36.99222,60480
37.00033,58796
37.00845,53049
37.01658,54666
37.02470,50217
37.03283,51434
37.04095,50684
37.04907,51479
37.05720,52438
37.06532,49417
37.07345,53460
37.08157,51815
37.08968,50666
37.09782,51818
37.10593,48989
37.11407,52351
37.12218,53480
37.13030,53105
37.13843,52562
37.14655,52284
37.15467,54367
37.16280,52989
37.17092,53931
37.17905,49705
37.18717,55042
37.19528,53058
37.20342,53608
37.21153,53380
37.21967,51728
37.22778,51896
37.23590,54382
37.24403,51418
37.25215,52336
37.26028,49391
37.26840,51911
37.27652,53418
37.28465,50344
37.29277,50552
37.30088,53490
37.30902,55134
37.31713,57543
37.32527,62135
37.33338,71911
37.34150,77133
37.34963,86215
37.35775,82110
37.36588,81628
37.37400,81499
37.38212,74387
37.39025,69493
37.39837,69090
37.40648,69063
37.41462,62796
37.42273,67092
37.43087,61260
37.43898,63002
37.44710,61172
37.45523,61686
37.46335,61947
37.47148,61495
37.47960,62423
37.48772,61080
