C:\MassHunter\GCMS\1\data\JTB-E02\BACandBLUE\JTB-E18-017-12.D Wed Jul 03 16:29:08 2019
Start of data points
2.09528	91756
2.10340	88291
2.11152	88361
2.11965	84805
2.12777	81802
2.13590	86565
2.14402	88626
2.15213	85393
2.16027	82662
2.16838	87671
2.17652	83570
2.18463	80876
2.19275	79449
2.20088	78103
2.20900	84019
2.21712	77730
2.22525	76942
2.23337	76814
2.24150	80546
2.24962	79946
2.25773	110130
2.26587	553375
2.27398	1470887
2.28212	1037902
2.29023	470522
2.29835	324540
2.30648	275935
2.31460	243229
2.32273	221217
2.33085	220212
2.33897	200548
2.34710	177285
2.35522	171943
2.36333	160251
2.37147	157027
2.37958	166763
2.38772	155947
2.39583	138472
2.40395	143570
2.41208	140568
2.42020	142380
2.42833	147949
2.43645	141155
2.44457	146330
2.45270	137156
2.46082	129299
2.46893	130440
2.47707	133855
2.48518	210851
2.49332	247910
2.50143	180863
2.50955	157075
2.51768	145489
2.52580	145523
2.53393	142372
2.54205	148908
2.55017	189929
2.55830	238357
2.56642	197930
2.57455	171167
2.58267	156922
2.59078	148643
2.59892	210853
2.60703	425322
2.61515	485025
2.62328	371184
2.63140	249620
2.63953	197449
2.64765	177973
2.65577	164586
2.66390	148262
2.67202	153742
2.68015	143981
2.68827	139466
2.69638	138858
2.70452	131344
2.71263	128695
2.72075	131014
2.72888	132106
2.73700	126953
2.74513	127608
2.75325	125736
2.76137	119818
2.76950	126908
2.77762	175917
2.78575	218186
2.79387	179953
2.80198	158221
2.81012	170318
2.81823	200831
2.82637	211124
2.83448	217049
2.84260	175846
2.85073	147752
2.85885	148561
2.86697	139378
2.87510	134121
2.88322	127745
2.89135	129915
2.89947	126517
2.90758	125893
2.91572	124111
2.92383	127142
2.93197	121578
2.94008	117809
2.94820	116158
2.95633	113497
2.96445	124559
2.97258	117381
2.98070	120058
2.98882	121770
2.99695	124375
3.00507	122948
3.01318	125204
3.02132	119460
3.02943	114434
3.03757	116251
3.04568	118810
3.05380	129965
3.06193	139043
3.07005	138673
3.07818	227248
3.08630	584271
3.09442	1383849
3.10255	3085743
3.11067	3789303
3.11878	2570450
3.12692	1588079
3.13503	1197011
3.14317	964149
3.15128	799993
3.15940	697886
3.16753	671004
3.17565	729788
3.18378	1175264
3.19190	1838190
3.20002	1646946
3.20815	1096587
3.21627	841182
3.22440	728193
3.23252	619796
3.24063	562843
3.24877	480325
3.25688	450280
3.26500	415472
3.27313	398282
3.28125	537224
3.28938	1429588
3.29750	3796217
3.30562	6251805
3.31375	6326437
3.32187	4648185
3.33000	3127400
3.33812	2279746
3.34623	1831855
3.35437	1517761
3.36248	1255735
3.37062	1111120
3.37873	982297
3.38685	889692
3.39498	800044
3.40310	743953
3.41122	688052
3.41935	647613
3.42747	626339
3.43560	601640
3.44372	563557
3.45183	544418
3.45997	542619
3.46808	563439
3.47622	574837
3.48433	536855
3.49245	512662
3.50058	490771
3.50870	466231
3.51682	442455
3.52495	447029
3.53307	447450
3.54120	459061
3.54932	428027
3.55743	401871
3.56557	401676
3.57368	399676
3.58182	399616
3.58993	378368
3.59805	382802
3.60618	370952
3.61430	385580
3.62243	417433
3.63055	474054
3.63867	507767
3.64680	467001
3.65492	546568
3.66303	1658436
3.67117	5024600
3.67928	7869139
3.68742	6494014
3.69553	3778963
3.70365	2433139
3.71178	1898792
3.71990	1599514
3.72803	1370746
3.73615	1234357
3.74427	1116373
3.75240	1040370
3.76052	942754
3.76863	873575
3.77677	840788
3.78488	789386
3.79302	802956
3.80113	1079275
3.80925	1743579
3.81738	2053701
3.82550	1713214
3.83363	1245543
3.84175	1003077
3.84987	892018
3.85800	797455
3.86612	753382
3.87425	703048
3.88237	662107
3.89048	636985
3.89862	599308
3.90673	610029
3.91485	721341
3.92298	896150
3.93110	964489
3.93923	892424
3.94735	977740
3.95547	1541157
3.96360	2192979
3.97172	2120171
3.97985	1516947
3.98797	1307224
3.99608	2567846
4.00422	6269119
4.01233	9922369
4.02047	9399831
4.02858	5945487
4.03670	3303460
4.04483	2106182
4.05295	1586801
4.06107	1275977
4.06920	1082629
4.07732	958943
4.08545	853154
4.09357	778440
4.10168	709372
4.10982	665243
4.11793	618470
4.12607	631496
4.13418	764413
4.14230	1103915
4.15043	1416273
4.15855	1331455
4.16668	1061977
4.17480	851068
4.18292	753475
4.19105	664308
4.19917	697946
4.20728	1503155
4.21542	4782848
4.22353	1.071824E+07
4.23167	1.556772E+07
4.23978	1.577415E+07
4.24790	1.138628E+07
4.25603	6915507
4.26415	4707966
4.27228	3538000
4.28040	2792489
4.28852	2256089
4.29665	1890377
4.30477	1629596
4.31288	1440739
4.32102	1295912
4.32913	1181989
4.33727	1085541
4.34538	1065401
4.35350	1064822
4.36163	1054626
4.36975	1005417
4.37788	933617
4.38600	831117
4.39412	775149
4.40225	722817
4.41037	715242
4.41850	675476
4.42662	664267
4.43473	626343
4.44287	602333
4.45098	581431
4.45910	565612
4.46723	557692
4.47535	544389
4.48348	527022
4.49160	516395
4.49972	500349
4.50785	490496
4.51597	481304
4.52410	464284
4.53222	459529
4.54033	456725
4.54847	454357
4.55658	442194
4.56470	430707
4.57283	420645
4.58095	416838
4.58908	402879
4.59720	399075
4.60532	388400
4.61345	419622
4.62157	525091
4.62970	789917
4.63782	1113423
4.64593	1210541
4.65407	992373
4.66218	748833
4.67032	581328
4.67843	516841
4.68655	465751
4.69468	447154
4.70280	419639
4.71092	391158
4.71905	383651
4.72717	373580
4.73530	367766
4.74342	344828
4.75153	341495
4.75967	340140
4.76778	321359
4.77592	324224
4.78403	362533
4.79215	502393
4.80028	755691
4.80840	899787
4.81653	805184
4.82465	648004
4.83277	559244
4.84090	545367
4.84902	512146
4.85713	476198
4.86527	440225
4.87338	399905
4.88152	379960
4.88963	371158
4.89775	356382
4.90588	348448
4.91400	333470
4.92213	364219
4.93025	474966
4.93837	905478
4.94650	1816092
4.95462	3035399
4.96273	3719963
4.97087	3480499
4.97898	2799359
4.98712	2012232
4.99523	1456692
5.00335	1151088
5.01148	961045
5.01960	907696
5.02773	1125672
5.03585	1459382
5.04397	1602270
5.05210	1424611
5.06022	1133976
5.06835	954314
5.07647	834126
5.08458	751407
5.09272	707951
5.10083	657826
5.10895	618807
5.11708	595123
5.12520	569913
5.13333	564026
5.14145	543611
5.14957	545608
5.15770	602586
5.16582	661819
5.17395	666072
5.18207	621674
5.19018	599207
5.19832	632918
5.20643	668210
5.21457	671124
5.22268	621935
5.23080	563916
5.23893	519171
5.24705	491482
5.25517	444923
5.26330	427232
5.27142	389442
5.27955	377982
5.28767	374995
5.29578	365244
5.30392	357806
5.31203	351017
5.32017	359947
5.32828	392151
5.33640	422845
5.34453	440549
5.35265	417517
5.36077	383055
5.36890	362088
5.37702	360779
5.38515	377407
5.39327	409702
5.40138	414136
5.40952	398001
5.41763	385665
5.42577	358480
5.43388	358788
5.44200	347412
5.45013	361669
5.45825	377770
5.46638	346994
5.47450	329738
5.48262	316946
5.49075	298804
5.49887	293945
5.50698	297346
5.51512	304056
5.52323	302665
5.53137	283226
5.53948	280048
5.54760	293985
5.55573	333632
5.56385	393142
5.57198	445349
5.58010	458230
5.58822	419591
5.59635	361625
5.60447	319857
5.61258	295560
5.62072	299123
5.62883	312959
5.63697	308266
5.64508	317324
5.65320	308378
5.66133	309984
5.66945	297275
5.67758	310835
5.68570	348169
5.69382	375967
5.70195	378857
5.71007	335753
5.71820	304095
5.72632	302383
5.73443	282199
5.74257	269211
5.75068	265971
5.75880	264317
5.76693	252175
5.77505	258896
5.78318	252734
5.79130	246003
5.79942	240421
5.80755	245626
5.81567	238679
5.82380	241886
5.83192	247982
5.84003	250916
5.84817	254626
5.85628	250590
5.86442	249782
5.87253	241614
5.88065	239945
5.88878	233683
5.89690	233084
5.90502	226397
5.91315	206442
5.92127	185653
5.92940	184010
5.93752	185469
5.94563	187733
5.95377	203867
5.96188	234681
5.97002	265868
5.97813	310081
5.98625	347311
5.99438	353929
6.00250	321567
6.01062	276200
6.01875	239373
6.02687	228594
6.03500	210500
6.04312	198018
6.05123	193298
6.05937	176420
6.06748	176317
6.07562	172609
6.08373	172133
6.09185	171636
6.09998	181833
6.10810	190074
6.11623	218176
6.12435	268108
6.13247	398690
6.14060	573960
6.14872	682289
6.15683	632365
6.16497	500759
6.17308	371598
6.18122	309082
6.18933	273601
6.19745	257354
6.20558	250534
6.21370	239819
6.22183	237522
6.22995	230042
6.23807	228065
6.24620	228156
6.25432	241833
6.26245	254950
6.27057	255490
6.27868	232371
6.28682	228793
6.29493	214120
6.30305	220843
6.31118	221662
6.31930	227284
6.32743	232574
6.33555	246083
6.34367	248210
6.35180	248630
6.35992	225803
6.36805	221464
6.37617	215834
6.38428	220338
6.39242	222288
6.40053	215755
6.40865	221356
6.41678	212057
6.42490	211684
6.43303	211614
6.44115	210146
6.44927	212521
6.45740	212489
6.46552	215256
6.47365	217578
6.48177	217152
6.48988	224359
6.49802	221446
6.50613	222124
6.51427	219740
6.52238	230905
6.53050	230087
6.53863	226695
6.54675	229310
6.55487	233158
6.56300	261020
6.57112	316397
6.57925	381296
6.58737	409987
6.59548	365617
6.60362	324488
6.61173	282306
6.61987	268074
6.62798	253721
6.63610	259262
6.64423	295315
6.65235	462112
6.66048	840631
6.66860	1274144
6.67672	1442499
6.68485	1222340
6.69297	856368
6.70108	584749
6.70922	457522
6.71733	404561
6.72547	365516
6.73358	352350
6.74170	338063
6.74983	325312
6.75795	308835
6.76608	302619
6.77420	299563
6.78232	269706
6.79045	250126
6.79857	234943
6.80668	219680
6.81482	210710
6.82293	201548
6.83107	202942
6.83918	205378
6.84730	213983
6.85543	230375
6.86355	218726
6.87168	192732
6.87980	171800
6.88792	149549
6.89605	143052
6.90417	136942
6.91230	134545
6.92042	130506
6.92853	124789
6.93667	119261
6.94478	120120
6.95290	127942
6.96103	128073
6.96915	147898
6.97728	164323
6.98540	173939
6.99352	163831
7.00165	148242
7.00977	130591
7.01790	122977
7.02602	117045
7.03413	121914
7.04227	136021
7.05038	138743
7.05850	145573
7.06663	147876
7.07475	132308
7.08288	126397
7.09100	117045
7.09912	118062
7.10725	111710
7.11537	112855
7.12350	118076
7.13162	118612
7.13973	136227
7.14787	179151
7.15598	255571
7.16412	297361
7.17223	305403
7.18035	250053
7.18848	200727
7.19660	154661
7.20472	142343
7.21285	155751
7.22097	253421
7.22910	538193
7.23722	1051182
7.24533	1476122
7.25347	1550588
7.26158	1234453
7.26972	791479
7.27783	494444
7.28595	365852
7.29408	315506
7.30220	251391
7.31033	203832
7.31845	169865
7.32657	147997
7.33470	141470
7.34282	136815
7.35093	138190
7.35907	124393
7.36718	126538
7.37532	129292
7.38343	132105
7.39155	130764
7.39968	127575
7.40780	124893
7.41593	123234
7.42405	119835
7.43217	111346
7.44030	119408
7.44842	123332
7.45653	121364
7.46467	118054
7.47278	110555
7.48092	110939
7.48903	103952
7.49715	113927
7.50528	134880
7.51340	214279
7.52153	380837
7.52965	645682
7.53777	987728
7.54590	1316185
7.55402	1446105
7.56215	1385307
7.57027	1103130
7.57838	782853
7.58652	522570
7.59463	360263
7.60275	256986
7.61088	205360
7.61900	177830
7.62713	154571
7.63525	142726
7.64337	135382
7.65150	126376
7.65962	115592
7.66775	111662
7.67587	105987
7.68398	101353
7.69212	104431
7.70023	107895
7.70837	106641
7.71648	110658
7.72460	107830
7.73273	99319
7.74085	104260
7.74897	103040
7.75710	108241
7.76522	104484
7.77335	110130
7.78147	120521
7.78958	132787
7.79772	141338
7.80583	147537
7.81397	153811
7.82208	140384
7.83020	124265
7.83833	127123
7.84645	122391
7.85457	124493
7.86270	130373
7.87082	153899
7.87895	163377
7.88707	171148
7.89518	166533
7.90332	145943
7.91143	129380
7.91957	119332
7.92768	131784
7.93580	146349
7.94393	163309
7.95205	179904
7.96018	158640
7.96830	138665
7.97642	130191
7.98455	107957
7.99267	97012
8.00078	94737
8.00892	91344
8.01703	83519
8.02517	86567
8.03328	88251
8.04140	90883
8.04953	94926
8.05765	88155
8.06578	88807
8.07390	80122
8.08202	88134
8.09015	92919
8.09827	87466
8.10638	83833
8.11452	85874
8.12263	98768
8.13077	120550
8.13888	146210
8.14700	165353
8.15513	162307
8.16325	152139
8.17138	126813
8.17950	107445
8.18762	99940
8.19575	93895
8.20387	93533
8.21200	96843
8.22012	101382
8.22823	101320
8.23637	98857
8.24448	95214
8.25260	89590
8.26073	82235
8.26885	80801
8.27698	80392
8.28510	79302
8.29322	86583
8.30135	79736
8.30947	90974
8.31760	88848
8.32572	85958
8.33383	85734
8.34197	87478
8.35008	78704
8.35822	79575
8.36633	86371
8.37445	93327
8.38258	96672
8.39070	103842
8.39882	89986
8.40695	91111
8.41507	78293
8.42320	81132
8.43132	78778
8.43943	77057
8.44757	75573
8.45568	78156
8.46382	74716
8.47193	80786
8.48005	75316
8.48818	77743
8.49630	82270
8.50442	77454
8.51255	77097
8.52067	80537
8.52880	105006
8.53692	188681
8.54503	305181
8.55317	430968
8.56128	464708
8.56942	422274
8.57753	306843
8.58565	218131
8.59378	166537
8.60190	153770
8.61003	156416
8.61815	151193
8.62627	132591
8.63440	121980
8.64252	103045
8.65063	99201
8.65877	89749
8.66688	94353
8.67502	94893
8.68313	101544
8.69125	107096
8.69938	117687
8.70750	118423
8.71563	111484
8.72375	108154
8.73187	101149
8.74000	110299
8.74812	181770
8.75625	389891
8.76437	765488
8.77248	1265610
8.78062	1625430
8.78873	1592101
8.79685	1271670
8.80498	836831
8.81310	526244
8.82123	345608
8.82935	260042
8.83747	224902
8.84560	219744
8.85372	217920
8.86185	219726
8.86997	216847
8.87808	208273
8.88622	195699
8.89433	185786
8.90245	173156
8.91058	161222
8.91870	163937
8.92683	163098
8.93495	165295
8.94307	174667
8.95120	180646
8.95932	198104
8.96745	193750
8.97557	194625
8.98368	196885
8.99182	191893
8.99993	177459
9.00807	161433
9.01618	153473
9.02430	147234
9.03243	131158
9.04055	131690
9.04867	130412
9.05680	126590
9.06492	126451
9.07305	126569
9.08117	123321
9.08928	139881
9.09742	164861
9.10553	180097
9.11367	209210
9.12178	217235
9.12990	210955
9.13803	178460
9.14615	161790
9.15427	144924
9.16240	131500
9.17052	121146
9.17865	117362
9.18677	115050
9.19488	111511
9.20302	105258
9.21113	109045
9.21927	111196
9.22738	106973
9.23550	111733
9.24363	110374
9.25175	110199
9.25988	114435
9.26800	111806
9.27612	110649
9.28425	110546
9.29237	113464
9.30048	109511
9.30862	112068
9.31673	105053
9.32487	106166
9.33298	97848
9.34110	96205
9.34923	95696
9.35735	91890
9.36548	91232
9.37360	98560
9.38172	102800
9.38985	105313
9.39797	109686
9.40610	133550
9.41422	175258
9.42233	230103
9.43047	280578
9.43858	301345
9.44670	286392
9.45483	238378
9.46295	201109
9.47108	159780
9.47920	132876
9.48732	115522
9.49545	110174
9.50357	124256
9.51170	142557
9.51982	159047
9.52793	175018
9.53607	168042
9.54418	149707
9.55232	124888
9.56043	111193
9.56855	97364
9.57668	90316
9.58480	89053
9.59292	83758
9.60105	78173
9.60917	78789
9.61730	74723
9.62542	74946
9.63353	68996
9.64167	71408
9.64978	71778
9.65792	71842
9.66603	72569
9.67415	72187
9.68228	67765
9.69040	72754
9.69852	65959
9.70665	68292
9.71477	60991
9.72290	62486
9.73102	60253
9.73913	58462
9.74727	60217
9.75538	63298
9.76352	64582
9.77163	60610
9.77975	60217
9.78788	67187
9.79600	67081
9.80413	67167
9.81225	67437
9.82037	66038
9.82850	67570
9.83662	66993
9.84473	62724
9.85287	62743
9.86098	65216
9.86912	66386
9.87723	76238
9.88535	72841
9.89348	72734
9.90160	73472
9.90973	78831
9.91785	87250
9.92597	102513
9.93410	135701
9.94222	178394
9.95033	229044
9.95847	274699
9.96658	295244
9.97472	271965
9.98283	229341
9.99095	177208
9.99908	139941
10.00720	114481
10.01533	102133
10.02345	87362
10.03157	81467
10.03970	78747
10.04782	74425
10.05595	72456
10.06407	75195
10.07218	74740
10.08032	79490
10.08843	85176
10.09655	86021
10.10468	90565
10.11280	95740
10.12093	92852
10.12905	91387
10.13717	97183
10.14530	88253
10.15342	86197
10.16155	83529
10.16967	70707
10.17778	76725
10.18592	70210
10.19403	72415
10.20217	72092
10.21028	76896
10.21840	78653
10.22653	85233
10.23465	94579
10.24277	105648
10.25090	111062
10.25902	136665
10.26715	210757
10.27527	420292
10.28338	858961
10.29152	1506345
10.29963	2270907
10.30777	3209402
10.31588	4367661
10.32400	6229534
10.33213	8554923
10.34025	1.028237E+07
10.34837	1.020519E+07
10.35650	8622533
10.36462	6817174
10.37275	5452585
10.38087	4197778
10.38898	3058061
10.39712	2058206
10.40523	1348167
10.41337	923613
10.42148	690460
10.42960	559601
10.43773	528196
10.44585	519726
10.45398	514431
10.46210	511475
10.47022	479585
10.47835	446856
10.48647	410901
10.49458	376860
10.50272	358899
10.51083	328372
10.51897	313525
10.52708	292222
10.53520	282919
10.54333	281707
10.55145	267673
10.55958	249387
10.56770	259229
10.57582	246834
10.58395	240120
10.59207	237533
10.60020	226715
10.60832	214453
10.61643	209288
10.62457	195018
10.63268	193679
10.64080	186513
10.64893	180481
10.65705	179085
10.66518	171749
10.67330	181353
10.68142	188127
10.68955	188838
10.69767	177129
10.70580	176530
10.71392	172480
10.72203	169751
10.73017	161172
10.73828	156301
10.74640	165079
10.75453	162065
10.76265	158632
10.77078	153006
10.77890	148426
10.78702	141369
10.79515	139510
10.80327	140031
10.81140	152119
10.81952	147052
10.82763	149509
10.83577	138200
10.84388	125157
10.85202	120548
10.86013	115418
10.86825	109962
10.87638	110732
10.88450	111993
10.89262	117693
10.90075	118072
10.90887	116009
10.91700	110107
10.92512	103433
10.93323	103105
10.94137	102776
10.94948	106647
10.95762	106426
10.96573	105972
10.97385	111031
10.98198	115625
10.99010	116214
10.99822	120124
11.00635	125419
11.01447	116669
11.02260	109792
11.03072	102019
11.03883	103452
11.04697	95561
11.05508	91726
11.06322	95817
11.07133	104016
11.07945	110617
11.08758	130501
11.09570	126011
11.10383	121990
11.11195	114038
11.12007	113720
11.12820	103588
11.13632	92385
11.14443	95613
11.15257	91912
11.16068	93011
11.16882	91813
11.17693	95486
11.18505	93627
11.19318	108861
11.20130	99588
11.20943	98281
11.21755	97034
11.22567	98678
11.23380	95267
11.24192	91118
11.25005	92134
11.25817	89896
11.26628	84011
11.27442	77724
11.28253	89741
11.29065	109014
11.29878	162287
11.30690	325227
11.31503	661952
11.32315	1227696
11.33127	1942397
11.33940	2507314
11.34752	2735496
11.35565	2420503
11.36377	1881515
11.37188	1283675
11.38002	816918
11.38813	537205
11.39625	402303
11.40438	358686
11.41250	347747
11.42063	348190
11.42875	336048
11.43687	316083
11.44500	292369
11.45312	268598
11.46125	233934
11.46937	210595
11.47748	202979
11.48562	208424
11.49373	218134
11.50187	235695
11.50998	233917
11.51810	225105
11.52623	208787
11.53435	193778
11.54247	173419
11.55060	176027
11.55872	181261
11.56685	174517
11.57497	169111
11.58308	157559
11.59122	166418
11.59933	180300
11.60747	194391
11.61558	221533
11.62370	235206
11.63183	224256
11.63995	199830
11.64808	172597
11.65620	146482
11.66432	143695
11.67245	145493
11.68057	154466
11.68868	165080
11.69682	173598
11.70493	190366
11.71307	189182
11.72118	180717
11.72930	166522
11.73743	137581
11.74555	124574
11.75368	102663
11.76180	105861
11.76992	101965
11.77805	100712
11.78617	100898
11.79428	105303
11.80242	104335
11.81053	105724
11.81867	104035
11.82678	100679
11.83490	103666
11.84303	101047
11.85115	103786
11.85928	100850
11.86740	96011
11.87552	92663
11.88365	86825
11.89177	83239
11.89990	92102
11.90802	88377
11.91613	94253
11.92427	94815
11.93238	101890
11.94050	107282
11.94863	101092
11.95675	94133
11.96488	102785
11.97300	118519
11.98112	176642
11.98925	318385
11.99737	596330
12.00550	873601
12.01362	1112163
12.02173	1108203
12.02987	936670
12.03798	692215
12.04612	453094
12.05423	316754
12.06235	263991
12.07048	218967
12.07860	200800
12.08672	196904
12.09485	205842
12.10297	201032
12.11110	198438
12.11922	199025
12.12733	205578
12.13547	210585
12.14358	197075
12.15172	186684
12.15983	154188
12.16795	143089
12.17608	136346
12.18420	130897
12.19232	131152
12.20045	128518
12.20857	126463
12.21670	128251
12.22482	128053
12.23293	124067
12.24107	125923
12.24918	122141
12.25732	119279
12.26543	115550
12.27355	114120
12.28168	115966
12.28980	109032
12.29793	100086
12.30605	97730
12.31417	99875
12.32230	100447
12.33042	94540
12.33853	97421
12.34667	93894
12.35478	94166
12.36292	92735
12.37103	95546
12.37915	93780
12.38728	99518
12.39540	102139
12.40353	107432
12.41165	112856
12.41977	126070
12.42790	141734
12.43602	142907
12.44413	151925
12.45227	147216
12.46038	135880
12.46852	125465
12.47663	115720
12.48475	105981
12.49288	97746
12.50100	97411
12.50913	96992
12.51725	94155
12.52537	109124
12.53350	142321
12.54162	257560
12.54975	477887
12.55787	864615
12.56598	1219710
12.57412	1393815
12.58223	1194042
12.59035	870604
12.59848	566362
12.60660	352549
12.61473	256766
12.62285	213487
12.63097	195917
12.63910	178967
12.64722	162537
12.65535	149857
12.66347	139195
12.67158	134132
12.67972	122225
12.68783	114643
12.69597	110554
12.70408	111865
12.71220	109910
12.72033	114593
12.72845	114012
12.73657	120165
12.74470	119580
12.75282	113188
12.76095	116109
12.76907	114022
12.77718	111071
12.78532	104649
12.79343	99872
12.80157	95202
12.80968	96366
12.81780	84898
12.82593	84345
12.83405	84760
12.84217	79411
12.85030	81180
12.85842	84654
12.86655	81786
12.87467	87812
12.88278	89539
12.89092	86305
12.89903	88307
12.90717	85753
12.91528	87619
12.92340	83271
12.93153	79984
12.93965	83709
12.94778	88445
12.95590	105338
12.96402	153960
12.97215	237135
12.98027	328442
12.98838	391422
12.99652	391645
13.00463	319026
13.01277	242091
13.02088	179736
13.02900	150946
13.03713	144976
13.04525	155343
13.05338	176495
13.06150	203168
13.06962	223159
13.07775	232827
13.08587	211717
13.09400	170088
13.10212	146039
13.11023	121163
13.11837	111065
13.12648	111693
13.13460	104910
13.14273	107617
13.15085	109242
13.15898	105924
13.16710	107847
13.17522	107587
13.18335	103346
13.19147	101413
13.19960	99099
13.20772	104389
13.21583	110082
13.22397	108154
13.23208	111965
13.24020	105984
13.24833	99474
13.25645	96508
13.26458	90247
13.27270	87448
13.28082	86828
13.28895	84214
13.29707	77924
13.30520	78465
13.31332	77347
13.32143	75521
13.32957	69717
13.33768	73209
13.34582	72352
13.35393	74485
13.36205	75187
13.37018	76966
13.37830	79173
13.38642	75589
13.39455	75590
13.40267	69987
13.41080	68379
13.41892	67234
13.42703	64972
13.43517	63768
13.44328	68604
13.45142	69018
13.45953	74703
13.46765	83430
13.47578	82399
13.48390	88135
13.49202	81494
13.50015	83538
13.50827	80605
13.51640	81630
13.52452	80936
13.53263	84956
13.54077	85932
13.54888	86602
13.55702	85579
13.56513	84448
13.57325	81784
13.58138	84945
13.58950	91960
13.59763	94031
13.60575	114018
13.61387	145303
13.62200	181159
13.63012	192728
13.63823	178886
13.64637	156981
13.65448	118992
13.66262	104722
13.67073	92626
13.67885	84388
13.68698	84844
13.69510	91862
13.70323	81732
13.71135	79241
13.71947	84648
13.72760	97286
13.73572	151116
13.74385	339860
13.75197	832354
13.76008	1839164
13.76822	3290500
13.77633	4619886
13.78445	5205839
13.79258	4818409
13.80070	3801788
13.80883	2670971
13.81695	1852163
13.82507	1473722
13.83320	1301585
13.84132	1223038
13.84945	1094277
13.85757	940355
13.86568	784991
13.87382	651805
13.88193	558409
13.89005	478526
13.89818	431582
13.90630	397867
13.91443	363937
13.92255	339620
13.93067	322949
13.93880	315131
13.94692	302935
13.95505	313680
13.96317	337648
13.97128	384019
13.97942	433322
13.98753	465726
13.99567	438978
14.00378	386628
14.01190	336403
14.02003	292387
14.02815	272676
14.03627	243011
14.04440	243829
14.05252	226297
14.06065	227666
14.06877	224149
14.07688	213464
14.08502	206353
14.09313	213611
14.10127	214664
14.10938	199639
14.11750	195296
14.12563	202894
14.13375	222294
14.14188	252754
14.15000	277612
14.15812	308712
14.16625	319270
14.17437	363616
14.18248	417000
14.19062	544243
14.19873	644682
14.20687	672490
14.21498	621828
14.22310	508753
14.23123	404199
14.23935	339625
14.24748	310214
14.25560	294959
14.26372	262009
14.27185	234522
14.27997	209838
14.28808	190036
14.29622	179204
14.30433	170463
14.31247	161455
14.32058	159294
14.32870	153881
14.33683	153164
14.34495	149508
14.35308	135748
14.36120	129066
14.36932	119882
14.37745	110234
14.38557	115604
14.39370	135441
14.40182	187317
14.40993	282096
14.41807	407531
14.42618	478996
14.43430	483301
14.44243	425835
14.45055	310335
14.45868	233179
14.46680	177881
14.47492	161409
14.48305	150412
14.49117	143107
14.49930	140296
14.50742	137196
14.51553	145494
14.52367	148402
14.53178	148074
14.53990	151900
14.54803	134844
14.55615	125485
14.56428	110730
14.57240	107079
14.58052	100457
14.58865	93678
14.59677	92406
14.60490	91812
14.61302	93257
14.62113	90365
14.62927	89459
14.63738	98949
14.64552	92744
14.65363	88140
14.66175	83707
14.66988	81178
14.67800	82034
14.68612	79246
14.69425	79776
14.70237	81807
14.71050	85730
14.71862	85430
14.72673	90190
14.73487	96487
14.74298	98667
14.75112	105136
14.75923	102904
14.76735	104662
14.77548	104063
14.78360	112119
14.79173	145807
14.79985	264213
14.80797	600060
14.81610	1244739
14.82422	2139656
14.83233	2885664
14.84047	3188029
14.84858	2834270
14.85672	2113697
14.86483	1370566
14.87295	871809
14.88108	563091
14.88920	413451
14.89733	331114
14.90545	273416
14.91357	256061
14.92170	232778
14.92982	221429
14.93795	209513
14.94607	204846
14.95418	198479
14.96232	194940
14.97043	199028
14.97855	193582
14.98668	193560
14.99480	183536
15.00293	167433
15.01105	156981
15.01917	152150
15.02730	148523
15.03542	144228
15.04355	140151
15.05167	136112
15.05978	132056
15.06792	123608
15.07603	122799
15.08415	115051
15.09228	114573
15.10040	106754
15.10853	108411
15.11665	106620
15.12477	102215
15.13290	111936
15.14102	114404
15.14915	114777
15.15727	118278
15.16538	116673
15.17352	104982
15.18163	105370
15.18977	92497
15.19788	89614
15.20600	91904
15.21413	82520
15.22225	83281
15.23037	87398
15.23850	82214
15.24662	83333
15.25475	81967
15.26287	76357
15.27098	78510
15.27912	77349
15.28723	69745
15.29537	69211
15.30348	71400
15.31160	69397
15.31973	70646
15.32785	70068
15.33597	66620
15.34410	66433
15.35222	70501
15.36035	69239
15.36847	68070
15.37658	68928
15.38472	74017
15.39283	82335
15.40097	94205
15.40908	112561
15.41720	124202
15.42533	131986
15.43345	132843
15.44158	114185
15.44970	104633
15.45782	103198
15.46595	118037
15.47407	169086
15.48218	263696
15.49032	391614
15.49843	505088
15.50657	559429
15.51468	576335
15.52280	514139
15.53093	440198
15.53905	404472
15.54718	384616
15.55530	345320
15.56342	308518
15.57155	253957
15.57967	205606
15.58780	157193
15.59592	136080
15.60403	117869
15.61217	110977
15.62028	102558
15.62840	103678
15.63653	89437
15.64465	88155
15.65278	87161
15.66090	87467
15.66902	82712
15.67715	79785
15.68527	79322
15.69340	78314
15.70152	74725
15.70963	74749
15.71777	75125
15.72588	74641
15.73400	77466
15.74213	76719
15.75025	86498
15.75838	106681
15.76650	145812
15.77462	204638
15.78275	294479
15.79087	347692
15.79900	367785
15.80712	324991
15.81523	241191
15.82337	190938
15.83148	142691
15.83962	118816
15.84773	111200
15.85585	102609
15.86398	98556
15.87210	96814
15.88022	100690
15.88835	103517
15.89647	105546
15.90460	99739
15.91272	95134
15.92083	91441
15.92897	89850
15.93708	97230
15.94522	107534
15.95333	143950
15.96145	195176
15.96958	266568
15.97770	329434
15.98583	338614
15.99395	322852
16.00207	270410
16.01020	215320
16.01832	176573
16.02643	145430
16.03457	135677
16.04268	123776
16.05082	115588
16.05893	102811
16.06705	100617
16.07518	93914
16.08330	86864
16.09143	85665
16.09955	86080
16.10767	88007
16.11580	87057
16.12392	92140
16.13203	92967
16.14017	100796
16.14828	105236
16.15642	101961
16.16453	101889
16.17265	98949
16.18078	93152
16.18890	85011
16.19703	83661
16.20515	89918
16.21327	86660
16.22140	95049
16.22952	94756
16.23765	89550
16.24577	95414
16.25388	88405
16.26202	85225
16.27013	84807
16.27825	87974
16.28638	94785
16.29450	94844
16.30263	96987
16.31075	97293
16.31887	97290
16.32700	91449
16.33512	89720
16.34325	94352
16.35137	117549
16.35948	161381
16.36762	215504
16.37573	273306
16.38385	304390
16.39198	286883
16.40010	240039
16.40823	188843
16.41635	148752
16.42447	121917
16.43260	103159
16.44072	98138
16.44885	110222
16.45697	154968
16.46508	227920
16.47322	329899
16.48133	445979
16.48947	490210
16.49758	461120
16.50570	345366
16.51383	248511
16.52195	188374
16.53007	138307
16.53820	112978
16.54632	98940
16.55445	96705
16.56257	90393
16.57068	91178
16.57882	95691
16.58693	104563
16.59507	126923
16.60318	149923
16.61130	173259
16.61943	187443
16.62755	198446
16.63568	173436
16.64380	150640
16.65192	124860
16.66005	108490
16.66817	97715
16.67628	92342
16.68442	81877
16.69253	84886
16.70067	83580
16.70878	80661
16.71690	78013
16.72503	72176
16.73315	73376
16.74128	67176
16.74940	71390
16.75752	74037
16.76565	70350
16.77377	65930
16.78188	71707
16.79002	68376
16.79813	66345
16.80627	70320
16.81438	63624
16.82250	62076
16.83063	65175
16.83875	62660
16.84688	59277
16.85500	58884
16.86312	62425
16.87125	58273
16.87937	52823
16.88750	58410
16.89562	56264
16.90373	55116
16.91187	57274
16.91998	56468
16.92810	56421
16.93623	56955
16.94435	57535
16.95248	57627
16.96060	58058
16.96872	58288
16.97685	57117
16.98497	57080
16.99310	61162
17.00122	62002
17.00933	65247
17.01747	61998
17.02558	63264
17.03372	68717
17.04183	67724
17.04995	79019
17.05808	77159
17.06620	80845
17.07432	88852
17.08245	98277
17.09057	112913
17.09870	140186
17.10682	165093
17.11493	183771
17.12307	192052
17.13118	191612
17.13932	184678
17.14743	170115
17.15555	150021
17.16368	134652
17.17180	114660
17.17992	105817
17.18805	95763
17.19617	85768
17.20430	78576
17.21242	73161
17.22053	74921
17.22867	67840
17.23678	65262
17.24492	69998
17.25303	69661
17.26115	68879
17.26928	69997
17.27740	63589
17.28553	62027
17.29365	64283
17.30177	63671
17.30990	66210
17.31802	69834
17.32613	83784
17.33427	97816
17.34238	109070
17.35052	117373
17.35863	131800
17.36675	123684
17.37488	115900
17.38300	106582
17.39113	103177
17.39925	98995
17.40737	96318
17.41550	93093
17.42362	96784
17.43173	95782
17.43987	95350
17.44798	91174
17.45612	91237
17.46423	81634
17.47235	78849
17.48048	72727
17.48860	78309
17.49673	70082
17.50485	68201
17.51297	66234
17.52110	63458
17.52922	62914
17.53735	63872
17.54547	67683
17.55358	74851
17.56172	89740
17.56983	133327
17.57795	219327
17.58608	368643
17.59420	601398
17.60233	899454
17.61045	1107458
17.61857	1132254
17.62670	952863
17.63482	755429
17.64295	574934
17.65107	480267
17.65918	440653
17.66732	421154
17.67543	409910
17.68357	362813
17.69168	314327
17.69980	245412
17.70793	205600
17.71605	173565
17.72417	157140
17.73230	145606
17.74042	137667
17.74855	128316
17.75667	119282
17.76478	115010
17.77292	105526
17.78103	108292
17.78917	106005
17.79728	100813
17.80540	116212
17.81353	137009
17.82165	154083
17.82977	179922
17.83790	183227
17.84602	178996
17.85415	161641
17.86227	153757
17.87038	151536
17.87852	138547
17.88663	122188
17.89477	106203
17.90288	97332
17.91100	88168
17.91913	82591
17.92725	80245
17.93538	76308
17.94350	72372
17.95162	76148
17.95975	66102
17.96787	66991
17.97598	67976
17.98412	66891
17.99223	68420
18.00037	65571
18.00848	72390
18.01660	81053
18.02473	95735
18.03285	109156
18.04098	121360
18.04910	140381
18.05722	186002
18.06535	294704
18.07347	537551
18.08160	900773
18.08972	1333843
18.09783	1584871
18.10597	1596055
18.11408	1385394
18.12220	1003426
18.13033	753119
18.13845	535793
18.14658	422208
18.15470	370145
18.16282	316907
18.17095	298540
18.17907	269849
18.18720	241678
18.19532	230487
18.20343	215839
18.21157	200858
18.21968	180675
18.22780	178005
18.23593	159798
18.24405	159207
18.25218	155572
18.26030	173000
18.26842	206892
18.27655	276835
18.28467	332796
18.29280	383542
18.30092	393032
18.30903	395869
18.31717	401197
18.32528	390817
18.33342	387660
18.34153	398179
18.34965	394931
18.35778	400663
18.36590	403393
18.37402	403672
18.38215	414382
18.39027	461559
18.39840	527204
18.40652	667241
18.41463	837766
18.42277	961879
18.43088	1000711
18.43902	971171
18.44713	875375
18.45525	802031
18.46338	758367
18.47150	764037
18.47963	809204
18.48775	774092
18.49587	757138
18.50400	678710
18.51212	591578
18.52023	512417
18.52837	452952
18.53648	422158
18.54462	392966
18.55273	365676
18.56085	366390
18.56898	366682
18.57710	341895
18.58523	342139
18.59335	335091
18.60147	349078
18.60960	346276
18.61772	362030
18.62583	358331
18.63397	372951
18.64208	368284
18.65022	337680
18.65833	333069
18.66645	324642
18.67458	310021
18.68270	290169
18.69083	289518
18.69895	287752
18.70707	291151
18.71520	289264
18.72332	283502
18.73145	280413
18.73957	267280
18.74768	265917
18.75582	251411
18.76393	254244
18.77205	255812
18.78018	248172
18.78830	239150
18.79643	239243
18.80455	245682
18.81267	240842
18.82080	233784
18.82892	233798
18.83705	229736
18.84517	229709
18.85328	225917
18.86142	229262
18.86953	234641
18.87765	228191
18.88578	228729
18.89390	218339
18.90203	217796
18.91015	218266
18.91827	212322
18.92640	215467
18.93452	220564
18.94265	228538
18.95077	218065
18.95888	222424
18.96702	219288
18.97513	221190
18.98327	219444
18.99138	203993
18.99950	197478
19.00763	197210
19.01575	185659
19.02387	193043
19.03200	188892
19.04012	180178
19.04825	182491
19.05637	190738
19.06448	190200
19.07262	207842
19.08073	254071
19.08887	328024
19.09698	415022
19.10510	491837
19.11323	520478
19.12135	489557
19.12948	431162
19.13760	346324
19.14572	293717
19.15385	257142
19.16197	235335
19.17008	221707
19.17822	210262
19.18633	201490
19.19447	192806
19.20258	190998
19.21070	180468
19.21883	176883
19.22695	170820
19.23508	166405
19.24320	163326
19.25132	161358
19.25945	154314
19.26757	159249
19.27568	159835
19.28382	161417
19.29193	162837
19.30007	162733
19.30818	168385
19.31630	165727
19.32443	158651
19.33255	162230
19.34068	162481
19.34880	177261
19.35692	191495
19.36505	224751
19.37317	256979
19.38130	267931
19.38942	265779
19.39753	240466
19.40567	206206
19.41378	180820
19.42190	168340
19.43003	161940
19.43815	160985
19.44628	155125
19.45440	162698
19.46252	170703
19.47065	179165
19.47877	212644
19.48690	276298
19.49502	356483
19.50313	420697
19.51127	443657
19.51938	400099
19.52752	338837
19.53563	264948
19.54375	218898
19.55188	190517
19.56000	180790
19.56812	165564
19.57625	149731
19.58437	144510
19.59250	136027
19.60062	139802
19.60873	136809
19.61687	124157
19.62498	122533
19.63312	134121
19.64123	159460
19.64935	176427
19.65748	214517
19.66560	267060
19.67372	315892
19.68185	337035
19.68997	340466
19.69810	334977
19.70622	311641
19.71433	282143
19.72247	243814
19.73058	221796
19.73872	203106
19.74683	186097
19.75495	173385
19.76308	175481
19.77120	183361
19.77933	189034
19.78745	223655
19.79557	253078
19.80370	270763
19.81182	282153
19.81993	259691
19.82807	236636
19.83618	194263
19.84432	180917
19.85243	201646
19.86055	353822
19.86868	701620
19.87680	1428282
19.88493	2566015
19.89305	3961272
19.90117	5069006
19.90930	5467946
19.91742	4893815
19.92553	3847951
19.93367	2752306
19.94178	1852795
19.94992	1335092
19.95803	1036220
19.96615	891693
19.97428	782751
19.98240	722053
19.99053	661807
19.99865	635220
20.00677	573023
20.01490	560727
20.02302	535040
20.03115	502228
20.03927	471505
20.04738	423415
20.05552	395508
20.06363	384280
20.07175	370024
20.07988	384361
20.08800	397009
20.09613	383730
20.10425	363647
20.11237	320206
20.12050	272370
20.12862	223938
20.13675	221202
20.14487	223191
20.15298	269512
20.16112	363342
20.16923	496051
20.17737	685173
20.18548	880984
20.19360	1018574
20.20173	1075745
20.20985	1056444
20.21797	943148
20.22610	789379
20.23422	660602
20.24235	584562
20.25047	587156
20.25858	624627
20.26672	718710
20.27483	781737
20.28297	840045
20.29108	784225
20.29920	698300
20.30733	585855
20.31545	472100
20.32358	381191
20.33170	301955
20.33982	233607
20.34795	201361
20.35607	166572
20.36418	155857
20.37232	134056
20.38043	127039
20.38857	119084
20.39668	113204
20.40480	113395
20.41293	113296
20.42105	111604
20.42918	118568
20.43730	124155
20.44542	128768
20.45355	139918
20.46167	150396
20.46978	148951
20.47792	149932
20.48603	147304
20.49417	138863
20.50228	126219
20.51040	111253
20.51853	106383
20.52665	95841
20.53478	96838
20.54290	93886
20.55102	93471
20.55915	86078
20.56727	92209
20.57540	92952
20.58352	88294
20.59163	85280
20.59977	83872
20.60788	87085
20.61600	84896
20.62413	87251
20.63225	86588
20.64038	94826
20.64850	98107
20.65662	104812
20.66475	101533
20.67287	100261
20.68100	95119
20.68912	87877
20.69723	83925
20.70537	77790
20.71348	80456
20.72160	78661
20.72973	73947
20.73785	76152
20.74598	82343
20.75410	84212
20.76222	91577
20.77035	99472
20.77847	115082
20.78660	159016
20.79472	258688
20.80283	393345
20.81097	585967
20.81908	746576
20.82722	784388
20.83533	717032
20.84345	527090
20.85158	367238
20.85970	246764
20.86782	173359
20.87595	142085
20.88407	118620
20.89220	115916
20.90032	108585
20.90843	117587
20.91657	117780
20.92468	117030
20.93282	118667
20.94093	125882
20.94905	124641
20.95718	116804
20.96530	107041
20.97343	98776
20.98155	94517
20.98967	91635
20.99780	89938
21.00592	84250
21.01403	85467
21.02217	87359
21.03028	86239
21.03842	89260
21.04653	91107
21.05465	84756
21.06278	86368
21.07090	80218
21.07903	84014
21.08715	80206
21.09527	76182
21.10340	74230
21.11152	73628
21.11963	75452
21.12777	79323
21.13588	100996
21.14402	128027
21.15213	160294
21.16025	188926
21.16838	209188
21.17650	197214
21.18463	182597
21.19275	146218
21.20087	124265
21.20900	115543
21.21712	95582
21.22525	92888
21.23337	93448
21.24148	86673
21.24962	85039
21.25773	84259
21.26585	81288
21.27398	80263
21.28210	74040
21.29023	74631
21.29835	74161
21.30647	73561
21.31460	73433
21.32272	73929
21.33085	72580
21.33897	70042
21.34708	66168
21.35522	70992
21.36333	72120
21.37147	73789
21.37958	75514
21.38770	81319
21.39583	91938
21.40395	101986
21.41207	117869
21.42020	118334
21.42832	112185
21.43645	101709
21.44457	95219
21.45268	91055
21.46082	80692
21.46893	80826
21.47707	72667
21.48518	72762
21.49330	73604
21.50143	69457
21.50955	67595
21.51767	72459
21.52580	69494
21.53392	72272
21.54205	65390
21.55017	70633
21.55828	70132
21.56642	73345
21.57453	75133
21.58267	83775
21.59078	85055
21.59890	97360
21.60703	94712
21.61515	106871
21.62328	104071
21.63140	108162
21.63952	109128
21.64765	112875
21.65577	114711
21.66388	114242
21.67202	118293
21.68013	120430
21.68827	116636
21.69638	114993
21.70450	105943
21.71263	94312
21.72075	84328
21.72888	81294
21.73700	74013
21.74512	74696
21.75325	76835
21.76137	81907
21.76948	78268
21.77762	82836
21.78573	88999
21.79387	93718
21.80198	96757
21.81010	96920
21.81823	101170
21.82635	100940
21.83448	104486
21.84260	96262
21.85072	94845
21.85885	95745
21.86697	86878
21.87510	81627
21.88322	83051
21.89133	79395
21.89947	74357
21.90758	80068
21.91570	74650
21.92383	71248
21.93195	71758
21.94008	68133
21.94820	64806
21.95632	64013
21.96445	62358
21.97257	64006
21.98070	63779
21.98882	60235
21.99693	60102
22.00507	60651
22.01318	58373
22.02132	61766
22.02943	63676
22.03755	65766
22.04568	73237
22.05380	62732
22.06192	63346
22.07005	62789
22.07817	62149
22.08630	62432
22.09442	66292
22.10253	56361
22.11067	54450
22.11878	56089
22.12692	59877
22.13503	60452
22.14315	58787
22.15128	57506
22.15940	54538
22.16752	59315
22.17565	52478
22.18377	55223
22.19190	55939
22.20002	52617
22.20813	60026
22.21627	58313
22.22438	60018
22.23252	58123
22.24063	57407
22.24875	64030
22.25688	60977
22.26500	64705
22.27313	69495
22.28125	74787
22.28937	86764
22.29750	90857
22.30562	98753
22.31373	92782
22.32187	93072
22.32998	90936
22.33812	88976
22.34623	85856
22.35435	72968
22.36248	71045
22.37060	70095
22.37873	72709
22.38685	77783
22.39497	94843
22.40310	133877
22.41122	167722
22.41935	196416
22.42747	213518
22.43558	216528
22.44372	190205
22.45183	155194
22.45995	130981
22.46808	116900
22.47620	117923
22.48433	128832
22.49245	150186
22.50057	163626
22.50870	178575
22.51682	178907
22.52495	169454
22.53307	158957
22.54118	139965
22.54932	120248
22.55743	117954
22.56555	103258
22.57368	95453
22.58180	88146
22.58993	86264
22.59805	74756
22.60617	78238
22.61430	69292
22.62242	68963
22.63055	70729
22.63867	70468
22.64678	73614
22.65492	75339
22.66303	67824
22.67117	71386
22.67928	74041
22.68740	84961
22.69553	90460
22.70365	99653
22.71177	119319
22.71990	120662
22.72802	117056
22.73615	113594
22.74427	94801
22.75238	92325
22.76052	93251
22.76863	81905
22.77677	80919
22.78488	88133
22.79300	107642
22.80113	122265
22.80925	134177
22.81738	142852
22.82550	137795
22.83362	132826
22.84175	111111
22.84987	104477
22.85798	100693
22.86612	108723
22.87423	120259
22.88237	142864
22.89048	163099
22.89860	177966
22.90673	198541
22.91485	212555
22.92298	227933
22.93110	235224
22.93922	226636
22.94735	192599
22.95547	169729
22.96358	139513
22.97172	123820
22.97983	114744
22.98797	110734
22.99608	110239
23.00420	102016
23.01233	107045
23.02045	97876
23.02858	101250
23.03670	98568
23.04482	97477
23.05295	98991
23.06107	109268
23.06920	99609
23.07732	108423
23.08543	108467
23.09357	100745
23.10168	100671
23.10980	96505
23.11793	97729
23.12605	97293
23.13418	93028
23.14230	94692
23.15042	89159
23.15855	90302
23.16667	97395
23.17480	93353
23.18292	98324
23.19103	97231
23.19917	97054
23.20728	95550
23.21540	91772
23.22353	95101
23.23165	89460
23.23978	93095
23.24790	93066
23.25602	97914
23.26415	103405
23.27227	108192
23.28040	106719
23.28852	100985
23.29663	94686
23.30477	92668
23.31288	94011
23.32102	98791
23.32913	101351
23.33725	121041
23.34538	135542
23.35350	165661
23.36162	189569
23.36975	212807
23.37787	222172
23.38600	210622
23.39412	209220
23.40223	192092
23.41037	175849
23.41848	172321
23.42662	160982
23.43473	155695
23.44285	147181
23.45098	139223
23.45910	143045
23.46723	135956
23.47535	128455
23.48347	127907
23.49160	131602
23.49972	128292
23.50783	121927
23.51597	119969
23.52408	118581
23.53222	113269
23.54033	109378
23.54845	105005
23.55658	111658
23.56470	128434
23.57283	158668
23.58095	200180
23.58907	246244
23.59720	307658
23.60532	345581
23.61343	348764
23.62157	322607
23.62968	280867
23.63782	231524
23.64593	216358
23.65405	235165
23.66218	248209
23.67030	252458
23.67843	249030
23.68655	209539
23.69467	180583
23.70280	149540
23.71092	128843
23.71905	108536
23.72717	104801
23.73528	103979
23.74342	114254
23.75153	164996
23.75965	303328
23.76778	604282
23.77590	1095425
23.78403	1717563
23.79215	2260614
23.80027	2449367
23.80840	2450961
23.81652	2112206
23.82465	1665138
23.83277	1315452
23.84088	1012978
23.84902	794424
23.85713	646460
23.86527	536728
23.87338	450035
23.88150	395144
23.88963	350669
23.89775	333860
23.90587	323879
23.91400	295871
23.92212	285018
23.93025	273306
23.93837	241833
23.94648	232329
23.95462	213528
23.96273	192404
23.97087	185860
23.97898	177675
23.98710	175188
23.99523	185045
24.00335	228975
24.01147	349070
24.01960	581230
24.02772	839291
24.03585	1057768
24.04397	1136270
24.05208	1009102
24.06022	765463
24.06833	514963
24.07647	346362
24.08458	244425
24.09270	194270
24.10083	162802
24.10895	147733
24.11708	144110
24.12520	142344
24.13332	152129
24.14145	149877
24.14957	153808
24.15768	161916
24.16582	158093
24.17393	155439
24.18207	149759
24.19018	153934
24.19830	153807
24.20643	160083
24.21455	148683
24.22268	134320
24.23080	124046
24.23892	110844
24.24705	111324
24.25517	104055
24.26328	98407
24.27142	94080
24.27953	94313
24.28767	84498
24.29578	90576
24.30390	89776
24.31203	90774
24.32015	87255
24.32828	94680
24.33640	91203
24.34452	89637
24.35265	97091
24.36077	94920
24.36890	106868
24.37702	137671
24.38513	178933
24.39327	212852
24.40138	209262
24.40950	202537
24.41763	157369
24.42575	130970
24.43388	122145
24.44200	133910
24.45012	149899
24.45825	148881
24.46637	169191
24.47450	186171
24.48262	203519
24.49073	222658
24.49887	246322
24.50698	265270
24.51512	272641
24.52323	300053
24.53135	335727
24.53948	377406
24.54760	439559
24.55572	484735
24.56385	489096
24.57197	488567
24.58010	446457
24.58822	405380
24.59633	346451
24.60447	316274
24.61258	295560
24.62072	284201
24.62883	289662
24.63695	266945
24.64508	265846
24.65320	265031
24.66132	261255
24.66945	255037
24.67757	248502
24.68570	241558
24.69382	256392
24.70193	237416
24.71007	240736
24.71818	241559
24.72632	239431
24.73443	231161
24.74255	229117
24.75068	224124
24.75880	225704
24.76693	222551
24.77505	222502
24.78317	226113
24.79130	222937
24.79942	223552
24.80753	227382
24.81567	211777
24.82378	229226
24.83192	244012
24.84003	267893
24.84815	302321
24.85628	363564
24.86440	437422
24.87253	541589
24.88065	649632
24.88877	766575
24.89690	801457
24.90502	787034
24.91315	640636
24.92127	495374
24.92938	355758
24.93752	258898
24.94563	187889
24.95375	149887
24.96188	127468
24.97000	118529
24.97813	109102
24.98625	105170
24.99437	100622
25.00250	98860
25.01062	90809
25.01875	90049
25.02687	86616
25.03498	83332
25.04312	88913
25.05123	87098
25.05935	96028
25.06748	89691
25.07560	90777
25.08373	91098
25.09185	114252
25.09997	167231
25.10810	320612
25.11622	638993
25.12435	1301892
25.13247	2247115
25.14058	3272872
25.14872	3846223
25.15683	3757698
25.16497	3157297
25.17308	2295342
25.18120	1504181
25.18933	906399
25.19745	545491
25.20557	344742
25.21370	233226
25.22182	182629
25.22995	157650
25.23807	179228
25.24618	206599
25.25432	270380
25.26243	329398
25.27057	378521
25.27868	390224
25.28680	386368
25.29493	336266
25.30305	290804
25.31117	255363
25.31930	260559
25.32742	282031
25.33555	322273
25.34367	353201
25.35178	369958
25.35992	368993
25.36803	386055
25.37617	377755
25.38428	378938
25.39240	379261
25.40053	391418
25.40865	393712
25.41678	372713
25.42490	380042
25.43302	383747
25.44115	380492
25.44927	380462
25.45738	388319
25.46552	381104
25.47363	383331
25.48177	362679
25.48988	376788
25.49800	367513
25.50613	364932
25.51425	362595
25.52238	343620
25.53050	345033
25.53862	346657
25.54675	347740
25.55487	342150
25.56300	334208
25.57112	343180
25.57923	339094
25.58737	331445
25.59548	325840
25.60360	334260
25.61173	318098
25.61985	323218
25.62798	303752
25.63610	308864
25.64422	303994
25.65235	295363
25.66047	296876
25.66860	303797
25.67672	306448
25.68483	291456
25.69297	291838
25.70108	297753
25.70922	287139
25.71733	289429
25.72545	276903
25.73358	270579
25.74170	257538
25.74982	264010
25.75795	259001
25.76607	259136
25.77420	244729
25.78232	256580
25.79043	254087
25.79857	253040
25.80668	252202
25.81482	251835
25.82293	253487
25.83105	262175
25.83918	277186
25.84730	283607
25.85542	292231
25.86355	282822
25.87167	265717
25.87980	255176
25.88792	231270
25.89603	224506
25.90417	211664
25.91228	197398
25.92042	199869
25.92853	199690
25.93665	199231
25.94478	198944
25.95290	197891
25.96103	201800
25.96915	190311
25.97727	183880
25.98540	180183
25.99352	183404
26.00163	171755
26.00977	171874
26.01788	182232
26.02602	169148
26.03413	172865
26.04225	174587
26.05038	163207
26.05850	163198
26.06663	166514
26.07475	172296
26.08287	171123
26.09100	169307
26.09912	168679
26.10723	170201
26.11537	165185
26.12348	171473
26.13162	163886
26.13973	169023
26.14785	181334
26.15598	175613
26.16410	173756
26.17223	166635
26.18035	162521
26.18847	154029
26.19660	153216
26.20472	150032
26.21285	138848
26.22097	141443
26.22908	141630
26.23722	136232
26.24533	131348
26.25345	138839
26.26158	135063
26.26970	126045
26.27783	124351
26.28595	122218
26.29407	122923
26.30220	118058
26.31032	122411
26.31845	122155
26.32657	115121
26.33468	115489
26.34282	114383
26.35093	127789
26.35907	132279
26.36718	150500
26.37530	183067
26.38343	224106
26.39155	255397
26.39967	293488
26.40780	292822
26.41592	279604
26.42405	256767
26.43217	215604
26.44028	177453
26.44842	147022
26.45653	134915
26.46467	121106
26.47278	119587
26.48090	113071
26.48903	111502
26.49715	113726
26.50527	105846
26.51340	100395
26.52152	101084
26.52965	97530
26.53777	95699
26.54588	94360
26.55402	90255
26.56213	89654
26.57027	91265
26.57838	86980
26.58650	94500
26.59463	85112
26.60275	87762
26.61088	88513
26.61900	88405
26.62712	90255
26.63525	84261
26.64337	89474
26.65148	91086
26.65962	89545
26.66773	90843
26.67587	90880
26.68398	94625
26.69210	88258
26.70023	82351
26.70835	85366
26.71648	86306
26.72460	85462
26.73272	79823
26.74085	79702
26.74897	83590
26.75710	81460
26.76522	82122
26.77333	85342
26.78147	87146
26.78958	85066
26.79770	90530
26.80583	90810
26.81395	94336
26.82208	88094
26.83020	88832
26.83832	87391
26.84645	79785
26.85457	73677
26.86270	81999
26.87082	72882
26.87893	75327
26.88707	73989
26.89518	70020
26.90330	76665
26.91143	73687
26.91955	73428
26.92768	71050
26.93580	69313
26.94392	69769
26.95205	70101
26.96017	75209
26.96830	89458
26.97642	105918
26.98453	135406
26.99267	188720
27.00078	280149
27.00892	371549
27.01703	468782
27.02515	561466
27.03328	626784
27.04140	588177
27.04952	571643
27.05765	498843
27.06577	410046
27.07390	338995
27.08202	291858
27.09013	250842
27.09827	232008
27.10638	199958
27.11452	191844
27.12263	169490
27.13075	169847
27.13888	164724
27.14700	160874
27.15512	155197
27.16325	154181
27.17137	166154
27.17950	169431
27.18762	172611
27.19573	168467
27.20387	158758
27.21198	152163
27.22012	137257
27.22823	128923
27.23635	120907
27.24448	121967
27.25260	114078
27.26073	113268
27.26885	106257
27.27697	102912
27.28510	101632
27.29322	96695
27.30133	95898
27.30947	94251
27.31758	90392
27.32572	94651
27.33383	98316
27.34195	104198
27.35008	98279
27.35820	90503
27.36633	91377
27.37445	95913
27.38257	95171
27.39070	90786
27.39882	78898
27.40695	80153
27.41507	82582
27.42318	82973
27.43132	82460
27.43943	82693
27.44755	86914
27.45568	81083
27.46380	75315
27.47193	74000
27.48005	78501
27.48817	74720
27.49630	76158
27.50442	76954
27.51255	79531
27.52067	89318
27.52878	95496
27.53692	89832
27.54503	85307
27.55315	87104
27.56128	86192
27.56940	85356
27.57753	86675
27.58565	101228
27.59377	106491
27.60190	114946
27.61002	114733
27.61815	109810
27.62627	104028
27.63438	87387
27.64252	88452
27.65063	82986
27.65877	90527
27.66688	94759
27.67500	103798
27.68313	114406
27.69125	127606
27.69937	128576
27.70750	117949
27.71562	108092
27.72375	94255
27.73187	85090
27.73998	78482
27.74812	72296
27.75623	72245
27.76437	69563
27.77248	71820
27.78060	74426
27.78873	66877
27.79685	71275
27.80498	70577
27.81310	70323
27.82122	67289
27.82935	65729
27.83747	66045
27.84558	65184
27.85372	62252
27.86183	61515
27.86997	61300
27.87808	60359
27.88620	62673
27.89433	60038
27.90245	62441
27.91058	58883
27.91870	60978
27.92682	62792
27.93495	60769
27.94307	55908
27.95118	56027
27.95932	56289
27.96743	64381
27.97557	57261
27.98368	62224
27.99180	65238
27.99993	68285
28.00805	80580
28.01618	95925
28.02430	129791
28.03242	175240
28.04055	223791
28.04867	266263
28.05680	272420
28.06492	256103
28.07303	227067
28.08117	178785
28.08928	138137
28.09740	109630
28.10553	99195
28.11365	89240
28.12178	81809
28.12990	76664
28.13802	73012
28.14615	71695
28.15427	69930
28.16240	66403
28.17052	64478
28.17863	69158
28.18677	77338
28.19488	84305
28.20302	93892
28.21113	105639
28.21925	104989
28.22738	110044
28.23550	104249
28.24362	100608
28.25175	85097
28.25987	80471
28.26800	72169
28.27612	72816
28.28423	69111
28.29237	65258
28.30048	79437
28.30862	84998
28.31673	102779
28.32485	117354
28.33298	125151
28.34110	135422
28.34922	154998
28.35735	172854
28.36547	189285
28.37360	195722
28.38172	202186
28.38983	212388
28.39797	222245
28.40608	220896
28.41422	208541
28.42233	211246
28.43045	196272
28.43858	180119
28.44670	169898
28.45483	161850
28.46295	149188
28.47107	148420
28.47920	139771
28.48732	137144
28.49543	137458
28.50357	134597
28.51168	130104
28.51982	119620
28.52793	113617
28.53605	109249
28.54418	105452
28.55230	99455
28.56043	92139
28.56855	89622
28.57667	91200
28.58480	85944
28.59292	81163
28.60103	88945
28.60917	86824
28.61728	86270
28.62542	89878
28.63353	92496
28.64165	88163
28.64978	91813
28.65790	94777
28.66603	89862
28.67415	90218
28.68227	88388
28.69040	86204
28.69852	82259
28.70665	77017
28.71477	77121
28.72288	78661
28.73102	75861
28.73913	79451
28.74725	88129
28.75538	102828
28.76350	119577
28.77163	122047
28.77975	116125
28.78787	105622
28.79600	92307
28.80412	89537
28.81225	87576
28.82037	80475
28.82848	82289
28.83662	81892
28.84473	73166
28.85287	73590
28.86098	74111
28.86910	76192
28.87723	74227
28.88535	80953
28.89347	87047
28.90160	98420
28.90972	96217
28.91785	88053
28.92597	88718
28.93408	84623
28.94222	80526
28.95033	76340
28.95847	78071
28.96658	77396
28.97470	77633
28.98283	66295
28.99095	63504
28.99907	66700
29.00720	67646
29.01532	64966
29.02345	64822
29.03157	61388
29.03968	60345
29.04782	58354
29.05593	59256
29.06407	63957
29.07218	66524
29.08030	64873
29.08843	67000
29.09655	73581
29.10468	65659
29.11280	64797
29.12092	61261
29.12905	59206
29.13717	53204
29.14528	61469
29.15342	59180
29.16153	61514
29.16967	60919
29.17778	67720
29.18590	71069
29.19403	81615
29.20215	94924
29.21028	116507
29.21840	129915
29.22652	146359
29.23465	187223
29.24277	255800
29.25090	349122
29.25902	485369
29.26713	590604
29.27527	602988
29.28338	542108
29.29150	412037
29.29963	277096
29.30775	184737
29.31588	117884
29.32400	93571
29.33212	74345
29.34025	69402
29.34837	63641
29.35650	59192
29.36462	63300
29.37273	61081
29.38087	57383
29.38898	64029
29.39710	63375
29.40523	65155
29.41335	68757
29.42148	74236
29.42960	77247
29.43772	78986
29.44585	77344
29.45397	71153
29.46210	64929
29.47022	63373
29.47833	61018
29.48647	63443
29.49458	63156
29.50272	65694
29.51083	66412
29.51895	65398
29.52708	66284
29.53520	61285
29.54332	61938
29.55145	57871
29.55957	56166
29.56770	56444
29.57582	53557
29.58393	60445
29.59207	56702
29.60018	55689
29.60832	51567
29.61643	57876
29.62455	57655
29.63268	54011
29.64080	54905
29.64892	54907
29.65705	55028
29.66517	49983
29.67330	58847
29.68142	62116
29.68953	64697
29.69767	66109
29.70578	65511
29.71392	63497
29.72203	67693
29.73015	68461
29.73828	62151
29.74640	57934
29.75453	61840
29.76265	57474
29.77077	61803
29.77890	55423
29.78702	55327
29.79513	49692
29.80327	53086
29.81138	51397
29.81952	52702
29.82763	50956
29.83575	49862
29.84388	53506
29.85200	50262
29.86013	54009
29.86825	61335
29.87637	66713
29.88450	76671
29.89262	93826
29.90075	102126
29.90887	111777
29.91698	96590
29.92512	87887
29.93323	78808
29.94135	69818
29.94948	71433
29.95760	71104
29.96573	77336
29.97385	84139
29.98197	97067
29.99010	112006
29.99822	123453
30.00635	135704
30.01447	130127
30.02258	139585
30.03072	130756
30.03883	139591
30.04695	131459
30.05508	132490
30.06320	125032
30.07133	123314
30.07945	126088
30.08757	123189
30.09570	129645
30.10382	125953
30.11195	119382
30.12007	114993
30.12818	111936
30.13632	115559
30.14443	109322
30.15257	105109
30.16068	102335
30.16880	96225
30.17693	100576
30.18505	112505
30.19317	108369
30.20130	109889
30.20942	108293
30.21755	107335
30.22567	97312
30.23378	91970
30.24192	85236
30.25003	77440
30.25817	78419
30.26628	69248
30.27440	67508
30.28253	73893
30.29065	66557
30.29878	67140
30.30690	67315
30.31502	69837
30.32315	69494
30.33127	65967
30.33938	62400
30.34752	66874
30.35563	65150
30.36377	68858
30.37188	68242
30.38000	62158
30.38813	62133
30.39625	61222
30.40438	60291
30.41250	59954
30.42062	57611
30.42875	57173
30.43687	57554
30.44498	58512
30.45312	52146
30.46123	55573
30.46937	55664
30.47748	55330
30.48560	53649
30.49373	55799
30.50185	60631
30.50998	56721
30.51810	55360
30.52622	58687
30.53435	57311
30.54247	54705
30.55060	51637
30.55872	56864
30.56683	53464
30.57497	58202
30.58308	60079
30.59120	58118
30.59933	58180
30.60745	59981
30.61558	51024
30.62370	55332
30.63182	55797
30.63995	52959
30.64807	57393
30.65620	55009
30.66432	60652
30.67243	64180
30.68057	75133
30.68868	84048
30.69680	84795
30.70493	90012
30.71305	90259
30.72118	98055
30.72930	101554
30.73742	99432
30.74555	101153
30.75367	103614
30.76180	103208
30.76992	111262
30.77803	117741
30.78617	130669
30.79428	148861
30.80242	170831
30.81053	188413
30.81865	189797
30.82678	178954
30.83490	162438
30.84302	149923
30.85115	134791
30.85927	123313
30.86740	131209
30.87552	124884
30.88363	121902
30.89177	133934
30.89988	126970
30.90802	122338
30.91613	118013
30.92425	116490
30.93238	118339
30.94050	112426
30.94863	115179
30.95675	116566
30.96487	109374
30.97300	108940
30.98112	112031
30.98923	108402
30.99737	109733
31.00548	108141
31.01362	109912
31.02173	110076
31.02985	118750
31.03798	114356
31.04610	112356
31.05423	110529
31.06235	111242
31.07047	107189
31.07860	112234
31.08672	118301
31.09485	133871
31.10297	132790
31.11108	140231
31.11922	132721
31.12733	125135
31.13545	116673
31.14358	114133
31.15170	109362
31.15983	110584
31.16795	112312
31.17607	114391
31.18420	132552
31.19232	144114
31.20045	170258
31.20857	224063
31.21668	256268
31.22482	278885
31.23293	288137
31.24105	261564
31.24918	223131
31.25730	177399
31.26543	138660
31.27355	121893
31.28167	103126
31.28980	98783
31.29792	93139
31.30605	89618
31.31417	91482
31.32228	89852
31.33042	89804
31.33853	88718
31.34667	93326
31.35478	95933
31.36290	87874
31.37103	86575
31.37915	91402
31.38727	90028
31.39540	90999
31.40352	90753
31.41165	92417
31.41977	85591
31.42788	83884
31.43602	82545
31.44413	83211
31.45227	83829
31.46038	79872
31.46850	81946
31.47663	78031
31.48475	83576
31.49287	87076
31.50100	81697
31.50912	87618
31.51725	91453
31.52537	93559
31.53348	92379
31.54162	97801
31.54973	88994
31.55787	90111
31.56598	89099
31.57410	81761
31.58223	80550
31.59035	77947
31.59848	73750
31.60660	84692
31.61472	73841
31.62285	76200
31.63097	71691
31.63908	75166
31.64722	73469
31.65533	77891
31.66347	78766
31.67158	76286
31.67970	76478
31.68783	75299
31.69595	78089
31.70408	71541
31.71220	74338
31.72032	68822
31.72845	71579
31.73657	67711
31.74470	64575
31.75282	65898
31.76093	68517
31.76907	65504
31.77718	68374
31.78530	64112
31.79343	67668
31.80155	62791
31.80968	69140
31.81780	67693
31.82592	66851
31.83405	68241
31.84217	66189
31.85030	65353
31.85842	60540
31.86653	68022
31.87467	68781
31.88278	72702
31.89090	75127
31.89903	81207
31.90715	86608
31.91528	91125
31.92340	97413
31.93152	105703
31.93965	105050
31.94777	112551
31.95590	117027
31.96402	117761
31.97213	117599
31.98027	116364
31.98838	117463
31.99652	127895
32.00463	130238
32.01275	121955
32.02088	115246
32.02900	112245
32.03712	111679
32.04525	110983
32.05337	106165
32.06150	104800
32.06962	101731
32.07773	95300
32.08587	90597
32.09398	93512
32.10212	87309
32.11023	83847
32.11835	78555
32.12648	75440
32.13460	76875
32.14273	76193
32.15085	78084
32.15897	71484
32.16710	70404
32.17522	69769
32.18333	74390
32.19147	76070
32.19958	71291
32.20772	69958
32.21583	72181
32.22395	68607
32.23208	68771
32.24020	72370
32.24833	68483
32.25645	71422
32.26457	71959
32.27270	77718
32.28082	75529
32.28893	74838
32.29707	69279
32.30518	61224
32.31332	63399
32.32143	69186
32.32955	66184
32.33768	63322
32.34580	69410
32.35393	67111
32.36205	69574
32.37017	67251
32.37830	64758
32.38642	65025
32.39455	66915
32.40267	65806
32.41078	63851
32.41892	61431
32.42703	63472
32.43515	57116
32.44328	62210
32.45140	61679
32.45953	57562
32.46765	60105
32.47577	58202
32.48390	57236
32.49202	55838
32.50015	56084
32.50827	59279
32.51638	58763
32.52452	57865
32.53263	62140
32.54075	60555
32.54888	60490
32.55700	58130
32.56513	58068
32.57325	56695
32.58137	55088
32.58950	55567
32.59762	58541
32.60575	57432
32.61387	54857
32.62198	57965
32.63012	63223
32.63823	70701
32.64637	76640
32.65448	80902
32.66260	86739
32.67073	79456
32.67885	76759
32.68697	70133
32.69510	68854
32.70322	63245
32.71135	61773
32.71947	62864
32.72758	59663
32.73572	64325
32.74383	60761
32.75197	59355
32.76008	59129
32.76820	51808
32.77633	56989
32.78445	57410
32.79258	57153
32.80070	59248
32.80882	59676
32.81695	54541
32.82507	54082
32.83318	54133
32.84132	64205
32.84943	56076
32.85757	58363
32.86568	58442
32.87380	63426
32.88193	64289
32.89005	73842
32.89818	72153
32.90630	78695
32.91442	80647
32.92255	81277
32.93067	76522
32.93878	68243
32.94692	69612
32.95503	66497
32.96317	62968
32.97128	59075
32.97940	68307
32.98753	66177
32.99565	81420
33.00378	88236
33.01190	85941
33.02002	91658
33.02815	80605
33.03627	73502
33.04440	68361
33.05252	67000
33.06063	67066
33.06877	72227
33.07688	83420
33.08500	93763
33.09313	93200
33.10125	100827
33.10938	106410
33.11750	100433
33.12562	99844
33.13375	95684
33.14187	80922
33.15000	81982
33.15812	70649
33.16623	64888
33.17437	63231
33.18248	63669
33.19062	60179
33.19873	62585
33.20685	63093
33.21498	58650
33.22310	61132
33.23122	60839
33.23935	62047
33.24747	62374
33.25560	59831
33.26372	59726
33.27183	57621
33.27997	58962
33.28808	60992
33.29622	61673
33.30433	64877
33.31245	61739
33.32058	63086
33.32870	61345
33.33682	61201
33.34495	67658
33.35307	67111
33.36120	67759
33.36932	73382
33.37743	64528
33.38557	64606
33.39368	62500
33.40182	61761
33.40993	58552
33.41805	55430
33.42618	55648
33.43430	53774
33.44243	57880
33.45055	55894
33.45867	53081
33.46680	56670
33.47492	57424
33.48303	52709
33.49117	56776
33.49928	59996
33.50742	57255
33.51553	60207
33.52365	59371
33.53178	60532
33.53990	64292
33.54803	62050
33.55615	69108
33.56427	64698
33.57240	63301
33.58052	63265
33.58865	61583
33.59677	58002
33.60488	56794
33.61302	54247
33.62113	58174
33.62925	55032
33.63738	61530
33.64550	57482
33.65363	59268
33.66175	60575
33.66987	61711
33.67800	60092
33.68612	57682
33.69425	57619
33.70237	56715
33.71048	56878
33.71862	51400
33.72673	56781
33.73485	52875
33.74298	57623
33.75110	54554
33.75923	53139
33.76735	53974
33.77547	55587
33.78360	49763
33.79172	54332
33.79985	52112
33.80797	51546
33.81608	50970
33.82422	51900
33.83233	57865
33.84047	56912
33.84858	52353
33.85670	52567
33.86483	58453
33.87295	58296
33.88107	61791
33.88920	60040
33.89732	64093
33.90545	68029
33.91357	65357
33.92168	66800
33.92982	66482
33.93793	61123
33.94607	58251
33.95418	55351
33.96230	54072
33.97043	50931
33.97855	57489
33.98667	51663
33.99480	58142
34.00292	53620
34.01105	50689
34.01917	57164
34.02728	53839
34.03542	55523
34.04353	58781
34.05167	54411
34.05978	56723
34.06790	56603
34.07603	58369
34.08415	58364
34.09228	57456
34.10040	57143
34.10852	56543
34.11665	54646
34.12477	56198
34.13288	53445
34.14102	58162
34.14913	62144
34.15727	59406
34.16538	61785
34.17350	60228
34.18163	57621
34.18975	57819
34.19788	60606
34.20600	61438
34.21412	57296
34.22225	56961
34.23037	54949
34.23850	59279
34.24662	56989
34.25473	55923
34.26287	57294
34.27098	59170
34.27910	54083
34.28723	61299
34.29535	57525
34.30348	55338
34.31160	55508
34.31972	55264
34.32785	55395
34.33597	51243
34.34410	56753
34.35222	53808
34.36033	57757
34.36847	59221
34.37658	60615
34.38470	55210
34.39283	53028
34.40095	57253
34.40908	59064
34.41720	55548
34.42532	54094
34.43345	55045
34.44157	50671
34.44970	56857
34.45782	64446
34.46593	56615
34.47407	55613
34.48218	54649
34.49032	55467
34.49843	61213
34.50655	63264
34.51468	77815
34.52280	82232
34.53092	89537
34.53905	99588
34.54717	102567
34.55530	110206
34.56342	110166
34.57153	104143
34.57967	104265
34.58778	94734
34.59592	87637
34.60403	87574
34.61215	79839
34.62028	79386
34.62840	73897
34.63653	71200
34.64465	70313
34.65277	68230
34.66090	66158
34.66902	67568
34.67713	69645
34.68527	62299
34.69338	64142
34.70152	63512
34.70963	62739
34.71775	62740
34.72588	63013
34.73400	62697
34.74213	62633
34.75025	63079
34.75837	62794
34.76650	62849
34.77462	62192
34.78273	64916
34.79087	65212
34.79898	70055
34.80712	66003
34.81523	70180
34.82335	65796
34.83148	66626
34.83960	63495
34.84773	63347
34.85585	65319
34.86397	64448
34.87210	61745
34.88022	63904
34.88835	61140
34.89647	65787
34.90458	61556
34.91272	60597
34.92083	60840
34.92895	66341
34.93708	62738
34.94520	65415
34.95333	67763
34.96145	74790
34.96957	76724
34.97770	77612
34.98582	75996
34.99395	74828
35.00207	69356
35.01018	70700
35.01832	64478
35.02643	64247
35.03455	59327
35.04268	62860
35.05080	56262
35.05893	61492
35.06705	60284
35.07517	62607
35.08330	57850
35.09142	62369
35.09955	57981
35.10767	53617
35.11578	59845
35.12392	59465
35.13203	61838
35.14017	60323
35.14828	62370
35.15640	61662
35.16453	62274
35.17265	59190
35.18077	58098
35.18890	52891
35.19702	55942
35.20515	56338
35.21327	56277
35.22138	56370
35.22952	52989
35.23763	56528
35.24577	52886
35.25388	59203
35.26200	53697
35.27013	54663
35.27825	65075
35.28638	58787
35.29450	53681
35.30262	58393
35.31075	55736
35.31887	56366
35.32698	57879
35.33512	54727
35.34323	54493
35.35137	56202
35.35948	52916
35.36760	57592
35.37573	59605
35.38385	66434
35.39198	67186
35.40010	82316
35.40822	84634
35.41635	99521
35.42447	113296
35.43258	117707
35.44072	112915
35.44883	107047
35.45697	97287
35.46508	90704
35.47320	74873
35.48133	70732
35.48945	66363
35.49758	69201
35.50570	62078
35.51382	61838
35.52195	62525
35.53007	61017
35.53820	59936
35.54632	60238
35.55443	57338
35.56257	59164
35.57068	61599
35.57880	58058
35.58693	57218
35.59505	61672
35.60318	53204
35.61130	53870
35.61942	65037
35.62755	61017
35.63567	54648
35.64380	57658
35.65192	59692
35.66003	60665
35.66817	64822
35.67628	59922
35.68442	58428
35.69253	64160
35.70065	58195
35.70878	60981
35.71690	61721
35.72502	61137
35.73315	63763
35.74127	65034
35.74940	68284
35.75752	70060
35.76563	72836
35.77377	71495
35.78188	73729
35.79002	66112
35.79813	62460
35.80625	64770
35.81438	61562
35.82250	60480
35.83062	58671
35.83875	62768
35.84687	60617
35.85500	58523
35.86312	59144
35.87123	61818
35.87937	60250
35.88748	57393
35.89562	56574
35.90373	55237
35.91185	58351
35.91998	60855
35.92810	58418
35.93623	58378
35.94435	61867
35.95247	59255
35.96060	61353
35.96872	54600
35.97683	59477
35.98497	58253
35.99308	67240
36.00122	64049
36.00933	66353
36.01745	61777
36.02558	61993
36.03370	65424
36.04183	63866
36.04995	61149
36.05807	56957
36.06620	61642
36.07432	60505
36.08243	57575
36.09057	62730
36.09868	62200
36.10682	62508
36.11493	59776
36.12305	67094
36.13118	65371
36.13930	68047
36.14743	65111
36.15555	64662
36.16367	67500
36.17180	60182
36.17992	62033
36.18805	63795
36.19617	63280
36.20428	66245
36.21242	68812
36.22053	70574
36.22865	75672
36.23678	82366
36.24490	76272
36.25303	81066
36.26115	84558
36.26927	91702
36.27740	89603
36.28552	102974
36.29365	112493
36.30177	116119
36.30988	111720
36.31802	114468
36.32613	108725
36.33427	101251
36.34238	104895
36.35050	96708
36.35863	98132
36.36675	93532
36.37487	94342
36.38300	97659
36.39112	98966
36.39925	95175
36.40737	93382
36.41548	91857
36.42362	97446
36.43173	96304
36.43987	93977
36.44798	95671
36.45610	97646
36.46423	93262
36.47235	89808
36.48048	92108
36.48860	90691
36.49672	91735
36.50485	88491
36.51297	88164
36.52108	92029
36.52922	95026
36.53733	94968
36.54547	89674
36.55358	92436
36.56170	89455
36.56983	86512
36.57795	87618
36.58608	89823
36.59420	91775
36.60232	83872
36.61045	88091
36.61857	91175
36.62668	87664
36.63482	91219
36.64293	86792
36.65107	92413
36.65918	92125
36.66730	81455
36.67543	83779
36.68355	83918
36.69168	88887
36.69980	81183
36.70792	81827
36.71605	86910
36.72417	88932
36.73230	88147
36.74042	83186
36.74853	84979
36.75667	82478
36.76478	87612
36.77290	85140
36.78103	82839
36.78915	85231
36.79728	89469
36.80540	83235
36.81352	82356
36.82165	77994
36.82977	80554
36.83790	79145
36.84602	74749
36.85413	80965
36.86227	79506
36.87038	79013
36.87850	80928
36.88663	75803
36.89475	78102
36.90288	85223
36.91100	75096
36.91912	81676
36.92725	80932
36.93537	84882
36.94350	89076
36.95162	89067
36.95973	102423
36.96787	104979
36.97598	101472
36.98412	103780
36.99223	100068
37.00035	88765
37.00848	88333
37.01660	81322
37.02472	75771
37.03285	81392
37.04097	77313
37.04910	77224
37.05722	77097
37.06533	77762
37.07347	76644
37.08158	76972
37.08972	76867
37.09783	78195
37.10595	80052
37.11408	80177
37.12220	78132
37.13033	74993
37.13845	76237
37.14657	79900
37.15470	79878
37.16282	73018
37.17093	76621
37.17907	75200
37.18718	76638
37.19532	76817
37.20343	77083
37.21155	75696
37.21968	78449
37.22780	75719
37.23593	72627
37.24405	71648
37.25217	74225
37.26030	67899
37.26842	73459
37.27653	74585
37.28467	73442
37.29278	74406
37.30092	76939
37.30903	81066
37.31715	86708
37.32528	101595
37.33340	102302
37.34153	114912
37.34965	114050
37.35777	115365
37.36590	108732
37.37402	108588
37.38215	101413
37.39027	97258
37.39838	93900
37.40652	93972
37.41463	91681
37.42275	96078
37.43088	90529
37.43900	94145
37.44713	91992
37.45525	84539
37.46337	89444
37.47150	89135
37.47962	85081
37.48775	82089
