Z:\data\JTB-E02\CS_Samples\JTB-E18-003-09.D Wed Apr 03 12:19:55 2019
Start of data points
2.09523	96830
2.10335	96366
2.11148	93875
2.11960	97136
2.12773	95162
2.13585	95785
2.14397	95783
2.15210	92025
2.16022	86832
2.16835	86140
2.17647	82881
2.18458	79476
2.19272	77212
2.20083	77066
2.20895	78142
2.21708	79417
2.22520	92981
2.23333	266878
2.24145	710116
2.24957	843623
2.25770	1120885
2.26582	486733
2.27395	366160
2.28207	321742
2.29018	330468
2.29832	296073
2.30643	229121
2.31457	210681
2.32268	173688
2.33080	144248
2.33893	300991
2.34705	304944
2.35517	786035
2.36330	1926351
2.37142	2896086
2.37955	3545502
2.38767	3493178
2.39578	1.595795E+07
2.40392	1.343207E+07
2.41203	8829502
2.42017	8252941
2.42828	7736756
2.43640	7459013
2.44453	6962840
2.45265	6510372
2.46077	6130730
2.46890	5762378
2.47702	5400930
2.48515	4927228
2.49327	4511116
2.50138	4245339
2.50952	3828818
2.51763	3348745
2.52577	2741938
2.53388	2077285
2.54200	1564365
2.55013	1201453
2.55825	953387
2.56638	772054
2.57450	648664
2.58262	577876
2.59075	501454
2.59887	450896
2.60698	382447
2.61512	327996
2.62323	293179
2.63137	270881
2.63948	269123
2.64760	283270
2.65573	334834
2.66385	592285
2.67198	1223488
2.68010	1210972
2.68822	3159519
2.69635	5036956
2.70447	3765963
2.71260	3005972
2.72072	2883344
2.72883	2786218
2.73697	2715172
2.74508	2610273
2.75320	2492954
2.76133	2357143
2.76945	2283256
2.77758	2198239
2.78570	2096815
2.79382	1951301
2.80195	1840651
2.81007	1724662
2.81820	1591905
2.82632	1411973
2.83443	1191785
2.84257	956376
2.85068	763197
2.85880	610513
2.86693	482417
2.87505	396720
2.88318	335255
2.89130	293410
2.89942	262348
2.90755	228379
2.91567	188414
2.92380	171219
2.93192	154451
2.94003	152652
2.94817	149402
2.95628	142615
2.96442	143753
2.97253	143907
2.98065	146214
2.98878	132699
2.99690	124061
3.00502	118440
3.01315	126685
3.02127	125576
3.02940	112495
3.03752	111708
3.04563	109638
3.05377	109637
3.06188	115341
3.07002	114436
3.07813	136928
3.08625	148985
3.09438	156597
3.10250	134441
3.11062	108418
3.11875	105217
3.12687	103482
3.13500	97794
3.14312	96795
3.15123	107100
3.15937	110004
3.16748	106605
3.17562	102298
3.18373	93292
3.19185	89028
3.19998	91935
3.20810	90810
3.21623	86623
3.22435	88934
3.23247	88338
3.24060	95183
3.24872	99128
3.25683	102837
3.26497	106465
3.27308	101876
3.28122	88742
3.28933	82692
3.29745	84021
3.30558	86411
3.31370	82714
3.32183	81495
3.32995	86052
3.33807	85908
3.34620	80704
3.35432	93673
3.36245	147310
3.37057	317749
3.37868	780023
3.38682	1329564
3.39493	1351009
3.40305	1341056
3.41118	1495787
3.41930	1614834
3.42743	1667741
3.43555	1741703
3.44367	1746639
3.45180	1776159
3.45992	1826665
3.46805	1861042
3.47617	1864735
3.48428	1922280
3.49242	1937811
3.50053	1987943
3.50867	2012595
3.51678	2079016
3.52490	2127202
3.53303	2221454
3.54115	2253158
3.54927	2327435
3.55740	2387678
3.56552	2508519
3.57365	2599889
3.58177	2730286
3.58988	2856634
3.59802	2994081
3.60613	3147929
3.61427	3273115
3.62238	3612822
3.63050	3983731
3.63863	4085435
3.64675	3092851
3.65487	1343249
3.66300	410931
3.67112	233100
3.67925	225784
3.68737	802739
3.69548	4.808251E+07
3.70362	4.956696E+07
3.71173	5.096062E+07
3.71987	5.236814E+07
3.72798	5.404817E+07
3.73610	5.524464E+07
3.74423	5.671597E+07
3.75235	5.833338E+07
3.76048	5.999783E+07
3.76860	6.153733E+07
3.77672	6.305441E+07
3.78485	6.472674E+07
3.79297	6.61993E+07
3.80108	6.785581E+07
3.80922	6.931875E+07
3.81733	7.100774E+07
3.82547	7.254678E+07
3.83358	7.408884E+07
3.84170	7.559082E+07
3.84983	7.721611E+07
3.85795	7.896823E+07
3.86608	8.052184E+07
3.87420	8.213476E+07
3.88232	8.373566E+07
3.89045	8.531462E+07
3.89857	8.708987E+07
3.90668	8.884253E+07
3.91482	9.061073E+07
3.92293	9.225285E+07
3.93107	9.401246E+07
3.93918	9.57113E+07
3.94730	9.747338E+07
3.95543	9.934723E+07
3.96355	1.010308E+08
3.97168	1.028626E+08
3.97980	1.045363E+08
3.98792	1.06527E+08
3.99605	1.084004E+08
4.00417	1.101686E+08
4.01230	1.121278E+08
4.02042	1.138484E+08
4.02853	1.158988E+08
4.03667	1.175476E+08
4.04478	1.195916E+08
4.05290	1.216797E+08
4.06103	1.235732E+08
4.06915	1.253277E+08
4.07728	1.272285E+08
4.08540	1.289788E+08
4.09352	1.308245E+08
4.10165	1.324496E+08
4.10977	1.341839E+08
4.11790	1.356514E+08
4.12602	1.372108E+08
4.13413	1.387436E+08
4.14227	1.398438E+08
4.15038	1.410078E+08
4.15852	1.421863E+08
4.16663	1.430506E+08
4.17475	1.436969E+08
4.18288	1.443596E+08
4.19100	1.448622E+08
4.19912	1.449365E+08
4.20725	1.448809E+08
4.21537	1.443466E+08
4.22350	1.439166E+08
4.23162	1.429119E+08
4.23973	1.415696E+08
4.24787	1.400496E+08
4.25598	1.376961E+08
4.26412	1.353721E+08
4.27223	1.324066E+08
4.28035	1.291262E+08
4.28848	1.25631E+08
4.29660	1.223293E+08
4.30472	1.194498E+08
4.31285	1.172424E+08
4.32097	1.15354E+08
4.32910	1.14301E+08
4.33722	1.131355E+08
4.34533	1.126929E+08
4.35347	1.118574E+08
4.36158	1.105759E+08
4.36972	1.096022E+08
4.37783	1.088398E+08
4.38595	1.080599E+08
4.39408	1.077636E+08
4.40220	1.07215E+08
4.41033	1.066585E+08
4.41845	1.05772E+08
4.42657	1.049798E+08
4.43470	1.044623E+08
4.44282	1.040988E+08
4.45093	1.035031E+08
4.45907	1.030172E+08
4.46718	1.027438E+08
4.47532	1.020124E+08
4.48343	1.015512E+08
4.49155	1.013823E+08
4.49968	1.009997E+08
4.50780	1.007199E+08
4.51593	1.004513E+08
4.52405	1.000758E+08
4.53217	9.970866E+07
4.54030	9.965623E+07
4.54842	9.943068E+07
4.55655	9.899458E+07
4.56467	9.870906E+07
4.57278	9.843082E+07
4.58092	9.841293E+07
4.58903	9.807271E+07
4.59715	9.798742E+07
4.60528	9.754151E+07
4.61340	9.717028E+07
4.62153	9.710354E+07
4.62965	9.698545E+07
4.63777	9.678114E+07
4.64590	9.661177E+07
4.65402	9.645998E+07
4.66215	9.626281E+07
4.67027	9.640694E+07
4.67838	9.623666E+07
4.68652	9.611288E+07
4.69463	9.600595E+07
4.70275	9.577974E+07
4.71088	9.551542E+07
4.71900	9.532335E+07
4.72713	9.531807E+07
4.73525	9.521711E+07
4.74337	9.504649E+07
4.75150	9.495822E+07
4.75962	9.492285E+07
4.76775	9.466683E+07
4.77587	9.46169E+07
4.78398	9.450047E+07
4.79212	9.449108E+07
4.80023	9.437873E+07
4.80837	9.442302E+07
4.81648	9.420502E+07
4.82460	9.405882E+07
4.83273	9.403433E+07
4.84085	9.392581E+07
4.84897	9.376071E+07
4.85710	9.379473E+07
4.86522	9.353551E+07
4.87335	9.365773E+07
4.88147	9.35232E+07
4.88958	9.354683E+07
4.89772	9.331961E+07
4.90583	9.337255E+07
4.91397	9.313461E+07
4.92208	9.299329E+07
4.93020	9.300974E+07
4.93833	9.290214E+07
4.94645	9.276323E+07
4.95457	9.266896E+07
4.96270	9.260378E+07
4.97082	9.234352E+07
4.97895	9.217593E+07
4.98707	9.223694E+07
4.99518	9.215187E+07
5.00332	9.208504E+07
5.01143	9.183759E+07
5.01957	9.180094E+07
5.02768	9.164117E+07
5.03580	9.140563E+07
5.04393	9.134313E+07
5.05205	9.130012E+07
5.06018	9.111092E+07
5.06830	9.111255E+07
5.07642	9.074586E+07
5.08455	9.060056E+07
5.09267	9.057541E+07
5.10078	9.036227E+07
5.10892	9.028986E+07
5.11703	9.014082E+07
5.12517	8.996307E+07
5.13328	8.979677E+07
5.14140	8.963137E+07
5.14953	8.95564E+07
5.15765	8.93135E+07
5.16578	8.925918E+07
5.17390	8.910851E+07
5.18202	8.894847E+07
5.19015	8.887086E+07
5.19827	8.864706E+07
5.20640	8.859367E+07
5.21452	8.866223E+07
5.22263	8.847138E+07
5.23077	8.8449E+07
5.23888	8.816585E+07
5.24700	8.789364E+07
5.25513	8.755705E+07
5.26325	8.737438E+07
5.27138	8.719852E+07
5.27950	8.701194E+07
5.28762	8.691479E+07
5.29575	8.698905E+07
5.30387	8.68005E+07
5.31200	8.648188E+07
5.32012	8.650645E+07
5.32823	8.629921E+07
5.33637	8.616983E+07
5.34448	8.602063E+07
5.35260	8.583702E+07
5.36073	8.575315E+07
5.36885	8.595705E+07
5.37698	8.594172E+07
5.38510	8.582911E+07
5.39322	8.527781E+07
5.40135	8.501222E+07
5.40947	8.470706E+07
5.41760	8.455652E+07
5.42572	8.430946E+07
5.43383	8.416474E+07
5.44197	8.402342E+07
5.45008	8.399609E+07
5.45822	8.377239E+07
5.46633	8.364819E+07
5.47445	8.365633E+07
5.48258	8.334493E+07
5.49070	8.32612E+07
5.49882	8.298902E+07
5.50695	8.284531E+07
5.51507	8.273182E+07
5.52320	8.265587E+07
5.53132	8.297345E+07
5.53943	8.395111E+07
5.54757	8.573711E+07
5.55568	8.662046E+07
5.56382	8.608997E+07
5.57193	8.40261E+07
5.58005	8.232057E+07
5.58818	8.162874E+07
5.59630	8.129816E+07
5.60443	8.104856E+07
5.61255	8.078411E+07
5.62067	8.065276E+07
5.62880	8.046651E+07
5.63692	8.036607E+07
5.64503	8.017609E+07
5.65317	8.034062E+07
5.66128	8.046043E+07
5.66942	8.063408E+07
5.67753	8.075648E+07
5.68565	8.0409E+07
5.69378	7.94715E+07
5.70190	7.87941E+07
5.71003	7.83279E+07
5.71815	7.793837E+07
5.72627	7.769098E+07
5.73440	7.761192E+07
5.74252	7.737944E+07
5.75063	7.706303E+07
5.75877	7.697068E+07
5.76688	7.685362E+07
5.77502	7.672325E+07
5.78313	7.653866E+07
5.79125	7.646226E+07
5.79938	7.606842E+07
5.80750	7.584042E+07
5.81563	7.506396E+07
5.82375	7.502467E+07
5.83187	7.510123E+07
5.84000	7.622885E+07
5.84812	7.635404E+07
5.85625	7.621223E+07
5.86437	7.656619E+07
5.87248	7.613367E+07
5.88062	7.58799E+07
5.88873	7.562152E+07
5.89685	7.595648E+07
5.90498	7.564638E+07
5.91310	7.549573E+07
5.92123	7.542269E+07
5.92935	7.52338E+07
5.93747	7.496738E+07
5.94560	7.511774E+07
5.95372	7.501227E+07
5.96185	7.467138E+07
5.96997	7.454269E+07
5.97808	7.445095E+07
5.98622	7.429901E+07
5.99433	7.40975E+07
6.00247	7.389356E+07
6.01058	7.382359E+07
6.01870	7.369402E+07
6.02683	7.361941E+07
6.03495	7.344881E+07
6.04307	7.321676E+07
6.05120	7.321008E+07
6.05932	7.299703E+07
6.06745	7.295324E+07
6.07557	7.245734E+07
6.08368	7.221618E+07
6.09182	7.212958E+07
6.09993	7.203887E+07
6.10807	7.185363E+07
6.11618	7.182628E+07
6.12430	7.184013E+07
6.13243	7.184096E+07
6.14055	7.179522E+07
6.14867	7.149431E+07
6.15680	7.121834E+07
6.16492	7.089027E+07
6.17305	7.062381E+07
6.18117	7.06937E+07
6.18928	7.053348E+07
6.19742	7.049053E+07
6.20553	7.040174E+07
6.21367	7.011174E+07
6.22178	7.012058E+07
6.22990	7.000675E+07
6.23803	6.998638E+07
6.24615	6.979527E+07
6.25428	6.973162E+07
6.26240	6.923322E+07
6.27052	6.911007E+07
6.27865	6.893809E+07
6.28677	6.890543E+07
6.29488	6.884819E+07
6.30302	6.869764E+07
6.31113	6.881674E+07
6.31927	6.877455E+07
6.32738	6.841955E+07
6.33550	6.804431E+07
6.34363	6.810596E+07
6.35175	6.837832E+07
6.35988	6.809891E+07
6.36800	6.787898E+07
6.37612	6.773826E+07
6.38425	6.768343E+07
6.39237	6.734847E+07
6.40048	6.725241E+07
6.40862	6.730932E+07
6.41673	6.713185E+07
6.42487	6.730899E+07
6.43298	6.725656E+07
6.44110	6.70181E+07
6.44923	6.671922E+07
6.45735	6.666349E+07
6.46548	6.625519E+07
6.47360	6.614362E+07
6.48172	6.619026E+07
6.48985	6.540912E+07
6.49797	5.84001E+07
6.50610	3.634084E+07
6.51422	8520299
6.52233	1040607
6.53047	472650
6.53858	428417
6.54670	425833
6.55483	410826
6.56295	401619
6.57108	391990
6.57920	390158
6.58732	392473
6.59545	383621
6.60357	387554
6.61170	386303
6.61982	375753
6.62793	377196
6.63607	365255
6.64418	359402
6.65232	360781
6.66043	367295
6.66855	366730
6.67668	357874
6.68480	347683
6.69292	358099
6.70105	353202
6.70917	352288
6.71730	345295
6.72542	350478
6.73353	337543
6.74167	345738
6.74978	328320
6.75792	333561
6.76603	339296
6.77415	332194
6.78228	327067
6.79040	326560
6.79852	328083
6.80665	332074
6.81477	323264
6.82290	322073
6.83102	320224
6.83913	319191
6.84727	327363
6.85538	327769
6.86352	337979
6.87163	341318
6.87975	341136
6.88788	341438
6.89600	335768
6.90413	315811
6.91225	311346
6.92037	312867
6.92850	317855
6.93662	314848
6.94473	310315
6.95287	298991
6.96098	306768
6.96912	303185
6.97723	317014
6.98535	325526
6.99348	356530
7.00160	384711
7.00973	400522
7.01785	407603
7.02597	375000
7.03410	343947
7.04222	321514
7.05035	303365
7.05847	305756
7.06658	289795
7.07472	287305
7.08283	285004
7.09095	285636
7.09908	276482
7.10720	275616
7.11533	280265
7.12345	273283
7.13157	267457
7.13970	273043
7.14782	274058
7.15595	274228
7.16407	262501
7.17218	258959
7.18032	264707
7.18843	273953
7.19655	266400
7.20468	270542
7.21280	276244
7.22093	271858
7.22905	270922
7.23717	268197
7.24530	261552
7.25342	272113
7.26155	257742
7.26967	269158
7.27778	260363
7.28592	261176
7.29403	258393
7.30217	254802
7.31028	256720
7.31840	246188
7.32653	250410
7.33465	252736
7.34277	262303
7.35090	250403
7.35902	245344
7.36715	253856
7.37527	240675
7.38338	248949
7.39152	253411
7.39963	243809
7.40777	243788
7.41588	245334
7.42400	249870
7.43213	251951
7.44025	238600
7.44837	239761
7.45650	234720
7.46462	242663
7.47275	238368
7.48087	243975
7.48898	234701
7.49712	232793
7.50523	233190
7.51337	232348
7.52148	233626
7.52960	225974
7.53773	224700
7.54585	226705
7.55398	240390
7.56210	230689
7.57022	230800
7.57835	227700
7.58647	221708
7.59458	227505
7.60272	226669
7.61083	221281
7.61897	226451
7.62708	223183
7.63520	219672
7.64333	219853
7.65145	226187
7.65958	215379
7.66770	216818
7.67582	221136
7.68395	217827
7.69207	212517
7.70020	212743
7.70832	214089
7.71643	210858
7.72457	219757
7.73268	222624
7.74080	218159
7.74893	213587
7.75705	218265
7.76518	209175
7.77330	219636
7.78142	215276
7.78955	210914
7.79767	211334
7.80580	217380
7.81392	199824
7.82203	223413
7.83017	209236
7.83828	201612
7.84640	202496
7.85453	198308
7.86265	203255
7.87078	204042
7.87890	205248
7.88702	200436
7.89515	190550
7.90327	189278
7.91140	197769
7.91952	195647
7.92763	198491
7.93577	194816
7.94388	186529
7.95202	195200
7.96013	193319
7.96825	196202
7.97638	192247
7.98450	192716
7.99262	199966
8.00075	190799
8.00887	185316
8.01700	191115
8.02512	189260
8.03323	184917
8.04137	188282
8.04948	193133
8.05762	187492
8.06573	184321
8.07385	191167
8.08198	185442
8.09010	185617
8.09823	177255
8.10635	182331
8.11447	180734
8.12260	183017
8.13072	181168
8.13883	181718
8.14697	177129
8.15508	180565
8.16322	176347
8.17133	175006
8.17945	175863
8.18758	172220
8.19570	183033
8.20383	184603
8.21195	183850
8.22007	177679
8.22820	178113
8.23632	173675
8.24443	176277
8.25257	175104
8.26068	173771
8.26882	167976
8.27693	182147
8.28505	178705
8.29318	177350
8.30130	176820
8.30943	172981
8.31755	176070
8.32567	172223
8.33380	173453
8.34192	174226
8.35005	176962
8.35817	174889
8.36628	169908
8.37442	175249
8.38253	168969
8.39065	165139
8.39878	168822
8.40690	170701
8.41503	161919
8.42315	164291
8.43127	170395
8.43940	167518
8.44752	169886
8.45565	167271
8.46377	170117
8.47188	158896
8.48002	169617
8.48813	154854
8.49625	164811
8.50438	164270
8.51250	161779
8.52063	158506
8.52875	164531
8.53687	166464
8.54500	168395
8.55312	160012
8.56125	158678
8.56937	163837
8.57748	157868
8.58562	159176
8.59373	164355
8.60187	158609
8.60998	162133
8.61810	164231
8.62623	158280
8.63435	170742
8.64247	161682
8.65060	162324
8.65872	167009
8.66685	156144
8.67497	163604
8.68308	152109
8.69122	158934
8.69933	156311
8.70747	156222
8.71558	155105
8.72370	149903
8.73183	151623
8.73995	152778
8.74808	153294
8.75620	153848
8.76432	158938
8.77245	150012
8.78057	157008
8.78868	160876
8.79682	169183
8.80493	193084
8.81307	213367
8.82118	248590
8.82930	268876
8.83743	251312
8.84555	212690
8.85368	184941
8.86180	164018
8.86992	158610
8.87805	154963
8.88617	156989
8.89430	153046
8.90242	153367
8.91053	158850
8.91867	146715
8.92678	150423
8.93490	149327
8.94303	151004
8.95115	146950
8.95928	153761
8.96740	155089
8.97552	147776
8.98365	146346
8.99177	154406
8.99990	154222
9.00802	148789
9.01613	144313
9.02427	149033
9.03238	150111
9.04050	144411
9.04863	144983
9.05675	147588
9.06488	150527
9.07300	145320
9.08112	150861
9.08925	146733
9.09737	141994
9.10550	137850
9.11362	145847
9.12173	140966
9.12987	145603
9.13798	138289
9.14612	141748
9.15423	149706
9.16235	142842
9.17048	145951
9.17860	144491
9.18672	141382
9.19485	142949
9.20297	139891
9.21110	145357
9.21922	149097
9.22733	157405
9.23547	162681
9.24358	168399
9.25172	162059
9.25983	157905
9.26795	152156
9.27608	144645
9.28420	138725
9.29232	135991
9.30045	138170
9.30857	137309
9.31670	135081
9.32482	141194
9.33293	139983
9.34107	138533
9.34918	138526
9.35732	133725
9.36543	133026
9.37355	134201
9.38168	133638
9.38980	136632
9.39793	143394
9.40605	134003
9.41417	130623
9.42230	135124
9.43042	132881
9.43853	139193
9.44667	134212
9.45478	135388
9.46292	133629
9.47103	127208
9.47915	137337
9.48728	132754
9.49540	139028
9.50353	138192
9.51165	136437
9.51977	138867
9.52790	142601
9.53602	141926
9.54415	139374
9.55227	135281
9.56038	131699
9.56852	126667
9.57663	134798
9.58475	132920
9.59288	130486
9.60100	132506
9.60913	131052
9.61725	141222
9.62537	137576
9.63350	137501
9.64162	134407
9.64975	131626
9.65787	129510
9.66598	132492
9.67412	127701
9.68223	128076
9.69035	120716
9.69848	128235
9.70660	131344
9.71473	127403
9.72285	126297
9.73097	128478
9.73910	123063
9.74722	125435
9.75535	123050
9.76347	125803
9.77158	126161
9.77972	126529
9.78783	115326
9.79597	125111
9.80408	117391
9.81220	123072
9.82033	127752
9.82845	123155
9.83657	121727
9.84470	125725
9.85282	129566
9.86095	127189
9.86907	122054
9.87718	127626
9.88532	130350
9.89343	121389
9.90157	122127
9.90968	120204
9.91780	116460
9.92593	116525
9.93405	121083
9.94218	121344
9.95030	126039
9.95842	119629
9.96655	125690
9.97467	120991
9.98278	130895
9.99092	125329
9.99903	125888
10.00717	119158
10.01528	117900
10.02340	119908
10.03153	124000
10.03965	116995
10.04778	123329
10.05590	124648
10.06402	121211
10.07215	121746
10.08027	116964
10.08838	125830
10.09652	114759
10.10463	120302
10.11277	115014
10.12088	123919
10.12900	123061
10.13713	116017
10.14525	115891
10.15338	121410
10.16150	118441
10.16962	114397
10.17775	112253
10.18587	119478
10.19400	117710
10.20212	113850
10.21023	116144
10.21837	117355
10.22648	123118
10.23460	123563
10.24273	116768
10.25085	122882
10.25898	126478
10.26710	119654
10.27522	121895
10.28335	124721
10.29147	124163
10.29960	116475
10.30772	115973
10.31583	109918
10.32397	112230
10.33208	115326
10.34020	117357
10.34833	120699
10.35645	120026
10.36458	125815
10.37270	129300
10.38082	135025
10.38895	126666
10.39707	120416
10.40520	116357
10.41332	122621
10.42143	107047
10.42957	108467
10.43768	115129
10.44582	114736
10.45393	111412
10.46205	107365
10.47018	116687
10.47830	112060
10.48642	113588
10.49455	112798
10.50267	109666
10.51080	109729
10.51892	113463
10.52703	106233
10.53517	107941
10.54328	107475
10.55142	114698
10.55953	107865
10.56765	108493
10.57578	111584
10.58390	108417
10.59203	111758
10.60015	110140
10.60827	109847
10.61640	107722
10.62452	109325
10.63263	111598
10.64077	109089
10.64888	109961
10.65702	104821
10.66513	104922
10.67325	107039
10.68138	111403
10.68950	107535
10.69763	105272
10.70575	108151
10.71387	103990
10.72200	111011
10.73012	112345
10.73823	106728
10.74637	110943
10.75448	111599
10.76262	103389
10.77073	104734
10.77885	109587
10.78698	103797
10.79510	103479
10.80323	103364
10.81135	106377
10.81947	105514
10.82760	104091
10.83572	104320
10.84385	104591
10.85197	103876
10.86008	108500
10.86822	105928
10.87633	102548
10.88445	106978
10.89258	102161
10.90070	103798
10.90883	104442
10.91695	103162
10.92507	103935
10.93320	104442
10.94132	99910
10.94945	102883
10.95757	104467
10.96568	100108
10.97382	102162
10.98193	104716
10.99007	103033
10.99818	102716
11.00630	104122
11.01443	109152
11.02255	102241
11.03067	99615
11.03880	103665
11.04692	106022
11.05505	102231
11.06317	99762
11.07128	104270
11.07942	101403
11.08753	99413
11.09567	99069
11.10378	99306
11.11190	97733
11.12003	98213
11.12815	95513
11.13627	98709
11.14440	94318
11.15252	100325
11.16065	98558
11.16877	102561
11.17688	98970
11.18502	99806
11.19313	105134
11.20127	98373
11.20938	102736
11.21750	100430
11.22563	101646
11.23375	102867
11.24188	107260
11.25000	109240
11.25812	115444
11.26625	119404
11.27437	121513
11.28248	122048
11.29062	114031
11.29873	110190
11.30687	112988
11.31498	101940
11.32310	98776
11.33123	100667
11.33935	108817
11.34748	108764
11.35560	110026
11.36372	115090
11.37185	114443
11.37997	117485
11.38808	110122
11.39622	103819
11.40433	103048
11.41247	103450
11.42058	100429
11.42870	98210
11.43683	96482
11.44495	95693
11.45308	101965
11.46120	98560
11.46932	101874
11.47745	95373
11.48557	95181
11.49370	99803
11.50182	97676
11.50993	97008
11.51807	96361
11.52618	97037
11.53430	98107
11.54243	100431
11.55055	102290
11.55868	101894
11.56680	110824
11.57492	109615
11.58305	105441
11.59117	104899
11.59930	98559
11.60742	99799
11.61553	101033
11.62367	100625
11.63178	101301
11.63992	97062
11.64803	101519
11.65615	104197
11.66428	96673
11.67240	95866
11.68052	100337
11.68865	98878
11.69677	99182
11.70490	100021
11.71302	102851
11.72113	104073
11.72927	107767
11.73738	105362
11.74552	102531
11.75363	96477
11.76175	96424
11.76988	92556
11.77800	87870
11.78612	94844
11.79425	92634
11.80237	89425
11.81050	95671
11.81862	92314
11.82673	92781
11.83487	89957
11.84298	91358
11.85112	96983
11.85923	94620
11.86735	99702
11.87548	97360
11.88360	98576
11.89173	100119
11.89985	100460
11.90797	96131
11.91610	96732
11.92422	96208
11.93233	98718
11.94047	101675
11.94858	101749
11.95672	106612
11.96483	99491
11.97295	100577
11.98108	102499
11.98920	100742
11.99733	97813
12.00545	105779
12.01357	97237
12.02170	97466
12.02982	97525
12.03795	95874
12.04607	92797
12.05418	90532
12.06232	89384
12.07043	89976
12.07855	93931
12.08668	88859
12.09480	89289
12.10293	88359
12.11105	92217
12.11917	93115
12.12730	89901
12.13542	87912
12.14355	91197
12.15167	88648
12.15978	88266
12.16792	87256
12.17603	88834
12.18415	88467
12.19228	86673
12.20040	86418
12.20853	88157
12.21665	87267
12.22477	86035
12.23290	84238
12.24102	86735
12.24915	87908
12.25727	89245
12.26538	83116
12.27352	92274
12.28163	89989
12.28977	84560
12.29788	83952
12.30600	88092
12.31413	87247
12.32225	84769
12.33037	84197
12.33850	89268
12.34662	88618
12.35475	87902
12.36287	91583
12.37098	92373
12.37912	88734
12.38723	87334
12.39537	95245
12.40348	88768
12.41160	83221
12.41973	83267
12.42785	86767
12.43598	89622
12.44410	90310
12.45222	83497
12.46035	93642
12.46847	89875
12.47658	88443
12.48472	97326
12.49283	91648
12.50097	92259
12.50908	95028
12.51720	89098
12.52533	89689
12.53345	90537
12.54158	87474
12.54970	89996
12.55782	86706
12.56595	90041
12.57407	86067
12.58218	81063
12.59032	86488
12.59843	86628
12.60657	85893
12.61468	81615
12.62280	82134
12.63093	86050
12.63905	83482
12.64718	87529
12.65530	83081
12.66342	90936
12.67155	93940
12.67967	104834
12.68780	106327
12.69592	101546
12.70403	96530
12.71217	95531
12.72028	96354
12.72840	93241
12.73653	94984
12.74465	90123
12.75278	91811
12.76090	91876
12.76902	87908
12.77715	88984
12.78527	87372
12.79340	89611
12.80152	87517
12.80963	98124
12.81777	92387
12.82588	94103
12.83400	91443
12.84213	88781
12.85025	85514
12.85838	91214
12.86650	85662
12.87462	82615
12.88275	88551
12.89087	91346
12.89900	82463
12.90712	91637
12.91523	83180
12.92337	85274
12.93148	83572
12.93962	81615
12.94773	79826
12.95585	83367
12.96398	77296
12.97210	85899
12.98022	85677
12.98835	80545
12.99647	84365
13.00460	87385
13.01272	80436
13.02083	79378
13.02897	81613
13.03708	84513
13.04522	83874
13.05333	87438
13.06145	77419
13.06958	81167
13.07770	81635
13.08583	85132
13.09395	80036
13.10207	84032
13.11020	83672
13.11832	79260
13.12643	82781
13.13457	79161
13.14268	85486
13.15082	83470
13.15893	83614
13.16705	87529
13.17518	83123
13.18330	86172
13.19143	82768
13.19955	80135
13.20767	85481
13.21580	81525
13.22392	82965
13.23203	86100
13.24017	85436
13.24828	80243
13.25642	83624
13.26453	79666
13.27265	89847
13.28078	88754
13.28890	88046
13.29703	79748
13.30515	86680
13.31327	83232
13.32140	88306
13.32952	93362
13.33765	115557
13.34577	145207
13.35388	171935
13.36202	175120
13.37013	171658
13.37825	150569
13.38638	122441
13.39450	100372
13.40263	90397
13.41075	81619
13.41887	82551
13.42700	83094
13.43512	78315
13.44325	82795
13.45137	80440
13.45948	82499
13.46762	84941
13.47573	97438
13.48387	100556
13.49198	111443
13.50010	108872
13.50823	109581
13.51635	106361
13.52447	92622
13.53260	92507
13.54072	81898
13.54885	82234
13.55697	81096
13.56508	76455
13.57322	74945
13.58133	77044
13.58947	78494
13.59758	85590
13.60570	75628
13.61383	76222
13.62195	74007
13.63007	75800
13.63820	78152
13.64632	75083
13.65445	76380
13.66257	77132
13.67068	83513
13.67882	76450
13.68693	78949
13.69507	74038
13.70318	74049
13.71130	74543
13.71943	78966
13.72755	76399
13.73568	76501
13.74380	77867
13.75192	73193
13.76005	79978
13.76817	79312
13.77628	78209
13.78442	79192
13.79253	78491
13.80067	76553
13.80878	82984
13.81690	75133
13.82503	78211
13.83315	84251
13.84128	87135
13.84940	91371
13.85752	94450
13.86565	96537
13.87377	93412
13.88188	94900
13.89002	83307
13.89813	78275
13.90627	80913
13.91438	77980
13.92250	76442
13.93063	74055
13.93875	80806
13.94688	77888
13.95500	81245
13.96312	79023
13.97125	84765
13.97937	82401
13.98750	74299
13.99562	78332
14.00373	76978
14.01187	77001
14.01998	73428
14.02810	74358
14.03623	77282
14.04435	74457
14.05248	75655
14.06060	78537
14.06872	78717
14.07685	81340
14.08497	78481
14.09310	74310
14.10122	76277
14.10933	71131
14.11747	75907
14.12558	74359
14.13372	72980
14.14183	76433
14.14995	73455
14.15808	75242
14.16620	77479
14.17432	72733
14.18245	76654
14.19057	81372
14.19870	93578
14.20682	99686
14.21493	111642
14.22307	107628
14.23118	100163
14.23932	97687
14.24743	91337
14.25555	84682
14.26368	81553
14.27180	81959
14.27993	78543
14.28805	77913
14.29617	80273
14.30430	78450
14.31242	75230
14.32053	71748
14.32867	72258
14.33678	73736
14.34492	76723
14.35303	75821
14.36115	74621
14.36928	78499
14.37740	73779
14.38553	77374
14.39365	83352
14.40177	81156
14.40990	83913
14.41802	86141
14.42613	81350
14.43427	83908
14.44238	77411
14.45052	74154
14.45863	76921
14.46675	76179
14.47488	77276
14.48300	74100
14.49113	79646
14.49925	77775
14.50737	78419
14.51550	75504
14.52362	73282
14.53175	75050
14.53987	77197
14.54798	72666
14.55612	77894
14.56423	80531
14.57235	86291
14.58048	87716
14.58860	84007
14.59673	84060
14.60485	82301
14.61297	78128
14.62110	73666
14.62922	76172
14.63735	71395
14.64547	69120
14.65358	69682
14.66172	70056
14.66983	70538
14.67795	68207
14.68608	72019
14.69420	71476
14.70233	73557
14.71045	71581
14.71857	70976
14.72670	68515
14.73482	69663
14.74295	68527
14.75107	69869
14.75918	70180
14.76732	72790
14.77543	70135
14.78357	65306
14.79168	75817
14.79980	76935
14.80793	70307
14.81605	72954
14.82417	71061
14.83230	79368
14.84042	78708
14.84855	83659
14.85667	76420
14.86478	74060
14.87292	71512
14.88103	71670
14.88917	66592
14.89728	65534
14.90540	70886
14.91353	71831
14.92165	68709
14.92978	72042
14.93790	68308
14.94602	68347
14.95415	68744
14.96227	66413
14.97038	68776
14.97852	70734
14.98663	70222
14.99477	68992
15.00288	68644
15.01100	68098
15.01913	71414
15.02725	68442
15.03538	73535
15.04350	68902
15.05162	70951
15.05975	70842
15.06787	72596
15.07598	72616
15.08412	64324
15.09223	68925
15.10037	71093
15.10848	68472
15.11660	65245
15.12473	61987
15.13285	65418
15.14098	67498
15.14910	66202
15.15722	64966
15.16535	68468
15.17347	70748
15.18160	71252
15.18972	65279
15.19783	71167
15.20597	67039
15.21408	71770
15.22220	69244
15.23033	66449
15.23845	70534
15.24658	62405
15.25470	64540
15.26282	67480
15.27095	74589
15.27907	68990
15.28720	70660
15.29532	70928
15.30343	71104
15.31157	66277
15.31968	70657
15.32782	71462
15.33593	74075
15.34405	69410
15.35218	71895
15.36030	64416
15.36842	68845
15.37655	67643
15.38467	71343
15.39280	74188
15.40092	68543
15.40903	70080
15.41717	71767
15.42528	68971
15.43342	67425
15.44153	67896
15.44965	66584
15.45778	68866
15.46590	68519
15.47402	61818
15.48215	66037
15.49027	66541
15.49840	68295
15.50652	68068
15.51463	71787
15.52277	71256
15.53088	69889
15.53902	64776
15.54713	67717
15.55525	68198
15.56338	66590
15.57150	70393
15.57963	69556
15.58775	76766
15.59587	66603
15.60400	71981
15.61212	69890
15.62023	73245
15.62837	73302
15.63648	74555
15.64462	76669
15.65273	74777
15.66085	69764
15.66898	64413
15.67710	67336
15.68523	65987
15.69335	72166
15.70147	72739
15.70960	67026
15.71772	68474
15.72583	67266
15.73397	69938
15.74208	71072
15.75022	66334
15.75833	67453
15.76645	72219
15.77458	72087
15.78270	70549
15.79083	70604
15.79895	68151
15.80707	69859
15.81520	64237
15.82332	66368
15.83145	67315
15.83957	66388
15.84768	70147
15.85582	72041
15.86393	70605
15.87205	71745
15.88018	71877
15.88830	68221
15.89643	66142
15.90455	67883
15.91267	64798
15.92080	69547
15.92892	67204
15.93705	73864
15.94517	66668
15.95328	66287
15.96142	71620
15.96953	66358
15.97767	67533
15.98578	67871
15.99390	67766
16.00203	67305
16.01015	69924
16.01827	67149
16.02640	67890
16.03452	67747
16.04265	72849
16.05077	68878
16.05888	73951
16.06702	74353
16.07513	68394
16.08327	67035
16.09138	64222
16.09950	71312
16.10763	67438
16.11575	66056
16.12387	67510
16.13200	66294
16.14012	69711
16.14825	69009
16.15637	67507
16.16448	64900
16.17262	66970
16.18073	68903
16.18887	67959
16.19698	67195
16.20510	62672
16.21323	69541
16.22135	69238
16.22948	64227
16.23760	66740
16.24572	68240
16.25385	67963
16.26197	66417
16.27008	62776
16.27822	67316
16.28633	65975
16.29447	68177
16.30258	69765
16.31070	69707
16.31883	67940
16.32695	65086
16.33508	72628
16.34320	67054
16.35132	66527
16.35945	67782
16.36757	68562
16.37570	67185
16.38382	69750
16.39193	64963
16.40007	68108
16.40818	66318
16.41630	67546
16.42443	64531
16.43255	64881
16.44068	63061
16.44880	72488
16.45692	67852
16.46505	69911
16.47317	66777
16.48130	66503
16.48942	67419
16.49753	64066
16.50567	69974
16.51378	69111
16.52190	65476
16.53003	67117
16.53815	63018
16.54628	65100
16.55440	70734
16.56252	63881
16.57065	69151
16.57877	62710
16.58690	65977
16.59502	62667
16.60313	69163
16.61127	65318
16.61938	68196
16.62752	62462
16.63563	66194
16.64375	61458
16.65188	67479
16.66000	61715
16.66812	63507
16.67625	66431
16.68437	71257
16.69250	65072
16.70062	70941
16.70873	67970
16.71687	64731
16.72498	62866
16.73312	63985
16.74123	70104
16.74935	63696
16.75748	61366
16.76560	66574
16.77372	61020
16.78185	62361
16.78997	67709
16.79810	62418
16.80622	66698
16.81433	66070
16.82247	64982
16.83058	67932
16.83872	64420
16.84683	63221
16.85495	64379
16.86308	63568
16.87120	69331
16.87933	64294
16.88745	60307
16.89557	64785
16.90370	64238
16.91182	63015
16.91993	68739
16.92807	63503
16.93618	64861
16.94432	68930
16.95243	65420
16.96055	66775
16.96868	64490
16.97680	60335
16.98493	60536
16.99305	63266
17.00117	60330
17.00930	63695
17.01742	64021
17.02555	59909
17.03367	59234
17.04178	61231
17.04992	58533
17.05803	63046
17.06615	57420
17.07428	62159
17.08240	62086
17.09053	58572
17.09865	58725
17.10677	60486
17.11490	60666
17.12302	60396
17.13115	62688
17.13927	58631
17.14738	61698
17.15552	60407
17.16363	60430
17.17175	65517
17.17988	62958
17.18800	63321
17.19613	60979
17.20425	63016
17.21237	59255
17.22050	60477
17.22862	67157
17.23675	60074
17.24487	61609
17.25298	64599
17.26112	61043
17.26923	61284
17.27737	63876
17.28548	62263
17.29360	60821
17.30173	60810
17.30985	61065
17.31797	63070
17.32610	59971
17.33422	61060
17.34235	58385
17.35047	62477
17.35858	60472
17.36672	62885
17.37483	63716
17.38297	65664
17.39108	70882
17.39920	65522
17.40733	63626
17.41545	61071
17.42358	57813
17.43170	60289
17.43982	58759
17.44795	60499
17.45607	59687
17.46418	59687
17.47232	59670
17.48043	61574
17.48857	60437
17.49668	61088
17.50480	58809
17.51293	59343
17.52105	63861
17.52918	62437
17.53730	60742
17.54542	66676
17.55355	58425
17.56167	58489
17.56978	60985
17.57792	57969
17.58603	60282
17.59417	61183
17.60228	56037
17.61040	55115
17.61853	62967
17.62665	56624
17.63478	57482
17.64290	59800
17.65102	58383
17.65915	58846
17.66727	60210
17.67540	62492
17.68352	59313
17.69163	55185
17.69977	64950
17.70788	60286
17.71600	59800
17.72413	60988
17.73225	63086
17.74038	58990
17.74850	62102
17.75662	60183
17.76475	60295
17.77287	59939
17.78100	57248
17.78912	59890
17.79723	61736
17.80537	57662
17.81348	63103
17.82162	58868
17.82973	62225
17.83785	61611
17.84598	66610
17.85410	62761
17.86222	62050
17.87035	61600
17.87847	61404
17.88660	60861
17.89472	65560
17.90283	57680
17.91097	58500
17.91908	59901
17.92722	62011
17.93533	60116
17.94345	59914
17.95158	60416
17.95970	58707
17.96782	62198
17.97595	57880
17.98407	59513
17.99220	57921
18.00032	56805
18.00843	59100
18.01657	61235
18.02468	58651
18.03282	61508
18.04093	62338
18.04905	59780
18.05718	63476
18.06530	60190
18.07343	68911
18.08155	63841
18.08967	62467
18.09780	62078
18.10592	62001
18.11403	62827
18.12217	60467
18.13028	64648
18.13842	63579
18.14653	62687
18.15465	60675
18.16278	61513
18.17090	63634
18.17903	62232
18.18715	60115
18.19527	56477
18.20340	63333
18.21152	55968
18.21963	59519
18.22777	57554
18.23588	62231
18.24402	60362
18.25213	63998
18.26025	65646
18.26838	63544
18.27650	67045
18.28463	61699
18.29275	61355
18.30087	59889
18.30900	62854
18.31712	60177
18.32525	57344
18.33337	60698
18.34148	60515
18.34962	61239
18.35773	63778
18.36585	58929
18.37398	59863
18.38210	64226
18.39023	59373
18.39835	61383
18.40647	62052
18.41460	60252
18.42272	60433
18.43085	59473
18.43897	61913
18.44708	58052
18.45522	59005
18.46333	62671
18.47147	63944
18.47958	60096
18.48770	57501
18.49583	59987
18.50395	61205
18.51207	58442
18.52020	54485
18.52832	60000
18.53645	56944
18.54457	59651
18.55268	54651
18.56082	57329
18.56893	60299
18.57707	55715
18.58518	55645
18.59330	57949
18.60143	58652
18.60955	61079
18.61767	52971
18.62580	55690
18.63392	56717
18.64205	59439
18.65017	52530
18.65828	58892
18.66642	57963
18.67453	58215
18.68267	59993
18.69078	55182
18.69890	62131
18.70703	61548
18.71515	59655
18.72328	61201
18.73140	60574
18.73952	56885
18.74765	61910
18.75577	60488
18.76388	59059
18.77202	62324
18.78013	60330
18.78827	58304
18.79638	64371
18.80450	59701
18.81263	57590
18.82075	61754
18.82888	57968
18.83700	59342
18.84512	61007
18.85325	61272
18.86137	56678
18.86950	58418
18.87762	57984
18.88573	65389
18.89387	58690
18.90198	57126
18.91010	63994
18.91823	60984
18.92635	66119
18.93448	64093
18.94260	60369
18.95072	63099
18.95885	64706
18.96697	61809
18.97510	64856
18.98322	64151
18.99133	61173
18.99947	63136
19.00758	63235
19.01570	64343
19.02383	60678
19.03195	68185
19.04008	62819
19.04820	65243
19.05632	64766
19.06445	64206
19.07257	63519
19.08070	60193
19.08882	65533
19.09693	64174
19.10507	64125
19.11318	67054
19.12132	76370
19.12943	66750
19.13755	63097
19.14568	64643
19.15380	63632
19.16192	63548
19.17005	63335
19.17817	63263
19.18630	62839
19.19442	59326
19.20253	61601
19.21067	68353
19.21878	70006
19.22692	65835
19.23503	64444
19.24315	61949
19.25128	61678
19.25940	62513
19.26752	63493
19.27565	60924
19.28377	57949
19.29190	57982
19.30002	64529
19.30813	65250
19.31627	57118
19.32438	57994
19.33252	59668
19.34063	57886
19.34875	61826
19.35688	55206
19.36500	59652
19.37313	58915
19.38125	62484
19.38937	56581
19.39750	58436
19.40562	55936
19.41373	62286
19.42187	56916
19.42998	57344
19.43812	57857
19.44623	57655
19.45435	58170
19.46248	57338
19.47060	62889
19.47873	64420
19.48685	64694
19.49497	64536
19.50310	64578
19.51122	74351
19.51935	77420
19.52747	75338
19.53558	73481
19.54372	68677
19.55183	64485
19.55995	60215
19.56808	56501
19.57620	58857
19.58433	63342
19.59245	62313
19.60057	63679
19.60870	63151
19.61682	60861
19.62495	64105
19.63307	61734
19.64118	66813
19.64932	61031
19.65743	71269
19.66557	76245
19.67368	75948
19.68180	74003
19.68993	70445
19.69805	68491
19.70617	65392
19.71430	60358
19.72242	61394
19.73055	58042
19.73867	61062
19.74678	58558
19.75492	60259
19.76303	59069
19.77117	60577
19.77928	57580
19.78740	62122
19.79553	61446
19.80365	79568
19.81177	77104
19.81990	84219
19.82802	84555
19.83615	85417
19.84427	78324
19.85238	78902
19.86052	73021
19.86863	67133
19.87677	64735
19.88488	65726
19.89300	66447
19.90113	65106
19.90925	63703
19.91738	61809
19.92550	59544
19.93362	63419
19.94175	63270
19.94987	64874
19.95798	58996
19.96612	61822
19.97423	61465
19.98237	62141
19.99048	61611
19.99860	61026
20.00673	61143
20.01485	60569
20.02298	61119
20.03110	60232
20.03922	62052
20.04735	61298
20.05547	58462
20.06358	60492
20.07172	59215
20.07983	64369
20.08797	57628
20.09608	59630
20.10420	61140
20.11233	62004
20.12045	61298
20.12858	60564
20.13670	63180
20.14482	56031
20.15295	62488
20.16107	59802
20.16920	55613
20.17732	59310
20.18543	58440
20.19357	59937
20.20168	60573
20.20980	61346
20.21793	59901
20.22605	58210
20.23418	59148
20.24230	55217
20.25042	61665
20.25855	63902
20.26667	60543
20.27480	63153
20.28292	67544
20.29103	68335
20.29917	65240
20.30728	66946
20.31542	62812
20.32353	61661
20.33165	61867
20.33978	65474
20.34790	62875
20.35602	65587
20.36415	68319
20.37227	63364
20.38040	67251
20.38852	69128
20.39663	63342
20.40477	62652
20.41288	62427
20.42102	58394
20.42913	58239
20.43725	59226
20.44538	58682
20.45350	58493
20.46162	57436
20.46975	56799
20.47787	58473
20.48600	61790
20.49412	59597
20.50223	62541
20.51037	58897
20.51848	59751
20.52662	57481
20.53473	56654
20.54285	57742
20.55098	63250
20.55910	54415
20.56723	57882
20.57535	55864
20.58347	58425
20.59160	57391
20.59972	56806
20.60783	56966
20.61597	56596
20.62408	58155
20.63222	56443
20.64033	58270
20.64845	57387
20.65658	54129
20.66470	58892
20.67283	58985
20.68095	54060
20.68907	57843
20.69720	58967
20.70532	56283
20.71345	63037
20.72157	52183
20.72968	58649
20.73782	61785
20.74593	62324
20.75405	59835
20.76218	53783
20.77030	61863
20.77843	59483
20.78655	58470
20.79467	61346
20.80280	58398
20.81092	63163
20.81905	59165
20.82717	60380
20.83528	59750
20.84342	59144
20.85153	57158
20.85965	59762
20.86778	59315
20.87590	61239
20.88403	58461
20.89215	55321
20.90027	58582
20.90840	53631
20.91652	55018
20.92465	57720
20.93277	52672
20.94088	58442
20.94902	59474
20.95713	55721
20.96527	55428
20.97338	61729
20.98150	63353
20.98963	62049
20.99775	60775
21.00587	59600
21.01400	64144
21.02212	61437
21.03025	57236
21.03837	59256
21.04648	56471
21.05462	54724
21.06273	57755
21.07087	57199
21.07898	62057
21.08710	58104
21.09523	60197
21.10335	55811
21.11147	58344
21.11960	53720
21.12772	58823
21.13585	59149
21.14397	55718
21.15208	63083
21.16022	58735
21.16833	55320
21.17647	55430
21.18458	54808
21.19270	57993
21.20083	62999
21.20895	54156
21.21708	57135
21.22520	54503
21.23332	58721
21.24145	55840
21.24957	60455
21.25768	58174
21.26582	54971
21.27393	53162
21.28207	60075
21.29018	58208
21.29830	55717
21.30643	57316
21.31455	59998
21.32268	55893
21.33080	59300
21.33892	57501
21.34705	58207
21.35517	58266
21.36330	55267
21.37142	57244
21.37953	53122
21.38767	58388
21.39578	56443
21.40390	55361
21.41203	54002
21.42015	59227
21.42828	53607
21.43640	59783
21.44452	56559
21.45265	56289
21.46077	57437
21.46890	56520
21.47702	50951
21.48513	56105
21.49327	56101
21.50138	57640
21.50950	60248
21.51763	58100
21.52575	59070
21.53388	56261
21.54200	49663
21.55012	56319
21.55825	55355
21.56637	61133
21.57450	59449
21.58262	55863
21.59073	59782
21.59887	57402
21.60698	56188
21.61512	56307
21.62323	55765
21.63135	60394
21.63948	60764
21.64760	58287
21.65572	55956
21.66385	56469
21.67197	55699
21.68010	56785
21.68822	55137
21.69633	52517
21.70447	54468
21.71258	59491
21.72072	55876
21.72883	53062
21.73695	54662
21.74508	52830
21.75320	57242
21.76133	54975
21.76945	55576
21.77757	52077
21.78570	56070
21.79382	60212
21.80193	52693
21.81007	53892
21.81818	56534
21.82632	51560
21.83443	51812
21.84255	57775
21.85068	60194
21.85880	57928
21.86693	54212
21.87505	54754
21.88317	60253
21.89130	52084
21.89942	56970
21.90753	51798
21.91567	53483
21.92378	53865
21.93192	50863
21.94003	54916
21.94815	55789
21.95628	55932
21.96440	52765
21.97253	51410
21.98065	53216
21.98877	52728
21.99690	54775
22.00502	51611
22.01315	58457
22.02127	57975
22.02938	58164
22.03752	61717
22.04563	60007
22.05375	52889
22.06188	52542
22.07000	55891
22.07813	53147
22.08625	52015
22.09437	56027
22.10250	51543
22.11062	51895
22.11875	57876
22.12687	52377
22.13498	50859
22.14312	51245
22.15123	50692
22.15935	54315
22.16748	52864
22.17560	56902
22.18373	51945
22.19185	53194
22.19997	56017
22.20810	54349
22.21622	56153
22.22435	51035
22.23247	52098
22.24058	52194
22.24872	53216
22.25683	53820
22.26497	53304
22.27308	47960
22.28120	52763
22.28933	51934
22.29745	54708
22.30557	59152
22.31370	54225
22.32182	49803
22.32995	50923
22.33807	56074
22.34618	51884
22.35432	53483
22.36243	55343
22.37057	57139
22.37868	56216
22.38680	53637
22.39493	55284
22.40305	53054
22.41118	49242
22.41930	50323
22.42742	54028
22.43555	50768
22.44367	56724
22.45178	52100
22.45992	52440
22.46803	56827
22.47617	49172
22.48428	55348
22.49240	55665
22.50053	54992
22.50865	55352
22.51678	50068
22.52490	51666
22.53302	52732
22.54115	50839
22.54927	47267
22.55738	49885
22.56552	53137
22.57363	58059
22.58177	52060
22.58988	54642
22.59800	54381
22.60613	53243
22.61425	54217
22.62238	58976
22.63050	55485
22.63862	51094
22.64675	52652
22.65487	52512
22.66300	52259
22.67112	53518
22.67923	52654
22.68737	56230
22.69548	54738
22.70360	50093
22.71173	52232
22.71985	49745
22.72798	48815
22.73610	52372
22.74422	52482
22.75235	51956
22.76047	54304
22.76860	53869
22.77672	55517
22.78483	54419
22.79297	52787
22.80108	56908
22.80922	56293
22.81733	53181
22.82545	51922
22.83358	49778
22.84170	55225
22.84982	51336
22.85795	53164
22.86607	50464
22.87420	46166
22.88232	51327
22.89043	48663
22.89857	50391
22.90668	50170
22.91482	51240
22.92293	58048
22.93105	54303
22.93918	57007
22.94730	53369
22.95542	52477
22.96355	53211
22.97167	53087
22.97980	50478
22.98792	50709
22.99603	50492
23.00417	53115
23.01228	51278
23.02042	48407
23.02853	53510
23.03665	52569
23.04478	49285
23.05290	51738
23.06103	50110
23.06915	50801
23.07727	48727
23.08540	50204
23.09352	52534
23.10163	52722
23.10977	52063
23.11788	52809
23.12602	51514
23.13413	51756
23.14225	49313
23.15038	51488
23.15850	47444
23.16663	49566
23.17475	52331
23.18287	50824
23.19100	51813
23.19912	51454
23.20725	54615
23.21537	52543
23.22348	51260
23.23162	51541
23.23973	46128
23.24785	55256
23.25598	49788
23.26410	49211
23.27223	50158
23.28035	54507
23.28847	51407
23.29660	53010
23.30472	51550
23.31285	54578
23.32097	50638
23.32908	54695
23.33722	53307
23.34533	51057
23.35345	51292
23.36158	52865
23.36970	53217
23.37783	47197
23.38595	49669
23.39407	49947
23.40220	48458
23.41032	50170
23.41845	51510
23.42657	51712
23.43468	47371
23.44282	52041
23.45093	50381
23.45907	49127
23.46718	47511
23.47530	47152
23.48343	51702
23.49155	48023
23.49967	53989
23.50780	50631
23.51592	49529
23.52405	47326
23.53217	51321
23.54028	53642
23.54842	47799
23.55653	49983
23.56467	49797
23.57278	50858
23.58090	50540
23.58903	55644
23.59715	54394
23.60527	52011
23.61340	54963
23.62152	50844
23.62965	53550
23.63777	52916
23.64588	50424
23.65402	48356
23.66213	51977
23.67027	51696
23.67838	50846
23.68650	55164
23.69463	52747
23.70275	50776
23.71088	50103
23.71900	48657
23.72712	51178
23.73525	52186
23.74337	46610
23.75148	49147
23.75962	53659
23.76773	55430
23.77587	72971
23.78398	70823
23.79210	74079
23.80023	75630
23.80835	75872
23.81648	75180
23.82460	69474
23.83272	63220
23.84085	62532
23.84897	56543
23.85710	55719
23.86522	55233
23.87333	51714
23.88147	53119
23.88958	51106
23.89770	53003
23.90583	52463
23.91395	53973
23.92208	46828
23.93020	51692
23.93832	48010
23.94645	51318
23.95457	47963
23.96270	55149
23.97082	51952
23.97893	51034
23.98707	50812
23.99518	49371
24.00330	50751
24.01143	55376
24.01955	48760
24.02768	48580
24.03580	47772
24.04392	45360
24.05205	50557
24.06017	52850
24.06830	49348
24.07642	50709
24.08453	48755
24.09267	50931
24.10078	51928
24.10892	49957
24.11703	50072
24.12515	49404
24.13328	48916
24.14140	53724
24.14952	48976
24.15765	53518
24.16577	50940
24.17390	55593
24.18202	54896
24.19013	50960
24.19827	53234
24.20638	49781
24.21452	48914
24.22263	49470
24.23075	52386
24.23888	47655
24.24700	48471
24.25513	46372
24.26325	48082
24.27137	48488
24.27950	51747
24.28762	52986
24.29573	52773
24.30387	49992
24.31198	50229
24.32012	50826
24.32823	50097
24.33635	50635
24.34448	52119
24.35260	48994
24.36073	46471
24.36885	50526
24.37697	55122
24.38510	54951
24.39322	51259
24.40133	54344
24.40947	54137
24.41758	55180
24.42572	55940
24.43383	51116
24.44195	53082
24.45008	53554
24.45820	50054
24.46633	49863
24.47445	47428
24.48257	48018
24.49070	51304
24.49882	52090
24.50695	50216
24.51507	48870
24.52318	49427
24.53132	49593
24.53943	49243
24.54755	50588
24.55568	51068
24.56380	46520
24.57193	50390
24.58005	45218
24.58817	51199
24.59630	49107
24.60442	45511
24.61255	48264
24.62067	48219
24.62878	48418
24.63692	50646
24.64503	45370
24.65315	51326
24.66128	45404
24.66940	45335
24.67753	47940
24.68565	48978
24.69377	46483
24.70190	46944
24.71002	45277
24.71815	44951
24.72627	47693
24.73438	51473
24.74252	47545
24.75063	49511
24.75877	46307
24.76688	48229
24.77500	50413
24.78313	47878
24.79125	48503
24.79937	45066
24.80750	47237
24.81562	50926
24.82375	46483
24.83187	45730
24.83998	44872
24.84812	46397
24.85623	45984
24.86437	47989
24.87248	49581
24.88060	46745
24.88873	42877
24.89685	47941
24.90498	45061
24.91310	47744
24.92122	48882
24.92935	46057
24.93747	45913
24.94558	47861
24.95372	47591
24.96183	45739
24.96997	46036
24.97808	44343
24.98620	47399
24.99433	45949
25.00245	42216
25.01058	45088
25.01870	44437
25.02682	46202
25.03495	48123
25.04307	48780
25.05118	45596
25.05932	48426
25.06743	47936
25.07557	49658
25.08368	45718
25.09180	44779
25.09993	46151
25.10805	47115
25.11618	44697
25.12430	44011
25.13242	47764
25.14055	42865
25.14867	49416
25.15680	47086
25.16492	47015
25.17303	47237
25.18117	48450
25.18928	44824
25.19740	47274
25.20553	45072
25.21365	45260
25.22178	47022
25.22990	46784
25.23802	44430
25.24615	45755
25.25427	42317
25.26240	43726
25.27052	45598
25.27863	47637
25.28677	46882
25.29488	46407
25.30302	45793
25.31113	40686
25.31925	45155
25.32738	47044
25.33550	43686
25.34362	47045
25.35175	45021
25.35987	43219
25.36800	43870
25.37612	45128
25.38423	43286
25.39237	43029
25.40048	45480
25.40862	44452
25.41673	41983
25.42485	45206
25.43298	45401
25.44110	44032
25.44922	44885
25.45735	43624
25.46547	47164
25.47360	47043
25.48172	45093
25.48983	45217
25.49797	48229
25.50608	44447
25.51422	46199
25.52233	47836
25.53045	46080
25.53858	47317
25.54670	42000
25.55483	45392
25.56295	47050
25.57107	43440
25.57920	45205
25.58732	42678
25.59543	44063
25.60357	43404
25.61168	40864
25.61982	42402
25.62793	48718
25.63605	46668
25.64418	45904
25.65230	49635
25.66043	47122
25.66855	44006
25.67667	46712
25.68480	43972
25.69292	45935
25.70103	40460
25.70917	46164
25.71728	45565
25.72542	41877
25.73353	46874
25.74165	49441
25.74978	44262
25.75790	43989
25.76603	43998
25.77415	44680
25.78227	43761
25.79040	42930
25.79852	45555
25.80665	45272
25.81477	45072
25.82288	44302
25.83102	46849
25.83913	48822
25.84725	44838
25.85538	41559
25.86350	42440
25.87163	43575
25.87975	49513
25.88787	42412
25.89600	40854
25.90412	43030
25.91225	43191
25.92037	42410
25.92848	43655
25.93662	43756
25.94473	45701
25.95287	45344
25.96098	42812
25.96910	43537
25.97723	44923
25.98535	47691
25.99347	47212
26.00160	46568
26.00972	42599
26.01785	45223
26.02597	40968
26.03408	45511
26.04222	45796
26.05033	42876
26.05847	50552
26.06658	46675
26.07470	45682
26.08283	45524
26.09095	43108
26.09908	42923
26.10720	43217
26.11532	44939
26.12345	42951
26.13157	41201
26.13968	44078
26.14782	40527
26.15593	44827
26.16407	42030
26.17218	46231
26.18030	46903
26.18843	44686
26.19655	45996
26.20468	44685
26.21280	43506
26.22092	47850
26.22905	47383
26.23717	44897
26.24528	44966
26.25342	43665
26.26153	41433
26.26967	41930
26.27778	45931
26.28590	45016
26.29403	44733
26.30215	47006
26.31028	43093
26.31840	50514
26.32652	41524
26.33465	42964
26.34277	44446
26.35090	44602
26.35902	43165
26.36713	43835
26.37527	48175
26.38338	47030
26.39150	48885
26.39963	51311
26.40775	45164
26.41588	48471
26.42400	41734
26.43212	42606
26.44025	42087
26.44837	44857
26.45650	43960
26.46462	43887
26.47273	44034
26.48087	51528
26.48898	40958
26.49710	42037
26.50523	47113
26.51335	43336
26.52148	48511
26.52960	43031
26.53772	43863
26.54585	41403
26.55397	44763
26.56210	46191
26.57022	45462
26.57833	42878
26.58647	43847
26.59458	46224
26.60272	45579
26.61083	42141
26.61895	45014
26.62708	46063
26.63520	46560
26.64332	45911
26.65145	37567
26.65957	44604
26.66770	46806
26.67582	43974
26.68393	43678
26.69207	45902
26.70018	46880
26.70832	43869
26.71643	47839
26.72455	48645
26.73268	48998
26.74080	44620
26.74893	43974
26.75705	43547
26.76517	49723
26.77330	43272
26.78142	42288
26.78953	45810
26.79767	45306
26.80578	43304
26.81392	46684
26.82203	43318
26.83015	47171
26.83828	41717
26.84640	44846
26.85453	46974
26.86265	43598
26.87077	40799
26.87890	45723
26.88702	44842
26.89513	43977
26.90327	45963
26.91138	43351
26.91952	42734
26.92763	44943
26.93575	46033
26.94388	42670
26.95200	45820
26.96013	44885
26.96825	43647
26.97637	43361
26.98450	47380
26.99262	45585
27.00075	49469
27.00887	49704
27.01698	54426
27.02512	54875
27.03323	55229
27.04135	56978
27.04948	55754
27.05760	51516
27.06573	50792
27.07385	50160
27.08197	51317
27.09010	48472
27.09822	43542
27.10635	45980
27.11447	43614
27.12258	45592
27.13072	44824
27.13883	45619
27.14697	46695
27.15508	43957
27.16320	44479
27.17133	42909
27.17945	46490
27.18757	44025
27.19570	45907
27.20382	47362
27.21195	43459
27.22007	43911
27.22818	44092
27.23632	43919
27.24443	46203
27.25257	44604
27.26068	42592
27.26880	47155
27.27693	42644
27.28505	43960
27.29317	45903
27.30130	44990
27.30942	41495
27.31755	44253
27.32567	46202
27.33378	43408
27.34192	47626
27.35003	44383
27.35817	44023
27.36628	43730
27.37440	44784
27.38253	45642
27.39065	54776
27.39878	48712
27.40690	49415
27.41502	43962
27.42315	45698
27.43127	45346
27.43938	45759
27.44752	48797
27.45563	43498
27.46377	43654
27.47188	46789
27.48000	44001
27.48813	43130
27.49625	44210
27.50438	45871
27.51250	44307
27.52062	41258
27.52875	41067
27.53687	45348
27.54498	45980
27.55312	44893
27.56123	45912
27.56937	49884
27.57748	41486
27.58560	45299
27.59373	41794
27.60185	39461
27.60998	44048
27.61810	45707
27.62622	42970
27.63435	41430
27.64247	45810
27.65060	44498
27.65872	43047
27.66683	42588
27.67497	44413
27.68308	47558
27.69120	43929
27.69933	41919
27.70745	46413
27.71558	44010
27.72370	41257
27.73182	41088
27.73995	43880
27.74807	46044
27.75620	44921
27.76432	43527
27.77243	46302
27.78057	44040
27.78868	44063
27.79682	43234
27.80493	39137
27.81305	44746
27.82118	41770
27.82930	44778
27.83742	41456
27.84555	42701
27.85367	45824
27.86180	47739
27.86992	43949
27.87803	43968
27.88617	40972
27.89428	46144
27.90242	40510
27.91053	43135
27.91865	48458
27.92678	43301
27.93490	41404
27.94302	42930
27.95115	41942
27.95927	44836
27.96740	43864
27.97552	44984
27.98363	42818
27.99177	45135
27.99988	47189
28.00802	46348
28.01613	42435
28.02425	46612
28.03238	44420
28.04050	43698
28.04863	43770
28.05675	48161
28.06487	44226
28.07300	46314
28.08112	44317
28.08923	44021
28.09737	40886
28.10548	41781
28.11362	45551
28.12173	43385
28.12985	43971
28.13798	49113
28.14610	40835
28.15423	42100
28.16235	45077
28.17047	46139
28.17860	44947
28.18672	49292
28.19485	44147
28.20297	44632
28.21108	45779
28.21922	47952
28.22733	44013
28.23545	47136
28.24358	44028
28.25170	44324
28.25983	43189
28.26795	42502
28.27607	43258
28.28420	40318
28.29232	45102
28.30045	43757
28.30857	43549
28.31668	42578
28.32482	44805
28.33293	43589
28.34105	41637
28.34918	44921
28.35730	46523
28.36543	45340
28.37355	48882
28.38167	45143
28.38980	48062
28.39792	46049
28.40605	46871
28.41417	49711
28.42228	45213
28.43042	49796
28.43853	43757
28.44667	43303
28.45478	47625
28.46290	46276
28.47103	45464
28.47915	44645
28.48727	44685
28.49540	47250
28.50352	47949
28.51165	47316
28.51977	43756
28.52788	45729
28.53602	47271
28.54413	45060
28.55227	50103
28.56038	41813
28.56850	44789
28.57663	47555
28.58475	47911
28.59288	45881
28.60100	47952
28.60912	43305
28.61725	42684
28.62537	45998
28.63348	43994
28.64162	47226
28.64973	43574
28.65787	47625
28.66598	45445
28.67410	43173
28.68223	45406
28.69035	43818
28.69848	47001
28.70660	47707
28.71472	45960
28.72285	47031
28.73097	42541
28.73908	44131
28.74722	46146
28.75533	45693
28.76347	44190
28.77158	48322
28.77970	44825
28.78783	51801
28.79595	46232
28.80408	46735
28.81220	49235
28.82032	44798
28.82845	45121
28.83657	46799
28.84470	47426
28.85282	47866
28.86093	44178
28.86907	47405
28.87718	45619
28.88530	44896
28.89343	49099
28.90155	44037
28.90968	48159
28.91780	42536
28.92592	42215
28.93405	44023
28.94217	45508
28.95030	43973
28.95842	41945
28.96653	45130
28.97467	45266
28.98278	43016
28.99090	44037
28.99903	44100
29.00715	43211
29.01528	50581
29.02340	44250
29.03152	43247
29.03965	49904
29.04777	47906
29.05590	48443
29.06402	47867
29.07213	49416
29.08027	45137
29.08838	48199
29.09652	44242
29.10463	44488
29.11275	42139
29.12088	43063
29.12900	44371
29.13712	45078
29.14525	46226
29.15337	38895
29.16150	46118
29.16962	39066
29.17773	43454
29.18587	46232
29.19398	40799
29.20212	44212
29.21023	46386
29.21835	44467
29.22648	46007
29.23460	43450
29.24273	44589
29.25085	46061
29.25897	42323
29.26710	45727
29.27522	43162
29.28333	43546
29.29147	45383
29.29958	42844
29.30772	41257
29.31583	42759
29.32395	43972
29.33208	40265
29.34020	44104
29.34833	44203
29.35645	46372
29.36457	46875
29.37270	43060
29.38082	46532
29.38893	43757
29.39707	42201
29.40518	43752
29.41332	43066
29.42143	50211
29.42955	40813
29.43768	42043
29.44580	44892
29.45393	43968
29.46205	44784
29.47017	42010
29.47830	45164
29.48642	45533
29.49455	44013
29.50267	43127
29.51078	44787
29.51892	41333
29.52703	43410
29.53515	41951
29.54328	47610
29.55140	45131
29.55953	44695
29.56765	46006
29.57577	46492
29.58390	44302
29.59202	43274
29.60015	44954
29.60827	44266
29.61638	43183
29.62452	49344
29.63263	46847
29.64077	44057
29.64888	47092
29.65700	45977
29.66513	42101
29.67325	46905
29.68137	43094
29.68950	43494
29.69762	42728
29.70575	40897
29.71387	42482
29.72198	41561
29.73012	46167
29.73823	41361
29.74637	46073
29.75448	44889
29.76260	45904
29.77073	46895
29.77885	46633
29.78697	42395
29.79510	43340
29.80322	41501
29.81135	48713
29.81947	44251
29.82758	40523
29.83572	43944
29.84383	39074
29.85197	43101
29.86008	44615
29.86820	43250
29.87633	43066
29.88445	46444
29.89258	45905
29.90070	42810
29.90882	47571
29.91695	43366
29.92507	43933
29.93318	44235
29.94132	46415
29.94943	44202
29.95757	46911
29.96568	41728
29.97380	42918
29.98193	47400
29.99005	44986
29.99818	46116
30.00630	47457
30.01442	46116
30.02255	47897
30.03067	47876
30.03878	48916
30.04692	48728
30.05503	47655
30.06317	47490
30.07128	47758
30.07940	43948
30.08753	47991
30.09565	48219
30.10378	50846
30.11190	50834
30.12002	47118
30.12815	48290
30.13627	50596
30.14440	46701
30.15252	48086
30.16063	41317
30.16877	48560
30.17688	47343
30.18500	48621
30.19313	46202
30.20125	46269
30.20938	46277
30.21750	46815
30.22562	48524
30.23375	47541
30.24187	44241
30.25000	50529
30.25812	48911
30.26623	44963
30.27437	44936
30.28248	45552
30.29062	46042
30.29873	47221
30.30685	48868
30.31498	43722
30.32310	44537
30.33122	43517
30.33935	43065
30.34747	44003
30.35560	46117
30.36372	47141
30.37183	49974
30.37997	41552
30.38808	45321
30.39622	49021
30.40433	45004
30.41245	46784
30.42058	46507
30.42870	43793
30.43683	44513
30.44495	46536
30.45307	47867
30.46120	41910
30.46932	45825
30.47743	46410
30.48557	48770
30.49368	46716
30.50182	47620
30.50993	50013
30.51805	46989
30.52618	45509
30.53430	47411
30.54243	46667
30.55055	44476
30.55867	47095
30.56680	48232
30.57492	47206
30.58303	43699
30.59117	48167
30.59928	42069
30.60742	43336
30.61553	42742
30.62365	46676
30.63178	48276
30.63990	49679
30.64803	45840
30.65615	49869
30.66427	49690
30.67240	48507
30.68052	46780
30.68865	45643
30.69677	43082
30.70488	42762
30.71302	44325
30.72113	44645
30.72925	46567
30.73738	46619
30.74550	44548
30.75363	44409
30.76175	45756
30.76987	47574
30.77800	45673
30.78612	45275
30.79425	43878
30.80237	43910
30.81048	42924
30.81862	46637
30.82673	46263
30.83485	42260
30.84298	42573
30.85110	44232
30.85923	43811
30.86735	45760
30.87547	45488
30.88360	44556
30.89172	45343
30.89985	44265
30.90797	45063
30.91608	43656
30.92422	43703
30.93233	53698
30.94047	42357
30.94858	47993
30.95670	47288
30.96483	41406
30.97295	40120
30.98107	47020
30.98920	47326
30.99732	44256
31.00545	44730
31.01357	45396
31.02168	43764
31.02982	47794
31.03793	45791
31.04607	45063
31.05418	45589
31.06230	43316
31.07043	43159
31.07855	43126
31.08667	43636
31.09480	43981
31.10292	44197
31.11105	45391
31.11917	42791
31.12728	43590
31.13542	44892
31.14353	48787
31.15167	42313
31.15978	41449
31.16790	44955
31.17603	47046
31.18415	44905
31.19228	40685
31.20040	45104
31.20852	41783
31.21665	44134
31.22477	43429
31.23288	47310
31.24102	46544
31.24913	40913
31.25727	44610
31.26538	47833
31.27350	45423
31.28163	43191
31.28975	43201
31.29788	44116
31.30600	36983
31.31412	46254
31.32225	43924
31.33037	46675
31.33850	44201
31.34662	43296
31.35473	42040
31.36287	45418
31.37098	45763
31.37910	45740
31.38723	44613
31.39535	45968
31.40348	44169
31.41160	44370
31.41972	45702
31.42785	41324
31.43597	45033
31.44410	41861
31.45222	45973
31.46033	43779
31.46847	42516
31.47658	44559
31.48472	42944
31.49283	42786
31.50095	41375
31.50908	42208
31.51720	40612
31.52532	42017
31.53345	47305
31.54157	45503
31.54970	43522
31.55782	41298
31.56593	40761
31.57407	40816
31.58218	43428
31.59032	47023
31.59843	48277
31.60655	43278
31.61468	40950
31.62280	42468
31.63092	40853
31.63905	45478
31.64717	43036
31.65530	46130
31.66342	47390
31.67153	46648
31.67967	40054
31.68778	46959
31.69592	44945
31.70403	46165
31.71215	44849
31.72028	43055
31.72840	44852
31.73653	44171
31.74465	51800
31.75277	45058
31.76090	46140
31.76902	41535
31.77713	39402
31.78527	45032
31.79338	40043
31.80152	44493
31.80963	44905
31.81775	45363
31.82588	41978
31.83400	46196
31.84213	44463
31.85025	42908
31.85837	42430
31.86650	46356
31.87462	42152
31.88273	41252
31.89087	45351
31.89898	43374
31.90712	41481
31.91523	42610
31.92335	44831
31.93148	46346
31.93960	48508
31.94773	50757
31.95585	49062
31.96397	45101
31.97210	48207
31.98022	47431
31.98835	48299
31.99647	49407
32.00458	52999
32.01272	52793
32.02083	48680
32.02895	51431
32.03708	50951
32.04520	49901
32.05333	51206
32.06145	54700
32.06957	52109
32.07770	57355
32.08582	50389
32.09395	51403
32.10207	51521
32.11018	50503
32.11832	48040
32.12643	49621
32.13457	46759
32.14268	45587
32.15080	44515
32.15893	48922
32.16705	47469
32.17517	48390
32.18330	48187
32.19142	48465
32.19955	49072
32.20767	48945
32.21578	42858
32.22392	45812
32.23203	45236
32.24017	48122
32.24828	47504
32.25640	47520
32.26453	50044
32.27265	46547
32.28077	50783
32.28890	53030
32.29702	50533
32.30515	47362
32.31327	49721
32.32138	49729
32.32952	49289
32.33763	47790
32.34577	48785
32.35388	47343
32.36200	48616
32.37013	44850
32.37825	47620
32.38638	46641
32.39450	52436
32.40262	47906
32.41075	42608
32.41887	49343
32.42698	50440
32.43512	50795
32.44323	45152
32.45137	46665
32.45948	46151
32.46760	49091
32.47573	49305
32.48385	46905
32.49198	46573
32.50010	46955
32.50822	45724
32.51635	48403
32.52447	46388
32.53260	44908
32.54072	46147
32.54883	47317
32.55697	45023
32.56508	49009
32.57320	50023
32.58133	43775
32.58945	44349
32.59758	44891
32.60570	45114
32.61382	46258
32.62195	43478
32.63007	44545
32.63820	43869
32.64632	48167
32.65443	48161
32.66257	45451
32.67068	47090
32.67880	48149
32.68693	49290
32.69505	48128
32.70318	46685
32.71130	43743
32.71942	48136
32.72755	44619
32.73567	49702
32.74380	48725
32.75192	47719
32.76003	46726
32.76817	47859
32.77628	46279
32.78442	47020
32.79253	49278
32.80065	43575
32.80878	40337
32.81690	47690
32.82502	44706
32.83315	48927
32.84127	44841
32.84940	48322
32.85752	45183
32.86563	46739
32.87377	47547
32.88188	44130
32.89002	43736
32.89813	47807
32.90625	49875
32.91438	46561
32.92250	46553
32.93062	44549
32.93875	45130
32.94687	44295
32.95500	46732
32.96312	50812
32.97123	46094
32.97937	43526
32.98748	43087
32.99562	43429
33.00373	46372
33.01185	49751
33.01998	50546
33.02810	46404
33.03623	44689
33.04435	45165
33.05247	45771
33.06060	48248
33.06872	50050
33.07683	49766
33.08497	49300
33.09308	45685
33.10122	53499
33.10933	48759
33.11745	51809
33.12558	50125
33.13370	49500
33.14183	49456
33.14995	48565
33.15807	48226
33.16620	49557
33.17432	47085
33.18245	43413
33.19057	47387
33.19868	47432
33.20682	48278
33.21493	45208
33.22305	45845
33.23118	47469
33.23930	41500
33.24743	41671
33.25555	44811
33.26367	45677
33.27180	46053
33.27992	45733
33.28805	43289
33.29617	44665
33.30428	45108
33.31242	45985
33.32053	44643
33.32865	47395
33.33678	47623
33.34490	48008
33.35303	43599
33.36115	49306
33.36927	44750
33.37740	47452
33.38552	46007
33.39365	45361
33.40177	47928
33.40988	46564
33.41802	48801
33.42613	46355
33.43427	47653
33.44238	45795
33.45050	44595
33.45863	45336
33.46675	44730
33.47487	44928
33.48300	45848
33.49112	45794
33.49925	43579
33.50737	46688
33.51548	44133
33.52362	43872
33.53173	44457
33.53987	46384
33.54798	46429
33.55610	48313
33.56423	44539
33.57235	46120
33.58048	49232
33.58860	48012
33.59672	44689
33.60485	46034
33.61297	43918
33.62108	46646
33.62922	46288
33.63733	47767
33.64547	46155
33.65358	45515
33.66170	43780
33.66983	44446
33.67795	47016
33.68608	44184
33.69420	46114
33.70232	46659
33.71045	43985
33.71857	47773
33.72668	45577
33.73482	44808
33.74293	45628
33.75107	49353
33.75918	50071
33.76730	47454
33.77543	52167
33.78355	47353
33.79168	47467
33.79980	49836
33.80792	43080
33.81605	46986
33.82417	50085
33.83230	47279
33.84042	49156
33.84853	55423
33.85667	53041
33.86478	53753
33.87290	52313
33.88103	53086
33.88915	56476
33.89728	54908
33.90540	55528
33.91352	63608
33.92165	57979
33.92977	60540
33.93790	58379
33.94602	66220
33.95413	65213
33.96227	63795
33.97038	65218
33.97852	68385
33.98663	62617
33.99475	63349
34.00288	68442
34.01100	62303
34.01912	62490
34.02725	60215
34.03537	62964
34.04350	64815
34.05162	57570
34.05973	58515
34.06787	59642
34.07598	60025
34.08412	59469
34.09223	55526
34.10035	57545
34.10848	54063
34.11660	59070
34.12472	55638
34.13285	51097
34.14097	55282
34.14910	55590
34.15722	54088
34.16533	51299
34.17347	53805
34.18158	53911
34.18972	53754
34.19783	50023
34.20595	52467
34.21408	49946
34.22220	57665
34.23033	55831
34.23845	52760
34.24657	57800
34.25470	57234
34.26282	54521
34.27093	58756
34.27907	60442
34.28718	62739
34.29532	58539
34.30343	66307
34.31155	55914
34.31968	63818
34.32780	68549
34.33593	64674
34.34405	67072
34.35217	63479
34.36030	62449
34.36842	65832
34.37653	61690
34.38467	63535
34.39278	64309
34.40092	59029
34.40903	62236
34.41715	57082
34.42528	59917
34.43340	57587
34.44153	61712
34.44965	60278
34.45777	59138
34.46590	61168
34.47402	61364
34.48215	60996
34.49027	58656
34.49838	56417
34.50652	59915
34.51463	56788
34.52275	62190
34.53088	65761
34.53900	64274
34.54713	65607
34.55525	68691
34.56337	70750
34.57150	70221
34.57962	67160
34.58775	69207
34.59587	62449
34.60398	64208
34.61212	65605
34.62023	63715
34.62837	59771
34.63648	64520
34.64460	60039
34.65273	62621
34.66085	63911
34.66897	61107
34.67710	63012
34.68522	61221
34.69335	62794
34.70147	62332
34.70958	58699
34.71772	62729
34.72583	62043
34.73397	60815
34.74208	58804
34.75020	59934
34.75833	52400
34.76645	59621
34.77457	50904
34.78270	61162
34.79082	56882
34.79895	58053
34.80707	58685
34.81518	57870
34.82332	58632
34.83143	55955
34.83957	59896
34.84768	60540
34.85580	59406
34.86393	59216
34.87205	56327
34.88018	61574
34.88830	57805
34.89642	56238
34.90455	56668
34.91267	59400
34.92078	58189
34.92892	62060
34.93703	65220
34.94517	60784
34.95328	63794
34.96140	68924
34.96953	62165
34.97765	65222
34.98578	63464
34.99390	58918
35.00202	63708
35.01015	65220
35.01827	62234
35.02640	58455
35.03452	66581
35.04263	62381
35.05077	59183
35.05888	61615
35.06700	64501
35.07513	61801
35.08325	67543
35.09138	69439
35.09950	63372
35.10762	59288
35.11575	60065
35.12387	63684
35.13200	62136
35.14012	61319
35.14823	64550
35.15637	62464
35.16448	61573
35.17260	58236
35.18073	60887
35.18885	55238
35.19698	55715
35.20510	58577
35.21322	59193
35.22135	56293
35.22947	57145
35.23760	58961
35.24572	57648
35.25383	57560
35.26197	55273
35.27008	53857
35.27822	52838
35.28633	55967
35.29445	53901
35.30258	55193
35.31070	54095
35.31882	57700
35.32695	55339
35.33507	54595
35.34320	58172
35.35132	58326
35.35943	54901
35.36757	54356
35.37568	53807
35.38382	55020
35.39193	57641
35.40005	55835
35.40818	56913
35.41630	54672
35.42442	57699
35.43255	55366
35.44067	59413
35.44880	56045
35.45692	57197
35.46503	54614
35.47317	56848
35.48128	55880
35.48942	53295
35.49753	62543
35.50565	56331
35.51378	59763
35.52190	59955
35.53003	56597
35.53815	54380
35.54627	55671
35.55440	55812
35.56252	58907
35.57063	54318
35.57877	58598
35.58688	57603
35.59502	61386
35.60313	54203
35.61125	58802
35.61938	53876
35.62750	56471
35.63563	56055
35.64375	55755
35.65187	58195
35.66000	55726
35.66812	53861
35.67625	56098
35.68437	58101
35.69248	49877
35.70062	56772
35.70873	61870
35.71685	57936
35.72498	59111
35.73310	57272
35.74123	58210
35.74935	51226
35.75747	56912
35.76560	58001
35.77372	57418
35.78185	60800
35.78997	57242
35.79808	55325
35.80622	59687
35.81433	55189
35.82247	54686
35.83058	53883
35.83870	54285
35.84683	60787
35.85495	58000
35.86307	59250
35.87120	56818
35.87932	55851
35.88745	55894
35.89557	58807
35.90368	58337
35.91182	56382
35.91993	56824
35.92807	53945
35.93618	58234
35.94430	56680
35.95243	58863
35.96055	52993
35.96867	55035
35.97680	55470
35.98492	52083
35.99305	53031
36.00117	55117
36.00928	54804
36.01742	56049
36.02553	56532
36.03367	51954
36.04178	55536
36.04990	56038
36.05803	61437
36.06615	55420
36.07428	52359
36.08240	53354
36.09052	58453
36.09865	57542
36.10677	57954
36.11488	57562
36.12302	57688
36.13113	58808
36.13927	59768
36.14738	55404
36.15550	56768
36.16363	61841
36.17175	55608
36.17988	54433
36.18800	57772
36.19612	55272
36.20425	56789
36.21237	51867
36.22048	58718
36.22862	58029
36.23673	55481
36.24487	55747
36.25298	57662
36.26110	53556
36.26923	53122
36.27735	57498
36.28548	60110
36.29360	56513
36.30172	54856
36.30985	56166
36.31797	54082
36.32610	56028
36.33422	57477
36.34233	57198
36.35047	59256
36.35858	58692
36.36670	54499
36.37483	54835
36.38295	57730
36.39108	58027
36.39920	56060
36.40732	59125
36.41545	53420
36.42357	54610
36.43170	54132
36.43982	56443
36.44793	56285
36.45607	57059
36.46418	62411
36.47232	59852
36.48043	53708
36.48855	56327
36.49668	55070
36.50480	51844
36.51292	55529
36.52105	55792
36.52917	52090
36.53730	57583
36.54542	54381
36.55353	53591
36.56167	54809
36.56978	55390
36.57792	56183
36.58603	54235
36.59415	54714
36.60228	54149
36.61040	55268
36.61852	52246
36.62665	57474
36.63477	58912
36.64290	55729
36.65102	55305
36.65913	54956
36.66727	55452
36.67538	55938
36.68352	55601
36.69163	53845
36.69975	57195
36.70788	54144
36.71600	56731
36.72413	54688
36.73225	58149
36.74037	52365
36.74850	52984
36.75662	54814
36.76473	56419
36.77287	53944
36.78098	57235
36.78912	56686
36.79723	59729
36.80535	58366
36.81348	54605
36.82160	54775
36.82973	59592
36.83785	58086
36.84597	54113
36.85410	54332
36.86222	51471
36.87035	58433
36.87847	59240
36.88658	61633
36.89472	58926
36.90283	60536
36.91095	60250
36.91908	58038
36.92720	55098
36.93533	62919
36.94345	57870
36.95157	60657
36.95970	59770
36.96782	67582
36.97595	64154
36.98407	62187
36.99218	61349
37.00032	65098
37.00843	59904
37.01655	58859
37.02468	59878
37.03280	66098
37.04093	62774
37.04905	62316
37.05717	53872
37.06530	56919
37.07342	56471
37.08155	57972
37.08967	54481
37.09778	55240
37.10592	61502
37.11403	59943
37.12217	56119
37.13028	61068
37.13840	60832
37.14653	64063
37.15465	58867
37.16277	56719
37.17090	60542
37.17902	59683
37.18715	57906
37.19527	58445
37.20338	56329
37.21152	56587
37.21963	57922
37.22777	55952
37.23588	54398
37.24400	55764
37.25213	57939
37.26025	58580
37.26837	54974
37.27650	58102
37.28462	57928
37.29275	55600
37.30087	57237
37.30898	56827
37.31712	58554
37.32523	59712
37.33337	53788
37.34148	58884
37.34960	59889
37.35773	64445
37.36585	65043
37.37398	60646
37.38210	65859
37.39022	63451
37.39835	65785
37.40647	64969
37.41458	62620
37.42272	57506
37.43083	58522
37.43897	63661
37.44708	60763
37.45520	61778
37.46333	55852
37.47145	62037
37.47958	59557
37.48770	65520
