C:\MassHunter\GCMS\1\data\JTB-E02\BACandBLUE\JTB-E18-022-08.D Thu Jul 11 10:21:42 2019
Start of data points
2.09530,69694
2.10343,70057
2.11155,76277
2.11967,72185
2.12780,69988
2.13592,71944
2.14405,65698
2.15217,70859
2.16028,75896
2.16842,69731
2.17653,70000
2.18467,68251
2.19278,70511
2.20090,63899
2.20903,65184
2.21715,68634
2.22527,69454
2.23340,67226
2.24152,65971
2.24965,67819
2.25777,68040
2.26588,68289
2.27402,222823
2.28213,1153800
2.29027,1243866
2.29838,476864
2.30650,271452
2.31463,222563
2.32275,196085
2.33088,166252
2.33900,163259
2.34712,156570
2.35525,139767
2.36337,131206
2.37148,128669
2.37962,116843
2.38773,116768
2.39587,115388
2.40398,114343
2.41210,111985
2.42023,108954
2.42835,108095
2.43648,106692
2.44460,105397
2.45272,101977
2.46085,103415
2.46897,99817
2.47708,102687
2.48522,98616
2.49333,101401
2.50147,125798
2.50958,114659
2.51770,107183
2.52583,105004
2.53395,100287
2.54208,101265
2.55020,98756
2.55832,116012
2.56645,158316
2.57457,159656
2.58270,124981
2.59082,117468
2.59893,120170
2.60707,210790
2.61518,877033
2.62330,1175525
2.63143,622876
2.63955,346033
2.64768,254721
2.65580,199103
2.66392,176883
2.67205,156541
2.68017,143658
2.68830,132866
2.69642,126406
2.70453,126457
2.71267,115055
2.72078,114324
2.72892,116580
2.73703,110226
2.74515,105954
2.75328,108198
2.76140,104036
2.76952,99760
2.77765,105928
2.78577,166073
2.79390,273804
2.80202,247389
2.81013,163686
2.81827,149322
2.82638,166279
2.83452,148344
2.84263,128251
2.85075,122893
2.85888,112077
2.86700,102087
2.87512,104304
2.88325,106196
2.89137,94079
2.89950,97534
2.90762,97199
2.91573,97900
2.92387,94218
2.93198,93668
2.94012,91961
2.94823,92364
2.95635,89385
2.96448,108373
2.97260,128018
2.98073,115225
2.98885,109142
2.99697,105702
3.00510,104089
3.01322,98424
3.02133,96301
3.02947,94204
3.03758,91304
3.04572,90480
3.05383,85959
3.06195,87298
3.07008,85820
3.07820,99975
3.08633,306168
3.09445,1370714
3.10257,2838070
3.11070,4081473
3.11882,4856999
3.12693,3421725
3.13507,2011493
3.14318,1443404
3.15132,1148883
3.15943,927585
3.16755,779042
3.17568,678691
3.18380,659145
3.19193,931671
3.20005,1598157
3.20817,1630828
3.21630,1117929
3.22442,806581
3.23255,687342
3.24067,590914
3.24878,520960
3.25692,465479
3.26503,416115
3.27315,381168
3.28128,358986
3.28940,376817
3.29753,676327
3.30565,1681147
3.31377,3100141
3.32190,3573198
3.33002,2867264
3.33815,1997160
3.34627,1504649
3.35438,1218168
3.36252,1029890
3.37063,909257
3.37877,802631
3.38688,722604
3.39500,661262
3.40313,617959
3.41125,582419
3.41937,545410
3.42750,514131
3.43562,495494
3.44375,484682
3.45187,463397
3.45998,439347
3.46812,437885
3.47623,413081
3.48437,416529
3.49248,395193
3.50060,387990
3.50873,358381
3.51685,363011
3.52497,348954
3.53310,341411
3.54122,357745
3.54935,358177
3.55747,352367
3.56558,347537
3.57372,407234
3.58183,527783
3.58997,522902
3.59808,444519
3.60620,374813
3.61433,374761
3.62245,358961
3.63058,359144
3.63870,345066
3.64682,338622
3.65495,311670
3.66307,364391
3.67118,918912
3.67932,3068580
3.68743,5530709
3.69557,5013665
3.70368,3042517
3.71180,1933979
3.71993,1472992
3.72805,1233210
3.73618,1064030
3.74430,943863
3.75242,861030
3.76055,797693
3.76867,742387
3.77680,688157
3.78492,662154
3.79303,645305
3.80117,639892
3.80928,873212
3.81740,1529064
3.82553,2041139
3.83365,1759879
3.84178,1244796
3.84990,966996
3.85802,825240
3.86615,739525
3.87427,671283
3.88240,616296
3.89052,594490
3.89863,564396
3.90677,540320
3.91488,522282
3.92300,581994
3.93113,711637
3.93925,773963
3.94738,775861
3.95550,1101888
3.96362,2514235
3.97175,4374004
3.97987,4626539
3.98800,3234327
3.99612,2342729
4.00423,4706474
4.01237,1.318054E+07
4.02048,2.307514E+07
4.02862,2.457631E+07
4.03673,1.633406E+07
4.04485,8599466
4.05298,5063410
4.06110,3484759
4.06922,2666395
4.07735,2130668
4.08547,1787568
4.09360,1518279
4.10172,1320937
4.10983,1179353
4.11797,1071986
4.12608,981049
4.13422,924209
4.14233,971702
4.15045,1062010
4.15858,1137245
4.16670,1022127
4.17483,874780
4.18295,769273
4.19107,721069
4.19920,671959
4.20732,729001
4.21543,1600208
4.22357,5328752
4.23168,1.242102E+07
4.23982,1.840333E+07
4.24793,1.934708E+07
4.25605,1.419238E+07
4.26418,8205952
4.27230,5339038
4.28043,3921386
4.28855,3040575
4.29667,2485518
4.30480,2053096
4.31292,1769307
4.32103,1549364
4.32917,1400606
4.33728,1286420
4.34542,1185132
4.35353,1134242
4.36165,1107468
4.36978,1045653
4.37790,987743
4.38603,928127
4.39415,863824
4.40227,813927
4.41040,780941
4.41852,733040
4.42665,710540
4.43477,684850
4.44288,660645
4.45102,624393
4.45913,617335
4.46725,594975
4.47538,568500
4.48350,560289
4.49163,565085
4.49975,537250
4.50787,522196
4.51600,509974
4.52412,497139
4.53225,484169
4.54037,479400
4.54848,459900
4.55662,455712
4.56473,444143
4.57285,444647
4.58098,427762
4.58910,423350
4.59723,407159
4.60535,400591
4.61347,392582
4.62160,400768
4.62972,442892
4.63785,566297
4.64597,737510
4.65408,766480
4.66222,669233
4.67033,551505
4.67847,470230
4.68658,426146
4.69470,407392
4.70283,367831
4.71095,366608
4.71907,356845
4.72720,349705
4.73532,345644
4.74345,340358
4.75157,325908
4.75968,317538
4.76782,319295
4.77593,313174
4.78407,316972
4.79218,326146
4.80030,367329
4.80843,448773
4.81655,503224
4.82468,470411
4.83280,412995
4.84092,389040
4.84905,398269
4.85717,386385
4.86528,383094
4.87342,369729
4.88153,359722
4.88967,337983
4.89778,316954
4.90590,312955
4.91403,304839
4.92215,295148
4.93028,323920
4.93840,444933
4.94652,806281
4.95465,1505719
4.96277,2279329
4.97088,2606117
4.97902,2361152
4.98713,1777823
4.99527,1288274
5.00338,995479
5.01150,835748
5.01963,733117
5.02775,748923
5.03588,951400
5.04400,1294546
5.05212,1438906
5.06025,1296495
5.06837,1042122
5.07650,869182
5.08462,757921
5.09273,687948
5.10087,635276
5.10898,599933
5.11710,570707
5.12523,540315
5.13335,512940
5.14148,502084
5.14960,489823
5.15772,488264
5.16585,508906
5.17397,523853
5.18210,529305
5.19022,500536
5.19833,475991
5.20647,474074
5.21458,486104
5.22272,488552
5.23083,481547
5.23895,464944
5.24708,448807
5.25520,428149
5.26332,399644
5.27145,368972
5.27957,349085
5.28770,346947
5.29582,337533
5.30393,328708
5.31207,335427
5.32018,326023
5.32832,323429
5.33643,338439
5.34455,342944
5.35268,350010
5.36080,338758
5.36892,322006
5.37705,316782
5.38517,308470
5.39330,302274
5.40142,309118
5.40953,309967
5.41767,300626
5.42578,300082
5.43392,296039
5.44203,299964
5.45015,306060
5.45828,312648
5.46640,294403
5.47453,294701
5.48265,279683
5.49077,269435
5.49890,269614
5.50702,262008
5.51513,262074
5.52327,269863
5.53138,264731
5.53952,259636
5.54763,255569
5.55575,250829
5.56388,259593
5.57200,270599
5.58013,290769
5.58825,290452
5.59637,269927
5.60450,260388
5.61262,255895
5.62073,248105
5.62887,249294
5.63698,264257
5.64512,261944
5.65323,268219
5.66135,268445
5.66948,254719
5.67760,267551
5.68573,293856
5.69385,346995
5.70197,354672
5.71010,333393
5.71822,298354
5.72635,267738
5.73447,250501
5.74258,246340
5.75072,234652
5.75883,232065
5.76695,229435
5.77508,229915
5.78320,222462
5.79133,232357
5.79945,238237
5.80757,226913
5.81570,224879
5.82382,221243
5.83195,217268
5.84007,216868
5.84818,215419
5.85632,217105
5.86443,211757
5.87257,210227
5.88068,201013
5.88880,211324
5.89693,208698
5.90505,202431
5.91317,170416
5.92130,157060
5.92942,152675
5.93755,153676
5.94567,158074
5.95378,175904
5.96192,198613
5.97003,230747
5.97817,260026
5.98628,303326
5.99440,339022
6.00253,331674
6.01065,303116
6.01877,246404
6.02690,210650
6.03502,189338
6.04315,173381
6.05127,171472
6.05938,155408
6.06752,153024
6.07563,155282
6.08377,146327
6.09188,149586
6.10000,152097
6.10813,145768
6.11625,144709
6.12438,158199
6.13250,211237
6.14062,318964
6.14875,446163
6.15687,505005
6.16498,454473
6.17312,343000
6.18123,265443
6.18937,236101
6.19748,224462
6.20560,204197
6.21373,199258
6.22185,193528
6.22998,190147
6.23810,185831
6.24622,183402
6.25435,189147
6.26247,189265
6.27060,189953
6.27872,188440
6.28683,193201
6.29497,183971
6.30308,173481
6.31120,185213
6.31933,179299
6.32745,188823
6.33558,193096
6.34370,194693
6.35182,205418
6.35995,194248
6.36807,194873
6.37620,193105
6.38432,188009
6.39243,196130
6.40057,189107
6.40868,186913
6.41680,192222
6.42493,195662
6.43305,197323
6.44118,186244
6.44930,187749
6.45742,184248
6.46555,189486
6.47367,182902
6.48180,186463
6.48992,187255
6.49803,196445
6.50617,194735
6.51428,198814
6.52242,193916
6.53053,198958
6.53865,199591
6.54678,201355
6.55490,200206
6.56302,196421
6.57115,195728
6.57927,214350
6.58740,218373
6.59552,222099
6.60363,212796
6.61177,205807
6.61988,205297
6.62802,209463
6.63613,211465
6.64425,205974
6.65238,214633
6.66050,227684
6.66862,270945
6.67675,300033
6.68487,309132
6.69300,281187
6.70112,242372
6.70923,233449
6.71737,219250
6.72548,215933
6.73362,216232
6.74173,225054
6.74985,212420
6.75798,214429
6.76610,214224
6.77423,226410
6.78235,194372
6.79047,192540
6.79860,177942
6.80672,166997
6.81483,153063
6.82297,157697
6.83108,152334
6.83922,145260
6.84733,151587
6.85545,174964
6.86358,203005
6.87170,207312
6.87983,180883
6.88795,150428
6.89607,124455
6.90420,105436
6.91232,97342
6.92045,94182
6.92857,90175
6.93668,86866
6.94482,90353
6.95293,85143
6.96105,89197
6.96918,99309
6.97730,111472
6.98543,116127
6.99355,122028
7.00167,113717
7.00980,94422
7.01792,94867
7.02605,90775
7.03417,82299
7.04228,89485
7.05042,84466
7.05853,88051
7.06667,78430
7.07478,84930
7.08290,79688
7.09103,76764
7.09915,76893
7.10727,74578
7.11540,70926
7.12352,72371
7.13165,75088
7.13977,77460
7.14788,91105
7.15602,120317
7.16413,151790
7.17227,173340
7.18038,168602
7.18850,135609
7.19663,114065
7.20475,99514
7.21287,101440
7.22100,148741
7.22912,343812
7.23725,787794
7.24537,1364969
7.25348,1739243
7.26162,1552439
7.26973,1073854
7.27787,637182
7.28598,404208
7.29410,311254
7.30223,262373
7.31035,209585
7.31848,160750
7.32660,132167
7.33472,114959
7.34285,107839
7.35097,100911
7.35908,98932
7.36722,99754
7.37533,95722
7.38347,101910
7.39158,101941
7.39970,98692
7.40783,96744
7.41595,89661
7.42408,93368
7.43220,81007
7.44032,83765
7.44845,87271
7.45657,93351
7.46468,87787
7.47282,87865
7.48093,81768
7.48907,80869
7.49718,79626
7.50530,75969
7.51343,84809
7.52155,97952
7.52968,119056
7.53780,159465
7.54592,212292
7.55405,236457
7.56217,257132
7.57030,233669
7.57842,203904
7.58653,158117
7.59467,126041
7.60278,110222
7.61090,95723
7.61903,91299
7.62715,92251
7.63528,83969
7.64340,80766
7.65152,83528
7.65965,82284
7.66777,75813
7.67590,74282
7.68402,74728
7.69213,74414
7.70027,74610
7.70838,71659
7.71652,74250
7.72463,78207
7.73275,75720
7.74088,70258
7.74900,72784
7.75712,78908
7.76525,76528
7.77337,75482
7.78150,75626
7.78962,75191
7.79773,83907
7.80587,83155
7.81398,85078
7.82212,82300
7.83023,80631
7.83835,74666
7.84648,76593
7.85460,72620
7.86272,72362
7.87085,79824
7.87897,83972
7.88710,91838
7.89522,83017
7.90333,81462
7.91147,77991
7.91958,78251
7.92772,80033
7.93583,100230
7.94395,116693
7.95208,132625
7.96020,131987
7.96833,117538
7.97645,99573
7.98457,93129
7.99270,84453
8.00082,76947
8.00893,70371
8.01707,70490
8.02518,70502
8.03332,69624
8.04143,67839
8.04955,69320
8.05768,69679
8.06580,70357
8.07393,69052
8.08205,64152
8.09017,62336
8.09830,64971
8.10642,62150
8.11455,62675
8.12267,64709
8.13078,68302
8.13892,77565
8.14703,88829
8.15515,97762
8.16328,103215
8.17140,99075
8.17953,91599
8.18765,77731
8.19577,71253
8.20390,69630
8.21202,74145
8.22015,68232
8.22827,63642
8.23638,65999
8.24452,60486
8.25263,62013
8.26075,68037
8.26888,65258
8.27700,60440
8.28513,60130
8.29325,58820
8.30137,64479
8.30950,65615
8.31762,70088
8.32575,71427
8.33387,71136
8.34198,66391
8.35012,64054
8.35823,58442
8.36637,61795
8.37448,59529
8.38260,67499
8.39073,64211
8.39885,63215
8.40697,56365
8.41510,58558
8.42322,57343
8.43135,56554
8.43947,57466
8.44758,56522
8.45572,55311
8.46383,54422
8.47197,55811
8.48008,56873
8.48820,55785
8.49633,55081
8.50445,59778
8.51257,52148
8.52070,53790
8.52882,67550
8.53695,97142
8.54507,159663
8.55318,235050
8.56132,289881
8.56943,279727
8.57757,228607
8.58568,155573
8.59380,113079
8.60193,91257
8.61005,86543
8.61818,82473
8.62630,80949
8.63442,73756
8.64255,72837
8.65067,68531
8.65878,66026
8.66692,62393
8.67503,67105
8.68317,65907
8.69128,67558
8.69940,62071
8.70753,64947
8.71565,64655
8.72378,67699
8.73190,64343
8.74002,76747
8.74815,131460
8.75627,272969
8.76440,534956
8.77252,885042
8.78063,1112276
8.78877,1113335
8.79688,881928
8.80500,594503
8.81313,385795
8.82125,276051
8.82938,199219
8.83750,178186
8.84562,178533
8.85375,190381
8.86187,186044
8.87000,188001
8.87812,174092
8.88623,169202
8.89437,159029
8.90248,152649
8.91060,146398
8.91873,135822
8.92685,137141
8.93498,147584
8.94310,152069
8.95122,157678
8.95935,164193
8.96747,167765
8.97560,146645
8.98372,139772
8.99183,135876
8.99997,121866
9.00808,123492
9.01622,119320
9.02433,117096
9.03245,104159
9.04058,102433
9.04870,104824
9.05682,106361
9.06495,100189
9.07307,100964
9.08120,96146
9.08932,98193
9.09743,104498
9.10557,112515
9.11368,111624
9.12182,117442
9.12993,118447
9.13805,112597
9.14618,109222
9.15430,104569
9.16243,97439
9.17055,99063
9.17867,93133
9.18680,92625
9.19492,89694
9.20303,91399
9.21117,86765
9.21928,88784
9.22742,89895
9.23553,85490
9.24365,81832
9.25178,89210
9.25990,85277
9.26803,80683
9.27615,81894
9.28427,79868
9.29240,79682
9.30052,81410
9.30863,78841
9.31677,77388
9.32488,78973
9.33302,80136
9.34113,75228
9.34925,77345
9.35738,75112
9.36550,76393
9.37363,73651
9.38175,71278
9.38987,76466
9.39800,77701
9.40612,81261
9.41425,84530
9.42237,97572
9.43048,101845
9.43862,111389
9.44673,106486
9.45485,109973
9.46298,95263
9.47110,88399
9.47923,83295
9.48735,78447
9.49547,73862
9.50360,73847
9.51172,78315
9.51985,79743
9.52797,86634
9.53608,81787
9.54422,76900
9.55233,70366
9.56047,66896
9.56858,59834
9.57670,56724
9.58483,59787
9.59295,64186
9.60107,65270
9.60920,60630
9.61732,52300
9.62545,46680
9.63357,47437
9.64168,47191
9.64982,46816
9.65793,49370
9.66607,42613
9.67418,40102
9.68230,42664
9.69043,48970
9.69855,46572
9.70667,41408
9.71480,38452
9.72292,42100
9.73105,40874
9.73917,41095
9.74728,38788
9.75542,39278
9.76353,37341
9.77167,38518
9.77978,38999
9.78790,41657
9.79603,41383
9.80415,41202
9.81228,41721
9.82040,37810
9.82852,42290
9.83665,38205
9.84477,41778
9.85288,42627
9.86102,44030
9.86913,45117
9.87727,45483
9.88538,46278
9.89350,40932
9.90163,46990
9.90975,44559
9.91788,44152
9.92600,52008
9.93412,59927
9.94225,72516
9.95037,102927
9.95848,131441
9.96662,138891
9.97473,129434
9.98287,108796
9.99098,84709
9.99910,76098
10.00723,68635
10.01535,67514
10.02348,61666
10.03160,53682
10.03972,51803
10.04785,49006
10.05597,48249
10.06410,45585
10.07222,48523
10.08033,44076
10.08847,48569
10.09658,50571
10.10470,51430
10.11283,50779
10.12095,46864
10.12908,47937
10.13720,47093
10.14532,43204
10.15345,47216
10.16157,44103
10.16970,42905
10.17782,46245
10.18593,44602
10.19407,45122
10.20218,43481
10.21032,44150
10.21843,43157
10.22655,45332
10.23468,47185
10.24280,48926
10.25092,52424
10.25905,63386
10.26717,102252
10.27530,230049
10.28342,558068
10.29153,1105145
10.29967,1814524
10.30778,2623342
10.31592,3625232
10.32403,5309294
10.33215,7547065
10.34028,9276233
10.34840,9387636
10.35652,7377104
10.36465,4695592
10.37277,2503863
10.38090,1357636
10.38902,830952
10.39713,596793
10.40527,452467
10.41338,366942
10.42152,309885
10.42963,269999
10.43775,244090
10.44588,222685
10.45400,214418
10.46213,192439
10.47025,186418
10.47837,178560
10.48650,172894
10.49462,158384
10.50273,148644
10.51087,139031
10.51898,131583
10.52712,136745
10.53523,128913
10.54335,131463
10.55148,119696
10.55960,114134
10.56773,114858
10.57585,123616
10.58397,114667
10.59210,109506
10.60022,102833
10.60835,103455
10.61647,94043
10.62458,91057
10.63272,92184
10.64083,89177
10.64895,84026
10.65708,80081
10.66520,83188
10.67333,85830
10.68145,87071
10.68957,80731
10.69770,81841
10.70582,78889
10.71395,79219
10.72207,74419
10.73018,78132
10.73832,74597
10.74643,72763
10.75455,78108
10.76268,72063
10.77080,70504
10.77893,69788
10.78705,72558
10.79517,65413
10.80330,65171
10.81142,64438
10.81955,65629
10.82767,65804
10.83578,63933
10.84392,59973
10.85203,58986
10.86017,57785
10.86828,57230
10.87640,56378
10.88453,58600
10.89265,55189
10.90077,55340
10.90890,56950
10.91702,54423
10.92515,56183
10.93327,55763
10.94138,54012
10.94952,57554
10.95763,54877
10.96577,52571
10.97388,50553
10.98200,54909
10.99013,52151
10.99825,56602
11.00637,49435
11.01450,52218
11.02262,47964
11.03075,48160
11.03887,49715
11.04698,46228
11.05512,45751
11.06323,45094
11.07137,46014
11.07948,52217
11.08760,54679
11.09573,51631
11.10385,52811
11.11198,49543
11.12010,44888
11.12822,46734
11.13635,44404
11.14447,44850
11.15258,42966
11.16072,42196
11.16883,45906
11.17697,46632
11.18508,44524
11.19320,48336
11.20133,45891
11.20945,49305
11.21758,43756
11.22570,40756
11.23382,40099
11.24195,41756
11.25007,38892
11.25820,37926
11.26632,38155
11.27443,42419
11.28257,39669
11.29068,40266
11.29880,45447
11.30693,60329
11.31505,84227
11.32318,128616
11.33130,180651
11.33942,235331
11.34755,276995
11.35567,260210
11.36380,216276
11.37192,163157
11.38003,122272
11.38817,94352
11.39628,79713
11.40440,74101
11.41253,75398
11.42065,71585
11.42878,70278
11.43690,61175
11.44502,59267
11.45315,59860
11.46127,55802
11.46940,60469
11.47752,72203
11.48563,86084
11.49377,111883
11.50188,132756
11.51002,140370
11.51813,127711
11.52625,120275
11.53438,96711
11.54250,86750
11.55062,82252
11.55875,72145
11.56687,75534
11.57500,70318
11.58312,71045
11.59123,64980
11.59937,75289
11.60748,90445
11.61562,117214
11.62373,133876
11.63185,138616
11.63998,124723
11.64810,95596
11.65623,78915
11.66435,67455
11.67247,59971
11.68060,55268
11.68872,55478
11.69683,58421
11.70497,52694
11.71308,54660
11.72122,54176
11.72933,52518
11.73745,49730
11.74558,48714
11.75370,48678
11.76183,46808
11.76995,43431
11.77807,44603
11.78620,46010
11.79432,48646
11.80243,45248
11.81057,45105
11.81868,46188
11.82682,49727
11.83493,48639
11.84305,49497
11.85118,50399
11.85930,55843
11.86743,54525
11.87555,54407
11.88367,48973
11.89180,42828
11.89992,42921
11.90805,43280
11.91617,43548
11.92428,43898
11.93242,47754
11.94053,50540
11.94865,49208
11.95678,46068
11.96490,42585
11.97303,40022
11.98115,46324
11.98927,55170
11.99740,72197
12.00552,105936
12.01365,128467
12.02177,138809
12.02988,128908
12.03802,106525
12.04613,81606
12.05425,66755
12.06238,57345
12.07050,52643
12.07863,54283
12.08675,49003
12.09487,50054
12.10300,55048
12.11112,50385
12.11925,48791
12.12737,50873
12.13548,51979
12.14362,52909
12.15173,50903
12.15987,45968
12.16798,42193
12.17610,43498
12.18423,43017
12.19235,40496
12.20047,39864
12.20860,42361
12.21672,41463
12.22485,39831
12.23297,39022
12.24108,40663
12.24922,43123
12.25733,41086
12.26547,39600
12.27358,40003
12.28170,42245
12.28983,41536
12.29795,38475
12.30608,35029
12.31420,38942
12.32232,38721
12.33045,39377
12.33857,40149
12.34668,38248
12.35482,35672
12.36293,36943
12.37107,34301
12.37918,37111
12.38730,41928
12.39543,38129
12.40355,47004
12.41168,52224
12.41980,64252
12.42792,74474
12.43605,76844
12.44417,74955
12.45230,69386
12.46042,61967
12.46853,57492
12.47667,50637
12.48478,49013
12.49290,48286
12.50103,42261
12.50915,46070
12.51728,43786
12.52540,45334
12.53352,49383
12.54165,58323
12.54977,69878
12.55790,100831
12.56602,123287
12.57413,141698
12.58227,128082
12.59038,114616
12.59850,86461
12.60663,69863
12.61475,57809
12.62288,55563
12.63100,49319
12.63912,48002
12.64725,46644
12.65537,42482
12.66350,44489
12.67162,43655
12.67973,46443
12.68787,40910
12.69598,43337
12.70412,41052
12.71223,39243
12.72035,44826
12.72848,49383
12.73660,54225
12.74472,49170
12.75285,51870
12.76097,46878
12.76910,43045
12.77722,40604
12.78533,35072
12.79347,34194
12.80158,38247
12.80972,40531
12.81783,35858
12.82595,37309
12.83408,33690
12.84220,36371
12.85032,36377
12.85845,34606
12.86657,33413
12.87470,32215
12.88282,31000
12.89093,30186
12.89907,37324
12.90718,32480
12.91532,30607
12.92343,31242
12.93155,30648
12.93968,33196
12.94780,33642
12.95593,35562
12.96405,38024
12.97217,50803
12.98030,65597
12.98842,68079
12.99653,73808
13.00467,62513
13.01278,56298
13.02092,48368
13.02903,41747
13.03715,38732
13.04528,40330
13.05340,37040
13.06153,36462
13.06965,32563
13.07777,39122
13.08590,36432
13.09402,38402
13.10215,36569
13.11027,33021
13.11838,35213
13.12652,34685
13.13463,34652
13.14275,31514
13.15088,36067
13.15900,33063
13.16713,34570
13.17525,37673
13.18337,37851
13.19150,39051
13.19962,40404
13.20775,39303
13.21587,38663
13.22398,42980
13.23212,48152
13.24023,45404
13.24835,40492
13.25648,40522
13.26460,37213
13.27273,37213
13.28085,35828
13.28897,36645
13.29710,32815
13.30522,30624
13.31335,30143
13.32147,31362
13.32958,32839
13.33772,34577
13.34583,33428
13.35397,37841
13.36208,30322
13.37020,30712
13.37833,32924
13.38645,33408
13.39457,31589
13.40270,33940
13.41082,29957
13.41895,31173
13.42707,31565
13.43518,32356
13.44332,33586
13.45143,31480
13.45957,35889
13.46768,29850
13.47580,32397
13.48393,31247
13.49205,32423
13.50018,28496
13.50830,34886
13.51642,30496
13.52455,31312
13.53267,33321
13.54078,33282
13.54892,33185
13.55703,32067
13.56517,31239
13.57328,37296
13.58140,32689
13.58953,38227
13.59765,45386
13.60578,64985
13.61390,95081
13.62202,131804
13.63015,157070
13.63827,161120
13.64638,124549
13.65452,93893
13.66263,71393
13.67077,54359
13.67888,47139
13.68700,42694
13.69513,43398
13.70325,37491
13.71138,38145
13.71950,38464
13.72762,45834
13.73575,55199
13.74387,101963
13.75200,210995
13.76012,457087
13.76823,838190
13.77637,1258534
13.78448,1517037
13.79260,1452564
13.80073,1192836
13.80885,870126
13.81698,613798
13.82510,467847
13.83322,412320
13.84135,383679
13.84947,345389
13.85760,297585
13.86572,256389
13.87383,210428
13.88197,182013
13.89008,158912
13.89820,149118
13.90633,130358
13.91445,123615
13.92258,115470
13.93070,117070
13.93882,107766
13.94695,102402
13.95507,107813
13.96320,101319
13.97132,99580
13.97943,108617
13.98757,109720
13.99568,111271
14.00382,111591
14.01193,97677
14.02005,93503
14.02818,90304
14.03630,86620
14.04442,85602
14.05255,87844
14.06067,87391
14.06880,85892
14.07692,83963
14.08503,85083
14.09317,79425
14.10128,77369
14.10942,76501
14.11753,75617
14.12565,72117
14.13378,75525
14.14190,78370
14.15003,81849
14.15815,78443
14.16627,95420
14.17440,107142
14.18252,143072
14.19063,179051
14.19877,207272
14.20688,220242
14.21502,210278
14.22313,199936
14.23125,173467
14.23938,155868
14.24750,148992
14.25563,152202
14.26375,142009
14.27187,126432
14.28000,118334
14.28812,105432
14.29623,98504
14.30437,87906
14.31248,90182
14.32062,80313
14.32873,79354
14.33685,76679
14.34498,68552
14.35310,62689
14.36123,63790
14.36935,55512
14.37747,49732
14.38560,55099
14.39372,77845
14.40185,134090
14.40997,217940
14.41808,350043
14.42622,452938
14.43433,486957
14.44245,404172
14.45058,298142
14.45870,200407
14.46683,136913
14.47495,110335
14.48307,94348
14.49120,88498
14.49932,76641
14.50745,71121
14.51557,74514
14.52368,71091
14.53182,71796
14.53993,67194
14.54807,63040
14.55618,56644
14.56430,59141
14.57243,55646
14.58055,51928
14.58867,51623
14.59680,52551
14.60492,50153
14.61305,47165
14.62117,50279
14.62928,45585
14.63742,45144
14.64553,42967
14.65367,43218
14.66178,43202
14.66990,45460
14.67803,41131
14.68615,44466
14.69427,42653
14.70240,45905
14.71052,39866
14.71865,42812
14.72677,42166
14.73488,42449
14.74302,45978
14.75113,48913
14.75927,43969
14.76738,45208
14.77550,43065
14.78363,52383
14.79175,86297
14.79988,174947
14.80800,410840
14.81612,886010
14.82425,1588214
14.83237,2308380
14.84048,2597346
14.84862,2337018
14.85673,1728587
14.86487,1144351
14.87298,721944
14.88110,456445
14.88923,319896
14.89735,257724
14.90548,211496
14.91360,183637
14.92172,167490
14.92985,151093
14.93797,139172
14.94610,129009
14.95422,121080
14.96233,110310
14.97047,104941
14.97858,102110
14.98670,98557
14.99483,94260
15.00295,92745
15.01108,89120
15.01920,89781
15.02732,79836
15.03545,80949
15.04357,80971
15.05170,77220
15.05982,71774
15.06793,69065
15.07607,70466
15.08418,69878
15.09230,69108
15.10043,64629
15.10855,62631
15.11668,64223
15.12480,66175
15.13292,70009
15.14105,76256
15.14917,79135
15.15730,79800
15.16542,71331
15.17353,65264
15.18167,58340
15.18978,52243
15.19792,47942
15.20603,49312
15.21415,46611
15.22228,46990
15.23040,46460
15.23852,49531
15.24665,42849
15.25477,41692
15.26290,37860
15.27102,38426
15.27913,42562
15.28727,41187
15.29538,42383
15.30352,43920
15.31163,41557
15.31975,39471
15.32788,40868
15.33600,39057
15.34412,36184
15.35225,38472
15.36037,40650
15.36850,37307
15.37662,37520
15.38473,42248
15.39287,42959
15.40098,37563
15.40912,39741
15.41723,39357
15.42535,35661
15.43348,38571
15.44160,39575
15.44973,38577
15.45785,37653
15.46597,44306
15.47410,47238
15.48222,58849
15.49033,72188
15.49847,73300
15.50658,77273
15.51472,84278
15.52283,76177
15.53095,71175
15.53908,64265
15.54720,65114
15.55533,60172
15.56345,59090
15.57157,51621
15.57970,49985
15.58782,42309
15.59595,41559
15.60407,40473
15.61218,38122
15.62032,37747
15.62843,41107
15.63655,39845
15.64468,37548
15.65280,38844
15.66093,40209
15.66905,39167
15.67717,36586
15.68530,34902
15.69342,37130
15.70155,36137
15.70967,36044
15.71778,37668
15.72592,34797
15.73403,39143
15.74215,37607
15.75028,44011
15.75840,55817
15.76653,89933
15.77465,142231
15.78277,208452
15.79090,277289
15.79902,276216
15.80715,252594
15.81527,196036
15.82338,137385
15.83152,102807
15.83963,78255
15.84777,71296
15.85588,63606
15.86400,64437
15.87213,55308
15.88025,53694
15.88837,52656
15.89650,54343
15.90462,47594
15.91275,46053
15.92087,46812
15.92898,45694
15.93712,50073
15.94523,48720
15.95337,52375
15.96148,64494
15.96960,74374
15.97773,84109
15.98585,89353
15.99398,91301
16.00210,83917
16.01022,81762
16.01835,75884
16.02647,76913
16.03458,70231
16.04272,62210
16.05083,65866
16.05897,57924
16.06708,51177
16.07520,49749
16.08333,49189
16.09145,43297
16.09958,43882
16.10770,45829
16.11582,44643
16.12395,42498
16.13207,44438
16.14018,48700
16.14832,49395
16.15643,48058
16.16457,46796
16.17268,49731
16.18080,46468
16.18893,42835
16.19705,43360
16.20518,44326
16.21330,40671
16.22142,45203
16.22955,42951
16.23767,44641
16.24580,41314
16.25392,42171
16.26203,42553
16.27017,40857
16.27828,42457
16.28640,44238
16.29453,40393
16.30265,45783
16.31078,43627
16.31890,43667
16.32702,41564
16.33515,46270
16.34327,43838
16.35140,50211
16.35952,57483
16.36763,66658
16.37577,77176
16.38388,81179
16.39200,75133
16.40013,73788
16.40825,60164
16.41638,57587
16.42450,50646
16.43262,49076
16.44075,55622
16.44887,65260
16.45700,99095
16.46512,169087
16.47323,254521
16.48137,339123
16.48948,401515
16.49762,374112
16.50573,304114
16.51385,203623
16.52198,138709
16.53010,107136
16.53822,78827
16.54635,73187
16.55447,63221
16.56260,63296
16.57072,64479
16.57883,59911
16.58697,63128
16.59508,64753
16.60322,69247
16.61133,75419
16.61945,72042
16.62758,76699
16.63570,73419
16.64383,61482
16.65195,57650
16.66007,54255
16.66820,50739
16.67632,51986
16.68443,50533
16.69257,50326
16.70068,49636
16.70882,46478
16.71693,45029
16.72505,44654
16.73318,42272
16.74130,43926
16.74943,48322
16.75755,46439
16.76567,49386
16.77380,44072
16.78192,45984
16.79003,42707
16.79817,46999
16.80628,38991
16.81442,41869
16.82253,37708
16.83065,36713
16.83878,38116
16.84690,38593
16.85503,39529
16.86315,34631
16.87127,37902
16.87940,42858
16.88752,35940
16.89565,36754
16.90377,34295
16.91188,33837
16.92002,38574
16.92813,36613
16.93625,38350
16.94438,40025
16.95250,34605
16.96063,38294
16.96875,36316
16.97687,39023
16.98500,35738
16.99312,39516
17.00125,37318
17.00937,37579
17.01748,38221
17.02562,38648
17.03373,38987
17.04187,41583
17.04998,47427
17.05810,47897
17.06623,54128
17.07435,47338
17.08247,48129
17.09060,40475
17.09872,46670
17.10685,43209
17.11497,42076
17.12308,42937
17.13122,43700
17.13933,43915
17.14747,41233
17.15558,43254
17.16370,41804
17.17183,37971
17.17995,35569
17.18807,41521
17.19620,42342
17.20432,41018
17.21245,38064
17.22057,35359
17.22868,34186
17.23682,34524
17.24493,35049
17.25307,37848
17.26118,37155
17.26930,37286
17.27743,38227
17.28555,36025
17.29368,37302
17.30180,38357
17.30992,37016
17.31805,40699
17.32617,40280
17.33428,47222
17.34242,50178
17.35053,58925
17.35867,53701
17.36678,54345
17.37490,51893
17.38303,51747
17.39115,46947
17.39928,46522
17.40740,44772
17.41552,42454
17.42365,45678
17.43177,43551
17.43988,46371
17.44802,43824
17.45613,44269
17.46427,40857
17.47238,40252
17.48050,39548
17.48863,39087
17.49675,40207
17.50488,39734
17.51300,37407
17.52112,36879
17.52925,34735
17.53737,36990
17.54550,39916
17.55362,46730
17.56173,61289
17.56987,100885
17.57798,171323
17.58610,291230
17.59423,485059
17.60235,738458
17.61048,952724
17.61860,999034
17.62672,885080
17.63485,672891
17.64297,480509
17.65110,345612
17.65922,251305
17.66733,201505
17.67547,171878
17.68358,155290
17.69172,134206
17.69983,115454
17.70795,103030
17.71608,98360
17.72420,87883
17.73232,83323
17.74045,75234
17.74857,72650
17.75670,72255
17.76482,70810
17.77293,68352
17.78107,69624
17.78918,74730
17.79732,97633
17.80543,131440
17.81355,207869
17.82168,288921
17.82980,361630
17.83793,387030
17.84605,353271
17.85417,280000
17.86230,219979
17.87042,158295
17.87853,130516
17.88667,112054
17.89478,99390
17.90292,82637
17.91103,78905
17.91915,75346
17.92728,69581
17.93540,65992
17.94353,69070
17.95165,65630
17.95977,65506
17.96790,64960
17.97602,59585
17.98413,57844
17.99227,60084
18.00038,55122
18.00852,56716
18.01663,61960
18.02475,68212
18.03288,74820
18.04100,86696
18.04913,112369
18.05725,184356
18.06537,391509
18.07350,811243
18.08162,1508956
18.08975,2267300
18.09787,2819706
18.10598,2832235
18.11412,2359297
18.12223,1683575
18.13035,1195730
18.13848,827666
18.14660,645929
18.15473,516676
18.16285,446277
18.17097,400117
18.17910,353459
18.18722,319505
18.19535,295159
18.20347,256253
18.21158,247129
18.21972,229381
18.22783,207470
18.23595,195210
18.24408,188657
18.25220,176197
18.26033,156109
18.26845,146346
18.27657,130512
18.28470,110976
18.29282,94554
18.30095,85341
18.30907,69146
18.31718,64150
18.32532,56242
18.33343,56564
18.34157,54416
18.34968,52587
18.35780,54062
18.36593,52110
18.37405,52906
18.38217,48094
18.39030,51411
18.39842,53139
18.40655,52292
18.41467,50411
18.42278,55166
18.43092,58396
18.43903,66030
18.44717,78649
18.45528,100407
18.46340,145541
18.47153,194830
18.47965,256837
18.48778,299958
18.49590,322825
18.50402,339922
18.51215,314671
18.52027,299713
18.52838,283659
18.53652,275176
18.54463,255280
18.55277,255599
18.56088,250324
18.56900,243317
18.57713,253439
18.58525,242224
18.59338,246738
18.60150,249542
18.60962,243149
18.61775,256898
18.62587,250379
18.63398,244739
18.64212,246481
18.65023,235703
18.65837,240193
18.66648,225955
18.67460,230056
18.68273,222597
18.69085,219830
18.69898,219914
18.70710,212579
18.71522,208945
18.72335,211280
18.73147,203220
18.73960,214221
18.74772,202825
18.75583,197217
18.76397,199363
18.77208,199599
18.78020,195016
18.78833,192292
18.79645,197619
18.80458,195885
18.81270,189282
18.82082,187517
18.82895,185651
18.83707,191651
18.84520,190807
18.85332,181799
18.86143,183355
18.86957,180079
18.87768,177073
18.88582,174626
18.89393,172988
18.90205,170952
18.91018,173116
18.91830,173997
18.92642,179119
18.93455,179203
18.94267,171339
18.95080,169692
18.95892,171452
18.96703,168204
18.97517,175329
18.98328,162911
18.99142,166864
18.99953,158363
19.00765,169578
19.01578,160087
19.02390,158667
19.03202,152954
19.04015,151917
19.04827,154364
19.05640,150588
19.06452,155827
19.07263,163298
19.08077,177968
19.08888,207720
19.09702,241037
19.10513,274091
19.11325,279427
19.12138,271811
19.12950,240140
19.13763,211970
19.14575,182530
19.15387,170050
19.16200,158329
19.17012,154055
19.17823,151660
19.18637,142793
19.19448,145949
19.20262,139758
19.21073,139983
19.21885,138539
19.22698,134016
19.23510,132918
19.24323,128912
19.25135,127689
19.25947,128751
19.26760,128191
19.27572,130056
19.28383,137270
19.29197,135782
19.30008,139852
19.30822,137272
19.31633,132886
19.32445,135072
19.33258,134013
19.34070,132170
19.34883,137110
19.35695,152294
19.36507,188305
19.37320,206868
19.38132,211931
19.38945,203797
19.39757,183462
19.40568,163344
19.41382,144723
19.42193,132361
19.43005,123975
19.43818,119358
19.44630,118250
19.45443,123894
19.46255,126936
19.47067,142859
19.47880,156978
19.48692,185938
19.49505,215112
19.50317,232620
19.51128,233048
19.51942,210334
19.52753,177870
19.53567,145511
19.54378,130625
19.55190,123008
19.56003,116068
19.56815,111306
19.57627,109306
19.58440,108008
19.59252,109425
19.60065,100361
19.60877,102443
19.61688,102430
19.62502,107490
19.63313,106182
19.64127,112853
19.64938,140181
19.65750,171685
19.66563,204156
19.67375,231923
19.68187,244975
19.69000,253089
19.69812,239388
19.70625,220905
19.71437,203239
19.72248,178849
19.73062,166119
19.73873,149083
19.74687,138484
19.75498,129988
19.76310,125682
19.77123,113719
19.77935,114033
19.78748,115817
19.79560,122279
19.80372,115163
19.81185,120684
19.81997,117327
19.82808,108206
19.83622,111066
19.84433,120050
19.85247,173159
19.86058,361020
19.86870,878127
19.87683,1925165
19.88495,3676986
19.89308,5637381
19.90120,7184373
19.90932,7572890
19.91745,6721300
19.92557,5349350
19.93370,3654337
19.94182,2332662
19.94993,1591487
19.95807,1215587
19.96618,992604
19.97430,856099
19.98243,760870
19.99055,700018
19.99868,641324
20.00680,612043
20.01492,569464
20.02305,526689
20.03117,499111
20.03930,451461
20.04742,394986
20.05553,338584
20.06367,278360
20.07178,232934
20.07990,193884
20.08803,186161
20.09615,170779
20.10428,156396
20.11240,152926
20.12052,140116
20.12865,135649
20.13677,131693
20.14490,127442
20.15302,124650
20.16113,126051
20.16927,132678
20.17738,137001
20.18552,147875
20.19363,152927
20.20175,159710
20.20988,148838
20.21800,148666
20.22612,141900
20.23425,134717
20.24237,142866
20.25050,153857
20.25862,169960
20.26673,203305
20.27487,226148
20.28298,245027
20.29112,238596
20.29923,225672
20.30735,208390
20.31548,178563
20.32360,156359
20.33173,142115
20.33985,124575
20.34797,109291
20.35610,99737
20.36422,90716
20.37233,87556
20.38047,78093
20.38858,77195
20.39672,80028
20.40483,77940
20.41295,80919
20.42108,83145
20.42920,88631
20.43733,91759
20.44545,89403
20.45357,93238
20.46170,87418
20.46982,85214
20.47793,80456
20.48607,77920
20.49418,73051
20.50232,74360
20.51043,79094
20.51855,74130
20.52668,70028
20.53480,77636
20.54293,74970
20.55105,71956
20.55917,71511
20.56730,73234
20.57542,67472
20.58355,69548
20.59167,71277
20.59978,64364
20.60792,67328
20.61603,63803
20.62415,64486
20.63228,67880
20.64040,69506
20.64853,68244
20.65665,73045
20.66477,74542
20.67290,74307
20.68102,67923
20.68915,68963
20.69727,62578
20.70538,65588
20.71352,64036
20.72163,61562
20.72975,59514
20.73788,64108
20.74600,60786
20.75413,64462
20.76225,67507
20.77037,70871
20.77850,76547
20.78662,87513
20.79475,113547
20.80287,151490
20.81098,198329
20.81912,238500
20.82723,251032
20.83537,238526
20.84348,178372
20.85160,150867
20.85973,112068
20.86785,89945
20.87597,88763
20.88410,78859
20.89222,78237
20.90035,78569
20.90847,71796
20.91658,70621
20.92472,73378
20.93283,69445
20.94097,72482
20.94908,69135
20.95720,67740
20.96533,67761
20.97345,64621
20.98158,64772
20.98970,61159
20.99782,59295
21.00595,59759
21.01407,58324
21.02218,64709
21.03032,64974
21.03843,66126
21.04657,62902
21.05468,64794
21.06280,66255
21.07093,60890
21.07905,65563
21.08718,62399
21.09530,62325
21.10342,56337
21.11155,59943
21.11967,55495
21.12778,64494
21.13592,62899
21.14403,70601
21.15217,79895
21.16028,82477
21.16840,88454
21.17653,82986
21.18465,79040
21.19278,73213
21.20090,73393
21.20902,63299
21.21715,66174
21.22527,61286
21.23340,60781
21.24152,61037
21.24963,60335
21.25777,58110
21.26588,58471
21.27400,57274
21.28213,55854
21.29025,58410
21.29838,53155
21.30650,50019
21.31462,51522
21.32275,51688
21.33087,51335
21.33900,50785
21.34712,49928
21.35523,49654
21.36337,50489
21.37148,51042
21.37962,57273
21.38773,68174
21.39585,75732
21.40398,87833
21.41210,95457
21.42022,92696
21.42835,91165
21.43647,82059
21.44460,69747
21.45272,63528
21.46083,56995
21.46897,60182
21.47708,55173
21.48522,53712
21.49333,53529
21.50145,50486
21.50958,50801
21.51770,49303
21.52582,48572
21.53395,47313
21.54207,49288
21.55020,53357
21.55832,47306
21.56643,48270
21.57457,53756
21.58268,56547
21.59082,64683
21.59893,69575
21.60705,76866
21.61518,73179
21.62330,73058
21.63143,72321
21.63955,69272
21.64767,78519
21.65580,74550
21.66392,77181
21.67203,81234
21.68017,85053
21.68828,79162
21.69642,74412
21.70453,72048
21.71265,68188
21.72078,63356
21.72890,57230
21.73703,54612
21.74515,55606
21.75327,54736
21.76140,55014
21.76952,52667
21.77763,54868
21.78577,50802
21.79388,55779
21.80202,56008
21.81013,59678
21.81825,62652
21.82638,65706
21.83450,67199
21.84263,71331
21.85075,71774
21.85887,65080
21.86700,60987
21.87512,56756
21.88325,53021
21.89137,54724
21.89948,52887
21.90762,51560
21.91573,51802
21.92385,53761
21.93198,54519
21.94010,48284
21.94823,50563
21.95635,48424
21.96447,42421
21.97260,44993
21.98072,43223
21.98885,42045
21.99697,41755
22.00508,41149
22.01322,41726
22.02133,43410
22.02947,43099
22.03758,44030
22.04570,44789
22.05383,51850
22.06195,50724
22.07007,57581
22.07820,66641
22.08632,69493
22.09445,72001
22.10257,74569
22.11068,71494
22.11882,73226
22.12693,75724
22.13507,76166
22.14318,83849
22.15130,82111
22.15943,82281
22.16755,79445
22.17567,79752
22.18380,79868
22.19192,77836
22.20005,77517
22.20817,86780
22.21628,82559
22.22442,82181
22.23253,84192
22.24067,79335
22.24878,82940
22.25690,81546
22.26503,74552
22.27315,78440
22.28128,77643
22.28940,82106
22.29752,67865
22.30565,69333
22.31377,64810
22.32188,65121
22.33002,62461
22.33813,62892
22.34627,59420
22.35438,57934
22.36250,62581
22.37063,56173
22.37875,55640
22.38688,59526
22.39500,66992
22.40312,81370
22.41125,100905
22.41937,107700
22.42750,115160
22.43562,109305
22.44373,94148
22.45187,81963
22.45998,75523
22.46810,72997
22.47623,71140
22.48435,81781
22.49248,91514
22.50060,96866
22.50872,94296
22.51685,94143
22.52497,84303
22.53310,75165
22.54122,66852
22.54933,63400
22.55747,63341
22.56558,59332
22.57370,56197
22.58183,59522
22.58995,66972
22.59808,86078
22.60620,94364
22.61432,106761
22.62245,114388
22.63057,117099
22.63870,121514
22.64682,122990
22.65493,132538
22.66307,131915
22.67118,134370
22.67932,134547
22.68743,135136
22.69555,143167
22.70368,157713
22.71180,161080
22.71992,163256
22.72805,159626
22.73617,159939
22.74430,162487
22.75242,149552
22.76053,150548
22.76867,144882
22.77678,148410
22.78492,164919
22.79303,181305
22.80115,198990
22.80928,218542
22.81740,215021
22.82552,213674
22.83365,196371
22.84177,178245
22.84990,162237
22.85802,153015
22.86613,151283
22.87427,155896
22.88238,156992
22.89052,159550
22.89863,186682
22.90675,208667
22.91488,247408
22.92300,273758
22.93113,293024
22.93925,270830
22.94737,252156
22.95550,216855
22.96362,183288
22.97173,159369
22.97987,151790
22.98798,146514
22.99612,136581
23.00423,128220
23.01235,123697
23.02048,125908
23.02860,120954
23.03673,114149
23.04485,117339
23.05297,111934
23.06110,105979
23.06922,109404
23.07735,113089
23.08547,114230
23.09358,107407
23.10172,113798
23.10983,110341
23.11795,108401
23.12608,102968
23.13420,101284
23.14233,95701
23.15045,102515
23.15857,99257
23.16670,96302
23.17482,95909
23.18295,96360
23.19107,94405
23.19918,92745
23.20732,93494
23.21543,92922
23.22357,94149
23.23168,90299
23.23980,94175
23.24793,97971
23.25605,95531
23.26417,94595
23.27230,102422
23.28042,98581
23.28855,97384
23.29667,90723
23.30478,93847
23.31292,95220
23.32103,86780
23.32917,96491
23.33728,111714
23.34540,133642
23.35353,179977
23.36165,240087
23.36977,336794
23.37790,467524
23.38602,617406
23.39415,748051
23.40227,847730
23.41038,949986
23.41852,971489
23.42663,1002858
23.43477,974240
23.44288,926908
23.45100,876140
23.45913,835294
23.46725,772367
23.47538,737962
23.48350,649197
23.49162,596145
23.49975,557610
23.50787,514280
23.51598,480770
23.52412,437453
23.53223,410284
23.54037,380360
23.54848,377211
23.55660,360843
23.56473,340968
23.57285,356336
23.58098,350971
23.58910,368610
23.59722,385589
23.60535,396373
23.61347,373771
23.62158,356495
23.62972,313138
23.63783,281315
23.64597,256537
23.65408,246023
23.66220,240137
23.67033,229080
23.67845,214435
23.68658,215598
23.69470,186339
23.70282,173356
23.71095,165666
23.71907,147136
23.72720,143038
23.73532,148073
23.74343,164410
23.75157,225213
23.75968,373598
23.76780,679809
23.77593,1194139
23.78405,1814507
23.79218,2225779
23.80030,2379456
23.80842,2237260
23.81655,1947888
23.82467,1561355
23.83280,1238320
23.84092,960090
23.84903,763357
23.85717,635110
23.86528,523632
23.87342,443879
23.88153,392113
23.88965,357310
23.89778,331561
23.90590,313733
23.91402,299899
23.92215,277820
23.93027,252172
23.93840,231828
23.94652,232596
23.95463,214467
23.96277,197735
23.97088,187918
23.97902,181164
23.98713,171728
23.99525,169227
24.00338,167511
24.01150,158955
24.01962,171555
24.02775,182427
24.03587,188379
24.04400,183267
24.05212,170631
24.06023,154151
24.06837,133930
24.07648,129508
24.08462,124314
24.09273,119628
24.10085,115832
24.10898,118504
24.11710,115234
24.12523,112234
24.13335,111763
24.14147,118406
24.14960,114711
24.15772,111628
24.16583,115959
24.17397,113272
24.18208,110421
24.19022,114613
24.19833,111051
24.20645,111384
24.21458,103245
24.22270,101321
24.23083,103835
24.23895,92887
24.24707,92097
24.25520,94046
24.26332,87280
24.27145,94322
24.27957,82820
24.28768,82787
24.29582,83975
24.30393,91327
24.31205,106866
24.32018,132265
24.32830,161994
24.33643,170979
24.34455,183733
24.35267,190636
24.36080,203495
24.36892,224601
24.37705,244891
24.38517,263894
24.39328,266151
24.40142,255921
24.40953,251145
24.41765,234293
24.42578,217485
24.43390,208610
24.44203,213467
24.45015,220489
24.45827,218815
24.46640,231135
24.47452,245272
24.48265,260090
24.49077,276331
24.49888,277859
24.50702,283482
24.51513,284952
24.52327,277504
24.53138,293699
24.53950,289481
24.54763,284418
24.55575,287444
24.56387,285606
24.57200,271961
24.58012,265994
24.58825,260495
24.59637,245517
24.60448,241877
24.61262,246900
24.62073,235181
24.62887,236053
24.63698,241016
24.64510,240350
24.65323,233094
24.66135,234503
24.66947,245913
24.67760,240685
24.68572,235090
24.69385,234282
24.70197,236218
24.71008,233989
24.71822,220944
24.72633,228329
24.73447,225035
24.74258,219868
24.75070,229102
24.75883,220984
24.76695,223695
24.77508,210380
24.78320,223632
24.79132,228464
24.79945,220286
24.80757,218436
24.81568,215542
24.82382,211332
24.83193,228172
24.84007,245174
24.84818,273846
24.85630,333750
24.86443,398674
24.87255,509675
24.88068,603791
24.88880,712462
24.89692,762185
24.90505,725364
24.91317,625297
24.92130,485344
24.92942,381977
24.93753,300022
24.94567,255120
24.95378,222669
24.96190,200642
24.97003,185447
24.97815,177420
24.98628,172170
24.99440,171135
25.00252,162400
25.01065,163431
25.01877,153876
25.02690,146700
25.03502,127650
25.04313,120911
25.05127,108491
25.05938,98563
25.06750,98822
25.07563,91428
25.08375,90369
25.09188,107459
25.10000,156341
25.10812,261944
25.11625,496863
25.12437,927460
25.13250,1509503
25.14062,2177953
25.14873,2582880
25.15687,2561973
25.16498,2108728
25.17312,1513996
25.18123,958207
25.18935,570252
25.19748,349433
25.20560,228896
25.21372,164042
25.22185,139569
25.22997,134640
25.23810,139688
25.24622,154571
25.25433,183217
25.26247,233375
25.27058,263146
25.27872,256337
25.28683,257294
25.29495,222258
25.30308,175557
25.31120,138218
25.31933,115009
25.32745,103752
25.33557,85865
25.34370,84420
25.35182,78735
25.35993,75725
25.36807,71518
25.37618,71209
25.38432,74300
25.39243,72763
25.40055,73846
25.40868,70616
25.41680,67996
25.42493,69168
25.43305,63462
25.44117,72142
25.44930,87282
25.45742,115290
25.46553,153500
25.47367,186395
25.48178,216985
25.48992,232239
25.49803,239282
25.50615,250761
25.51428,257597
25.52240,257446
25.53053,265324
25.53865,262223
25.54677,261038
25.55490,261602
25.56302,260823
25.57115,274547
25.57927,271792
25.58738,266342
25.59552,269153
25.60363,265770
25.61175,262945
25.61988,265408
25.62800,258758
25.63613,257257
25.64425,263893
25.65237,264209
25.66050,248195
25.66862,253127
25.67675,254335
25.68487,255351
25.69298,243890
25.70112,237537
25.70923,240978
25.71737,229059
25.72548,232153
25.73360,239468
25.74173,233288
25.74985,227081
25.75797,225840
25.76610,226535
25.77422,226021
25.78235,223345
25.79047,216835
25.79858,214057
25.80672,214299
25.81483,210747
25.82297,213484
25.83108,216503
25.83920,214283
25.84733,209292
25.85545,212403
25.86357,206513
25.87170,207729
25.87982,202473
25.88795,197264
25.89607,192784
25.90418,189657
25.91232,185933
25.92043,181906
25.92857,179307
25.93668,184405
25.94480,175123
25.95293,177293
25.96105,174021
25.96918,176330
25.97730,166677
25.98542,166854
25.99355,165927
26.00167,165520
26.00978,159457
26.01792,155807
26.02603,147943
26.03417,147212
26.04228,156473
26.05040,153836
26.05853,153692
26.06665,157197
26.07478,140127
26.08290,144883
26.09102,143146
26.09915,148114
26.10727,142340
26.11538,143367
26.12352,139864
26.13163,137765
26.13977,142582
26.14788,139803
26.15600,142292
26.16413,138530
26.17225,136714
26.18038,138510
26.18850,131646
26.19662,128359
26.20475,125695
26.21287,120605
26.22100,130870
26.22912,122004
26.23723,117615
26.24537,118195
26.25348,125366
26.26160,121005
26.26973,116753
26.27785,116190
26.28598,115971
26.29410,112400
26.30222,105608
26.31035,113729
26.31847,109406
26.32660,107766
26.33472,106982
26.34283,101136
26.35097,103805
26.35908,100921
26.36722,102867
26.37533,97172
26.38345,100858
26.39158,103959
26.39970,107323
26.40782,111443
26.41595,111088
26.42407,104212
26.43220,99792
26.44032,96978
26.44843,91790
26.45657,92107
26.46468,96132
26.47282,97190
26.48093,94829
26.48905,91170
26.49718,97495
26.50530,90043
26.51342,86926
26.52155,87301
26.52967,88453
26.53780,81298
26.54592,79754
26.55403,86110
26.56217,83620
26.57028,79961
26.57842,81638
26.58653,76182
26.59465,77566
26.60278,78083
26.61090,80531
26.61903,77687
26.62715,74440
26.63527,78374
26.64340,76870
26.65152,75580
26.65963,73632
26.66777,78367
26.67588,78122
26.68402,77147
26.69213,78605
26.70025,69808
26.70838,74079
26.71650,71919
26.72463,67342
26.73275,68967
26.74087,71865
26.74900,70390
26.75712,67482
26.76525,70850
26.77337,67497
26.78148,72436
26.78962,72899
26.79773,73813
26.80585,75751
26.81398,76010
26.82210,71546
26.83023,72697
26.83835,69217
26.84647,64259
26.85460,68746
26.86272,66712
26.87085,63019
26.87897,58092
26.88708,60243
26.89522,61619
26.90333,59644
26.91145,64532
26.91958,63969
26.92770,62584
26.93583,62444
26.94395,61607
26.95207,64149
26.96020,63991
26.96832,70448
26.97645,85845
26.98457,115494
26.99268,146636
27.00082,194032
27.00893,255113
27.01707,309044
27.02518,351098
27.03330,384447
27.04143,363581
27.04955,347935
27.05767,300071
27.06580,264726
27.07392,225009
27.08205,195925
27.09017,169632
27.09828,158182
27.10642,146525
27.11453,137008
27.12267,132643
27.13078,120621
27.13890,113250
27.14703,107311
27.15515,99578
27.16327,101031
27.17140,98297
27.17952,95478
27.18765,96943
27.19577,95746
27.20388,92588
27.21202,84752
27.22013,83507
27.22827,81653
27.23638,76262
27.24450,80453
27.25263,74664
27.26075,71217
27.26888,71370
27.27700,70811
27.28512,67595
27.29325,66109
27.30137,62617
27.30948,65296
27.31762,62192
27.32573,64211
27.33387,64936
27.34198,61760
27.35010,65936
27.35823,66419
27.36635,68677
27.37448,69512
27.38260,67143
27.39072,63455
27.39885,58886
27.40697,62432
27.41510,58424
27.42322,56093
27.43133,58812
27.43947,53220
27.44758,55827
27.45570,58694
27.46383,54651
27.47195,57513
27.48008,56578
27.48820,53404
27.49632,54466
27.50445,51492
27.51257,58214
27.52070,60404
27.52882,51526
27.53693,61531
27.54507,57847
27.55318,57625
27.56132,55652
27.56943,60217
27.57755,64051
27.58568,68655
27.59380,74970
27.60192,76030
27.61005,78422
27.61817,73352
27.62630,67802
27.63442,60899
27.64253,60008
27.65067,54115
27.65878,56165
27.66692,52025
27.67503,51076
27.68315,54501
27.69128,57135
27.69940,55376
27.70752,51374
27.71565,49401
27.72377,52422
27.73190,48331
27.74002,51429
27.74813,49859
27.75627,48754
27.76438,46365
27.77252,51630
27.78063,50082
27.78875,51079
27.79688,55830
27.80500,50554
27.81313,43824
27.82125,45587
27.82937,52537
27.83750,48869
27.84562,47904
27.85373,46019
27.86187,45808
27.86998,47816
27.87812,43884
27.88623,45435
27.89435,46401
27.90248,43884
27.91060,47169
27.91873,46994
27.92685,43372
27.93497,45727
27.94310,45250
27.95122,42939
27.95933,42362
27.96747,43732
27.97558,42017
27.98372,42567
27.99183,43797
27.99995,50216
28.00808,45144
28.01620,50199
28.02433,52386
28.03245,54920
28.04057,62196
28.04870,63150
28.05682,62556
28.06495,61182
28.07307,60067
28.08118,57302
28.08932,58338
28.09743,58316
28.10555,54423
28.11368,50403
28.12180,49081
28.12993,47872
28.13805,45986
28.14617,49203
28.15430,44255
28.16242,43714
28.17055,43345
28.17867,52746
28.18678,56621
28.19492,60073
28.20303,66091
28.21117,77800
28.21928,77988
28.22740,76478
28.23553,75778
28.24365,70858
28.25177,63797
28.25990,62066
28.26802,52041
28.27615,51972
28.28427,48292
28.29238,46021
28.30052,51867
28.30863,57961
28.31677,59949
28.32488,68340
28.33300,75780
28.34113,83150
28.34925,92464
28.35737,99054
28.36550,101715
28.37362,114207
28.38175,118879
28.38987,123951
28.39798,116939
28.40612,120984
28.41423,122029
28.42237,114198
28.43048,118489
28.43860,106631
28.44673,105082
28.45485,99627
28.46298,91500
28.47110,86822
28.47922,85507
28.48735,82087
28.49547,79949
28.50358,79701
28.51172,75193
28.51983,72995
28.52797,71022
28.53608,66512
28.54420,63118
28.55233,62100
28.56045,65764
28.56858,59465
28.57670,62163
28.58482,56969
28.59295,57402
28.60107,54404
28.60920,62556
28.61732,53749
28.62543,57167
28.63357,57632
28.64168,57268
28.64980,60572
28.65793,63033
28.66605,58636
28.67418,61267
28.68230,56128
28.69042,58040
28.69855,56618
28.70667,51386
28.71480,52122
28.72292,54545
28.73103,57148
28.73917,57252
28.74728,66629
28.75540,66194
28.76353,70337
28.77165,67044
28.77978,61959
28.78790,63393
28.79602,58617
28.80415,58980
28.81227,62043
28.82040,60701
28.82852,56223
28.83663,60400
28.84477,54291
28.85288,56431
28.86102,58855
28.86913,56819
28.87725,63040
28.88538,58533
28.89350,72375
28.90162,69474
28.90975,68386
28.91787,68486
28.92600,62943
28.93412,57268
28.94223,56126
28.95037,54154
28.95848,50423
28.96662,54176
28.97473,52198
28.98285,48852
28.99098,51500
28.99910,49400
29.00722,47114
29.01535,42546
29.02347,46553
29.03160,48677
29.03972,50162
29.04783,45904
29.05597,44476
29.06408,46375
29.07222,48637
29.08033,46475
29.08845,46711
29.09658,48456
29.10470,47361
29.11283,48922
29.12095,49129
29.12907,45351
29.13720,45096
29.14532,46457
29.15343,51151
29.16157,49476
29.16968,49431
29.17782,48727
29.18593,62302
29.19405,67429
29.20218,81939
29.21030,96740
29.21843,103709
29.22655,101721
29.23467,97176
29.24280,79650
29.25092,72020
29.25905,68511
29.26717,65165
29.27528,60931
29.28342,58695
29.29153,56020
29.29965,52885
29.30778,52405
29.31590,48479
29.32403,45537
29.33215,44982
29.34027,50074
29.34840,44111
29.35652,48327
29.36465,45480
29.37277,40104
29.38088,41498
29.38902,47711
29.39713,42441
29.40525,41158
29.41338,49739
29.42150,44920
29.42963,44619
29.43775,42920
29.44587,41270
29.45400,41228
29.46212,43699
29.47025,45423
29.47837,43873
29.48648,41498
29.49462,43559
29.50273,46794
29.51087,44221
29.51898,42468
29.52710,45854
29.53523,43841
29.54335,43762
29.55147,45201
29.55960,41956
29.56772,38635
29.57585,40521
29.58397,39336
29.59208,42426
29.60022,40147
29.60833,38477
29.61647,40554
29.62458,37489
29.63270,40003
29.64083,35464
29.64895,39347
29.65708,39179
29.66520,38012
29.67332,42113
29.68145,45654
29.68957,43911
29.69768,45700
29.70582,47794
29.71393,47830
29.72207,48324
29.73018,43541
29.73830,46489
29.74643,40875
29.75455,40154
29.76268,36977
29.77080,36534
29.77892,38379
29.78705,35327
29.79517,36685
29.80328,34998
29.81142,37480
29.81953,35745
29.82767,37450
29.83578,37285
29.84390,41316
29.85203,36782
29.86015,42775
29.86828,43458
29.87640,50568
29.88452,65695
29.89265,75857
29.90077,78493
29.90890,79113
29.91702,74100
29.92513,58283
29.93327,56079
29.94138,51545
29.94950,47692
29.95763,49966
29.96575,50985
29.97388,53748
29.98200,58677
29.99012,59708
29.99825,65980
30.00637,66054
30.01450,69998
30.02262,71772
30.03073,74025
30.03887,80661
30.04698,80633
30.05510,79035
30.06323,80983
30.07135,75155
30.07948,73256
30.08760,75360
30.09572,71548
30.10385,73459
30.11197,71527
30.12010,72094
30.12822,71819
30.13633,68590
30.14447,64680
30.15258,64264
30.16072,66657
30.16883,65602
30.17695,61406
30.18508,58823
30.19320,55615
30.20132,51442
30.20945,52827
30.21757,53589
30.22570,49394
30.23382,52514
30.24193,53343
30.25007,47631
30.25818,52316
30.26632,46744
30.27443,44392
30.28255,47213
30.29068,48388
30.29880,44583
30.30693,44754
30.31505,42635
30.32317,45246
30.33130,44184
30.33942,42687
30.34753,44453
30.35567,48835
30.36378,44931
30.37192,44972
30.38003,42370
30.38815,43613
30.39628,42322
30.40440,40634
30.41253,42150
30.42065,37511
30.42877,44031
30.43690,44170
30.44502,44465
30.45313,40134
30.46127,42553
30.46938,42524
30.47752,37836
30.48563,39953
30.49375,40130
30.50188,41110
30.51000,38515
30.51813,44105
30.52625,36758
30.53437,41345
30.54250,38655
30.55062,40162
30.55875,38089
30.56687,40818
30.57498,40548
30.58312,39550
30.59123,40359
30.59935,38242
30.60748,40662
30.61560,41867
30.62373,39274
30.63185,40283
30.63997,37226
30.64810,37861
30.65622,39434
30.66435,35251
30.67247,37521
30.68058,38985
30.68872,39023
30.69683,36274
30.70497,37409
30.71308,38036
30.72120,40684
30.72933,40399
30.73745,38566
30.74557,34295
30.75370,38140
30.76182,38422
30.76995,45130
30.77807,48495
30.78618,57347
30.79432,76194
30.80243,91645
30.81057,100459
30.81868,99488
30.82680,89044
30.83493,72078
30.84305,59051
30.85117,49854
30.85930,45606
30.86742,43665
30.87555,45454
30.88367,41937
30.89178,39847
30.89992,43002
30.90803,36991
30.91617,37886
30.92428,38557
30.93240,38939
30.94053,37294
30.94865,42546
30.95678,36724
30.96490,36664
30.97302,38540
30.98115,44208
30.98927,42782
30.99738,44032
31.00552,45999
31.01363,47294
31.02177,50647
31.02988,48599
31.03800,53170
31.04613,51378
31.05425,50401
31.06238,56045
31.07050,56954
31.07862,56961
31.08675,58481
31.09487,68731
31.10300,74133
31.11112,73485
31.11923,69453
31.12737,69453
31.13548,66648
31.14360,68102
31.15173,63149
31.15985,66152
31.16798,69599
31.17610,69114
31.18422,79321
31.19235,85216
31.20047,112955
31.20860,133110
31.21672,163682
31.22483,180150
31.23297,179829
31.24108,159280
31.24920,134123
31.25733,111011
31.26545,94600
31.27358,73710
31.28170,71373
31.28982,63311
31.29795,66539
31.30607,61176
31.31420,63067
31.32232,62637
31.33043,61780
31.33857,63038
31.34668,61815
31.35482,60546
31.36293,61021
31.37105,59400
31.37918,59944
31.38730,62153
31.39542,60331
31.40355,58705
31.41167,65004
31.41980,56546
31.42792,54436
31.43603,52692
31.44417,55910
31.45228,50647
31.46042,54301
31.46853,50209
31.47665,51193
31.48478,52302
31.49290,53085
31.50102,51459
31.50915,54640
31.51727,48914
31.52540,48059
31.53352,48648
31.54163,51962
31.54977,55405
31.55788,51766
31.56602,55946
31.57413,52036
31.58225,53218
31.59038,52410
31.59850,50857
31.60663,49389
31.61475,46452
31.62287,49532
31.63100,50976
31.63912,52995
31.64723,47955
31.65537,51563
31.66348,56696
31.67162,55965
31.67973,54261
31.68785,50522
31.69598,56486
31.70410,53530
31.71223,51140
31.72035,47214
31.72847,50373
31.73660,47323
31.74472,46251
31.75285,43339
31.76097,44678
31.76908,45052
31.77722,44023
31.78533,46208
31.79345,48440
31.80158,46908
31.80970,46484
31.81783,45591
31.82595,51481
31.83407,47221
31.84220,43654
31.85032,49257
31.85845,50394
31.86657,48072
31.87468,53891
31.88282,52418
31.89093,55477
31.89905,58676
31.90718,63797
31.91530,63630
31.92343,69221
31.93155,68419
31.93967,72234
31.94780,72515
31.95592,72154
31.96405,73110
31.97217,76346
31.98028,79178
31.98842,78343
31.99653,79731
32.00467,79159
32.01278,74782
32.02090,71294
32.02903,72971
32.03715,75345
32.04527,74303
32.05340,70370
32.06152,67619
32.06965,65262
32.07777,64489
32.08588,66207
32.09402,57518
32.10213,60121
32.11027,57706
32.11838,53943
32.12650,55257
32.13463,51326
32.14275,54210
32.15088,49714
32.15900,47996
32.16712,53698
32.17525,50147
32.18337,48678
32.19148,51528
32.19962,48336
32.20773,45745
32.21587,46923
32.22398,46116
32.23210,45502
32.24023,44449
32.24835,44330
32.25648,49089
32.26460,48570
32.27272,48429
32.28085,48383
32.28897,47033
32.29708,47967
32.30522,46677
32.31333,44755
32.32147,44264
32.32958,42378
32.33770,48227
32.34583,40611
32.35395,44709
32.36208,42194
32.37020,45058
32.37832,44816
32.38645,40464
32.39457,43397
32.40270,44592
32.41082,41290
32.41893,42870
32.42707,41748
32.43518,42801
32.44330,40358
32.45143,43936
32.45955,42059
32.46768,44020
32.47580,37877
32.48392,39939
32.49205,42559
32.50017,38715
32.50830,38172
32.51642,38962
32.52453,38738
32.53267,41431
32.54078,39175
32.54890,43703
32.55703,46795
32.56515,43273
32.57328,41634
32.58140,43095
32.58952,40639
32.59765,42203
32.60577,42324
32.61390,40070
32.62202,44556
32.63013,46295
32.63827,48884
32.64638,50203
32.65452,54109
32.66263,54127
32.67075,48677
32.67888,47912
32.68700,42005
32.69512,39654
32.70325,43646
32.71137,42615
32.71950,43734
32.72762,41152
32.73573,38991
32.74387,42003
32.75198,39239
32.76012,40563
32.76823,39793
32.77635,40002
32.78448,40787
32.79260,36840
32.80073,37033
32.80885,39016
32.81697,39830
32.82510,36532
32.83322,40546
32.84133,37115
32.84947,39168
32.85758,37149
32.86572,38542
32.87383,37659
32.88195,39712
32.89008,39389
32.89820,43210
32.90633,42043
32.91445,41116
32.92257,41837
32.93070,40755
32.93882,40078
32.94695,43096
32.95507,43351
32.96318,44743
32.97132,47980
32.97943,47269
32.98755,50927
32.99568,52786
33.00380,60720
33.01193,61429
33.02005,59301
33.02817,54953
33.03630,50537
33.04442,43805
33.05255,49845
33.06067,44121
33.06878,47652
33.07692,46825
33.08503,47230
33.09315,48603
33.10128,52174
33.10940,58892
33.11753,57876
33.12565,58276
33.13377,55673
33.14190,53920
33.15002,47881
33.15815,46211
33.16627,47046
33.17438,45377
33.18252,42471
33.19063,40813
33.19877,41732
33.20688,43086
33.21500,38863
33.22313,39284
33.23125,42464
33.23937,40131
33.24750,40651
33.25562,38838
33.26375,40397
33.27187,36122
33.27998,34406
33.28812,41849
33.29623,41626
33.30437,40516
33.31248,40057
33.32060,37472
33.32873,39400
33.33685,39871
33.34497,41699
33.35310,39833
33.36122,41177
33.36935,44171
33.37747,42641
33.38558,38435
33.39372,44262
33.40183,42064
33.40997,34993
33.41808,37887
33.42620,38012
33.43433,37800
33.44245,35318
33.45058,35086
33.45870,34568
33.46682,39487
33.47495,37661
33.48307,43116
33.49118,40996
33.49932,39647
33.50743,39226
33.51557,39954
33.52368,39322
33.53180,39672
33.53993,42573
33.54805,45190
33.55618,44677
33.56430,48834
33.57242,46771
33.58055,43673
33.58867,40707
33.59680,40597
33.60492,42287
33.61303,40916
33.62117,38221
33.62928,45595
33.63740,38269
33.64553,39743
33.65365,43462
33.66178,42442
33.66990,45328
33.67802,42533
33.68615,39650
33.69427,42741
33.70240,39679
33.71052,39948
33.71863,37266
33.72677,42357
33.73488,39717
33.74300,37110
33.75113,37398
33.75925,37177
33.76738,37535
33.77550,43464
33.78362,36801
33.79175,39217
33.79987,38340
33.80800,42133
33.81612,37511
33.82423,42876
33.83237,36560
33.84048,38121
33.84862,36522
33.85673,39355
33.86485,40039
33.87298,37783
33.88110,39502
33.88922,42686
33.89735,40940
33.90547,41953
33.91360,41761
33.92172,39779
33.92983,39686
33.93797,38379
33.94608,39969
33.95422,39778
33.96233,37492
33.97045,39294
33.97858,37418
33.98670,39331
33.99483,36456
34.00295,37904
34.01107,36554
34.01920,39940
34.02732,34375
34.03543,38253
34.04357,39108
34.05168,38655
34.05982,39775
34.06793,37896
34.07605,37133
34.08418,39278
34.09230,37723
34.10043,35713
34.10855,39251
34.11667,40778
34.12480,41922
34.13292,37637
34.14103,40575
34.14917,39435
34.15728,38528
34.16542,41157
34.17353,39428
34.18165,40298
34.18978,36811
34.19790,41819
34.20603,38221
34.21415,36906
34.22227,39415
34.23040,40434
34.23852,41042
34.24665,38346
34.25477,42809
34.26288,36219
34.27102,39423
34.27913,43081
34.28725,38922
34.29538,35907
34.30350,37751
34.31163,33402
34.31975,35809
34.32787,36118
34.33600,38619
34.34412,37227
34.35225,37874
34.36037,40228
34.36848,35890
34.37662,40844
34.38473,41018
34.39285,40303
34.40098,38551
34.40910,39072
34.41723,42843
34.42535,41073
34.43347,39018
34.44160,40045
34.44972,38054
34.45785,37928
34.46597,41248
34.47408,40176
34.48222,39524
34.49033,37701
34.49847,45057
34.50658,50239
34.51470,57881
34.52283,57632
34.53095,64048
34.53907,71495
34.54720,69086
34.55532,69406
34.56345,69365
34.57157,66873
34.57968,68823
34.58782,60431
34.59593,55013
34.60407,55387
34.61218,58487
34.62030,51598
34.62843,51828
34.63655,52113
34.64468,51767
34.65280,46895
34.66092,45624
34.66905,46254
34.67717,46566
34.68528,45153
34.69342,42206
34.70153,43247
34.70967,46066
34.71778,46790
34.72590,43253
34.73403,46837
34.74215,45157
34.75028,43215
34.75840,45036
34.76652,44322
34.77465,43377
34.78277,39826
34.79088,44903
34.79902,48250
34.80713,44540
34.81527,45430
34.82338,47717
34.83150,43988
34.83963,41074
34.84775,41381
34.85588,43913
34.86400,44232
34.87212,46150
34.88025,50931
34.88837,44939
34.89650,41598
34.90462,40496
34.91273,43222
34.92087,44965
34.92898,45386
34.93710,45537
34.94523,45750
34.95335,46557
34.96148,48271
34.96960,45776
34.97772,49832
34.98585,46447
34.99397,50496
35.00210,40241
35.01022,43657
35.01833,41940
35.02647,42898
35.03458,40662
35.04272,39817
35.05083,38874
35.05895,43089
35.06708,41016
35.07520,41514
35.08332,44510
35.09145,45361
35.09957,41527
35.10770,38780
35.11582,41622
35.12393,41924
35.13207,43194
35.14018,41604
35.14832,42650
35.15643,48293
35.16455,49029
35.17268,44462
35.18080,42584
35.18892,41271
35.19705,40224
35.20517,42049
35.21330,44043
35.22142,39395
35.22953,43650
35.23767,42075
35.24578,40762
35.25392,42453
35.26203,43736
35.27015,39466
35.27828,42654
35.28640,44026
35.29453,41097
35.30265,40549
35.31077,38202
35.31890,41211
35.32702,44397
35.33513,40391
35.34327,41895
35.35138,37452
35.35952,38111
35.36763,40070
35.37575,39766
35.38388,41083
35.39200,41693
35.40013,35389
35.40825,44337
35.41637,44164
35.42450,45536
35.43262,43877
35.44075,46877
35.44887,48522
35.45698,42174
35.46512,42930
35.47323,42919
35.48135,43358
35.48948,41580
35.49760,40644
35.50573,39621
35.51385,44305
35.52197,40287
35.53010,44279
35.53822,41101
35.54635,40474
35.55447,38314
35.56258,40776
35.57072,45079
35.57883,42516
35.58695,38501
35.59508,42285
35.60320,42120
35.61133,42437
35.61945,44089
35.62757,45009
35.63570,43048
35.64382,42587
35.65195,42508
35.66007,44361
35.66818,42617
35.67632,43477
35.68443,41519
35.69257,42425
35.70068,41813
35.70880,39388
35.71693,44889
35.72505,39663
35.73317,42629
35.74130,40056
35.74942,42931
35.75755,47650
35.76567,44818
35.77378,47965
35.78192,45682
35.79003,41541
35.79817,44200
35.80628,44625
35.81440,43509
35.82253,42099
35.83065,44402
35.83877,45025
35.84690,42426
35.85502,42732
35.86315,41106
35.87127,41128
35.87938,39848
35.88752,41337
35.89563,44000
35.90377,41432
35.91188,40726
35.92000,39316
35.92813,43694
35.93625,46688
35.94438,39257
35.95250,43265
35.96062,42204
35.96875,42083
35.97687,41298
35.98498,40697
35.99312,40418
36.00123,45697
36.00937,45411
36.01748,44288
36.02560,41589
36.03373,46391
36.04185,42277
36.04998,42765
36.05810,41274
36.06622,42423
36.07435,43673
36.08247,43704
36.09060,41676
36.09872,42389
36.10683,42438
36.11497,44549
36.12308,42078
36.13120,44173
36.13933,42560
36.14745,47508
36.15558,44656
36.16370,47824
36.17182,43370
36.17995,41002
36.18807,41322
36.19620,40326
36.20432,40816
36.21243,39528
36.22057,41846
36.22868,40646
36.23680,40169
36.24493,42194
36.25305,46328
36.26118,43416
36.26930,47181
36.27742,47574
36.28555,54938
36.29367,53606
36.30180,56567
36.30992,51362
36.31803,55085
36.32617,48011
36.33428,49065
36.34242,44544
36.35053,42724
36.35865,45061
36.36678,46899
36.37490,41336
36.38302,44534
36.39115,44411
36.39927,45871
36.40740,50529
36.41552,44849
36.42363,47649
36.43177,44814
36.43988,43955
36.44802,44704
36.45613,45179
36.46425,44252
36.47238,44490
36.48050,43868
36.48863,44463
36.49675,44582
36.50487,44681
36.51300,39968
36.52112,41183
36.52923,44315
36.53737,40012
36.54548,39853
36.55362,42390
36.56173,40934
36.56985,45021
36.57798,46412
36.58610,42815
36.59423,47607
36.60235,45677
36.61047,48363
36.61860,48214
36.62672,45319
36.63483,47211
36.64297,48755
36.65108,48037
36.65922,52078
36.66733,53354
36.67545,48939
36.68358,51747
36.69170,48223
36.69983,47304
36.70795,42308
36.71607,50316
36.72420,48308
36.73232,48532
36.74045,47088
36.74857,49718
36.75668,49619
36.76482,48258
36.77293,48535
36.78105,53261
36.78918,52874
36.79730,53649
36.80543,48407
36.81355,46249
36.82167,51495
36.82980,47031
36.83792,47857
36.84605,49638
36.85417,49477
36.86228,49599
36.87042,50101
36.87853,46766
36.88665,47333
36.89478,49389
36.90290,48830
36.91103,51305
36.91915,49513
36.92727,48369
36.93540,51882
36.94352,56132
36.95165,60938
36.95977,62188
36.96788,68535
36.97602,68554
36.98413,60446
36.99227,59229
37.00038,56549
37.00850,57185
37.01663,52688
37.02475,51377
37.03287,53161
37.04100,48941
37.04912,47421
37.05725,49533
37.06537,50400
37.07348,49887
37.08162,46879
37.08973,47644
37.09787,53458
37.10598,46559
37.11410,48951
37.12223,51927
37.13035,47466
37.13848,50150
37.14660,51779
37.15472,49927
37.16285,50758
37.17097,49201
37.17908,51689
37.18722,47741
37.19533,50801
37.20347,48985
37.21158,50173
37.21970,48533
37.22783,49922
37.23595,48767
37.24408,48154
37.25220,51034
37.26032,48364
37.26845,52083
37.27657,45473
37.28468,52873
37.29282,49894
37.30093,52414
37.30907,59161
37.31718,61154
37.32530,64491
37.33343,71602
37.34155,77640
37.34968,72154
37.35780,69871
37.36592,69586
37.37405,69637
37.38217,68266
37.39030,61979
37.39842,60907
37.40653,60579
37.41467,55632
37.42278,61494
37.43090,59820
37.43903,56188
37.44715,58610
37.45528,57222
37.46340,58072
37.47152,57419
37.47965,55180
37.48777,56079
