Z:\data\JTB-E02\BACandBLUE\JTB-E02-189-07.D Mon Dec 10 14:41:25 2018
Start of data points
2.09520,113459
2.10333,114390
2.11145,121939
2.11958,110087
2.12770,116106
2.13582,114187
2.14395,110293
2.15207,118177
2.16018,124119
2.16832,107188
2.17643,113806
2.18457,105841
2.19268,102432
2.20080,99373
2.20893,95186
2.21705,89100
2.22518,89600
2.23330,91367
2.24142,89079
2.24955,120066
2.25767,700085
2.26578,1725776
2.27392,1604057
2.28203,1017533
2.29017,525203
2.29828,354973
2.30640,297413
2.31453,275375
2.32265,247446
2.33078,236152
2.33890,219119
2.34702,202437
2.35515,199034
2.36327,186777
2.37140,162981
2.37952,169029
2.38763,158946
2.39577,150687
2.40388,151439
2.41200,157673
2.42013,147008
2.42825,147007
2.43638,145357
2.44450,144336
2.45262,139303
2.46075,132247
2.46887,134165
2.47700,131977
2.48512,130478
2.49323,128638
2.50137,131944
2.50948,125826
2.51762,127628
2.52573,127321
2.53385,127360
2.54198,120573
2.55010,125251
2.55822,123176
2.56635,123250
2.57447,116258
2.58260,118063
2.59072,117427
2.59883,128176
2.60697,154827
2.61508,158234
2.62322,151265
2.63133,127258
2.63945,118572
2.64758,120500
2.65570,117983
2.66382,119104
2.67195,118053
2.68007,109004
2.68820,116956
2.69632,109862
2.70443,107342
2.71257,109819
2.72068,110944
2.72882,104352
2.73693,109450
2.74505,109654
2.75318,105238
2.76130,105784
2.76943,105383
2.77755,109632
2.78567,105642
2.79380,113832
2.80192,106033
2.81003,107865
2.81817,107860
2.82628,106681
2.83442,108711
2.84253,106088
2.85065,106077
2.85878,106657
2.86690,111329
2.87503,101479
2.88315,107924
2.89127,104862
2.89940,103917
2.90752,99660
2.91563,102778
2.92377,93820
2.93188,97562
2.94002,98952
2.94813,102382
2.95625,105216
2.96438,101011
2.97250,99972
2.98063,102521
2.98875,100020
2.99687,103016
3.00500,106302
3.01312,100494
3.02125,105460
3.02937,99747
3.03748,103948
3.04562,98236
3.05373,100911
3.06185,96556
3.06998,91154
3.07810,96818
3.08623,92976
3.09435,100002
3.10247,115162
3.11060,107838
3.11872,109709
3.12685,103493
3.13497,107080
3.14308,103827
3.15122,93935
3.15933,103242
3.16747,101169
3.17558,103725
3.18370,100060
3.19183,96093
3.19995,101844
3.20807,100699
3.21620,98394
3.22432,97431
3.23245,100880
3.24057,96176
3.24868,95713
3.25682,98098
3.26493,96217
3.27307,107607
3.28118,177635
3.28930,491153
3.29743,1188717
3.30555,1956687
3.31368,2026222
3.32180,1555057
3.32992,1058239
3.33805,715566
3.34617,547161
3.35428,441997
3.36242,385662
3.37053,341429
3.37867,304723
3.38678,283505
3.39490,270048
3.40303,247620
3.41115,233608
3.41928,228706
3.42740,222209
3.43552,208204
3.44365,205541
3.45177,204533
3.45988,196919
3.46802,192840
3.47613,195149
3.48427,185652
3.49238,183896
3.50050,179233
3.50863,180105
3.51675,178660
3.52488,174387
3.53300,176771
3.54112,181039
3.54925,170708
3.55737,166602
3.56550,169455
3.57362,168823
3.58173,168969
3.58987,167542
3.59798,165506
3.60610,174062
3.61423,165054
3.62235,163986
3.63048,157092
3.63860,155709
3.64672,155772
3.65485,154496
3.66297,156790
3.67110,155684
3.67922,169353
3.68733,166836
3.69547,166273
3.70358,163118
3.71170,165645
3.71983,162737
3.72795,169999
3.73608,172198
3.74420,167765
3.75232,162348
3.76045,158903
3.76857,165515
3.77670,164563
3.78482,167721
3.79293,166943
3.80107,166992
3.80918,161225
3.81732,165069
3.82543,157684
3.83355,160069
3.84168,157771
3.84980,157652
3.85792,154683
3.86605,154828
3.87417,157369
3.88230,161346
3.89042,161257
3.89853,156608
3.90667,157955
3.91478,156465
3.92292,150782
3.93103,153094
3.93915,150648
3.94728,159796
3.95540,157708
3.96353,149159
3.97165,146929
3.97977,150746
3.98790,154801
3.99602,152604
4.00413,152764
4.01227,146575
4.02038,150604
4.02852,156390
4.03663,145886
4.04475,151893
4.05288,149007
4.06100,152778
4.06913,148246
4.07725,149393
4.08537,150152
4.09350,153898
4.10162,146461
4.10973,150109
4.11787,147901
4.12598,144421
4.13412,147340
4.14223,151535
4.15035,154692
4.15848,160726
4.16660,155578
4.17473,152738
4.18285,150874
4.19097,140265
4.19910,151559
4.20722,248504
4.21535,578312
4.22347,1267626
4.23158,1902176
4.23972,1835172
4.24783,1293433
4.25595,806863
4.26408,526512
4.27220,401893
4.28033,331526
4.28845,292384
4.29657,248888
4.30470,238940
4.31282,221960
4.32095,214453
4.32907,202546
4.33718,194820
4.34532,179456
4.35343,178597
4.36157,177228
4.36968,167634
4.37780,170641
4.38593,167994
4.39405,161631
4.40217,163628
4.41030,166234
4.41842,161624
4.42655,156211
4.43467,153931
4.44278,156751
4.45092,155075
4.45903,149409
4.46717,152599
4.47528,151414
4.48340,159359
4.49153,158171
4.49965,157187
4.50777,146913
4.51590,144524
4.52402,147560
4.53215,142864
4.54027,149877
4.54838,149504
4.55652,145743
4.56463,149792
4.57277,141558
4.58088,142461
4.58900,142224
4.59713,149380
4.60525,140452
4.61338,146979
4.62150,144860
4.62962,141467
4.63775,143505
4.64587,141126
4.65398,137948
4.66212,145791
4.67023,139777
4.67837,140857
4.68648,144074
4.69460,142562
4.70273,136880
4.71085,137635
4.71898,143028
4.72710,147406
4.73522,133022
4.74335,134055
4.75147,137709
4.75958,129874
4.76772,142667
4.77583,141529
4.78397,141842
4.79208,137291
4.80020,139302
4.80833,140041
4.81645,138322
4.82458,140066
4.83270,137405
4.84082,141003
4.84895,135918
4.85707,127675
4.86520,138278
4.87332,142062
4.88143,139315
4.88957,137497
4.89768,137101
4.90580,138314
4.91393,133367
4.92205,139322
4.93018,140130
4.93830,159592
4.94642,221051
4.95455,336970
4.96267,474761
4.97080,577971
4.97892,568652
4.98703,465872
4.99517,389783
5.00328,337473
5.01142,290333
5.01953,275307
5.02765,251193
5.03578,252435
5.04390,245300
5.05202,229643
5.06015,220805
5.06827,215901
5.07640,214004
5.08452,217984
5.09263,213593
5.10077,212102
5.10888,204995
5.11702,206870
5.12513,202351
5.13325,203314
5.14138,199608
5.14950,204376
5.15762,196590
5.16575,196061
5.17387,204489
5.18200,205004
5.19012,204559
5.19823,192773
5.20637,194083
5.21448,199402
5.22262,202336
5.23073,260252
5.23885,258405
5.24698,274077
5.25510,243350
5.26323,218319
5.27135,200144
5.27947,195435
5.28760,185203
5.29572,179020
5.30383,179818
5.31197,174419
5.32008,174166
5.32822,171662
5.33633,178137
5.34445,179392
5.35258,175418
5.36070,173599
5.36883,168133
5.37695,174895
5.38507,171677
5.39320,173950
5.40132,158096
5.40945,172041
5.41757,169018
5.42568,171979
5.43382,170131
5.44193,168902
5.45005,168419
5.45818,168180
5.46630,169866
5.47443,169150
5.48255,167620
5.49067,161114
5.49880,169056
5.50692,161797
5.51505,161772
5.52317,161362
5.53128,167484
5.53942,174846
5.54753,162593
5.55565,163445
5.56378,167522
5.57190,161336
5.58003,161574
5.58815,157984
5.59627,165999
5.60440,174879
5.61252,160690
5.62065,166852
5.62877,172728
5.63688,170485
5.64502,173017
5.65313,172844
5.66127,168696
5.66938,160156
5.67750,161543
5.68563,162138
5.69375,163451
5.70187,168649
5.71000,170702
5.71812,159320
5.72625,159005
5.73437,162180
5.74248,149996
5.75062,154691
5.75873,153618
5.76687,162114
5.77498,152623
5.78310,151913
5.79123,165031
5.79935,156960
5.80748,159133
5.81560,155977
5.82372,154571
5.83185,159900
5.83997,148769
5.84808,156433
5.85622,153589
5.86433,156633
5.87247,150843
5.88058,160885
5.88870,158749
5.89683,150920
5.90495,148595
5.91308,147139
5.92120,133381
5.92932,126880
5.93745,116149
5.94557,120494
5.95368,123276
5.96182,124431
5.96993,131721
5.97807,130036
5.98618,141380
5.99430,134212
6.00243,127845
6.01055,124347
6.01868,118988
6.02680,122690
6.03492,115313
6.04305,122916
6.05117,122402
6.05930,116476
6.06742,119225
6.07553,127404
6.08367,114295
6.09178,115784
6.09990,121391
6.10803,121075
6.11615,115368
6.12428,118155
6.13240,119302
6.14052,118494
6.14865,132101
6.15677,130506
6.16490,136166
6.17302,135460
6.18113,138206
6.18927,138759
6.19738,137543
6.20550,137026
6.21363,140191
6.22175,145695
6.22988,144083
6.23800,141298
6.24612,149921
6.25425,143133
6.26237,155336
6.27050,152652
6.27862,153316
6.28673,165308
6.29487,158874
6.30298,146286
6.31112,134793
6.31923,125841
6.32735,130196
6.33548,126691
6.34360,123581
6.35172,124127
6.35985,124194
6.36797,126257
6.37610,124654
6.38422,121897
6.39233,121117
6.40047,117365
6.40858,116615
6.41672,122121
6.42483,121105
6.43295,123077
6.44108,115062
6.44920,123593
6.45733,113149
6.46545,114543
6.47357,114290
6.48170,113907
6.48982,115914
6.49793,114112
6.50607,120018
6.51418,119898
6.52232,110656
6.53043,120079
6.53855,120087
6.54668,112881
6.55480,121838
6.56293,108177
6.57105,110495
6.57917,111132
6.58730,108122
6.59542,114247
6.60353,111258
6.61167,111879
6.61978,110511
6.62792,110592
6.63603,104748
6.64415,105833
6.65228,108452
6.66040,109955
6.66853,108073
6.67665,100924
6.68477,109224
6.69290,104707
6.70102,112902
6.70915,108264
6.71727,105354
6.72538,108288
6.73352,107627
6.74163,109096
6.74975,113594
6.75788,103419
6.76600,105413
6.77413,102641
6.78225,104165
6.79037,104026
6.79850,104463
6.80662,106457
6.81475,108200
6.82287,100239
6.83098,107080
6.83912,109210
6.84723,104134
6.85537,103988
6.86348,98280
6.87160,85254
6.87973,76254
6.88785,70739
6.89597,79729
6.90410,78720
6.91222,75267
6.92035,75796
6.92847,68485
6.93658,73675
6.94472,70010
6.95283,77393
6.96097,77087
6.96908,75362
6.97720,69366
6.98533,72128
6.99345,72959
7.00157,72858
7.00970,69664
7.01782,71517
7.02595,76691
7.03407,71705
7.04218,72185
7.05032,72397
7.05843,67513
7.06657,73657
7.07468,71633
7.08280,76292
7.09093,73726
7.09905,73068
7.10718,72526
7.11530,72569
7.12342,68890
7.13155,69742
7.13967,70093
7.14778,70327
7.15592,73302
7.16403,75738
7.17217,73172
7.18028,70675
7.18840,71386
7.19653,70926
7.20465,68320
7.21278,64804
7.22090,66646
7.22902,69049
7.23715,70482
7.24527,69826
7.25338,64580
7.26152,72950
7.26963,70109
7.27777,70652
7.28588,71615
7.29400,69928
7.30213,66061
7.31025,71260
7.31838,68943
7.32650,72607
7.33462,71957
7.34275,68130
7.35087,72290
7.35900,71061
7.36712,68049
7.37523,68137
7.38337,68292
7.39148,68424
7.39960,66180
7.40773,67598
7.41585,64827
7.42398,74589
7.43210,66379
7.44022,68700
7.44835,70544
7.45647,66579
7.46460,67127
7.47272,70661
7.48083,73381
7.48897,68159
7.49708,73562
7.50522,67014
7.51333,76402
7.52145,70643
7.52958,75179
7.53770,69923
7.54582,69817
7.55395,69945
7.56207,71966
7.57020,69942
7.57832,67884
7.58643,70248
7.59457,73927
7.60268,67307
7.61082,68421
7.61893,69724
7.62705,65530
7.63518,74834
7.64330,67602
7.65142,69523
7.65955,70154
7.66767,67578
7.67580,66130
7.68392,70215
7.69203,65833
7.70017,69600
7.70828,68873
7.71642,71134
7.72453,71893
7.73265,69156
7.74078,70009
7.74890,63989
7.75703,65943
7.76515,63074
7.77327,68267
7.78140,67894
7.78952,69804
7.79763,61894
7.80577,59345
7.81388,67373
7.82202,60994
7.83013,62983
7.83825,61111
7.84638,59812
7.85450,62411
7.86263,61203
7.87075,61048
7.87887,59366
7.88700,62722
7.89512,62737
7.90325,60393
7.91137,56311
7.91948,55973
7.92762,56756
7.93573,60373
7.94385,55786
7.95198,56612
7.96010,61775
7.96823,56071
7.97635,55606
7.98447,58975
7.99260,63755
8.00072,59792
8.00885,56299
8.01697,62926
8.02508,60006
8.03322,63215
8.04133,63875
8.04945,56710
8.05758,56166
8.06570,56035
8.07383,59543
8.08195,57073
8.09007,57857
8.09820,58926
8.10632,60246
8.11445,56409
8.12257,58411
8.13068,59567
8.13882,55480
8.14693,56115
8.15507,60730
8.16318,60004
8.17130,58468
8.17943,57479
8.18755,57695
8.19567,58020
8.20380,58337
8.21192,61663
8.22005,62412
8.22817,59956
8.23628,57554
8.24442,58920
8.25253,57815
8.26067,57390
8.26878,60180
8.27690,61098
8.28503,60358
8.29315,59892
8.30127,54414
8.30940,55990
8.31752,58722
8.32565,56143
8.33377,59230
8.34188,57406
8.35002,61818
8.35813,59039
8.36627,58979
8.37438,60611
8.38250,67014
8.39063,64118
8.39875,62020
8.40688,60678
8.41500,60731
8.42312,61551
8.43125,59624
8.43937,54177
8.44748,56998
8.45562,50827
8.46373,53244
8.47187,59838
8.47998,56722
8.48810,52212
8.49623,54292
8.50435,55585
8.51248,50968
8.52060,60927
8.52872,60065
8.53685,59869
8.54497,53861
8.55310,54903
8.56122,54306
8.56933,54499
8.57747,54293
8.58558,59350
8.59370,57798
8.60183,52331
8.60995,50900
8.61808,56408
8.62620,56498
8.63432,54401
8.64245,53477
8.65057,55088
8.65870,50453
8.66682,52522
8.67493,52133
8.68307,52624
8.69118,60068
8.69932,52356
8.70743,53009
8.71555,53840
8.72368,53019
8.73180,51802
8.73992,54953
8.74805,52390
8.75617,52711
8.76430,54867
8.77242,56249
8.78053,72851
8.78867,92486
8.79678,161001
8.80492,272847
8.81303,387780
8.82115,449159
8.82928,429203
8.83740,349404
8.84552,259712
8.85365,192334
8.86177,165802
8.86990,148150
8.87802,134738
8.88613,127284
8.89427,123809
8.90238,119564
8.91052,118338
8.91863,113519
8.92675,104626
8.93488,112490
8.94300,107583
8.95113,108247
8.95925,103743
8.96737,98006
8.97550,99164
8.98362,102421
8.99173,106543
8.99987,97897
9.00798,105176
9.01612,103308
9.02423,101468
9.03235,96381
9.04048,95841
9.04860,101165
9.05673,101973
9.06485,95879
9.07297,102189
9.08110,100576
9.08922,98009
9.09733,97089
9.10547,97791
9.11358,92606
9.12172,92417
9.12983,97732
9.13795,101025
9.14608,94840
9.15420,100339
9.16233,101498
9.17045,94091
9.17857,94697
9.18670,98916
9.19482,86816
9.20295,102229
9.21107,93160
9.21918,91385
9.22732,94058
9.23543,93476
9.24355,89166
9.25168,94985
9.25980,86902
9.26793,90681
9.27605,92974
9.28417,89862
9.29230,91247
9.30042,84984
9.30855,86721
9.31667,85413
9.32478,90362
9.33292,90735
9.34103,83027
9.34917,89425
9.35728,86148
9.36540,84721
9.37353,90829
9.38165,85361
9.38977,87470
9.39790,83956
9.40602,81421
9.41415,81370
9.42227,84725
9.43038,84753
9.43852,84771
9.44663,81605
9.45477,84584
9.46288,84475
9.47100,86651
9.47913,84372
9.48725,80784
9.49537,83154
9.50350,83316
9.51162,81828
9.51975,79547
9.52787,72526
9.53598,79132
9.54412,79670
9.55223,81650
9.56037,82808
9.56848,77218
9.57660,75981
9.58473,63724
9.59285,62213
9.60098,59048
9.60910,58727
9.61722,58650
9.62535,63193
9.63347,59618
9.64158,62837
9.64972,58340
9.65783,59834
9.66597,56942
9.67408,58087
9.68220,58631
9.69033,59260
9.69845,55544
9.70658,57719
9.71470,56660
9.72282,50488
9.73095,59852
9.73907,58106
9.74720,53730
9.75532,57058
9.76343,53548
9.77157,50116
9.77968,57782
9.78780,52535
9.79593,57796
9.80405,58696
9.81218,55268
9.82030,56798
9.82842,52488
9.83655,51786
9.84467,50610
9.85280,54571
9.86092,57370
9.86903,49107
9.87717,54699
9.88528,52302
9.89340,54328
9.90153,55313
9.90965,52147
9.91778,50456
9.92590,53421
9.93402,55457
9.94215,53714
9.95027,52654
9.95840,53149
9.96652,58333
9.97463,55463
9.98277,54553
9.99088,52964
9.99902,59642
10.00713,69042
10.01525,72068
10.02338,81799
10.03150,80473
10.03962,80842
10.04775,71438
10.05587,70791
10.06400,71849
10.07212,62285
10.08023,69455
10.08837,67441
10.09648,69106
10.10462,65723
10.11273,68607
10.12085,64243
10.12898,64192
10.13710,61308
10.14522,60441
10.15335,61062
10.16147,58596
10.16960,59713
10.17772,58856
10.18583,59928
10.19397,58594
10.20208,64886
10.21022,63537
10.21833,60327
10.22645,59183
10.23458,59200
10.24270,59568
10.25083,61102
10.25895,62421
10.26707,60872
10.27520,63442
10.28332,63827
10.29143,67407
10.29957,63451
10.30768,69618
10.31582,82493
10.32393,77781
10.33205,81930
10.34018,85451
10.34830,77994
10.35643,74297
10.36455,82855
10.37267,76075
10.38080,73025
10.38892,72304
10.39705,74111
10.40517,74319
10.41328,72434
10.42142,73533
10.42953,73834
10.43765,73018
10.44578,72062
10.45390,74095
10.46203,68932
10.47015,68078
10.47827,73477
10.48640,69613
10.49452,73739
10.50265,69992
10.51077,70735
10.51888,68743
10.52702,70450
10.53513,71099
10.54325,75688
10.55138,78200
10.55950,70873
10.56763,70937
10.57575,71494
10.58387,72058
10.59200,77028
10.60012,70791
10.60825,77715
10.61637,79666
10.62448,71614
10.63262,74691
10.64073,72906
10.64887,75265
10.65698,73816
10.66510,72553
10.67323,74789
10.68135,75478
10.68947,75894
10.69760,76728
10.70572,81468
10.71385,74356
10.72197,79187
10.73008,71658
10.73822,73977
10.74633,72857
10.75447,76022
10.76258,75701
10.77070,70955
10.77883,73530
10.78695,74860
10.79508,75675
10.80320,76887
10.81132,78402
10.81945,73366
10.82757,74379
10.83568,73480
10.84382,73636
10.85193,77201
10.86007,78164
10.86818,71584
10.87630,73401
10.88443,71228
10.89255,71808
10.90068,76407
10.90880,69128
10.91692,72946
10.92505,72397
10.93317,69581
10.94128,68567
10.94942,69520
10.95753,66904
10.96567,67370
10.97378,75021
10.98190,71572
10.99003,69854
10.99815,68650
11.00628,66815
11.01440,66191
11.02252,62438
11.03065,62402
11.03877,63432
11.04690,68935
11.05502,62188
11.06313,57070
11.07127,63736
11.07938,64193
11.08750,63668
11.09563,63039
11.10375,63636
11.11188,61059
11.12000,59477
11.12812,56818
11.13625,62216
11.14437,62974
11.15250,55487
11.16062,54402
11.16873,59232
11.17687,56941
11.18498,56398
11.19312,59558
11.20123,56729
11.20935,56373
11.21748,57646
11.22560,57064
11.23372,58221
11.24185,56018
11.24997,61355
11.25810,61116
11.26622,57852
11.27433,53266
11.28247,61688
11.29058,53840
11.29872,51210
11.30683,53350
11.31495,50047
11.32308,53601
11.33120,54227
11.33932,52135
11.34745,50585
11.35557,54552
11.36370,58193
11.37182,60493
11.37993,56061
11.38807,60359
11.39618,57021
11.40432,58869
11.41243,61895
11.42055,57239
11.42868,59144
11.43680,58131
11.44493,53289
11.45305,48579
11.46117,53648
11.46930,55389
11.47742,53627
11.48553,51097
11.49367,52639
11.50178,50770
11.50992,57141
11.51803,51278
11.52615,55332
11.53428,57716
11.54240,57163
11.55053,50883
11.55865,51313
11.56677,51562
11.57490,52525
11.58302,51764
11.59113,53184
11.59927,52063
11.60738,50517
11.61552,52717
11.62363,51095
11.63175,54000
11.63988,48434
11.64800,49666
11.65613,51112
11.66425,54817
11.67237,48752
11.68050,53973
11.68862,51339
11.69675,49157
11.70487,48332
11.71298,53740
11.72112,55306
11.72923,55262
11.73735,52800
11.74548,57247
11.75360,55414
11.76173,53479
11.76985,55009
11.77797,51928
11.78610,51155
11.79422,52973
11.80235,48784
11.81047,52340
11.81858,51651
11.82672,55683
11.83483,54204
11.84297,55443
11.85108,53986
11.85920,53367
11.86733,52922
11.87545,52426
11.88357,55953
11.89170,55210
11.89982,56009
11.90795,51615
11.91607,48109
11.92418,50264
11.93232,50175
11.94043,53932
11.94857,46134
11.95668,49480
11.96480,47614
11.97293,50762
11.98105,48621
11.98917,53248
11.99730,47606
12.00542,49990
12.01355,56131
12.02167,47242
12.02978,49671
12.03792,49826
12.04603,48395
12.05417,50745
12.06228,48980
12.07040,50924
12.07853,49261
12.08665,48664
12.09478,45947
12.10290,49765
12.11102,45459
12.11915,48583
12.12727,46590
12.13538,48760
12.14352,48034
12.15163,57080
12.15977,54800
12.16788,58791
12.17600,62781
12.18413,77092
12.19225,85448
12.20038,84268
12.20850,83085
12.21662,88455
12.22475,84229
12.23287,89411
12.24100,82720
12.24912,87839
12.25723,79899
12.26537,80759
12.27348,76826
12.28160,79305
12.28973,79926
12.29785,80102
12.30598,83515
12.31410,78324
12.32222,79875
12.33035,78204
12.33847,78393
12.34660,80382
12.35472,77047
12.36283,73740
12.37097,78999
12.37908,75653
12.38720,80299
12.39533,83941
12.40345,84579
12.41158,89466
12.41970,98828
12.42782,99338
12.43595,100305
12.44407,99363
12.45220,91279
12.46032,83781
12.46843,78203
12.47657,78063
12.48468,78783
12.49282,74080
12.50093,73015
12.50905,71048
12.51718,76487
12.52530,70208
12.53342,70614
12.54155,69843
12.54967,75521
12.55780,71319
12.56592,69260
12.57403,69670
12.58217,69896
12.59028,70395
12.59842,70242
12.60653,68134
12.61465,62755
12.62278,66958
12.63090,66687
12.63902,71616
12.64715,66073
12.65527,70628
12.66340,64827
12.67152,69182
12.67963,66764
12.68777,64225
12.69588,66152
12.70402,61902
12.71213,62393
12.72025,64543
12.72838,63519
12.73650,64293
12.74463,65717
12.75275,67925
12.76087,67465
12.76900,66534
12.77712,68938
12.78523,66325
12.79337,67505
12.80148,62611
12.80962,64346
12.81773,60012
12.82585,57934
12.83398,55161
12.84210,55307
12.85023,49816
12.85835,52582
12.86647,47527
12.87460,50480
12.88272,53115
12.89085,47005
12.89897,50205
12.90708,50545
12.91522,47928
12.92333,45415
12.93145,47825
12.93958,51671
12.94770,50105
12.95583,44840
12.96395,46090
12.97207,44569
12.98020,51844
12.98832,48252
12.99645,47703
13.00457,46353
13.01268,44108
13.02082,48331
13.02893,50830
13.03707,45902
13.04518,45734
13.05330,45454
13.06143,44413
13.06955,43159
13.07767,47315
13.08580,49822
13.09392,45200
13.10205,48889
13.11017,47165
13.11828,45299
13.12642,47516
13.13453,48644
13.14267,46269
13.15078,45155
13.15890,47597
13.16703,46530
13.17515,48175
13.18327,46879
13.19140,48630
13.19952,49323
13.20765,46076
13.21577,46306
13.22388,47610
13.23202,54357
13.24013,49576
13.24827,48359
13.25638,46218
13.26450,47381
13.27263,50346
13.28075,47190
13.28888,51586
13.29700,50197
13.30512,47348
13.31325,51173
13.32137,48562
13.32948,45657
13.33762,46965
13.34573,46712
13.35387,42774
13.36198,45404
13.37010,47497
13.37823,46278
13.38635,47967
13.39448,49988
13.40260,50087
13.41072,43149
13.41885,46879
13.42697,46855
13.43508,44924
13.44322,45440
13.45133,45663
13.45947,44239
13.46758,42654
13.47570,45585
13.48383,43261
13.49195,42798
13.50008,49094
13.50820,43100
13.51632,41818
13.52445,40813
13.53257,48180
13.54070,43513
13.54882,42140
13.55693,43649
13.56507,42246
13.57318,39067
13.58130,42617
13.58943,42506
13.59755,43772
13.60568,43781
13.61380,43766
13.62192,43031
13.63005,37997
13.63817,43922
13.64630,42186
13.65442,43766
13.66253,38768
13.67067,40461
13.67878,41738
13.68692,40141
13.69503,40459
13.70315,38533
13.71128,46364
13.71940,43088
13.72752,40972
13.73565,41545
13.74377,45512
13.75190,42756
13.76002,41210
13.76813,39915
13.77627,42611
13.78438,42908
13.79252,41616
13.80063,42450
13.80875,41053
13.81688,42867
13.82500,43540
13.83312,45675
13.84125,46902
13.84937,44069
13.85750,44188
13.86562,46912
13.87373,43778
13.88187,47275
13.88998,44428
13.89812,45014
13.90623,45999
13.91435,46774
13.92248,45966
13.93060,43100
13.93873,41287
13.94685,45692
13.95497,50691
13.96310,44612
13.97122,48596
13.97933,45049
13.98747,44739
13.99558,44101
14.00372,40861
14.01183,47915
14.01995,46681
14.02808,45264
14.03620,44740
14.04433,44406
14.05245,45049
14.06057,49445
14.06870,43312
14.07682,46258
14.08495,47068
14.09307,43299
14.10118,45550
14.10932,46456
14.11743,47332
14.12555,45097
14.13368,44888
14.14180,46138
14.14993,47211
14.15805,44204
14.16617,44677
14.17430,40563
14.18242,45770
14.19055,49406
14.19867,52647
14.20678,50602
14.21492,62107
14.22303,79588
14.23115,106621
14.23928,113744
14.24740,113171
14.25553,119800
14.26365,118817
14.27177,116615
14.27990,111107
14.28802,110778
14.29615,106235
14.30427,100745
14.31238,90914
14.32052,92336
14.32863,89038
14.33677,89654
14.34488,83301
14.35300,87248
14.36113,88422
14.36925,75990
14.37737,70500
14.38550,68635
14.39362,58728
14.40175,56066
14.40987,53082
14.41798,53883
14.42612,54478
14.43423,53437
14.44237,57751
14.45048,53480
14.45860,52026
14.46673,52347
14.47485,51449
14.48297,52602
14.49110,52455
14.49922,49120
14.50735,48980
14.51547,49708
14.52358,49194
14.53172,50592
14.53983,51296
14.54797,47086
14.55608,51192
14.56420,52918
14.57233,51209
14.58045,44437
14.58858,49235
14.59670,48802
14.60482,48591
14.61295,46975
14.62107,48064
14.62918,45313
14.63732,46094
14.64543,45583
14.65357,46624
14.66168,50521
14.66980,43022
14.67793,43680
14.68605,44760
14.69418,47991
14.70230,48054
14.71042,42905
14.71855,46625
14.72667,46064
14.73480,43164
14.74292,49748
14.75103,48787
14.75917,40828
14.76728,47425
14.77540,42996
14.78353,43823
14.79165,46251
14.79978,40841
14.80790,50047
14.81602,53220
14.82415,56872
14.83227,79781
14.84040,108753
14.84852,133622
14.85663,177136
14.86477,188568
14.87288,196607
14.88100,204067
14.88913,199589
14.89725,202614
14.90538,196482
14.91350,186064
14.92162,187594
14.92975,178402
14.93787,178273
14.94600,174651
14.95412,167192
14.96223,162285
14.97037,163900
14.97848,158495
14.98662,155977
14.99473,145528
15.00285,147482
15.01098,139414
15.01910,146619
15.02722,137998
15.03535,140016
15.04347,130896
15.05160,135887
15.05972,130848
15.06783,130889
15.07597,132198
15.08408,123595
15.09222,120711
15.10033,116012
15.10845,119213
15.11658,121005
15.12470,116837
15.13283,113056
15.14095,110840
15.14907,109529
15.15720,98327
15.16532,100088
15.17343,89768
15.18157,73767
15.18968,74665
15.19782,64270
15.20593,64770
15.21405,62821
15.22218,58672
15.23030,55581
15.23843,55700
15.24655,56021
15.25467,57552
15.26280,58706
15.27092,56879
15.27903,56294
15.28717,50648
15.29528,53994
15.30342,54211
15.31153,54119
15.31965,47634
15.32778,53509
15.33590,52214
15.34403,52058
15.35215,49020
15.36027,48848
15.36840,52022
15.37652,47689
15.38465,50444
15.39277,45660
15.40088,50973
15.40902,48496
15.41713,56264
15.42525,48828
15.43338,47247
15.44150,47131
15.44963,48039
15.45775,52900
15.46587,49297
15.47400,47334
15.48212,49229
15.49025,50631
15.49837,47069
15.50648,47618
15.51462,43314
15.52273,49252
15.53085,49130
15.53898,49158
15.54710,47803
15.55523,52618
15.56335,48330
15.57147,44548
15.57960,47459
15.58772,50434
15.59585,47963
15.60397,43788
15.61208,46202
15.62022,47354
15.62833,44808
15.63647,43505
15.64458,44572
15.65270,43970
15.66083,45337
15.66895,46414
15.67707,46600
15.68520,47368
15.69332,45612
15.70145,46589
15.70957,45829
15.71768,43608
15.72582,45813
15.73393,43940
15.74207,48043
15.75018,41909
15.75830,48401
15.76643,44004
15.77455,45950
15.78268,51303
15.79080,50103
15.79892,56292
15.80705,52613
15.81517,58815
15.82328,54007
15.83142,56503
15.83953,53138
15.84767,57715
15.85578,59071
15.86390,56556
15.87203,58853
15.88015,56535
15.88828,50649
15.89640,52585
15.90452,51669
15.91265,51797
15.92077,53911
15.92888,53541
15.93702,52665
15.94513,51457
15.95327,53702
15.96138,50981
15.96950,52462
15.97763,50281
15.98575,52106
15.99388,50991
16.00200,51412
16.01012,47009
16.01825,46376
16.02637,53337
16.03450,56100
16.04262,55851
16.05073,54714
16.05887,57520
16.06698,56798
16.07510,49373
16.08323,49901
16.09135,55772
16.09948,46393
16.10760,48217
16.11572,50513
16.12385,51342
16.13197,48900
16.14010,46751
16.14822,47645
16.15633,53303
16.16447,49103
16.17258,44119
16.18072,46729
16.18883,46213
16.19695,42930
16.20508,50113
16.21320,48176
16.22132,49815
16.22945,52339
16.23757,47682
16.24570,44215
16.25382,47077
16.26193,44647
16.27007,44502
16.27818,45084
16.28632,42407
16.29443,45919
16.30255,49426
16.31068,47802
16.31880,49186
16.32692,43133
16.33505,42023
16.34317,47794
16.35130,51682
16.35942,52122
16.36753,46788
16.37567,49510
16.38378,49699
16.39192,51436
16.40003,45757
16.40815,46342
16.41628,49189
16.42440,47480
16.43253,43885
16.44065,44228
16.44877,50394
16.45690,47491
16.46502,44483
16.47313,50200
16.48127,53099
16.48938,56699
16.49752,63957
16.50563,72995
16.51375,78175
16.52188,78870
16.53000,78974
16.53813,79145
16.54625,77871
16.55437,78323
16.56250,75697
16.57062,75565
16.57875,73767
16.58687,73348
16.59498,69956
16.60312,72537
16.61123,70068
16.61935,63989
16.62748,66378
16.63560,69330
16.64373,63946
16.65185,66786
16.65997,62174
16.66810,61408
16.67622,63008
16.68435,59774
16.69247,59871
16.70058,57817
16.70872,59004
16.71683,59570
16.72495,57190
16.73308,50703
16.74120,48625
16.74933,48570
16.75745,50792
16.76557,43456
16.77370,44959
16.78182,49152
16.78995,44740
16.79807,44756
16.80618,49077
16.81432,45786
16.82243,45817
16.83057,46724
16.83868,51625
16.84680,48686
16.85493,43177
16.86305,45490
16.87117,41363
16.87930,42446
16.88742,49609
16.89555,41612
16.90367,45700
16.91178,42938
16.91992,44828
16.92803,42056
16.93617,43252
16.94428,47447
16.95240,45859
16.96053,43204
16.96865,43699
16.97677,44526
16.98490,46452
16.99302,44019
17.00115,41035
17.00927,43290
17.01738,42277
17.02552,41937
17.03363,45120
17.04177,44211
17.04988,42949
17.05800,42890
17.06613,36561
17.07425,40261
17.08238,41141
17.09050,46429
17.09862,45370
17.10675,42596
17.11487,46322
17.12298,47672
17.13112,44673
17.13923,42426
17.14737,43017
17.15548,43407
17.16360,44665
17.17173,45104
17.17985,44017
17.18798,46124
17.19610,42667
17.20422,47544
17.21235,46864
17.22047,42368
17.22860,40962
17.23672,43079
17.24483,45461
17.25297,43369
17.26108,46104
17.26920,43007
17.27733,47212
17.28545,44699
17.29358,40289
17.30170,41127
17.30982,47872
17.31795,45256
17.32607,43683
17.33420,41769
17.34232,44344
17.35043,55062
17.35857,58599
17.36668,62176
17.37480,69511
17.38293,74463
17.39105,81341
17.39918,81279
17.40730,82800
17.41542,81545
17.42355,74739
17.43167,74633
17.43980,74390
17.44792,75519
17.45603,71173
17.46417,73446
17.47228,74215
17.48042,72249
17.48853,66319
17.49665,66769
17.50478,67226
17.51290,71317
17.52102,67962
17.52915,70823
17.53727,66259
17.54540,66859
17.55352,62211
17.56163,62688
17.56977,67327
17.57788,66891
17.58602,64219
17.59413,58766
17.60225,60845
17.61038,55992
17.61850,54940
17.62663,53805
17.63475,52130
17.64287,53967
17.65100,54753
17.65912,57445
17.66723,52874
17.67537,54762
17.68348,52742
17.69162,52850
17.69973,56233
17.70785,55508
17.71598,57825
17.72410,54262
17.73223,56317
17.74035,50185
17.74847,52163
17.75660,52863
17.76472,53243
17.77283,57807
17.78097,52367
17.78908,54563
17.79722,52637
17.80533,51473
17.81345,49516
17.82158,52364
17.82970,49792
17.83783,51224
17.84595,50882
17.85407,51760
17.86220,54724
17.87032,54494
17.87845,49229
17.88657,50578
17.89468,51990
17.90282,46220
17.91093,47368
17.91905,46684
17.92718,50485
17.93530,46336
17.94343,46321
17.95155,46126
17.95967,47442
17.96780,50311
17.97592,43603
17.98405,50031
17.99217,48474
18.00028,43811
18.00842,45468
18.01653,42342
18.02465,46659
18.03278,44300
18.04090,45404
18.04903,46624
18.05715,48804
18.06527,52124
18.07340,53487
18.08152,60331
18.08965,85772
18.09777,117954
18.10588,178397
18.11402,239959
18.12213,307805
18.13027,326383
18.13838,347903
18.14650,354976
18.15463,345466
18.16275,316268
18.17087,310226
18.17900,301430
18.18712,298310
18.19525,272974
18.20337,274914
18.21148,264339
18.21962,250756
18.22773,240768
18.23587,220992
18.24398,233033
18.25210,221190
18.26023,215810
18.26835,197101
18.27648,190711
18.28460,179577
18.29272,156083
18.30085,131341
18.30897,106492
18.31708,96127
18.32522,84544
18.33333,71210
18.34147,68267
18.34958,70388
18.35770,66275
18.36583,72971
18.37395,65132
18.38208,68736
18.39020,67974
18.39832,63639
18.40645,65499
18.41457,61541
18.42270,61729
18.43082,60581
18.43893,63589
18.44707,56626
18.45518,61402
18.46330,60102
18.47143,66550
18.47955,62309
18.48768,67677
18.49580,60166
18.50392,63596
18.51205,60356
18.52017,56374
18.52830,54518
18.53642,51213
18.54453,51852
18.55267,46684
18.56078,54572
18.56890,46912
18.57703,46246
18.58515,50601
18.59328,55258
18.60140,52583
18.60952,47024
18.61765,47027
18.62577,45409
18.63390,47021
18.64202,47337
18.65013,49800
18.65827,45648
18.66638,45649
18.67452,41649
18.68263,46627
18.69075,42774
18.69888,42576
18.70700,41348
18.71512,43056
18.72325,43576
18.73137,44078
18.73950,43089
18.74762,42652
18.75573,45653
18.76387,45073
18.77198,45579
18.78012,47115
18.78823,44381
18.79635,45783
18.80448,48615
18.81260,45225
18.82072,47506
18.82885,47187
18.83697,44580
18.84510,50578
18.85322,48009
18.86133,45713
18.86947,46432
18.87758,41930
18.88572,45887
18.89383,51498
18.90195,51980
18.91008,47916
18.91820,50271
18.92633,50462
18.93445,51334
18.94257,47537
18.95070,49179
18.95882,52546
18.96693,49272
18.97507,51607
18.98318,46894
18.99132,44826
18.99943,47102
19.00755,45171
19.01568,44555
19.02380,49839
19.03193,51487
19.04005,48344
19.04817,42915
19.05630,49376
19.06442,49135
19.07255,46827
19.08067,46054
19.08878,47660
19.09692,48993
19.10503,50445
19.11315,47905
19.12128,53153
19.12940,52940
19.13753,53874
19.14565,50368
19.15377,57851
19.16190,51555
19.17002,46280
19.17815,46905
19.18627,48210
19.19438,49430
19.20252,48364
19.21063,50549
19.21875,46234
19.22688,48089
19.23500,44939
19.24313,45466
19.25125,48349
19.25937,42673
19.26750,45357
19.27562,43330
19.28375,46835
19.29187,50200
19.29998,48565
19.30812,47411
19.31623,50630
19.32437,47493
19.33248,49456
19.34060,55012
19.34873,50528
19.35685,47823
19.36497,51361
19.37310,49436
19.38122,49175
19.38935,60638
19.39747,56543
19.40558,60924
19.41372,66113
19.42183,70271
19.42997,63554
19.43808,66015
19.44620,65926
19.45433,62022
19.46245,65426
19.47058,63426
19.47870,61227
19.48682,60905
19.49495,56550
19.50307,57818
19.51118,66447
19.51932,73640
19.52743,88772
19.53557,103948
19.54368,115825
19.55180,111931
19.55993,108693
19.56805,86222
19.57618,74061
19.58430,68338
19.59242,56794
19.60055,55057
19.60867,47083
19.61678,49912
19.62492,51744
19.63303,51505
19.64117,46914
19.64928,47546
19.65740,52371
19.66553,65263
19.67365,72491
19.68178,106346
19.68990,116557
19.69802,122336
19.70615,128809
19.71427,114515
19.72240,100765
19.73052,92875
19.73863,87735
19.74677,84348
19.75488,77369
19.76300,75064
19.77113,69027
19.77925,60667
19.78738,60764
19.79550,57565
19.80362,53869
19.81175,55399
19.81987,56063
19.82800,51329
19.83612,51532
19.84423,52906
19.85237,57228
19.86048,53059
19.86860,50985
19.87673,51830
19.88485,59601
19.89298,58728
19.90110,64224
19.90922,74435
19.91735,96401
19.92547,114877
19.93360,118263
19.94172,126454
19.94983,121266
19.95797,125794
19.96608,123072
19.97422,119393
19.98233,117605
19.99045,118073
19.99858,112427
20.00670,103713
20.01482,109008
20.02295,107619
20.03107,98866
20.03920,104712
20.04732,90986
20.05543,92316
20.06357,84370
20.07168,78273
20.07982,75437
20.08793,66866
20.09605,68449
20.10418,64766
20.11230,63174
20.12043,66608
20.12855,64048
20.13667,65645
20.14480,64800
20.15292,67353
20.16103,60337
20.16917,62809
20.17728,63454
20.18542,64752
20.19353,69711
20.20165,68655
20.20978,74316
20.21790,78011
20.22603,81110
20.23415,76791
20.24227,79231
20.25040,73627
20.25852,74121
20.26663,76760
20.27477,85950
20.28288,90847
20.29102,102174
20.29913,128794
20.30725,144563
20.31538,154798
20.32350,155749
20.33163,152325
20.33975,138316
20.34787,124665
20.35600,109006
20.36412,91455
20.37225,85342
20.38037,78894
20.38848,71905
20.39662,71561
20.40473,73532
20.41285,63658
20.42098,63047
20.42910,57021
20.43723,60959
20.44535,64489
20.45347,65334
20.46160,68800
20.46972,72310
20.47785,78408
20.48597,81470
20.49408,74981
20.50222,76945
20.51033,71251
20.51847,66857
20.52658,63230
20.53470,64746
20.54283,60478
20.55095,55685
20.55907,57453
20.56720,53096
20.57532,49318
20.58345,55586
20.59157,57953
20.59968,52269
20.60782,54847
20.61593,48401
20.62407,48502
20.63218,54069
20.64030,51899
20.64843,49095
20.65655,51458
20.66467,49582
20.67280,50863
20.68092,52590
20.68905,51496
20.69717,53651
20.70528,53703
20.71342,48175
20.72153,55226
20.72967,50848
20.73778,54185
20.74590,50838
20.75403,50016
20.76215,51465
20.77028,53286
20.77840,52242
20.78652,51176
20.79465,47609
20.80277,49926
20.81088,52152
20.81902,53068
20.82713,54742
20.83527,62536
20.84338,68209
20.85150,70701
20.85963,73214
20.86775,71860
20.87588,65696
20.88400,66608
20.89212,68747
20.90025,63850
20.90837,59317
20.91648,57187
20.92462,58280
20.93273,56125
20.94087,57086
20.94898,51983
20.95710,51726
20.96523,52730
20.97335,55453
20.98148,51579
20.98960,49061
20.99772,51102
21.00585,55496
21.01397,47457
21.02210,50988
21.03022,49961
21.03833,48008
21.04647,49950
21.05458,51106
21.06270,50259
21.07083,47489
21.07895,45736
21.08708,49272
21.09520,48473
21.10332,46139
21.11145,47734
21.11957,47075
21.12770,47576
21.13582,42979
21.14393,46826
21.15207,52481
21.16018,61054
21.16832,63160
21.17643,66178
21.18455,71224
21.19268,76909
21.20080,82073
21.20892,79185
21.21705,79063
21.22517,78813
21.23330,76696
21.24142,71093
21.24953,66106
21.25767,63397
21.26578,62800
21.27392,55329
21.28203,60473
21.29015,56660
21.29828,56316
21.30640,61955
21.31452,57906
21.32265,53855
21.33077,58487
21.33890,50691
21.34702,54424
21.35513,49525
21.36327,52427
21.37138,50641
21.37952,44818
21.38763,49337
21.39575,47534
21.40388,48496
21.41200,45583
21.42013,51579
21.42825,58418
21.43637,61809
21.44450,63334
21.45262,62610
21.46073,66576
21.46887,68550
21.47698,62608
21.48512,61665
21.49323,58924
21.50135,55415
21.50948,59496
21.51760,53733
21.52573,56667
21.53385,53827
21.54197,53362
21.55010,47724
21.55822,50311
21.56635,52608
21.57447,49361
21.58258,50141
21.59072,53298
21.59883,51743
21.60695,58708
21.61508,55825
21.62320,60871
21.63133,56609
21.63945,65911
21.64757,70174
21.65570,73493
21.66382,75821
21.67195,83834
21.68007,85037
21.68818,81334
21.69632,78637
21.70443,70203
21.71255,64238
21.72068,64647
21.72880,56222
21.73693,53112
21.74505,55741
21.75317,57576
21.76130,50278
21.76942,49775
21.77755,54243
21.78567,54999
21.79378,54236
21.80192,51291
21.81003,55621
21.81817,54149
21.82628,51332
21.83440,49627
21.84253,55369
21.85065,62309
21.85877,65756
21.86690,73907
21.87502,74397
21.88315,75806
21.89127,72935
21.89938,65352
21.90752,63885
21.91563,55509
21.92377,53174
21.93188,53817
21.94000,45901
21.94813,52642
21.95625,48760
21.96438,54385
21.97250,47492
21.98062,47157
21.98875,48217
21.99687,50180
22.00498,40863
22.01312,44266
22.02123,42147
22.02937,43371
22.03748,47011
22.04560,44191
22.05373,47158
22.06185,50275
22.06998,50412
22.07810,51785
22.08622,49865
22.09435,50140
22.10247,50104
22.11058,53512
22.11872,49471
22.12683,51900
22.13497,52082
22.14308,53257
22.15120,50596
22.15933,52196
22.16745,53947
22.17558,52056
22.18370,52668
22.19182,55167
22.19995,51155
22.20807,55555
22.21620,54824
22.22432,56116
22.23243,52538
22.24057,51950
22.24868,53174
22.25680,63172
22.26493,58856
22.27305,57456
22.28118,55366
22.28930,56912
22.29742,55003
22.30555,53773
22.31367,55304
22.32180,57900
22.32992,58739
22.33803,59609
22.34617,57105
22.35428,58724
22.36240,58446
22.37053,52724
22.37865,54510
22.38678,56510
22.39490,55432
22.40302,54543
22.41115,55530
22.41927,53443
22.42740,59937
22.43552,57887
22.44363,62374
22.45177,65207
22.45988,63057
22.46802,65073
22.47613,62008
22.48425,66113
22.49238,60352
22.50050,59100
22.50862,60225
22.51675,65118
22.52487,62290
22.53300,66584
22.54112,66787
22.54923,73688
22.55737,70695
22.56548,68038
22.57362,74496
22.58173,66275
22.58985,63412
22.59798,64345
22.60610,64341
22.61423,60339
22.62235,59427
22.63047,54395
22.63860,52368
22.64672,47067
22.65483,52230
22.66297,49777
22.67108,49466
22.67922,54844
22.68733,52614
22.69545,54759
22.70358,52815
22.71170,56396
22.71983,57041
22.72795,61509
22.73607,62560
22.74420,61917
22.75232,67982
22.76043,68392
22.76857,67819
22.77668,65713
22.78482,65532
22.79293,60813
22.80105,65913
22.80918,59120
22.81730,64233
22.82543,63432
22.83355,73385
22.84167,68618
22.84980,78402
22.85792,69399
22.86605,71628
22.87417,71336
22.88228,78079
22.89042,72188
22.89853,78520
22.90665,69310
22.91478,79037
22.92290,83747
22.93103,88182
22.93915,92875
22.94727,104284
22.95540,102188
22.96352,109617
22.97165,118371
22.97977,104778
22.98788,104542
22.99602,93186
23.00413,84103
23.01227,77672
23.02038,71060
23.02850,68334
23.03663,63990
23.04475,65622
23.05287,56868
23.06100,57206
23.06912,55422
23.07725,53706
23.08537,55599
23.09348,48631
23.10162,52054
23.10973,53017
23.11787,51095
23.12598,50048
23.13410,50900
23.14223,46962
23.15035,50235
23.15847,48552
23.16660,49826
23.17472,49204
23.18285,50905
23.19097,49381
23.19908,53079
23.20722,49941
23.21533,43924
23.22347,46205
23.23158,46444
23.23970,43885
23.24783,45212
23.25595,43171
23.26408,44826
23.27220,47861
23.28032,51628
23.28845,47928
23.29657,57067
23.30468,49645
23.31282,54643
23.32093,50897
23.32907,44180
23.33718,48271
23.34530,50962
23.35343,50777
23.36155,48490
23.36968,49957
23.37780,49947
23.38592,57204
23.39405,54993
23.40217,56207
23.41028,53709
23.41842,56197
23.42653,49167
23.43467,48949
23.44278,52010
23.45090,50682
23.45903,51098
23.46715,51026
23.47528,49519
23.48340,47541
23.49152,50843
23.49965,47455
23.50777,42169
23.51590,47826
23.52402,47976
23.53213,46986
23.54027,47876
23.54838,46807
23.55650,51537
23.56463,52219
23.57275,54322
23.58088,56392
23.58900,55734
23.59712,57036
23.60525,66927
23.61337,64509
23.62150,59144
23.62962,66514
23.63773,61110
23.64587,58417
23.65398,65027
23.66212,61782
23.67023,60401
23.67835,57583
23.68648,60332
23.69460,64494
23.70272,63521
23.71085,64815
23.71897,59940
23.72710,65947
23.73522,65349
23.74333,62478
23.75147,60806
23.75958,56566
23.76772,68215
23.77583,97316
23.78395,177173
23.79208,284308
23.80020,453198
23.80833,616278
23.81645,685574
23.82457,681603
23.83270,614982
23.84082,491575
23.84893,391902
23.85707,302520
23.86518,236680
23.87332,191998
23.88143,167279
23.88955,148659
23.89768,132963
23.90580,121675
23.91393,112617
23.92205,114419
23.93017,100653
23.93830,103722
23.94642,99027
23.95453,98009
23.96267,92884
23.97078,87669
23.97892,85479
23.98703,81447
23.99515,75805
24.00328,78066
24.01140,83746
24.01953,80411
24.02765,81505
24.03577,67345
24.04390,72126
24.05202,72205
24.06015,71981
24.06827,71865
24.07638,67630
24.08452,68916
24.09263,69206
24.10075,68681
24.10888,63501
24.11700,60054
24.12513,61851
24.13325,66753
24.14137,68280
24.14950,73130
24.15762,70893
24.16575,74112
24.17387,79189
24.18198,82204
24.19012,89279
24.19823,81067
24.20635,76798
24.21448,80691
24.22260,76891
24.23073,89188
24.23885,82354
24.24697,85888
24.25510,85871
24.26322,83971
24.27135,78758
24.27947,75595
24.28758,69442
24.29572,67174
24.30383,67182
24.31197,62156
24.32008,59469
24.32820,62728
24.33633,63342
24.34445,58014
24.35257,60027
24.36070,59080
24.36882,59226
24.37695,56356
24.38507,54852
24.39318,58125
24.40132,59587
24.40943,68393
24.41757,77831
24.42568,78925
24.43380,98418
24.44193,92904
24.45005,86701
24.45818,74229
24.46630,63204
24.47442,57661
24.48255,59853
24.49067,55784
24.49878,58876
24.50692,64261
24.51503,68597
24.52317,68919
24.53128,72034
24.53940,74108
24.54753,76466
24.55565,77082
24.56378,82513
24.57190,81180
24.58002,74668
24.58815,79503
24.59627,78241
24.60438,78700
24.61252,79796
24.62063,76568
24.62877,80394
24.63688,69502
24.64500,68037
24.65313,65412
24.66125,64852
24.66938,64492
24.67750,65755
24.68562,70147
24.69375,68372
24.70187,64805
24.71000,63355
24.71812,60326
24.72623,62083
24.73437,57996
24.74248,60206
24.75060,56454
24.75873,54788
24.76685,54823
24.77498,56507
24.78310,55440
24.79122,54280
24.79935,55843
24.80747,50700
24.81560,50280
24.82372,56224
24.83183,49705
24.83997,51577
24.84808,53847
24.85622,56754
24.86433,62182
24.87245,62545
24.88058,61371
24.88870,68162
24.89682,73044
24.90495,71398
24.91307,74557
24.92120,76756
24.92932,75904
24.93743,64542
24.94557,69591
24.95368,61028
24.96182,58390
24.96993,55009
24.97805,51318
24.98618,53741
24.99430,49903
25.00242,50584
25.01055,53604
25.01867,49455
25.02680,52036
25.03492,52248
25.04303,52716
25.05117,56421
25.05928,49427
25.06742,50659
25.07553,50966
25.08365,50097
25.09178,52446
25.09990,48191
25.10803,50950
25.11615,55224
25.12427,60199
25.13240,79181
25.14052,113227
25.14863,177278
25.15677,257990
25.16488,363498
25.17302,460538
25.18113,501877
25.18925,493153
25.19738,419629
25.20550,334116
25.21363,245722
25.22175,179532
25.22987,129659
25.23800,100334
25.24612,94050
25.25423,79624
25.26237,74279
25.27048,70904
25.27862,71400
25.28673,72947
25.29485,71493
25.30298,76987
25.31110,72819
25.31923,71133
25.32735,76290
25.33547,76066
25.34360,72065
25.35172,71996
25.35985,72042
25.36797,66478
25.37608,63544
25.38422,58619
25.39233,62410
25.40045,51581
25.40858,56801
25.41670,52217
25.42483,49583
25.43295,54158
25.44107,52194
25.44920,55645
25.45732,47748
25.46545,46959
25.47357,50767
25.48168,55718
25.48982,55863
25.49793,53352
25.50607,57569
25.51418,58236
25.52230,60257
25.53043,59783
25.53855,63219
25.54667,59350
25.55480,55429
25.56292,55803
25.57105,56858
25.57917,54295
25.58728,45912
25.59542,55439
25.60353,46266
25.61167,55323
25.61978,49932
25.62790,48415
25.63603,50837
25.64415,50129
25.65227,49632
25.66040,45976
25.66852,51952
25.67665,51027
25.68477,52412
25.69288,46752
25.70102,53606
25.70913,52481
25.71727,52921
25.72538,52706
25.73350,59414
25.74163,55535
25.74975,53698
25.75788,54457
25.76600,59487
25.77412,51777
25.78225,48653
25.79037,51904
25.79848,50383
25.80662,47748
25.81473,50897
25.82287,53265
25.83098,56978
25.83910,55178
25.84723,55101
25.85535,56715
25.86348,58183
25.87160,53644
25.87972,52677
25.88785,50411
25.89597,48137
25.90410,51988
25.91222,53577
25.92033,49534
25.92847,52590
25.93658,48461
25.94470,55552
25.95283,51868
25.96095,54023
25.96908,52839
25.97720,53780
25.98532,56612
25.99345,51631
26.00157,51902
26.00970,50161
26.01782,47813
26.02593,50446
26.03407,53250
26.04218,50221
26.05030,49273
26.05843,45213
26.06655,48473
26.07468,53758
26.08280,48710
26.09092,49518
26.09905,54035
26.10717,55832
26.11530,57574
26.12342,58177
26.13153,61187
26.13967,60141
26.14778,65698
26.15592,63368
26.16403,69960
26.17215,74115
26.18028,76492
26.18840,77302
26.19652,72672
26.20465,72338
26.21277,66004
26.22090,59144
26.22902,56580
26.23713,54755
26.24527,58536
26.25338,56707
26.26152,55669
26.26963,50139
26.27775,49021
26.28588,47758
26.29400,51079
26.30212,51250
26.31025,50859
26.31837,50293
26.32650,55523
26.33462,46879
26.34273,49650
26.35087,46603
26.35898,46910
26.36712,50729
26.37523,61497
26.38335,77759
26.39148,102090
26.39960,135089
26.40773,185360
26.41585,235580
26.42397,278344
26.43210,304287
26.44022,295594
26.44833,249372
26.45647,223897
26.46458,172146
26.47272,135819
26.48083,104623
26.48895,89087
26.49708,76128
26.50520,65815
26.51333,59049
26.52145,52430
26.52957,52758
26.53770,50630
26.54582,50501
26.55395,49652
26.56207,49321
26.57018,50831
26.57832,53423
26.58643,49139
26.59455,48793
26.60268,48905
26.61080,52661
26.61893,50805
26.62705,48041
26.63517,49278
26.64330,46332
26.65142,48851
26.65955,51313
26.66767,48749
26.67578,46365
26.68392,43078
26.69203,45584
26.70015,49428
26.70828,51296
26.71640,46758
26.72453,48048
26.73265,49601
26.74077,50555
26.74890,49758
26.75702,50624
26.76515,47515
26.77327,53983
26.78138,52229
26.78952,49867
26.79763,49114
26.80577,51202
26.81388,52753
26.82200,49458
26.83013,50922
26.83825,50986
26.84637,54271
26.85450,49581
26.86262,49204
26.87075,47754
26.87887,52643
26.88698,50461
26.89512,48335
26.90323,52887
26.91137,47597
26.91948,49115
26.92760,47290
26.93573,49286
26.94385,47360
26.95198,47629
26.96010,45177
26.96822,44455
26.97635,50902
26.98447,47723
26.99258,57205
27.00072,51748
27.00883,65187
27.01697,82755
27.02508,103380
27.03320,127558
27.04133,150123
27.04945,156431
27.05758,158183
27.06570,139139
27.07382,129906
27.08195,108830
27.09007,96950
27.09818,94139
27.10632,83124
27.11443,78656
27.12257,72174
27.13068,74256
27.13880,76703
27.14693,73998
27.15505,72975
27.16318,70178
27.17130,71550
27.17942,71344
27.18755,72300
27.19567,76060
27.20380,77747
27.21192,91547
27.22003,95413
27.22817,101403
27.23628,104461
27.24440,100982
27.25253,93039
27.26065,93975
27.26878,80511
27.27690,70136
27.28502,65062
27.29315,61566
27.30127,61076
27.30940,60498
27.31752,59069
27.32563,56039
27.33377,60468
27.34188,56558
27.35002,63472
27.35813,60696
27.36625,62507
27.37438,66008
27.38250,61936
27.39062,60981
27.39875,57677
27.40687,60537
27.41500,58666
27.42312,51862
27.43123,52970
27.43937,54809
27.44748,59757
27.45562,58321
27.46373,53862
27.47185,57353
27.47998,57160
27.48810,58008
27.49622,53390
27.50435,55107
27.51247,56355
27.52060,52071
27.52872,52438
27.53683,50881
27.54497,55961
27.55308,55055
27.56122,50190
27.56933,54453
27.57745,49367
27.58558,53989
27.59370,53341
27.60183,54504
27.60995,49545
27.61807,53291
27.62620,52337
27.63432,52579
27.64243,53525
27.65057,51388
27.65868,52194
27.66682,53834
27.67493,49153
27.68305,63442
27.69118,53166
27.69930,56054
27.70743,55894
27.71555,53778
27.72367,55009
27.73180,59010
27.73992,58577
27.74803,52542
27.75617,53398
27.76428,56243
27.77242,52648
27.78053,46603
27.78865,47414
27.79678,53700
27.80490,51982
27.81303,48984
27.82115,48442
27.82927,53481
27.83740,51327
27.84552,47094
27.85365,50784
27.86177,52612
27.86988,51884
27.87802,54326
27.88613,49014
27.89425,55971
27.90238,53127
27.91050,46250
27.91863,53273
27.92675,48929
27.93487,52148
27.94300,52253
27.95112,51076
27.95925,53462
27.96737,52952
27.97548,47050
27.98362,49455
27.99173,51091
27.99987,51260
28.00798,51090
28.01610,55451
28.02423,49878
28.03235,52424
28.04047,56389
28.04860,61792
28.05672,67501
28.06485,74299
28.07297,83055
28.08108,85040
28.08922,87335
28.09733,79540
28.10547,76805
28.11358,70823
28.12170,62849
28.12983,59441
28.13795,58118
28.14607,58019
28.15420,52648
28.16232,50621
28.17045,51221
28.17857,54377
28.18668,55847
28.19482,51472
28.20293,55349
28.21107,52585
28.21918,52867
28.22730,60107
28.23543,60010
28.24355,59656
28.25168,59884
28.25980,61855
28.26792,60295
28.27605,57932
28.28417,56767
28.29228,54682
28.30042,57401
28.30853,54563
28.31667,62368
28.32478,57961
28.33290,65425
28.34103,72504
28.34915,79353
28.35728,81174
28.36540,82789
28.37352,80538
28.38165,77529
28.38977,76521
28.39790,73342
28.40602,75049
28.41413,72767
28.42227,72629
28.43038,74682
28.43850,74624
28.44663,69272
28.45475,66247
28.46288,62558
28.47100,67793
28.47912,61699
28.48725,64168
28.49537,60894
28.50350,63472
28.51162,65228
28.51973,67276
28.52787,64918
28.53598,66523
28.54410,63770
28.55223,61868
28.56035,63734
28.56848,61855
28.57660,56855
28.58472,54922
28.59285,52647
28.60097,55897
28.60910,54726
28.61722,59177
28.62533,56031
28.63347,62583
28.64158,61289
28.64972,59932
28.65783,65868
28.66595,67069
28.67408,69734
28.68220,74363
28.69032,75057
28.69845,75387
28.70657,72529
28.71470,62348
28.72282,65043
28.73093,56449
28.73907,57170
28.74718,52443
28.75532,56509
28.76343,54704
28.77155,53923
28.77968,58599
28.78780,59841
28.79592,66736
28.80405,74266
28.81217,73981
28.82030,70751
28.82842,67517
28.83653,63061
28.84467,63752
28.85278,63930
28.86092,59515
28.86903,60721
28.87715,55816
28.88528,53842
28.89340,57137
28.90153,61803
28.90965,59953
28.91777,62436
28.92590,63207
28.93402,62733
28.94213,66863
28.95027,65674
28.95838,62540
28.96652,60722
28.97463,62239
28.98275,56200
28.99088,61420
28.99900,57281
29.00713,54585
29.01525,57901
29.02337,57475
29.03150,54438
29.03962,56373
29.04775,54020
29.05587,55362
29.06398,53338
29.07212,55915
29.08023,52982
29.08835,51951
29.09648,63231
29.10460,55878
29.11273,50841
29.12085,54921
29.12897,52965
29.13710,53439
29.14522,54228
29.15335,57212
29.16147,53389
29.16958,55237
29.17772,53238
29.18583,55024
29.19397,59064
29.20208,55899
29.21020,55983
29.21833,59060
29.22645,64478
29.23457,70793
29.24270,68741
29.25082,64311
29.25895,59616
29.26707,63045
29.27518,60759
29.28332,65140
29.29143,59403
29.29957,63999
29.30768,58665
29.31580,57949
29.32393,58977
29.33205,55290
29.34017,54606
29.34830,62650
29.35642,55781
29.36455,50981
29.37267,59779
29.38078,57382
29.38892,51519
29.39703,52277
29.40517,57364
29.41328,52523
29.42140,50978
29.42953,54709
29.43765,56369
29.44578,52700
29.45390,56557
29.46202,59512
29.47015,54700
29.47827,55982
29.48638,55853
29.49452,57314
29.50263,63258
29.51077,60773
29.51888,67500
29.52700,67680
29.53513,66808
29.54325,69821
29.55138,69613
29.55950,63779
29.56762,55380
29.57575,55837
29.58387,55626
29.59198,56344
29.60012,55833
29.60823,57732
29.61637,56030
29.62448,55741
29.63260,54220
29.64073,51384
29.64885,54250
29.65698,57953
29.66510,54112
29.67322,57845
29.68135,61552
29.68947,54371
29.69760,58726
29.70572,54370
29.71383,62443
29.72197,57443
29.73008,58702
29.73820,53187
29.74633,56321
29.75445,54138
29.76258,52761
29.77070,51760
29.77882,56777
29.78695,56652
29.79507,51186
29.80320,50035
29.81132,51980
29.81943,52292
29.82757,50916
29.83568,56470
29.84380,48598
29.85193,49018
29.86005,56560
29.86818,58802
29.87630,51938
29.88442,52646
29.89255,54937
29.90067,55226
29.90880,64452
29.91692,65899
29.92503,67398
29.93317,72523
29.94128,64996
29.94942,64577
29.95753,61687
29.96565,56376
29.97378,58178
29.98190,59611
29.99002,63570
29.99815,62415
30.00627,65480
30.01440,65411
30.02252,67172
30.03063,71146
30.03877,74048
30.04688,68854
30.05502,68381
30.06313,74936
30.07125,72875
30.07938,73436
30.08750,70363
30.09563,67638
30.10375,65186
30.11187,68107
30.12000,65455
30.12812,68010
30.13623,66635
30.14437,60191
30.15248,64610
30.16062,62625
30.16873,61415
30.17685,61666
30.18498,60622
30.19310,63038
30.20123,61215
30.20935,63767
30.21747,67141
30.22560,75883
30.23372,67224
30.24185,68029
30.24997,60844
30.25808,57936
30.26622,62151
30.27433,62204
30.28245,59355
30.29058,59270
30.29870,58623
30.30683,58045
30.31495,53424
30.32307,57270
30.33120,55589
30.33932,53707
30.34745,56462
30.35557,58637
30.36368,55897
30.37182,57153
30.37993,60598
30.38805,59743
30.39618,57076
30.40430,58879
30.41243,57894
30.42055,51982
30.42867,51772
30.43680,51405
30.44492,55023
30.45305,56763
30.46117,55288
30.46928,52525
30.47742,56586
30.48553,55711
30.49367,50554
30.50178,53412
30.50990,57172
30.51803,53888
30.52615,60381
30.53427,55885
30.54240,51840
30.55052,54224
30.55865,51991
30.56677,53016
30.57488,52572
30.58302,59503
30.59113,58597
30.59927,55749
30.60738,57014
30.61550,61811
30.62363,57320
30.63175,60951
30.63987,53399
30.64800,54770
30.65612,56431
30.66425,56594
30.67237,52054
30.68048,50831
30.68862,56805
30.69673,54038
30.70487,53077
30.71298,55087
30.72110,51940
30.72923,55810
30.73735,58194
30.74548,54917
30.75360,52890
30.76172,57052
30.76985,53964
30.77797,52171
30.78608,58082
30.79422,55014
30.80233,58231
30.81047,72458
30.81858,82713
30.82670,93561
30.83483,101054
30.84295,97647
30.85108,89940
30.85920,81900
30.86732,73928
30.87545,69835
30.88357,59864
30.89170,63742
30.89982,56970
30.90793,58425
30.91607,61446
30.92418,61137
30.93230,61346
30.94043,60616
30.94855,57619
30.95668,54738
30.96480,58849
30.97292,53876
30.98105,61982
30.98917,60282
30.99730,59786
31.00542,65653
31.01353,57593
31.02167,61627
31.02978,58160
31.03790,60265
31.04603,59342
31.05415,57554
31.06228,57333
31.07040,59484
31.07852,57963
31.08665,56258
31.09477,59220
31.10290,56121
31.11102,66580
31.11913,73308
31.12727,76817
31.13538,77725
31.14352,76595
31.15163,72773
31.15975,68174
31.16788,66286
31.17600,59937
31.18412,63479
31.19225,61387
31.20037,70031
31.20850,78911
31.21662,86455
31.22473,102624
31.23287,116301
31.24098,132834
31.24912,137418
31.25723,121651
31.26535,107954
31.27348,96848
31.28160,77217
31.28973,65876
31.29785,66383
31.30597,62904
31.31410,60095
31.32222,59372
31.33033,56659
31.33847,58341
31.34658,53661
31.35472,58959
31.36283,60337
31.37095,59892
31.37908,59936
31.38720,54750
31.39533,61033
31.40345,59613
31.41157,60057
31.41970,57613
31.42782,61513
31.43593,60975
31.44407,56469
31.45218,59516
31.46032,57599
31.46843,60752
31.47655,60579
31.48468,64169
31.49280,57304
31.50093,56191
31.50905,60013
31.51717,63418
31.52530,64328
31.53342,59070
31.54155,65925
31.54967,67709
31.55778,62119
31.56592,58806
31.57403,66476
31.58215,64741
31.59028,67263
31.59840,63298
31.60653,61083
31.61465,58083
31.62277,53624
31.63090,61156
31.63902,57995
31.64715,59843
31.65527,62328
31.66338,62212
31.67152,61868
31.67963,59860
31.68775,64796
31.69588,65456
31.70400,63060
31.71213,62310
31.72025,62861
31.72837,61057
31.73650,60671
31.74462,57743
31.75275,56159
31.76087,58061
31.76898,59686
31.77712,54717
31.78523,55973
31.79337,56489
31.80148,64723
31.80960,64169
31.81773,71602
31.82585,68257
31.83397,66182
31.84210,69432
31.85022,66142
31.85835,63287
31.86647,62512
31.87458,69384
31.88272,66102
31.89083,74370
31.89897,75526
31.90708,64923
31.91520,61615
31.92333,66182
31.93145,65036
31.93958,59814
31.94770,58827
31.95582,61835
31.96395,62094
31.97207,61172
31.98018,75574
31.98832,71181
31.99643,77602
32.00457,75458
32.01268,78795
32.02080,78604
32.02893,85243
32.03705,84983
32.04518,81418
32.05330,82391
32.06142,76514
32.06955,78928
32.07767,71497
32.08578,75477
32.09392,74225
32.10203,73375
32.11017,71484
32.11828,71872
32.12640,71554
32.13453,70826
32.14265,66326
32.15078,65495
32.15890,64689
32.16702,63220
32.17515,64762
32.18327,60023
32.19140,62177
32.19952,58861
32.20763,57664
32.21577,61886
32.22388,61893
32.23200,58894
32.24013,60613
32.24825,60840
32.25638,63719
32.26450,63693
32.27262,67031
32.28075,63040
32.28887,61776
32.29700,57118
32.30512,58417
32.31323,58105
32.32137,63998
32.32948,63805
32.33762,64320
32.34573,59121
32.35385,62893
32.36198,65098
32.37010,66462
32.37822,66267
32.38635,65856
32.39447,65078
32.40260,67787
32.41072,64712
32.41883,61982
32.42697,65748
32.43508,64960
32.44322,62165
32.45133,67664
32.45945,66879
32.46758,64952
32.47570,63928
32.48382,58776
32.49195,66628
32.50007,62912
32.50820,59395
32.51632,59145
32.52443,60420
32.53257,64030
32.54068,62831
32.54882,59300
32.55693,59097
32.56505,64229
32.57318,60121
32.58130,64937
32.58943,66861
32.59755,63863
32.60567,67788
32.61380,62729
32.62192,67605
32.63003,64844
32.63817,62762
32.64628,64655
32.65442,64616
32.66253,64347
32.67065,63839
32.67878,71769
32.68690,68037
32.69503,79866
32.70315,87993
32.71127,85773
32.71940,79366
32.72752,79377
32.73565,77596
32.74377,73155
32.75188,76847
32.76002,72246
32.76813,68761
32.77625,67092
32.78438,67679
32.79250,65533
32.80063,60281
32.80875,63211
32.81687,65438
32.82500,66007
32.83312,60975
32.84125,61546
32.84937,66595
32.85748,64708
32.86562,66067
32.87373,62693
32.88185,64407
32.88998,61789
32.89810,69200
32.90623,71353
32.91435,72314
32.92247,68651
32.93060,69987
32.93872,75223
32.94685,76105
32.95497,66173
32.96308,66040
32.97122,65389
32.97933,66933
32.98747,65786
32.99558,67362
33.00370,75719
33.01183,76515
33.01995,81138
33.02807,86653
33.03620,83116
33.04432,82549
33.05245,75568
33.06057,67084
33.06868,70654
33.07682,67662
33.08493,79041
33.09307,70352
33.10118,78329
33.10930,79725
33.11743,85182
33.12555,94608
33.13367,97870
33.14180,101496
33.14992,91693
33.15805,96426
33.16617,79581
33.17428,73460
33.18242,69940
33.19053,75596
33.19867,64278
33.20678,64230
33.21490,68273
33.22303,67649
33.23115,71659
33.23928,71031
33.24740,73542
33.25552,80329
33.26365,74016
33.27177,73150
33.27988,68306
33.28802,76341
33.29613,69526
33.30427,72020
33.31238,69230
33.32050,72316
33.32863,72787
33.33675,73144
33.34488,67456
33.35300,69838
33.36112,68383
33.36925,72407
33.37737,72361
33.38550,67109
33.39362,65658
33.40173,73761
33.40987,75004
33.41798,68458
33.42610,62333
33.43423,66264
33.44235,65262
33.45048,65856
33.45860,70768
33.46672,73322
33.47485,67076
33.48297,64719
33.49110,69887
33.49922,72986
33.50733,65794
33.51547,69669
33.52358,68089
33.53170,75417
33.53983,73164
33.54795,75423
33.55608,76969
33.56420,74707
33.57232,73819
33.58045,72114
33.58857,74201
33.59670,75412
33.60482,71003
33.61293,68465
33.62107,65242
33.62918,68609
33.63732,62902
33.64543,67825
33.65355,73810
33.66168,69314
33.66980,73812
33.67792,72363
33.68605,65556
33.69417,71099
33.70230,71728
33.71042,69266
33.71853,72491
33.72667,72790
33.73478,66474
33.74292,69988
33.75103,68764
33.75915,71312
33.76728,69462
33.77540,66770
33.78353,62464
33.79165,64728
33.79977,70056
33.80790,71712
33.81602,65745
33.82413,65759
33.83227,64362
33.84038,67171
33.84852,69821
33.85663,72889
33.86475,65305
33.87288,74316
33.88100,73651
33.88913,71449
33.89725,72343
33.90537,73981
33.91350,76645
33.92162,70393
33.92973,76186
33.93787,72035
33.94598,74795
33.95412,72428
33.96223,72210
33.97035,70967
33.97848,73002
33.98660,72530
33.99473,71899
34.00285,74724
34.01097,70371
34.01910,71244
34.02722,72756
34.03535,69486
34.04347,71726
34.05158,72697
34.05972,71608
34.06783,71669
34.07595,74469
34.08408,76096
34.09220,70512
34.10033,68759
34.10845,71595
34.11657,71175
34.12470,67054
34.13282,75500
34.14095,70447
34.14907,76095
34.15718,72597
34.16532,69828
34.17343,68087
34.18155,74021
34.18968,70410
34.19780,75242
34.20593,70905
34.21405,76299
34.22217,71733
34.23030,72964
34.23842,74640
34.24655,74004
34.25467,71173
34.26278,72152
34.27092,66497
34.27903,71649
34.28717,70378
34.29528,69894
34.30340,74260
34.31153,72552
34.31965,74154
34.32777,76328
34.33590,68618
34.34402,72420
34.35215,72156
34.36027,68185
34.36838,75992
34.37652,76108
34.38463,75748
34.39277,76446
34.40088,74861
34.40900,71629
34.41713,73336
34.42525,76471
34.43338,72918
34.44150,75744
34.44962,77093
34.45775,69955
34.46587,70341
34.47398,79921
34.48212,76167
34.49023,74592
34.49837,79193
34.50648,80427
34.51460,78208
34.52273,76845
34.53085,78922
34.53898,71622
34.54710,77480
34.55522,85968
34.56335,77846
34.57147,87361
34.57960,90893
34.58772,94906
34.59583,97393
34.60397,92523
34.61208,89985
34.62020,88911
34.62833,87114
34.63645,89491
34.64458,84379
34.65270,78980
34.66082,74345
34.66895,80976
34.67707,80109
34.68520,81943
34.69332,87118
34.70143,81086
34.70957,81551
34.71768,74965
34.72580,82912
34.73393,79371
34.74205,74062
34.75018,81188
34.75830,79484
34.76642,79247
34.77455,79602
34.78267,86186
34.79080,82439
34.79892,84069
34.80703,83703
34.81517,86016
34.82328,82310
34.83142,82116
34.83953,80915
34.84765,75620
34.85578,79323
34.86390,78680
34.87202,75595
34.88015,86593
34.88827,83930
34.89640,79878
34.90452,78568
34.91263,76933
34.92077,77786
34.92888,83941
34.93702,78099
34.94513,75309
34.95325,81072
34.96138,82231
34.96950,87942
34.97762,85414
34.98575,86832
34.99387,84980
35.00200,86341
35.01012,82160
35.01823,82161
35.02637,82663
35.03448,86371
35.04262,80912
35.05073,85796
35.05885,83534
35.06698,83325
35.07510,77000
35.08323,83285
35.09135,85023
35.09947,82351
35.10760,81067
35.11572,82797
35.12383,82969
35.13197,86204
35.14008,86353
35.14822,85813
35.15633,95410
35.16445,93889
35.17258,94120
35.18070,97696
35.18883,92365
35.19695,90183
35.20507,93292
35.21320,88015
35.22132,87530
35.22945,86907
35.23757,88010
35.24568,85227
35.25382,84513
35.26193,89744
35.27005,84232
35.27818,89167
35.28630,86695
35.29443,87004
35.30255,87561
35.31067,88937
35.31880,85112
35.32692,86723
35.33505,84707
35.34317,84116
35.35128,83880
35.35942,85036
35.36753,84439
35.37565,87534
35.38378,89156
35.39190,82706
35.40003,83416
35.40815,86385
35.41627,88271
35.42440,89174
35.43252,93319
35.44065,97807
35.44877,95235
35.45688,101817
35.46502,106477
35.47313,104015
35.48127,99560
35.48938,101103
35.49750,93518
35.50563,97751
35.51375,94232
35.52187,90310
35.53000,91176
35.53812,88074
35.54625,84535
35.55437,86629
35.56248,83802
35.57062,85248
35.57873,85273
35.58687,84632
35.59498,90759
35.60310,90583
35.61123,85474
35.61935,81683
35.62748,87603
35.63560,87891
35.64372,90068
35.65185,89408
35.65997,85863
35.66808,84829
35.67622,88886
35.68433,84279
35.69247,86921
35.70058,82943
35.70870,90670
35.71683,95592
35.72495,98562
35.73308,92598
35.74120,95770
35.74932,97924
35.75745,91096
35.76557,99092
35.77368,102756
35.78182,108802
35.78993,107123
35.79807,113800
35.80618,114118
35.81430,109996
35.82243,105273
35.83055,100325
35.83868,93321
35.84680,92840
35.85492,91905
35.86305,91026
35.87117,90413
35.87930,97781
35.88742,91186
35.89553,100960
35.90367,93706
35.91178,101186
35.91990,99354
35.92803,98874
35.93615,93307
35.94428,96392
35.95240,97672
35.96052,83183
35.96865,94238
35.97677,97699
35.98490,92358
35.99302,96574
36.00113,95457
36.00927,93380
36.01738,90491
36.02550,96812
36.03363,100619
36.04175,107273
36.04988,107404
36.05800,101558
36.06612,108693
36.07425,99295
36.08237,99134
36.09050,100085
36.09862,104215
36.10673,101789
36.11487,95287
36.12298,100538
36.13112,105413
36.13923,104339
36.14735,100405
36.15548,105584
36.16360,97145
36.17172,106779
36.17985,99808
36.18797,104923
36.19610,105704
36.20422,108460
36.21233,97377
36.22047,99539
36.22858,96763
36.23672,91594
36.24483,94961
36.25295,101793
36.26108,98476
36.26920,96485
36.27733,97194
36.28545,96730
36.29357,91260
36.30170,96822
36.30982,96319
36.31793,92302
36.32607,101088
36.33418,108261
36.34232,115186
36.35043,116412
36.35855,120696
36.36668,116660
36.37480,111678
36.38293,112721
36.39105,106701
36.39917,113469
36.40730,108125
36.41542,110220
36.42353,110628
36.43167,110086
36.43978,101650
36.44792,105364
36.45603,110229
36.46415,108138
36.47228,100912
36.48040,105195
36.48853,101589
36.49665,99867
36.50477,97985
36.51290,99242
36.52102,99466
36.52915,103328
36.53727,97603
36.54538,101332
36.55352,105078
36.56163,103411
36.56975,109019
36.57788,98395
36.58600,99343
36.59413,103381
36.60225,96889
36.61037,99913
36.61850,100166
36.62662,99233
36.63475,105275
36.64287,105822
36.65098,103109
36.65912,106601
36.66723,102189
36.67537,99948
36.68348,96618
36.69160,101387
36.69973,106287
36.70785,108374
36.71597,105747
36.72410,110132
36.73222,105703
36.74035,107902
36.74847,111381
36.75658,109653
36.76472,114156
36.77283,110592
36.78097,110183
36.78908,110222
36.79720,101941
36.80533,105600
36.81345,102860
36.82157,106134
36.82970,107397
36.83782,106424
36.84595,103251
36.85407,105527
36.86218,103478
36.87032,105009
36.87843,104234
36.88657,105855
36.89468,107478
36.90280,105344
36.91093,108883
36.91905,103144
36.92718,104002
36.93530,108978
36.94342,106415
36.95155,102021
36.95967,104096
36.96778,113769
36.97592,113121
36.98403,115343
36.99217,111864
37.00028,115972
37.00840,114069
37.01653,108131
37.02465,109444
37.03278,106837
37.04090,107205
37.04902,106446
37.05715,112133
37.06527,108758
37.07340,113846
37.08152,112878
37.08963,121056
37.09777,117272
37.10588,120281
37.11400,122697
37.12213,121726
37.13025,117471
37.13838,119088
37.14650,118288
37.15462,115579
37.16275,107988
37.17087,115514
37.17900,117454
37.18712,116740
37.19523,114703
37.20337,113210
37.21148,112814
37.21960,118354
37.22773,111407
37.23585,114018
37.24398,116739
37.25210,124477
37.26022,121348
37.26835,122950
37.27647,115183
37.28460,114780
37.29272,117217
37.30083,114376
37.30897,115703
37.31708,118319
37.32522,120457
37.33333,121041
37.34145,120996
37.34958,124845
37.35770,119247
37.36582,127504
37.37395,118881
37.38207,125970
37.39020,123038
37.39832,131059
37.40643,134099
37.41457,133652
37.42268,130990
37.43082,128660
37.43893,132972
37.44705,140650
37.45518,135939
37.46330,135098
37.47142,137437
37.47955,140446
37.48767,135546
