C:\MassHunter\GCMS\1\data\JTB-E02\BACandBLUE\JTB-E18-019-09.D Fri Jul 05 11:30:49 2019
Start of data points
2.09527	71310
2.10338	67079
2.11152	69179
2.11963	74185
2.12775	67177
2.13588	69288
2.14400	70619
2.15213	68603
2.16025	70361
2.16837	68027
2.17650	64359
2.18462	66654
2.19275	69180
2.20087	66744
2.20898	66879
2.21712	63521
2.22523	62475
2.23335	65712
2.24148	61748
2.24960	61448
2.25773	62289
2.26585	77279
2.27397	385163
2.28210	1357114
2.29022	1057381
2.29835	423718
2.30647	277598
2.31458	227766
2.32272	198943
2.33083	179407
2.33895	169984
2.34708	160900
2.35520	143455
2.36333	131402
2.37145	132048
2.37957	123185
2.38770	125579
2.39582	121380
2.40395	115505
2.41207	114053
2.42018	109885
2.42832	110905
2.43643	105556
2.44457	109672
2.45268	111325
2.46080	106141
2.46893	103824
2.47705	103724
2.48517	102779
2.49330	122365
2.50142	136722
2.50955	116223
2.51767	113667
2.52578	130760
2.53392	114375
2.54203	108147
2.55017	123179
2.55828	193976
2.56640	256658
2.57453	210323
2.58265	155166
2.59077	139982
2.59890	139851
2.60702	415071
2.61515	1343421
2.62327	1343489
2.63138	679826
2.63952	408708
2.64763	306675
2.65577	243214
2.66388	205926
2.67200	180476
2.68013	166867
2.68825	160684
2.69638	144876
2.70450	141287
2.71262	134517
2.72075	127231
2.72887	124873
2.73698	121541
2.74512	116817
2.75323	117531
2.76137	111979
2.76948	113091
2.77760	120480
2.78573	197297
2.79385	271489
2.80198	206510
2.81010	161176
2.81822	162744
2.82635	160657
2.83447	147789
2.84260	133336
2.85072	119798
2.85883	116578
2.86697	109310
2.87508	109507
2.88320	111270
2.89133	105542
2.89945	105844
2.90758	98886
2.91570	94469
2.92382	98136
2.93195	98300
2.94007	96692
2.94820	93390
2.95632	101878
2.96443	119305
2.97257	132106
2.98068	119383
2.98880	109685
2.99693	105114
3.00505	101635
3.01318	107104
3.02130	98683
3.02942	94615
3.03755	95374
3.04567	90541
3.05380	91497
3.06192	90012
3.07003	92495
3.07817	162902
3.08628	991914
3.09442	3641575
3.10253	5908196
3.11065	7223522
3.11878	6948187
3.12690	4417603
3.13502	2812528
3.14315	2102022
3.15127	1633894
3.15940	1329939
3.16752	1124464
3.17563	988603
3.18377	954343
3.19188	1274646
3.20002	1725702
3.20813	1476934
3.21625	1059285
3.22438	853509
3.23250	733271
3.24063	641983
3.24875	572071
3.25687	519994
3.26500	474210
3.27312	422405
3.28123	410133
3.28937	477154
3.29748	879852
3.30562	1983963
3.31373	3109495
3.32185	3265370
3.32998	2587939
3.33810	1943849
3.34623	1540584
3.35435	1324044
3.36247	1146707
3.37060	1004155
3.37872	911626
3.38683	831774
3.39497	770537
3.40308	698389
3.41122	664999
3.41933	636561
3.42745	591413
3.43558	568295
3.44370	545323
3.45183	520631
3.45995	498247
3.46807	508604
3.47620	516245
3.48432	506603
3.49245	478242
3.50057	443728
3.50868	425561
3.51682	413090
3.52493	405964
3.53305	408553
3.54118	412792
3.54930	402286
3.55743	384857
3.56555	381132
3.57367	446692
3.58180	492505
3.58992	482430
3.59805	424651
3.60617	386125
3.61428	386489
3.62242	402257
3.63053	379239
3.63865	353729
3.64678	344300
3.65490	347183
3.66303	461474
3.67115	1345810
3.67927	3566048
3.68740	4933280
3.69552	3816188
3.70365	2260104
3.71177	1556664
3.71988	1276018
3.72802	1077066
3.73613	947361
3.74427	858076
3.75238	792165
3.76050	729407
3.76863	683025
3.77675	649779
3.78487	626367
3.79300	597406
3.80112	663388
3.80925	1090557
3.81737	1907432
3.82548	2201535
3.83362	1697861
3.84173	1178642
3.84987	949062
3.85798	828009
3.86610	740400
3.87423	675052
3.88235	629906
3.89048	605857
3.89860	560210
3.90672	545810
3.91485	549821
3.92297	616199
3.93108	726160
3.93922	763687
3.94733	1031344
3.95547	2768206
3.96358	7048910
3.97170	1.109601E+07
3.97983	1.008364E+07
3.98795	6501561
3.99608	5192502
4.00420	1.136334E+07
4.01232	2.725417E+07
4.02045	3.995724E+07
4.02857	3.802066E+07
4.03668	2.481224E+07
4.04482	1.274534E+07
4.05293	7454089
4.06107	5266856
4.06918	4097980
4.07730	3267287
4.08543	2722994
4.09355	2334542
4.10168	2017881
4.10980	1791921
4.11792	1603510
4.12605	1472761
4.13417	1366061
4.14230	1313550
4.15042	1291595
4.15853	1263305
4.16667	1202655
4.17478	1106969
4.18290	1052499
4.19103	960799
4.19915	914821
4.20728	1044141
4.21540	2310170
4.22352	6580008
4.23165	1.319798E+07
4.23977	1.748289E+07
4.24790	1.626543E+07
4.25602	1.086345E+07
4.26413	6588395
4.27227	4584489
4.28038	3484086
4.28852	2749838
4.29663	2284276
4.30475	1954807
4.31288	1706500
4.32100	1497577
4.32912	1367421
4.33725	1286098
4.34537	1181031
4.35350	1162495
4.36162	1127396
4.36973	1076656
4.37787	1018383
4.38598	949089
4.39412	901913
4.40223	860012
4.41035	825506
4.41848	782068
4.42660	760384
4.43472	722201
4.44285	704590
4.45097	677350
4.45910	654616
4.46722	628799
4.47533	609223
4.48347	597182
4.49158	598744
4.49972	585185
4.50783	556666
4.51595	554846
4.52408	543250
4.53220	526834
4.54033	509260
4.54845	516592
4.55657	492457
4.56470	491433
4.57282	485147
4.58093	467884
4.58907	469233
4.59718	448027
4.60532	450351
4.61343	433786
4.62155	457880
4.62968	519424
4.63780	656414
4.64593	783901
4.65405	765537
4.66217	651323
4.67030	537414
4.67842	488584
4.68655	463643
4.69467	443640
4.70278	421692
4.71092	401893
4.71903	395564
4.72715	397710
4.73528	375568
4.74340	364113
4.75153	368901
4.75965	354614
4.76777	353300
4.77590	352394
4.78402	353593
4.79215	393721
4.80027	508252
4.80838	661507
4.81652	708586
4.82463	609154
4.83275	519183
4.84088	472285
4.84900	467160
4.85713	454848
4.86525	427436
4.87337	422387
4.88150	396562
4.88962	382341
4.89775	368714
4.90587	353136
4.91398	335930
4.92212	337927
4.93023	369247
4.93837	511065
4.94648	940052
4.95460	1612296
4.96273	2298144
4.97085	2528389
4.97897	2153919
4.98710	1710395
4.99522	1285601
5.00335	1026237
5.01147	874753
5.01958	808578
5.02772	852580
5.03583	1062740
5.04397	1326751
5.05208	1387789
5.06020	1192826
5.06833	964452
5.07645	832090
5.08457	746718
5.09270	684691
5.10082	631326
5.10895	609627
5.11707	578401
5.12518	562507
5.13332	533356
5.14143	505002
5.14957	519056
5.15768	513013
5.16580	541788
5.17393	557775
5.18205	534176
5.19018	512254
5.19830	493686
5.20642	505559
5.21455	501743
5.22267	506635
5.23078	475877
5.23892	476229
5.24703	443750
5.25517	432112
5.26328	404593
5.27140	388365
5.27953	378959
5.28765	364429
5.29578	364883
5.30390	357240
5.31202	352895
5.32015	351357
5.32827	357085
5.33640	376810
5.34452	394835
5.35263	403579
5.36077	373679
5.36888	351510
5.37700	350576
5.38513	337954
5.39325	336109
5.40138	325499
5.40950	333074
5.41762	320017
5.42575	317127
5.43387	309675
5.44200	307585
5.45012	311618
5.45823	317282
5.46637	312249
5.47448	299338
5.48260	290807
5.49073	282058
5.49885	278781
5.50698	284567
5.51510	293489
5.52322	292296
5.53135	294563
5.53947	280213
5.54760	275924
5.55572	275704
5.56383	285377
5.57197	301829
5.58008	303603
5.58822	294018
5.59633	291296
5.60445	280986
5.61258	274664
5.62070	269252
5.62882	276432
5.63695	284407
5.64507	299547
5.65320	308345
5.66132	292942
5.66943	286489
5.67757	288964
5.68568	308500
5.69382	335001
5.70193	354371
5.71005	326513
5.71818	303083
5.72630	279119
5.73443	270000
5.74255	259494
5.75067	253800
5.75880	258455
5.76692	252548
5.77503	243511
5.78317	249321
5.79128	241811
5.79942	238125
5.80753	229052
5.81565	234531
5.82378	222163
5.83190	236775
5.84003	234069
5.84815	233476
5.85627	232853
5.86440	233074
5.87252	235130
5.88063	224216
5.88877	220503
5.89688	218316
5.90502	209261
5.91313	189558
5.92125	167578
5.92938	163765
5.93750	159593
5.94563	176220
5.95375	197079
5.96187	216471
5.97000	239618
5.97812	265395
5.98625	301717
5.99437	317782
6.00248	317847
6.01062	270987
6.01873	237475
6.02685	217393
6.03498	204314
6.04310	191368
6.05123	181332
6.05935	168505
6.06747	168881
6.07560	165174
6.08372	160476
6.09185	157021
6.09997	156377
6.10808	150560
6.11622	160032
6.12433	176546
6.13245	235776
6.14058	334727
6.14870	444749
6.15683	468954
6.16495	403264
6.17307	326043
6.18120	265810
6.18932	227173
6.19745	218093
6.20557	203332
6.21368	205839
6.22182	192784
6.22993	198584
6.23807	196482
6.24618	190992
6.25430	191409
6.26243	199233
6.27055	200317
6.27867	190889
6.28680	193812
6.29492	192978
6.30305	190269
6.31117	192246
6.31928	198591
6.32742	201846
6.33553	212678
6.34367	226028
6.35178	225382
6.35990	225046
6.36803	212479
6.37615	205010
6.38428	206373
6.39240	199862
6.40052	209249
6.40865	211378
6.41677	195640
6.42488	200607
6.43302	199740
6.44113	200724
6.44927	193826
6.45738	193511
6.46550	191667
6.47363	189541
6.48175	191171
6.48988	197851
6.49800	194274
6.50612	200811
6.51425	202453
6.52237	201533
6.53050	198242
6.53862	208386
6.54673	203851
6.55487	205628
6.56298	202898
6.57110	192385
6.57923	213809
6.58735	215736
6.59548	228096
6.60360	224975
6.61172	208843
6.61985	205442
6.62797	216437
6.63610	212946
6.64422	215210
6.65233	227260
6.66047	265851
6.66858	330704
6.67670	365648
6.68483	355747
6.69295	314464
6.70108	264861
6.70920	249124
6.71732	236080
6.72545	227589
6.73357	226911
6.74170	227395
6.74982	228696
6.75793	229077
6.76607	209105
6.77418	183281
6.78232	173527
6.79043	160895
6.79855	155541
6.80668	155587
6.81480	140388
6.82292	147961
6.83105	141531
6.83917	144641
6.84730	169928
6.85542	199980
6.86353	224801
6.87167	233593
6.87978	201472
6.88792	162810
6.89603	129855
6.90415	110890
6.91228	101636
6.92040	93610
6.92852	95083
6.93665	89271
6.94477	90045
6.95290	90392
6.96102	95624
6.96913	107001
6.97727	121103
6.98538	132234
6.99352	123171
7.00163	108644
7.00975	101376
7.01788	93425
7.02600	93279
7.03413	92569
7.04225	89028
7.05037	87682
7.05850	84690
7.06662	87717
7.07473	81688
7.08287	84411
7.09098	78574
7.09912	75979
7.10723	76913
7.11535	76844
7.12348	73773
7.13160	80909
7.13973	91275
7.14785	135933
7.15597	209212
7.16410	284926
7.17222	318807
7.18035	285051
7.18847	218642
7.19658	158427
7.20472	128187
7.21283	144308
7.22095	253789
7.22908	531013
7.23720	1036096
7.24533	1446701
7.25345	1433755
7.26157	1084457
7.26970	661609
7.27782	418330
7.28595	303699
7.29407	245254
7.30218	197435
7.31032	149102
7.31843	131504
7.32655	125864
7.33468	115275
7.34280	113630
7.35093	109286
7.35905	99226
7.36717	101115
7.37530	99157
7.38342	101578
7.39155	100579
7.39967	101430
7.40778	100899
7.41592	92896
7.42403	92305
7.43217	89459
7.44028	79895
7.44840	81317
7.45653	89915
7.46465	87053
7.47277	79123
7.48090	79596
7.48902	80868
7.49715	81762
7.50527	84631
7.51338	84435
7.52152	98498
7.52963	109009
7.53777	145159
7.54588	176750
7.55400	205585
7.56213	216122
7.57025	203781
7.57838	167763
7.58650	144165
7.59462	113109
7.60275	100413
7.61087	94350
7.61898	87856
7.62712	84142
7.63523	83914
7.64337	74746
7.65148	80371
7.65960	73331
7.66773	79389
7.67585	72410
7.68398	75464
7.69210	73000
7.70022	72157
7.70835	70579
7.71647	76795
7.72458	75322
7.73272	72256
7.74083	71280
7.74897	77703
7.75708	80261
7.76520	83491
7.77333	82972
7.78145	79746
7.78958	86675
7.79770	87856
7.80582	91219
7.81395	94618
7.82207	86918
7.83020	78559
7.83832	76032
7.84643	76407
7.85457	74295
7.86268	73410
7.87080	69945
7.87893	77538
7.88705	80943
7.89518	74632
7.90330	71335
7.91142	76573
7.91955	78772
7.92767	88726
7.93580	102094
7.94392	111593
7.95203	124838
7.96017	119258
7.96828	109328
7.97640	108929
7.98453	90521
7.99265	81242
8.00078	69992
8.00890	70672
8.01702	73198
8.02515	68494
8.03327	69984
8.04140	70203
8.04952	71372
8.05763	69048
8.06577	66361
8.07388	63323
8.08202	67291
8.09013	64711
8.09825	66174
8.10638	67177
8.11450	65226
8.12262	69354
8.13075	74790
8.13887	83689
8.14700	92206
8.15512	102888
8.16323	98007
8.17137	87933
8.17948	79333
8.18762	74798
8.19573	65866
8.20385	71275
8.21198	67361
8.22010	67551
8.22823	59721
8.23635	61313
8.24447	61147
8.25260	58903
8.26072	59555
8.26883	59444
8.27697	67718
8.28508	61013
8.29322	59951
8.30133	66117
8.30945	68353
8.31758	68163
8.32570	69644
8.33383	72975
8.34195	66001
8.35007	67677
8.35820	58928
8.36632	63027
8.37443	65543
8.38257	70754
8.39068	71655
8.39882	69070
8.40693	64338
8.41505	59841
8.42318	61478
8.43130	61610
8.43943	64497
8.44755	57122
8.45567	59446
8.46380	57360
8.47192	56187
8.48005	59485
8.48817	52887
8.49628	55616
8.50442	58003
8.51253	57459
8.52065	65852
8.52878	87623
8.53690	148432
8.54503	251659
8.55315	372009
8.56127	405251
8.56940	349665
8.57752	250132
8.58565	166713
8.59377	119964
8.60188	101888
8.61002	92658
8.61813	87933
8.62627	84824
8.63438	77355
8.64250	77178
8.65063	74088
8.65875	73504
8.66687	67615
8.67500	67426
8.68312	69916
8.69125	69402
8.69937	72599
8.70748	70312
8.71562	69658
8.72373	61646
8.73187	56899
8.73998	69656
8.74810	95762
8.75623	169242
8.76435	310821
8.77247	523441
8.78060	669561
8.78872	702685
8.79685	585164
8.80497	440558
8.81308	317843
8.82122	233163
8.82933	182812
8.83747	171511
8.84558	176482
8.85370	183593
8.86183	188790
8.86995	175626
8.87808	172153
8.88620	162066
8.89432	161204
8.90245	146420
8.91057	142771
8.91868	136698
8.92682	140791
8.93493	145100
8.94307	153662
8.95118	162647
8.95930	168157
8.96743	155614
8.97555	149523
8.98368	135185
8.99180	131481
8.99992	126397
9.00805	122266
9.01617	122093
9.02428	118518
9.03242	113758
9.04053	112222
9.04867	110373
9.05678	114612
9.06490	107653
9.07303	101158
9.08115	101702
9.08928	100379
9.09740	103352
9.10552	110207
9.11365	120520
9.12177	120857
9.12990	114210
9.13802	114427
9.14613	108454
9.15427	102350
9.16238	104524
9.17050	99925
9.17863	96897
9.18675	102986
9.19488	89815
9.20300	93974
9.21112	92790
9.21925	90897
9.22737	91365
9.23550	91180
9.24362	89135
9.25173	90859
9.25987	87474
9.26798	87504
9.27612	86341
9.28423	82823
9.29235	80048
9.30048	81337
9.30860	83415
9.31672	87241
9.32485	85965
9.33297	73652
9.34110	79783
9.34922	80233
9.35733	76434
9.36547	78723
9.37358	76463
9.38172	76660
9.38983	79178
9.39795	78668
9.40608	83810
9.41420	84469
9.42232	93798
9.43045	106887
9.43857	113018
9.44670	108957
9.45482	103682
9.46293	97466
9.47107	87634
9.47918	79220
9.48732	76490
9.49543	76200
9.50355	81381
9.51168	86610
9.51980	91017
9.52793	93490
9.53605	91042
9.54417	89315
9.55230	78073
9.56042	71882
9.56853	67318
9.57667	68330
9.58478	75531
9.59292	72835
9.60103	73425
9.60915	67414
9.61728	62205
9.62540	55386
9.63353	54737
9.64165	44907
9.64977	47706
9.65790	50502
9.66602	48644
9.67415	49027
9.68227	47165
9.69038	48893
9.69852	47746
9.70663	46180
9.71475	43738
9.72288	45670
9.73100	42979
9.73913	43139
9.74725	46927
9.75537	44740
9.76350	39895
9.77162	42296
9.77975	44628
9.78787	46170
9.79598	48216
9.80412	43760
9.81223	45570
9.82035	46314
9.82848	40836
9.83660	42469
9.84473	44257
9.85285	45427
9.86097	48474
9.86910	47005
9.87722	50192
9.88535	49972
9.89347	50569
9.90158	47087
9.90972	49364
9.91783	50688
9.92597	60280
9.93408	78738
9.94220	109228
9.95033	150109
9.95845	183461
9.96657	201396
9.97470	187498
9.98282	147128
9.99095	123216
9.99907	100023
10.00718	85736
10.01532	76033
10.02343	74961
10.03157	67741
10.03968	60148
10.04780	61480
10.05593	56525
10.06405	54608
10.07218	55887
10.08030	59449
10.08842	56987
10.09655	59659
10.10467	60410
10.11278	60205
10.12092	58243
10.12903	60815
10.13717	57027
10.14528	61022
10.15340	57708
10.16153	53048
10.16965	54412
10.17778	52579
10.18590	50068
10.19402	52254
10.20215	48621
10.21027	53226
10.21838	49710
10.22652	53189
10.23463	49985
10.24277	55716
10.25088	58458
10.25900	72904
10.26713	130270
10.27525	275972
10.28338	625565
10.29150	1159182
10.29962	1814675
10.30775	2492782
10.31587	3540455
10.32400	5144843
10.33212	7085026
10.34023	8207414
10.34837	7776526
10.35648	6108874
10.36460	4210005
10.37273	2933669
10.38085	2140406
10.38898	1569504
10.39710	1114604
10.40522	790607
10.41335	592807
10.42147	474259
10.42960	397461
10.43772	360589
10.44583	333270
10.45397	297245
10.46208	284632
10.47020	273510
10.47833	252459
10.48645	244352
10.49458	229777
10.50270	208750
10.51082	201000
10.51895	193987
10.52707	182378
10.53520	180881
10.54332	170510
10.55143	171030
10.55957	167301
10.56768	161373
10.57582	157402
10.58393	150159
10.59205	152179
10.60018	147914
10.60830	139383
10.61642	132584
10.62455	125881
10.63267	125271
10.64080	116624
10.64892	113294
10.65703	111088
10.66517	112849
10.67328	112938
10.68142	106560
10.68953	103629
10.69765	103172
10.70578	105840
10.71390	109041
10.72203	105032
10.73015	96648
10.73827	97974
10.74640	101031
10.75452	103081
10.76263	95636
10.77077	95807
10.77888	88380
10.78702	85342
10.79513	85314
10.80325	80559
10.81138	82621
10.81950	82582
10.82763	83997
10.83575	80278
10.84387	78472
10.85200	73806
10.86012	74255
10.86823	75140
10.87637	70945
10.88448	77646
10.89262	68825
10.90073	73476
10.90885	72016
10.91698	68274
10.92510	67497
10.93323	69245
10.94135	66330
10.94947	67179
10.95760	67380
10.96572	67023
10.97385	66617
10.98197	69085
10.99008	69358
10.99822	68912
11.00633	65598
11.01445	64274
11.02258	59520
11.03070	62228
11.03883	61384
11.04695	61424
11.05507	58580
11.06320	58794
11.07132	61924
11.07945	60740
11.08757	66241
11.09568	64160
11.10382	62083
11.11193	58764
11.12007	57553
11.12818	54295
11.13630	53210
11.14443	51083
11.15255	54787
11.16067	56575
11.16880	57033
11.17692	58153
11.18505	58232
11.19317	59566
11.20128	60101
11.20942	55920
11.21753	49601
11.22567	56649
11.23378	54561
11.24190	57259
11.25003	50899
11.25815	46269
11.26627	46130
11.27440	53158
11.28252	46198
11.29065	48015
11.29877	54232
11.30688	64495
11.31502	89698
11.32313	126714
11.33127	179322
11.33938	225105
11.34750	247908
11.35563	237551
11.36375	206179
11.37188	154040
11.38000	115652
11.38812	94219
11.39625	81885
11.40437	74206
11.41248	69485
11.42062	72563
11.42873	73786
11.43687	73453
11.44498	70087
11.45310	66025
11.46123	69741
11.46935	65064
11.47748	70328
11.48560	83990
11.49372	106385
11.50185	112559
11.50997	119075
11.51808	115666
11.52622	101359
11.53433	86814
11.54247	84468
11.55058	74690
11.55870	69876
11.56683	76520
11.57495	68608
11.58308	62756
11.59120	68081
11.59932	79000
11.60745	99507
11.61557	125843
11.62370	133534
11.63182	135581
11.63993	110846
11.64807	91407
11.65618	77132
11.66430	68621
11.67243	66737
11.68055	60763
11.68868	63735
11.69680	66079
11.70492	70886
11.71305	71936
11.72117	73681
11.72930	69156
11.73742	65919
11.74553	61001
11.75367	54426
11.76178	54437
11.76992	58007
11.77803	53786
11.78615	58665
11.79428	54630
11.80240	58679
11.81052	59279
11.81865	59731
11.82677	57042
11.83490	58351
11.84302	59847
11.85113	56201
11.85927	55113
11.86738	57396
11.87552	52704
11.88363	57045
11.89175	51139
11.89988	48149
11.90800	51029
11.91613	50606
11.92425	59423
11.93237	60683
11.94050	61035
11.94862	61032
11.95673	57103
11.96487	56848
11.97298	71641
11.98112	115886
11.98923	226495
11.99735	422565
12.00548	672168
12.01360	861523
12.02173	874968
12.02985	740620
12.03797	533204
12.04610	351514
12.05422	231723
12.06233	175813
12.07047	146986
12.07858	132028
12.08672	117658
12.09483	118426
12.10295	103548
12.11108	101198
12.11920	92072
12.12733	95416
12.13545	95979
12.14357	104009
12.15170	87209
12.15982	85768
12.16795	80299
12.17607	76937
12.18418	75543
12.19232	75673
12.20043	72717
12.20855	74932
12.21668	79484
12.22480	71978
12.23293	76374
12.24105	71257
12.24917	68866
12.25730	70482
12.26542	68639
12.27355	65815
12.28167	64586
12.28978	62190
12.29792	65091
12.30603	63076
12.31415	62769
12.32228	61040
12.33040	61666
12.33853	59362
12.34665	61895
12.35477	57176
12.36290	58853
12.37102	53090
12.37915	55151
12.38727	57084
12.39538	62142
12.40352	75318
12.41163	79459
12.41977	88911
12.42788	94616
12.43600	96170
12.44413	93455
12.45225	83960
12.46037	78376
12.46850	72791
12.47662	67091
12.48475	67899
12.49287	60701
12.50098	61616
12.50912	66217
12.51723	54422
12.52537	61603
12.53348	63344
12.54160	74165
12.54973	89928
12.55785	118140
12.56598	138433
12.57410	147145
12.58222	137837
12.59035	118435
12.59847	92541
12.60658	80302
12.61472	69705
12.62283	71559
12.63097	66761
12.63908	66768
12.64720	64649
12.65533	59824
12.66345	58811
12.67158	57454
12.67970	58452
12.68782	47467
12.69595	50199
12.70407	54157
12.71218	54687
12.72032	55329
12.72843	60591
12.73657	66783
12.74468	74845
12.75280	72013
12.76093	62305
12.76905	58261
12.77718	52338
12.78530	52297
12.79342	48843
12.80155	50545
12.80967	44201
12.81780	46918
12.82592	44341
12.83403	42067
12.84217	43924
12.85028	44127
12.85840	42784
12.86653	41551
12.87465	45368
12.88278	45363
12.89090	42482
12.89902	42512
12.90715	46796
12.91527	44056
12.92340	43448
12.93152	43208
12.93963	39824
12.94777	52130
12.95588	64789
12.96402	104402
12.97213	173753
12.98025	266378
12.98838	309332
12.99650	318192
13.00462	254686
13.01275	182394
13.02087	125260
13.02900	98984
13.03712	87676
13.04523	84914
13.05337	85697
13.06148	87207
13.06962	97316
13.07773	95455
13.08585	91107
13.09398	82524
13.10210	76248
13.11022	69637
13.11835	57876
13.12647	55662
13.13460	55489
13.14272	57490
13.15083	56923
13.15897	61916
13.16708	56490
13.17522	57478
13.18333	56776
13.19145	58574
13.19958	56584
13.20770	53508
13.21583	56886
13.22395	53556
13.23207	56825
13.24020	56005
13.24832	54282
13.25643	53114
13.26457	49490
13.27268	50663
13.28082	52266
13.28893	45854
13.29705	44506
13.30518	43906
13.31330	45777
13.32143	41408
13.32955	43573
13.33767	45978
13.34580	45509
13.35392	43455
13.36203	39953
13.37017	46693
13.37828	49686
13.38642	44223
13.39453	43135
13.40265	42606
13.41078	40402
13.41890	39732
13.42703	39389
13.43515	41401
13.44327	38338
13.45140	41262
13.45952	43686
13.46765	41806
13.47577	45509
13.48388	44265
13.49202	41041
13.50013	44789
13.50825	48635
13.51638	42406
13.52450	44776
13.53263	50008
13.54075	47731
13.54887	47316
13.55700	44431
13.56512	46884
13.57325	45201
13.58137	43598
13.58948	46000
13.59762	59512
13.60573	77957
13.61387	110445
13.62198	139860
13.63010	155264
13.63823	142174
13.64635	118591
13.65447	86451
13.66260	73428
13.67072	57776
13.67885	52619
13.68697	49761
13.69508	51422
13.70322	50358
13.71133	44258
13.71947	48585
13.72758	59768
13.73570	108527
13.74383	250020
13.75195	634517
13.76007	1415975
13.76820	2547471
13.77632	3622027
13.78445	4171868
13.79257	3786733
13.80068	2869090
13.80882	1891768
13.81693	1204594
13.82507	823575
13.83318	664923
13.84130	574101
13.84943	504607
13.85755	466065
13.86568	393031
13.87380	337958
13.88192	297730
13.89005	271090
13.89817	248785
13.90628	228480
13.91442	227188
13.92253	206666
13.93067	193821
13.93878	191297
13.94690	199312
13.95503	195720
13.96315	213068
13.97128	251347
13.97940	292485
13.98752	309982
13.99565	307144
14.00377	269520
14.01190	226336
14.02002	193623
14.02813	172837
14.03627	164329
14.04438	152249
14.05250	145107
14.06063	143032
14.06875	150212
14.07688	142592
14.08500	140981
14.09312	139660
14.10125	130803
14.10937	124008
14.11750	129950
14.12562	128990
14.13373	143901
14.14187	169509
14.14998	186247
14.15810	208984
14.16623	210281
14.17435	205877
14.18248	222198
14.19060	248797
14.19872	278270
14.20685	289629
14.21497	285772
14.22310	271022
14.23122	240059
14.23933	224601
14.24747	208481
14.25558	191110
14.26372	172801
14.27183	163592
14.27995	146184
14.28808	131123
14.29620	124719
14.30432	126324
14.31245	111811
14.32057	107113
14.32870	96749
14.33682	100759
14.34493	91050
14.35307	90836
14.36118	81003
14.36932	72230
14.37743	64299
14.38555	72581
14.39368	95123
14.40180	142666
14.40993	216925
14.41805	333298
14.42617	413755
14.43430	411180
14.44242	341484
14.45053	252048
14.45867	177567
14.46678	132568
14.47492	111210
14.48303	98441
14.49115	89562
14.49928	88103
14.50740	96908
14.51553	98408
14.52365	95301
14.53177	99616
14.53990	99168
14.54802	86941
14.55613	81253
14.56427	76538
14.57238	73074
14.58052	69358
14.58863	65041
14.59675	63020
14.60488	61107
14.61300	60445
14.62113	58684
14.62925	57123
14.63737	57708
14.64550	60874
14.65362	50826
14.66175	52564
14.66987	59609
14.67798	53981
14.68612	55559
14.69423	53923
14.70235	50880
14.71048	55927
14.71860	55941
14.72673	56449
14.73485	61664
14.74297	57786
14.75110	61031
14.75922	60428
14.76735	60993
14.77547	60395
14.78358	68153
14.79172	91845
14.79983	183014
14.80795	419224
14.81608	864137
14.82420	1495446
14.83233	2028229
14.84045	2229809
14.84857	1961005
14.85670	1451799
14.86482	961574
14.87295	615364
14.88107	392445
14.88918	281545
14.89732	222943
14.90543	183951
14.91357	170516
14.92168	147248
14.92980	151960
14.93793	128338
14.94605	123493
14.95417	112477
14.96230	109331
14.97042	103548
14.97855	98227
14.98667	94355
14.99478	96545
15.00292	94319
15.01103	97033
15.01917	88296
15.02728	84708
15.03540	82569
15.04353	79681
15.05165	79666
15.05978	75825
15.06790	75860
15.07602	74262
15.08415	76455
15.09227	66131
15.10038	60538
15.10852	64824
15.11663	67100
15.12477	67468
15.13288	73665
15.14100	78734
15.14913	80097
15.15725	76040
15.16538	73582
15.17350	66365
15.18162	61065
15.18975	58790
15.19787	55597
15.20598	53262
15.21412	53171
15.22223	49124
15.23037	47633
15.23848	50427
15.24660	49977
15.25473	49429
15.26285	49455
15.27098	46479
15.27910	48068
15.28722	49497
15.29535	46594
15.30347	45128
15.31160	45359
15.31972	43731
15.32783	46858
15.33597	42875
15.34408	44109
15.35220	43727
15.36033	43388
15.36845	44381
15.37658	46667
15.38470	47269
15.39282	41941
15.40095	47195
15.40907	47064
15.41720	46171
15.42532	43191
15.43343	44873
15.44157	42040
15.44968	43468
15.45782	42279
15.46593	49195
15.47405	52097
15.48218	60704
15.49030	66771
15.49842	81190
15.50655	81812
15.51467	85751
15.52280	80932
15.53092	80171
15.53903	71476
15.54717	70699
15.55528	67102
15.56342	65334
15.57153	58304
15.57965	51105
15.58778	48996
15.59590	42068
15.60402	46541
15.61215	44355
15.62027	42286
15.62840	42663
15.63652	41623
15.64463	42016
15.65277	39746
15.66088	43270
15.66902	44526
15.67713	40296
15.68525	42317
15.69338	44293
15.70150	42354
15.70963	43101
15.71775	39923
15.72587	44561
15.73400	44877
15.74212	47916
15.75023	54427
15.75837	66230
15.76648	96534
15.77462	141163
15.78273	198119
15.79085	253079
15.79898	251160
15.80710	221940
15.81523	182507
15.82335	127426
15.83147	101568
15.83960	80604
15.84772	73676
15.85583	65304
15.86397	63644
15.87208	56020
15.88022	64684
15.88833	53249
15.89645	55935
15.90458	53811
15.91270	54543
15.92083	54213
15.92895	50531
15.93707	57357
15.94520	71561
15.95332	87128
15.96145	130005
15.96957	171676
15.97768	210361
15.98582	223534
15.99393	207148
16.00205	183234
16.01018	153667
16.01830	129525
16.02643	115739
16.03455	117644
16.04267	107169
16.05080	90793
16.05892	82232
16.06705	77074
16.07517	68884
16.08328	66657
16.09142	59923
16.09953	57371
16.10767	55382
16.11578	60293
16.12390	53587
16.13203	60283
16.14015	60615
16.14827	59668
16.15640	61767
16.16452	58088
16.17265	54877
16.18077	56002
16.18888	53698
16.19702	51009
16.20513	55180
16.21327	50914
16.22138	55182
16.22950	58182
16.23763	57073
16.24575	52300
16.25388	54575
16.26200	56033
16.27012	49761
16.27825	50995
16.28637	52422
16.29448	55642
16.30262	53233
16.31073	54135
16.31887	53986
16.32698	52574
16.33510	48380
16.34323	65904
16.35135	78820
16.35948	117490
16.36760	153599
16.37572	205189
16.38385	223959
16.39197	220721
16.40008	191714
16.40822	138458
16.41633	117304
16.42447	89023
16.43258	80018
16.44070	74745
16.44883	87613
16.45695	112506
16.46508	167801
16.47320	240168
16.48132	326049
16.48945	353370
16.49757	333994
16.50570	267661
16.51382	186813
16.52193	132649
16.53007	102049
16.53818	82405
16.54630	78745
16.55443	67676
16.56255	68750
16.57068	66127
16.57880	68502
16.58692	72992
16.59505	84217
16.60317	93482
16.61130	106669
16.61942	113917
16.62753	111179
16.63567	97131
16.64378	96005
16.65190	83378
16.66003	74777
16.66815	66075
16.67628	62487
16.68440	58634
16.69252	56607
16.70065	55523
16.70877	55928
16.71690	48573
16.72502	54558
16.73313	53064
16.74127	52179
16.74938	47970
16.75752	47752
16.76563	50763
16.77375	56913
16.78188	50280
16.79000	50536
16.79812	49047
16.80625	44716
16.81437	44926
16.82250	44814
16.83062	46326
16.83873	43057
16.84687	44025
16.85498	43472
16.86312	44287
16.87123	43302
16.87935	41367
16.88748	46046
16.89560	40907
16.90373	41781
16.91185	41400
16.91997	39544
16.92810	40620
16.93622	41599
16.94433	37380
16.95247	41220
16.96058	41722
16.96872	42268
16.97683	41859
16.98495	41464
16.99308	42585
17.00120	43581
17.00933	40626
17.01745	41206
17.02557	43024
17.03370	46366
17.04182	47765
17.04993	54194
17.05807	53500
17.06618	54186
17.07432	53052
17.08243	48341
17.09055	50954
17.09868	46136
17.10680	45030
17.11493	44877
17.12305	49342
17.13117	44946
17.13930	44349
17.14742	45994
17.15555	42024
17.16367	45713
17.17178	47026
17.17992	42817
17.18803	41449
17.19615	41870
17.20428	43548
17.21240	39905
17.22053	42159
17.22865	40383
17.23677	40529
17.24490	42068
17.25302	43050
17.26115	40813
17.26927	44649
17.27738	41921
17.28552	40527
17.29363	39157
17.30177	46333
17.30988	44228
17.31800	49013
17.32613	53412
17.33425	60755
17.34237	70984
17.35050	68352
17.35862	68600
17.36675	64823
17.37487	56081
17.38298	58192
17.39112	55165
17.39923	51500
17.40737	51195
17.41548	50806
17.42360	52084
17.43173	54831
17.43985	49628
17.44797	51666
17.45610	44428
17.46422	48121
17.47235	45359
17.48047	47822
17.48858	44357
17.49672	43535
17.50483	44423
17.51297	40904
17.52108	40887
17.52920	40099
17.53733	46137
17.54545	47221
17.55358	48064
17.56170	62938
17.56982	98152
17.57795	159764
17.58607	266337
17.59418	437473
17.60232	610757
17.61043	778010
17.61857	811782
17.62668	708578
17.63480	549967
17.64293	426349
17.65105	339163
17.65918	303802
17.66730	281488
17.67542	273856
17.68355	252236
17.69167	211780
17.69978	167755
17.70792	135181
17.71603	120179
17.72417	111508
17.73228	92668
17.74040	90786
17.74853	82186
17.75665	74929
17.76478	78456
17.77290	74344
17.78102	79656
17.78915	93439
17.79727	151719
17.80540	258952
17.81352	443981
17.82163	668420
17.82977	866958
17.83788	902117
17.84600	795035
17.85413	612141
17.86225	432728
17.87038	299111
17.87850	229708
17.88662	189419
17.89475	150502
17.90287	137153
17.91100	125641
17.91912	115621
17.92723	107824
17.93537	104287
17.94348	99275
17.95162	89996
17.95973	91296
17.96785	82632
17.97598	84195
17.98410	79426
17.99222	75863
18.00035	77019
18.00847	80834
18.01660	79800
18.02472	89283
18.03283	89539
18.04097	99781
18.04908	121370
18.05722	192298
18.06533	393362
18.07345	795880
18.08158	1406543
18.08970	2087552
18.09782	2519320
18.10595	2439959
18.11407	2044445
18.12220	1514105
18.13032	1063672
18.13843	753655
18.14657	581342
18.15468	473407
18.16282	410681
18.17093	366320
18.17905	346171
18.18718	293304
18.19530	278549
18.20343	258661
18.21155	237125
18.21967	218414
18.22780	202413
18.23592	192616
18.24403	186775
18.25217	187502
18.26028	221123
18.26842	267037
18.27653	328319
18.28465	367050
18.29278	383731
18.30090	379825
18.30903	385424
18.31715	382457
18.32527	389706
18.33340	389075
18.34152	394129
18.34965	388636
18.35777	381151
18.36588	383457
18.37402	374481
18.38213	378935
18.39025	374135
18.39838	372622
18.40650	365796
18.41463	357925
18.42275	363880
18.43087	377558
18.43900	361774
18.44712	381508
18.45525	403491
18.46337	451638
18.47148	511252
18.47962	581794
18.48773	613516
18.49585	607705
18.50398	550809
18.51210	492184
18.52023	442610
18.52835	396858
18.53647	368740
18.54460	345183
18.55272	330742
18.56085	322891
18.56897	320590
18.57708	314674
18.58522	309494
18.59333	303949
18.60147	293889
18.60958	296802
18.61770	294097
18.62583	290184
18.63395	296704
18.64207	287579
18.65020	268575
18.65832	269263
18.66645	270059
18.67457	265716
18.68268	261403
18.69082	251454
18.69893	256982
18.70707	243501
18.71518	242708
18.72330	239678
18.73143	234919
18.73955	234090
18.74767	230719
18.75580	224248
18.76392	230158
18.77205	224614
18.78017	219652
18.78828	217788
18.79642	219419
18.80453	217746
18.81267	221906
18.82078	218746
18.82890	218128
18.83703	208740
18.84515	209280
18.85328	202068
18.86140	203761
18.86952	198045
18.87765	202287
18.88577	198598
18.89388	197928
18.90202	196342
18.91013	195423
18.91827	188502
18.92638	199093
18.93450	199886
18.94263	189880
18.95075	200467
18.95888	197661
18.96700	194353
18.97512	194354
18.98325	195214
18.99137	186297
18.99950	178650
19.00762	178483
19.01573	167429
19.02387	176507
19.03198	168347
19.04010	164856
19.04823	166751
19.05635	165879
19.06448	169484
19.07260	177421
19.08072	188970
19.08885	218801
19.09697	244349
19.10510	261869
19.11322	278453
19.12133	269196
19.12947	246039
19.13758	220308
19.14570	197932
19.15383	190711
19.16195	177439
19.17008	173179
19.17820	166167
19.18632	162640
19.19445	161795
19.20257	154810
19.21070	150550
19.21882	157147
19.22693	148860
19.23507	146134
19.24318	147071
19.25132	145746
19.25943	145005
19.26755	147921
19.27568	147097
19.28380	151520
19.29192	155869
19.30005	160088
19.30817	165107
19.31630	157006
19.32442	153004
19.33253	151808
19.34067	151870
19.34878	153395
19.35692	171671
19.36503	194530
19.37315	223273
19.38128	225611
19.38940	215965
19.39753	197892
19.40565	172080
19.41377	159260
19.42190	142440
19.43002	137212
19.43813	132644
19.44627	130723
19.45438	125346
19.46252	131690
19.47063	131504
19.47875	158211
19.48688	179510
19.49500	216414
19.50313	239116
19.51125	242720
19.51937	235110
19.52750	199766
19.53562	165996
19.54373	148736
19.55187	138081
19.55998	124062
19.56812	119610
19.57623	118480
19.58435	115708
19.59248	114355
19.60060	113773
19.60873	114007
19.61685	108674
19.62497	109683
19.63310	119419
19.64122	130433
19.64935	155554
19.65747	204608
19.66558	237974
19.67372	268032
19.68183	301525
19.68995	290010
19.69808	280130
19.70620	239711
19.71433	223058
19.72245	202380
19.73057	180331
19.73870	167455
19.74682	151124
19.75495	140148
19.76307	133824
19.77118	126327
19.77932	126854
19.78743	124596
19.79557	137420
19.80368	133087
19.81180	132751
19.81993	129617
19.82805	121774
19.83617	115954
19.84430	126379
19.85242	181589
19.86055	355020
19.86867	833347
19.87678	1842348
19.88492	3383857
19.89303	5222304
19.90117	6666682
19.90928	6988463
19.91740	6350953
19.92553	4835244
19.93365	3292147
19.94177	2080731
19.94990	1395110
19.95802	1046006
19.96615	849447
19.97427	734935
19.98238	642908
19.99052	595427
19.99863	563734
20.00677	515521
20.01488	483511
20.02300	452569
20.03113	422612
20.03925	372052
20.04738	341400
20.05550	304514
20.06362	253897
20.07175	213767
20.07987	187830
20.08798	172700
20.09612	162485
20.10423	154297
20.11237	143661
20.12048	142536
20.12860	132589
20.13673	129031
20.14485	123906
20.15298	130086
20.16110	123129
20.16922	132380
20.17735	141687
20.18547	136969
20.19358	149045
20.20172	149180
20.20983	150699
20.21797	133829
20.22608	129951
20.23420	129178
20.24233	138733
20.25045	151269
20.25858	163324
20.26670	206331
20.27482	233692
20.28295	248444
20.29107	249972
20.29920	247102
20.30732	217870
20.31543	195804
20.32357	170917
20.33168	139746
20.33980	125429
20.34793	119523
20.35605	95516
20.36418	94342
20.37230	90020
20.38042	85350
20.38855	81366
20.39667	82475
20.40480	82489
20.41292	82576
20.42103	85958
20.42917	90480
20.43728	98178
20.44542	102290
20.45353	108995
20.46165	110561
20.46978	111174
20.47790	111908
20.48602	106251
20.49415	101646
20.50227	89243
20.51040	87054
20.51852	78908
20.52663	80490
20.53477	79150
20.54288	77058
20.55102	78595
20.55913	79146
20.56725	72829
20.57538	75758
20.58350	74100
20.59162	69397
20.59975	68729
20.60787	67595
20.61600	70397
20.62412	75161
20.63223	67999
20.64037	71724
20.64848	69435
20.65662	70347
20.66473	75222
20.67285	69301
20.68098	72894
20.68910	69107
20.69723	66080
20.70535	65563
20.71347	61344
20.72160	61844
20.72972	62838
20.73783	62258
20.74597	63015
20.75408	68535
20.76222	71175
20.77033	69795
20.77845	78396
20.78658	90656
20.79470	113123
20.80283	156500
20.81095	207611
20.81907	249739
20.82720	257423
20.83532	233604
20.84345	187133
20.85157	142178
20.85968	109898
20.86782	95788
20.87593	84458
20.88405	74894
20.89218	74007
20.90030	73265
20.90843	73921
20.91655	69804
20.92467	74366
20.93280	70441
20.94092	68094
20.94905	66118
20.95717	65311
20.96528	71783
20.97342	63718
20.98153	63537
20.98965	58470
20.99778	60479
21.00590	62620
21.01403	63861
21.02215	59934
21.03027	59219
21.03840	61290
21.04652	67672
21.05465	60553
21.06277	62903
21.07088	67525
21.07902	59766
21.08713	62271
21.09527	61872
21.10338	65840
21.11150	61414
21.11963	60464
21.12775	58404
21.13587	62217
21.14400	71132
21.15212	77809
21.16025	81429
21.16837	88434
21.17648	84985
21.18462	78343
21.19273	74588
21.20087	70405
21.20898	67563
21.21710	63796
21.22523	59070
21.23335	64628
21.24147	59499
21.24960	63735
21.25772	61592
21.26585	57708
21.27397	59338
21.28208	57496
21.29022	59287
21.29833	60553
21.30647	56694
21.31458	55853
21.32270	54971
21.33083	54956
21.33895	54870
21.34708	60074
21.35520	53688
21.36332	53406
21.37145	63754
21.37957	63283
21.38768	72543
21.39582	78790
21.40393	87688
21.41207	95892
21.42018	96483
21.42830	94339
21.43643	89734
21.44455	75738
21.45268	73606
21.46080	64594
21.46892	66520
21.47705	63189
21.48517	60481
21.49330	58587
21.50142	57039
21.50953	53683
21.51767	54035
21.52578	56463
21.53390	55698
21.54203	57725
21.55015	54326
21.55828	57203
21.56640	53064
21.57452	58338
21.58265	65855
21.59077	69921
21.59890	73550
21.60702	77721
21.61513	79463
21.62327	78260
21.63138	83400
21.63952	88260
21.64763	90685
21.65575	91455
21.66388	87485
21.67200	89469
21.68012	92894
21.68825	91233
21.69637	84972
21.70450	76300
21.71262	75772
21.72073	72791
21.72887	65985
21.73698	68876
21.74512	65306
21.75323	63402
21.76135	63634
21.76948	65320
21.77760	66682
21.78572	68359
21.79385	67883
21.80197	72834
21.81010	71000
21.81822	81007
21.82633	81897
21.83447	84065
21.84258	84642
21.85072	77094
21.85883	76961
21.86695	67732
21.87508	62599
21.88320	60614
21.89133	59823
21.89945	59934
21.90757	58095
21.91570	58353
21.92382	57726
21.93193	57483
21.94007	56092
21.94818	54378
21.95632	52198
21.96443	48677
21.97255	47955
21.98068	50406
21.98880	47870
21.99693	46868
22.00505	47667
22.01317	45890
22.02130	50658
22.02942	48892
22.03753	48586
22.04567	52206
22.05378	49985
22.06192	48559
22.07003	46436
22.07815	44786
22.08628	47273
22.09440	43121
22.10253	46732
22.11065	49690
22.11877	49851
22.12690	52576
22.13502	48273
22.14315	46893
22.15127	52725
22.15938	49984
22.16752	49646
22.17563	47289
22.18375	45033
22.19188	52599
22.20000	47789
22.20813	50154
22.21625	48588
22.22437	52791
22.23250	50740
22.24062	48373
22.24875	48266
22.25687	50763
22.26498	47006
22.27312	47073
22.28123	50294
22.28937	49774
22.29748	52523
22.30560	53633
22.31373	53879
22.32185	59080
22.32997	59144
22.33810	55220
22.34622	55283
22.35435	51873
22.36247	52405
22.37058	48161
22.37872	51536
22.38683	54098
22.39497	62443
22.40308	75739
22.41120	93082
22.41933	105136
22.42745	111383
22.43557	108726
22.44370	96207
22.45182	83862
22.45995	75110
22.46807	71825
22.47618	73861
22.48432	77737
22.49243	88986
22.50057	90528
22.50868	93193
22.51680	89257
22.52493	79928
22.53305	75551
22.54118	74350
22.54930	65505
22.55742	66409
22.56555	61285
22.57367	57691
22.58178	57273
22.58992	58450
22.59803	55805
22.60617	54895
22.61428	56144
22.62240	50230
22.63053	51416
22.63865	52311
22.64678	52143
22.65490	54626
22.66302	54137
22.67115	57809
22.67927	57270
22.68740	57777
22.69552	60332
22.70363	61849
22.71177	71727
22.71988	71845
22.72800	70338
22.73613	67046
22.74425	68240
22.75238	64410
22.76050	61412
22.76862	63204
22.77675	57995
22.78487	68006
22.79300	77581
22.80112	88652
22.80923	100824
22.81737	103013
22.82548	95471
22.83360	86507
22.84173	77657
22.84985	67615
22.85798	65655
22.86610	68988
22.87422	66363
22.88235	68989
22.89047	79542
22.89860	94729
22.90672	112676
22.91483	145208
22.92297	170070
22.93108	175988
22.93922	182248
22.94733	151072
22.95545	128653
22.96358	106935
22.97170	88962
22.97982	79234
22.98795	73491
22.99607	65942
23.00420	61541
23.01232	60402
23.02043	59016
23.02857	56366
23.03668	54553
23.04482	49105
23.05293	52266
23.06105	51630
23.06918	46573
23.07730	51159
23.08542	57385
23.09355	62712
23.10167	60097
23.10980	62881
23.11792	62837
23.12603	61253
23.13417	68885
23.14228	63187
23.15042	60483
23.15853	66514
23.16665	63086
23.17478	61331
23.18290	66337
23.19103	67677
23.19915	63454
23.20727	70774
23.21540	67932
23.22352	73442
23.23163	65147
23.23977	65102
23.24788	68879
23.25602	71897
23.26413	80318
23.27225	80264
23.28038	81842
23.28850	72186
23.29663	72432
23.30475	69908
23.31287	69984
23.32100	74147
23.32912	74460
23.33725	91003
23.34537	112637
23.35348	157226
23.36162	224153
23.36973	327237
23.37785	463569
23.38598	605887
23.39410	771082
23.40223	904026
23.41035	978111
23.41847	1039137
23.42660	1044944
23.43472	1012918
23.44285	992348
23.45097	953275
23.45908	869958
23.46722	841584
23.47533	755138
23.48345	690236
23.49158	644352
23.49970	581689
23.50783	539920
23.51595	488285
23.52407	456689
23.53220	417281
23.54032	386023
23.54845	358233
23.55657	334511
23.56468	328724
23.57282	303770
23.58093	319163
23.58907	312540
23.59718	319494
23.60530	322014
23.61343	315380
23.62155	290488
23.62967	265452
23.63780	257008
23.64592	237323
23.65405	247220
23.66217	250475
23.67028	251714
23.67842	245322
23.68653	225490
23.69467	194417
23.70278	178078
23.71090	165856
23.71903	147866
23.72715	143463
23.73528	147181
23.74340	158744
23.75152	225892
23.75965	386238
23.76777	732661
23.77588	1299705
23.78402	1991487
23.79213	2568424
23.80027	2865787
23.80838	2708861
23.81650	2279853
23.82463	1791719
23.83275	1371253
23.84088	1079906
23.84900	856059
23.85712	685051
23.86525	570833
23.87337	488666
23.88148	435099
23.88962	390258
23.89773	362788
23.90587	340214
23.91398	311748
23.92210	294233
23.93023	276210
23.93835	256604
23.94648	236452
23.95460	226604
23.96272	217059
23.97085	209084
23.97897	194641
23.98710	186922
23.99522	198735
24.00333	240076
24.01147	331671
24.01958	507068
24.02770	756856
24.03583	896823
24.04395	937381
24.05208	819966
24.06020	607978
24.06832	422798
24.07645	283595
24.08457	211820
24.09270	172657
24.10082	154145
24.10893	144579
24.11707	139164
24.12518	138448
24.13332	133727
24.14143	132263
24.14955	132619
24.15768	128433
24.16580	134359
24.17392	127741
24.18205	127493
24.19017	127647
24.19830	122569
24.20642	122844
24.21453	117057
24.22267	119227
24.23078	110431
24.23892	109286
24.24703	101127
24.25515	93919
24.26328	96045
24.27140	101558
24.27952	93634
24.28765	93487
24.29577	95270
24.30390	88545
24.31202	92406
24.32013	89756
24.32827	83782
24.33638	86470
24.34452	88987
24.35263	87331
24.36075	89330
24.36888	96359
24.37700	117698
24.38513	128391
24.39325	134797
24.40137	131858
24.40950	122661
24.41762	103413
24.42573	100667
24.43387	89041
24.44198	84042
24.45012	87011
24.45823	89561
24.46635	91335
24.47448	97673
24.48260	108565
24.49073	111166
24.49885	115190
24.50697	130783
24.51510	135295
24.52322	147526
24.53133	161053
24.53947	175236
24.54758	182306
24.55572	188914
24.56383	197697
24.57195	191850
24.58008	183526
24.58820	174700
24.59633	161335
24.60445	158856
24.61257	154010
24.62070	150946
24.62882	155214
24.63695	153219
24.64507	153388
24.65318	147359
24.66132	150165
24.66943	146588
24.67755	145507
24.68568	145283
24.69380	142388
24.70193	142645
24.71005	139820
24.71817	144750
24.72630	138869
24.73442	137728
24.74255	143459
24.75067	148027
24.75878	149817
24.76692	150761
24.77503	151938
24.78317	153348
24.79128	153832
24.79940	159346
24.80753	156801
24.81565	153638
24.82377	163500
24.83190	164906
24.84002	184480
24.84815	214871
24.85627	260606
24.86438	317522
24.87252	398838
24.88063	502356
24.88877	587244
24.89688	638470
24.90500	601403
24.91313	542856
24.92125	422433
24.92937	330342
24.93750	263769
24.94562	219475
24.95375	186069
24.96187	168518
24.96998	163779
24.97812	162874
24.98623	157845
24.99437	147143
25.00248	150938
25.01060	148018
25.01873	145928
25.02685	142970
25.03498	137030
25.04310	136669
25.05122	136847
25.05935	134651
25.06747	135043
25.07558	131954
25.08372	137369
25.09183	147549
25.09997	187097
25.10808	279576
25.11620	486502
25.12433	866852
25.13245	1450764
25.14058	2102304
25.14870	2430848
25.15682	2371719
25.16495	2008636
25.17307	1481531
25.18120	991208
25.18932	604760
25.19743	378348
25.20557	255838
25.21368	193079
25.22180	162543
25.22993	146995
25.23805	149786
25.24618	163219
25.25430	192159
25.26242	218742
25.27055	253446
25.27867	262757
25.28680	253100
25.29492	215471
25.30303	189071
25.31117	149337
25.31928	120799
25.32740	105725
25.33553	96519
25.34365	92998
25.35178	83235
25.35990	78939
25.36802	73952
25.37615	76331
25.38427	69708
25.39240	70553
25.40052	72678
25.40863	71309
25.41677	74923
25.42488	67687
25.43302	70185
25.44113	70673
25.44925	65756
25.45738	67189
25.46550	74513
25.47362	67143
25.48175	71591
25.48987	68675
25.49800	64935
25.50612	63923
25.51423	64801
25.52237	62988
25.53048	61798
25.53862	57608
25.54673	58874
25.55485	61173
25.56298	59925
25.57110	60428
25.57922	60761
25.58735	62766
25.59547	62698
25.60360	66031
25.61172	67532
25.61983	75485
25.62797	85108
25.63608	102982
25.64422	119592
25.65233	138701
25.66045	149776
25.66858	156103
25.67670	159554
25.68483	161389
25.69295	167250
25.70107	163725
25.70920	179629
25.71732	172278
25.72543	178155
25.73357	174807
25.74168	173202
25.74982	171424
25.75793	179177
25.76605	176206
25.77418	182595
25.78230	184006
25.79043	185434
25.79855	183991
25.80667	189060
25.81480	179941
25.82292	188880
25.83105	195904
25.83917	208045
25.84728	216358
25.85542	214857
25.86353	207020
25.87165	204881
25.87978	186562
25.88790	174528
25.89603	171678
25.90415	162264
25.91227	167027
25.92040	153489
25.92852	156479
25.93665	161230
25.94477	152557
25.95288	156444
25.96102	154657
25.96913	150846
25.97725	148272
25.98538	144911
25.99350	144172
26.00163	135120
26.00975	147876
26.01787	138227
26.02600	141149
26.03412	133467
26.04225	131406
26.05037	132328
26.05848	130163
26.06662	132900
26.07473	134368
26.08287	130140
26.09098	130244
26.09910	128695
26.10723	125015
26.11535	126624
26.12347	129525
26.13160	126110
26.13972	122523
26.14785	123550
26.15597	131218
26.16408	121108
26.17222	127285
26.18033	122415
26.18847	123327
26.19658	109653
26.20470	113159
26.21283	116251
26.22095	114527
26.22908	107051
26.23720	110213
26.24532	103724
26.25345	105541
26.26157	115679
26.26968	106354
26.27782	103471
26.28593	104465
26.29407	96930
26.30218	98544
26.31030	99238
26.31843	100580
26.32655	96821
26.33468	92096
26.34280	93117
26.35092	92194
26.35905	91819
26.36717	90808
26.37528	89306
26.38342	89120
26.39153	91986
26.39967	91672
26.40778	90988
26.41590	90990
26.42403	86018
26.43215	83396
26.44028	80673
26.44840	80191
26.45652	80450
26.46465	82804
26.47277	84237
26.48090	82813
26.48902	84925
26.49713	80553
26.50527	83609
26.51338	75209
26.52150	74647
26.52963	69697
26.53775	71028
26.54588	75350
26.55400	71659
26.56212	74048
26.57025	72452
26.57837	74951
26.58650	72152
26.59462	68451
26.60273	68513
26.61087	72294
26.61898	68981
26.62710	76377
26.63523	69031
26.64335	70874
26.65148	70730
26.65960	69822
26.66772	77703
26.67585	81534
26.68397	80370
26.69210	78096
26.70022	73286
26.70833	68379
26.71647	69226
26.72458	64550
26.73272	64431
26.74083	67882
26.74895	66028
26.75708	64693
26.76520	62426
26.77332	65149
26.78145	69108
26.78957	67296
26.79770	67338
26.80582	70746
26.81393	68493
26.82207	71394
26.83018	69894
26.83832	63614
26.84643	60222
26.85455	69534
26.86268	64905
26.87080	66329
26.87893	63104
26.88705	61629
26.89517	56486
26.90330	59974
26.91142	57251
26.91953	56234
26.92767	56212
26.93578	58262
26.94392	61105
26.95203	63613
26.96015	63913
26.96828	69403
26.97640	84547
26.98453	114318
26.99265	150723
27.00077	223232
27.00890	298994
27.01702	384627
27.02515	452515
27.03327	492497
27.04138	481288
27.04952	440125
27.05763	389454
27.06575	333668
27.07388	283113
27.08200	242549
27.09013	208665
27.09825	186685
27.10637	168340
27.11450	156645
27.12262	149648
27.13075	136276
27.13887	130409
27.14698	129102
27.15512	121443
27.16323	110944
27.17135	111113
27.17948	109544
27.18760	102786
27.19573	103557
27.20385	104587
27.21197	95156
27.22010	94261
27.22822	92615
27.23635	86288
27.24447	98279
27.25258	83784
27.26072	87920
27.26883	83197
27.27697	81749
27.28508	72133
27.29320	75622
27.30133	70703
27.30945	68961
27.31757	71317
27.32570	67364
27.33382	69799
27.34195	69825
27.35007	67836
27.35818	68776
27.36632	68035
27.37443	68459
27.38257	66770
27.39068	68410
27.39880	65176
27.40693	61954
27.41505	59650
27.42317	60288
27.43130	60568
27.43942	57901
27.44755	58195
27.45567	58420
27.46378	55721
27.47192	60609
27.48003	58510
27.48817	60078
27.49628	55832
27.50440	59862
27.51253	62903
27.52065	59161
27.52878	62429
27.53690	69253
27.54502	58027
27.55315	59578
27.56127	59622
27.56938	63331
27.57752	64307
27.58563	70588
27.59377	73249
27.60188	76392
27.61000	74795
27.61813	75449
27.62625	69147
27.63438	63840
27.64250	60930
27.65062	58084
27.65875	53426
27.66687	56324
27.67500	59207
27.68312	55914
27.69123	57558
27.69937	57662
27.70748	57052
27.71560	56191
27.72373	55244
27.73185	48634
27.73998	49428
27.74810	49789
27.75622	53676
27.76435	49902
27.77247	53591
27.78060	54666
27.78872	54871
27.79683	55042
27.80497	50113
27.81308	51720
27.82120	53082
27.82933	51903
27.83745	53386
27.84558	47402
27.85370	49820
27.86182	49262
27.86995	52901
27.87807	50240
27.88620	47910
27.89432	52495
27.90243	46790
27.91057	49127
27.91868	46054
27.92682	46573
27.93493	47028
27.94305	45359
27.95118	42975
27.95930	48642
27.96742	45212
27.97555	43078
27.98367	48023
27.99180	47139
27.99992	48827
28.00803	49544
28.01617	53796
28.02428	54742
28.03242	58686
28.04053	60943
28.04865	64945
28.05678	64033
28.06490	62581
28.07303	64933
28.08115	59418
28.08927	53709
28.09740	53006
28.10552	51536
28.11363	55412
28.12177	50180
28.12988	50977
28.13802	49146
28.14613	45976
28.15425	45372
28.16238	50813
28.17050	44694
28.17863	51080
28.18675	57579
28.19487	61441
28.20300	67217
28.21112	75663
28.21923	83181
28.22737	82633
28.23548	74126
28.24362	74205
28.25173	62705
28.25985	57123
28.26798	52527
28.27610	54383
28.28423	52138
28.29235	48411
28.30047	51930
28.30860	59140
28.31672	62506
28.32485	70301
28.33297	79093
28.34108	91093
28.34922	102274
28.35733	116883
28.36545	120015
28.37358	135099
28.38170	139148
28.38983	134956
28.39795	145830
28.40607	141350
28.41420	140461
28.42232	139333
28.43045	138013
28.43857	131452
28.44668	121528
28.45482	111940
28.46293	107469
28.47105	102543
28.47918	94937
28.48730	90768
28.49543	86791
28.50355	83179
28.51167	82202
28.51980	77731
28.52792	72464
28.53605	71803
28.54417	72291
28.55228	70458
28.56042	67544
28.56853	64403
28.57667	62333
28.58478	64027
28.59290	63976
28.60103	62252
28.60915	64865
28.61727	63518
28.62540	60545
28.63352	63353
28.64165	59534
28.64977	62904
28.65788	64815
28.66602	64188
28.67413	64353
28.68227	62412
28.69038	57194
28.69850	56472
28.70663	57121
28.71475	56981
28.72288	60417
28.73100	59409
28.73912	57321
28.74725	65900
28.75537	68411
28.76348	72822
28.77162	74167
28.77973	75380
28.78787	69727
28.79598	67211
28.80410	62677
28.81223	65241
28.82035	61705
28.82848	60658
28.83660	60687
28.84472	56965
28.85285	58474
28.86097	58752
28.86908	57688
28.87722	58713
28.88533	63985
28.89347	67861
28.90158	68562
28.90970	69839
28.91783	71526
28.92595	63402
28.93408	58427
28.94220	56545
28.95032	53854
28.95845	57639
28.96657	58767
28.97470	51296
28.98282	50815
28.99093	50354
28.99907	53128
29.00718	52171
29.01530	45044
29.02343	49922
29.03155	44993
29.03968	49406
29.04780	46293
29.05592	49676
29.06405	49313
29.07217	52101
29.08030	52784
29.08842	50529
29.09653	48526
29.10467	52607
29.11278	48596
29.12092	48937
29.12903	46811
29.13715	49580
29.14528	46045
29.15340	46302
29.16152	47264
29.16965	48784
29.17777	53001
29.18590	56927
29.19402	64933
29.20213	75381
29.21027	89856
29.21838	96540
29.22652	99549
29.23463	88207
29.24275	87247
29.25088	82386
29.25900	91954
29.26712	93898
29.27525	87922
29.28337	81439
29.29150	68136
29.29962	63873
29.30773	60542
29.31587	49407
29.32398	51473
29.33212	48017
29.34023	46079
29.34835	45597
29.35648	45633
29.36460	43372
29.37273	41966
29.38085	45993
29.38897	44583
29.39710	43078
29.40522	46121
29.41333	43168
29.42147	45356
29.42958	48916
29.43772	46663
29.44583	45833
29.45395	44432
29.46208	46654
29.47020	45262
29.47833	44098
29.48645	42765
29.49457	44452
29.50270	46160
29.51082	47727
29.51895	49239
29.52707	50895
29.53518	46024
29.54332	43754
29.55143	40303
29.55955	43530
29.56768	44344
29.57580	42104
29.58393	43308
29.59205	40327
29.60017	40158
29.60830	43225
29.61642	42505
29.62455	39927
29.63267	40697
29.64078	39375
29.64892	38644
29.65703	40768
29.66515	40440
29.67328	39798
29.68140	44744
29.68953	46835
29.69765	51277
29.70577	47958
29.71390	48228
29.72202	48918
29.73015	49075
29.73827	45521
29.74638	48504
29.75452	46194
29.76263	42815
29.77077	40285
29.77888	42137
29.78700	35555
29.79513	41113
29.80325	37350
29.81137	40212
29.81950	36916
29.82762	37648
29.83575	40863
29.84387	36986
29.85198	39751
29.86012	42849
29.86823	43127
29.87637	54337
29.88448	60783
29.89260	66318
29.90073	73405
29.90885	78106
29.91697	70715
29.92510	64714
29.93322	55536
29.94135	47774
29.94947	51506
29.95758	52205
29.96572	55395
29.97383	54913
29.98197	59703
29.99008	66678
29.99820	72707
30.00633	75872
30.01445	78304
30.02258	78099
30.03070	85373
30.03882	86283
30.04695	87774
30.05507	87275
30.06318	86646
30.07132	88124
30.07943	87179
30.08757	87825
30.09568	86803
30.10380	82058
30.11193	85711
30.12005	83621
30.12818	83053
30.13630	79449
30.14442	78672
30.15255	75068
30.16067	71413
30.16880	68886
30.17692	65816
30.18503	62460
30.19317	66476
30.20128	64587
30.20940	61599
30.21753	61846
30.22565	57810
30.23378	55868
30.24190	55463
30.25002	57404
30.25815	53070
30.26627	54993
30.27440	52486
30.28252	50506
30.29063	55674
30.29877	52633
30.30688	52091
30.31500	52466
30.32313	52008
30.33125	53236
30.33938	49429
30.34750	51430
30.35562	48047
30.36375	50002
30.37187	47909
30.38000	47511
30.38812	48446
30.39623	47522
30.40437	45433
30.41248	45770
30.42062	43537
30.42873	42588
30.43685	43333
30.44498	44116
30.45310	43345
30.46122	44902
30.46935	45837
30.47747	42791
30.48560	50127
30.49372	42818
30.50183	45663
30.50997	42768
30.51808	43034
30.52622	45593
30.53433	48054
30.54245	43192
30.55058	45477
30.55870	42875
30.56683	42428
30.57495	42718
30.58307	43098
30.59120	39067
30.59932	43819
30.60743	41732
30.61557	39097
30.62368	42882
30.63182	42183
30.63993	41752
30.64805	39482
30.65618	41192
30.66430	39441
30.67243	42998
30.68055	41654
30.68867	37947
30.69680	39922
30.70492	41062
30.71303	41667
30.72117	39850
30.72928	35863
30.73742	42525
30.74553	38949
30.75365	40851
30.76178	46691
30.76990	56365
30.77803	63814
30.78615	81038
30.79427	92078
30.80240	108966
30.81052	127494
30.81865	118915
30.82677	112627
30.83488	100306
30.84302	94559
30.85113	85509
30.85925	84374
30.86738	79287
30.87550	83026
30.88363	82586
30.89175	81673
30.89987	82979
30.90800	78514
30.91612	82757
30.92425	84798
30.93237	84486
30.94048	81931
30.94862	80853
30.95673	87056
30.96485	84010
30.97298	81980
30.98110	80002
30.98923	79219
30.99735	78455
31.00547	78575
31.01360	80814
31.02172	87583
31.02985	84138
31.03797	86318
31.04608	84206
31.05422	84565
31.06233	80648
31.07047	83164
31.07858	87557
31.08670	99221
31.09483	102293
31.10295	103905
31.11107	103384
31.11920	101000
31.12732	98410
31.13545	87865
31.14357	90629
31.15168	85790
31.15982	89191
31.16793	86395
31.17607	88706
31.18418	100999
31.19230	117990
31.20043	147767
31.20855	177998
31.21668	208837
31.22480	233059
31.23292	241691
31.24105	225653
31.24917	188701
31.25728	152802
31.26542	115381
31.27353	96493
31.28167	87921
31.28978	80095
31.29790	78276
31.30603	82618
31.31415	71046
31.32228	77861
31.33040	76593
31.33852	77427
31.34665	74557
31.35477	72127
31.36288	73721
31.37102	75121
31.37913	74154
31.38727	75708
31.39538	79251
31.40350	74487
31.41163	68718
31.41975	72361
31.42788	65023
31.43600	66300
31.44412	58685
31.45225	67935
31.46037	61887
31.46850	67719
31.47662	66595
31.48473	67119
31.49287	61404
31.50098	64106
31.50910	64682
31.51723	66682
31.52535	60796
31.53348	61672
31.54160	62586
31.54972	61511
31.55785	64770
31.56597	59302
31.57410	61724
31.58222	58231
31.59033	59050
31.59847	56791
31.60658	59858
31.61472	54297
31.62283	58764
31.63095	57942
31.63908	58554
31.64720	57297
31.65532	58197
31.66345	58815
31.67157	62964
31.67970	62732
31.68782	62469
31.69593	59891
31.70407	60784
31.71218	57853
31.72032	52406
31.72843	56345
31.73655	55108
31.74468	54454
31.75280	55999
31.76092	52100
31.76905	51515
31.77717	53933
31.78530	56743
31.79342	53624
31.80153	54217
31.80967	50964
31.81778	56354
31.82592	52386
31.83403	53832
31.84215	52676
31.85028	51863
31.85840	58497
31.86653	55843
31.87465	56675
31.88277	65351
31.89090	65632
31.89902	63214
31.90713	72506
31.91527	73702
31.92338	77451
31.93152	81023
31.93963	82455
31.94775	86253
31.95588	85935
31.96400	88108
31.97213	92902
31.98025	92851
31.98837	93693
31.99650	94182
32.00462	94119
32.01273	88238
32.02087	89869
32.02898	82438
32.03712	85706
32.04523	79914
32.05335	80537
32.06148	77757
32.06960	79194
32.07773	76632
32.08585	74964
32.09397	65564
32.10210	64293
32.11022	62510
32.11835	65388
32.12647	63123
32.13458	60703
32.14272	60410
32.15083	60268
32.15895	57476
32.16708	59354
32.17520	53892
32.18333	57357
32.19145	55345
32.19957	58989
32.20770	55432
32.21582	53173
32.22395	53756
32.23207	60851
32.24018	52186
32.24832	56526
32.25643	54058
32.26457	56160
32.27268	58143
32.28080	56985
32.28893	55627
32.29705	54977
32.30517	50231
32.31330	51230
32.32142	50365
32.32955	50390
32.33767	48256
32.34578	49613
32.35392	56635
32.36203	49894
32.37017	47440
32.37828	49818
32.38640	47804
32.39453	45124
32.40265	46486
32.41078	48144
32.41890	44231
32.42702	43597
32.43515	43027
32.44327	47791
32.45138	50076
32.45952	50345
32.46763	47179
32.47577	42244
32.48388	47735
32.49200	43239
32.50013	44752
32.50825	43829
32.51638	46349
32.52450	43996
32.53262	46100
32.54075	46225
32.54887	47781
32.55698	46985
32.56512	45773
32.57323	44889
32.58137	42824
32.58948	44175
32.59760	46116
32.60573	48289
32.61385	46063
32.62198	46851
32.63010	48481
32.63822	51478
32.64635	55729
32.65447	55763
32.66260	61071
32.67072	54943
32.67883	53717
32.68697	52589
32.69508	52014
32.70320	50832
32.71133	50260
32.71945	47366
32.72758	46140
32.73570	45577
32.74382	46885
32.75195	45290
32.76007	45513
32.76820	45802
32.77632	40386
32.78443	42580
32.79257	42606
32.80068	41646
32.80880	38944
32.81693	43494
32.82505	41146
32.83318	46114
32.84130	47089
32.84942	41352
32.85755	42059
32.86567	43926
32.87380	42692
32.88192	42227
32.89003	48300
32.89817	46938
32.90628	41941
32.91442	46450
32.92253	47266
32.93065	45689
32.93878	45296
32.94690	42690
32.95502	48527
32.96315	45172
32.97127	48152
32.97940	52334
32.98752	55098
32.99563	60189
33.00377	66288
33.01188	68589
33.02002	57216
33.02813	51830
33.03625	51053
33.04438	54750
33.05250	52102
33.06063	50917
33.06875	48932
33.07687	52612
33.08500	55838
33.09312	55570
33.10123	56276
33.10937	64764
33.11748	61903
33.12562	62004
33.13373	63517
33.14185	57500
33.14998	50085
33.15810	48629
33.16623	50339
33.17435	49512
33.18247	43003
33.19060	44984
33.19872	45747
33.20683	45503
33.21497	42997
33.22308	46905
33.23122	46955
33.23933	45819
33.24745	42894
33.25558	41472
33.26370	41853
33.27183	42360
33.27995	42541
33.28807	47456
33.29620	45193
33.30432	39794
33.31245	43923
33.32057	45101
33.32868	42116
33.33682	44360
33.34493	45521
33.35305	44210
33.36118	46977
33.36930	53053
33.37743	50223
33.38555	46435
33.39367	49342
33.40180	42393
33.40992	45252
33.41805	43037
33.42617	41890
33.43428	40150
33.44242	40622
33.45053	41263
33.45867	42443
33.46678	42278
33.47490	41433
33.48303	43565
33.49115	40929
33.49927	42697
33.50740	37147
33.51552	40556
33.52365	46517
33.53177	43039
33.53988	47146
33.54802	47732
33.55613	49806
33.56427	48428
33.57238	48779
33.58050	47690
33.58863	42411
33.59675	41659
33.60487	43284
33.61300	41589
33.62112	40983
33.62925	41851
33.63737	45141
33.64548	43687
33.65362	46547
33.66173	48645
33.66987	49555
33.67798	43229
33.68610	46095
33.69423	45235
33.70235	42206
33.71048	46245
33.71860	42347
33.72672	42097
33.73485	41413
33.74297	42209
33.75108	39936
33.75922	42126
33.76733	40925
33.77547	43644
33.78358	41958
33.79170	42674
33.79983	42718
33.80795	45254
33.81608	38497
33.82420	41087
33.83232	42468
33.84045	45056
33.84857	45841
33.85668	46091
33.86482	42778
33.87293	46216
33.88107	42257
33.88918	44134
33.89730	45012
33.90543	45017
33.91355	42890
33.92168	42286
33.92980	44882
33.93792	45927
33.94605	42259
33.95417	42146
33.96230	42110
33.97042	39162
33.97853	44017
33.98667	42765
33.99478	48296
34.00290	43784
34.01103	42817
34.01915	40802
34.02728	43709
34.03540	43994
34.04352	44101
34.05165	37993
34.05977	43816
34.06790	43287
34.07602	43791
34.08413	43584
34.09227	42089
34.10038	42574
34.10852	42527
34.11663	40994
34.12475	45136
34.13288	43856
34.14100	43675
34.14912	44477
34.15725	40368
34.16537	43829
34.17350	42998
34.18162	43536
34.18973	41166
34.19787	44157
34.20598	42478
34.21412	44222
34.22223	50086
34.23035	40453
34.23848	39905
34.24660	45904
34.25472	46370
34.26285	43784
34.27097	43040
34.27910	43145
34.28722	43652
34.29533	44125
34.30347	44913
34.31158	43945
34.31972	43902
34.32783	47947
34.33595	42183
34.34408	43070
34.35220	38392
34.36033	44055
34.36845	43311
34.37657	45230
34.38470	45904
34.39282	43159
34.40093	45150
34.40907	40614
34.41718	41058
34.42532	44113
34.43343	43134
34.44155	40551
34.44968	45247
34.45780	42871
34.46593	41225
34.47405	41427
34.48217	45889
34.49030	45080
34.49842	51869
34.50655	52462
34.51467	60832
34.52278	62406
34.53092	69459
34.53903	78787
34.54715	83097
34.55528	79607
34.56340	80153
34.57153	74719
34.57965	76967
34.58777	71683
34.59590	71532
34.60402	63971
34.61215	62130
34.62027	60819
34.62838	57056
34.63652	53929
34.64463	56785
34.65275	52711
34.66088	51564
34.66900	51876
34.67713	52275
34.68525	53394
34.69337	50001
34.70150	52612
34.70962	50790
34.71775	50912
34.72587	47071
34.73398	47096
34.74212	49870
34.75023	54412
34.75837	51043
34.76648	47935
34.77460	51704
34.78273	47293
34.79085	45967
34.79897	48605
34.80710	50638
34.81522	51834
34.82335	49713
34.83147	45306
34.83958	49624
34.84772	54059
34.85583	51047
34.86397	47980
34.87208	47183
34.88020	45059
34.88833	47600
34.89645	51431
34.90458	46644
34.91270	52096
34.92082	50317
34.92895	51247
34.93707	50475
34.94518	55116
34.95332	54863
34.96143	52807
34.96957	56306
34.97768	54623
34.98580	57437
34.99393	55008
35.00205	50111
35.01018	49602
35.01830	47635
35.02642	47397
35.03455	47872
35.04267	46079
35.05078	47154
35.05892	46325
35.06703	45838
35.07517	45611
35.08328	42469
35.09140	43652
35.09953	43609
35.10765	41343
35.11578	43610
35.12390	40432
35.13202	44472
35.14015	46921
35.14827	48263
35.15640	49677
35.16452	49805
35.17263	47297
35.18077	44456
35.18888	45882
35.19700	44205
35.20513	47973
35.21325	44974
35.22138	43078
35.22950	44045
35.23762	50753
35.24575	49968
35.25387	48271
35.26200	43270
35.27012	44584
35.27823	45072
35.28637	48707
35.29448	46523
35.30260	42161
35.31073	44685
35.31885	48791
35.32698	41587
35.33510	45416
35.34322	43928
35.35135	46026
35.35947	45323
35.36760	42984
35.37572	44056
35.38383	43691
35.39197	43022
35.40008	45379
35.40822	48085
35.41633	45456
35.42445	45012
35.43258	45307
35.44070	46469
35.44882	49286
35.45695	48825
35.46507	50886
35.47320	46535
35.48132	50569
35.48943	49424
35.49757	48371
35.50568	47712
35.51382	45868
35.52193	46095
35.53005	49725
35.53818	48910
35.54630	46532
35.55443	45145
35.56255	45977
35.57067	43630
35.57880	43848
35.58692	42308
35.59503	48790
35.60317	47365
35.61128	44962
35.61942	44709
35.62753	48513
35.63565	44903
35.64378	46587
35.65190	46989
35.66003	50818
35.66815	49056
35.67627	48129
35.68440	47502
35.69252	51622
35.70063	47940
35.70877	45603
35.71688	46471
35.72502	47263
35.73313	47284
35.74125	49743
35.74938	48828
35.75750	49382
35.76563	50826
35.77375	48103
35.78187	47039
35.79000	50718
35.79812	45981
35.80625	46174
35.81437	46281
35.82248	45039
35.83062	47404
35.83873	44806
35.84685	45349
35.85498	45993
35.86310	45858
35.87123	48172
35.87935	43027
35.88747	46498
35.89560	45923
35.90372	40455
35.91185	43503
35.91997	46943
35.92808	44774
35.93622	44574
35.94433	46855
35.95247	48059
35.96058	46524
35.96870	41881
35.97683	43603
35.98495	46060
35.99307	43238
36.00120	46839
36.00932	49915
36.01745	48168
36.02557	51855
36.03368	51362
36.04182	47331
36.04993	47798
36.05807	51008
36.06618	51864
36.07430	48614
36.08243	50273
36.09055	50080
36.09867	50028
36.10680	44998
36.11492	44510
36.12305	48378
36.13117	45922
36.13928	46475
36.14742	49759
36.15553	48205
36.16367	48197
36.17178	46398
36.17990	48178
36.18803	48376
36.19615	46137
36.20428	47664
36.21240	44704
36.22052	44480
36.22865	46088
36.23677	49537
36.24488	44787
36.25302	42218
36.26113	47327
36.26927	53759
36.27738	54313
36.28550	55973
36.29363	54856
36.30175	60551
36.30988	57963
36.31800	56400
36.32612	60280
36.33425	65978
36.34237	64205
36.35048	65081
36.35862	67691
36.36673	61992
36.37487	69362
36.38298	61776
36.39110	68006
36.39923	64846
36.40735	68949
36.41548	64255
36.42360	68265
36.43172	68024
36.43985	68513
36.44797	67424
36.45610	71007
36.46422	72944
36.47233	64994
36.48047	68258
36.48858	64422
36.49670	70538
36.50483	68990
36.51295	67542
36.52108	66894
36.52920	69772
36.53732	67401
36.54545	67484
36.55357	67709
36.56170	66225
36.56982	70154
36.57793	65807
36.58607	64942
36.59418	68386
36.60232	68654
36.61043	64850
36.61855	67775
36.62668	67881
36.63480	74387
36.64292	69201
36.65105	70551
36.65917	70319
36.66730	73457
36.67542	68474
36.68353	63866
36.69167	68600
36.69978	66978
36.70792	66249
36.71603	63104
36.72415	66673
36.73228	68750
36.74040	64114
36.74852	65364
36.75665	64879
36.76477	62634
36.77290	60839
36.78102	63215
36.78913	61919
36.79727	63416
36.80538	65257
36.81352	66194
36.82163	58701
36.82975	61798
36.83788	59171
36.84600	59612
36.85413	61325
36.86225	56540
36.87037	62837
36.87850	63110
36.88662	59671
36.89473	61803
36.90287	60653
36.91098	58283
36.91912	57265
36.92723	62616
36.93535	69413
36.94348	71532
36.95160	74051
36.95973	79979
36.96785	74245
36.97597	73830
36.98410	74605
36.99222	67085
37.00035	66299
37.00847	66079
37.01658	62530
37.02472	58762
37.03283	57800
37.04095	61720
37.04908	64710
37.05720	60346
37.06533	63381
37.07345	56678
37.08157	64389
37.08970	58744
37.09782	62963
37.10595	60906
37.11407	61100
37.12218	59200
37.13032	64440
37.13843	56468
37.14655	59768
37.15468	61757
37.16280	60017
37.17093	60824
37.17905	56823
37.18717	61935
37.19530	57015
37.20342	60824
37.21155	57627
37.21967	62587
37.22778	60671
37.23592	57252
37.24403	61512
37.25217	55487
37.26028	57018
37.26840	57677
37.27653	59676
37.28465	57945
37.29277	63680
37.30090	59957
37.30902	64604
37.31715	73748
37.32527	77419
37.33338	81718
37.34152	84550
37.34963	84254
37.35777	88464
37.36588	85524
37.37400	86659
37.38213	75890
37.39025	77244
37.39837	73628
37.40650	73164
37.41462	72877
37.42275	72215
37.43087	66486
37.43898	70324
37.44712	65824
37.45523	66887
37.46337	62812
37.47148	61139
37.47960	62145
37.48773	70113
