C:\MassHunter\GCMS\1\data\JTB-E18\JTB-E18-025-07.D Thu Sep 12 12:22:20 2019
Start of data points
2.09528	123317
2.10342	118854
2.11153	119553
2.11965	120578
2.12778	116892
2.13590	112493
2.14403	118185
2.15215	108499
2.16027	104582
2.16840	107834
2.17652	97641
2.18463	105356
2.19277	101127
2.20088	97021
2.20902	95280
2.21713	93052
2.22525	91576
2.23338	92056
2.24150	88658
2.24963	92279
2.25775	92110
2.26587	129413
2.27400	754296
2.28212	2071699
2.29025	1391431
2.29837	600590
2.30648	379075
2.31462	313355
2.32273	281478
2.33085	244295
2.33898	225975
2.34710	212273
2.35523	192831
2.36335	180951
2.37147	175031
2.37960	210001
2.38772	339536
2.39585	255617
2.40397	185977
2.41208	173615
2.42022	174940
2.42833	190121
2.43647	164506
2.44458	167818
2.45270	178408
2.46083	157145
2.46895	137747
2.47707	134231
2.48520	138445
2.49332	163496
2.50145	177781
2.50957	153361
2.51768	141141
2.52582	139766
2.53393	132542
2.54207	135585
2.55018	142299
2.55830	142768
2.56643	129556
2.57455	123293
2.58268	130821
2.59080	132885
2.59892	131195
2.60705	124588
2.61517	142711
2.62328	160703
2.63142	149331
2.63953	134456
2.64767	124271
2.65578	127316
2.66390	122848
2.67203	139522
2.68015	173040
2.68828	170951
2.69640	139512
2.70452	126022
2.71265	121148
2.72077	120460
2.72888	115454
2.73702	116744
2.74513	116500
2.75327	117750
2.76138	114054
2.76950	114251
2.77763	116909
2.78575	110368
2.79388	112290
2.80200	118001
2.81012	116406
2.81825	141103
2.82637	303077
2.83450	682415
2.84262	656795
2.85073	375969
2.85887	243207
2.86698	243214
2.87510	206621
2.88323	166426
2.89135	143601
2.89948	132724
2.90760	133749
2.91572	122003
2.92385	119212
2.93197	115174
2.94010	115639
2.94822	108241
2.95633	107724
2.96447	110190
2.97258	106374
2.98070	111426
2.98883	116455
2.99695	119401
3.00508	141331
3.01320	159455
3.02132	185343
3.02945	352523
3.03757	646811
3.04570	966688
3.05382	2685239
3.06193	6516350
3.07007	7367445
3.07818	4372440
3.08632	2104680
3.09443	1235679
3.10255	837808
3.11068	615455
3.11880	504606
3.12692	401830
3.13505	322594
3.14317	280546
3.15130	239885
3.15942	225739
3.16753	210553
3.17567	209079
3.18378	190294
3.19192	174712
3.20003	161305
3.20815	151433
3.21628	152690
3.22440	167171
3.23253	172683
3.24065	166633
3.24877	150578
3.25690	138742
3.26502	132268
3.27313	141664
3.28127	250399
3.28938	937156
3.29752	2985641
3.30563	5923676
3.31375	7102176
3.32188	5706487
3.33000	3764174
3.33813	2449751
3.34625	1746818
3.35437	1335016
3.36250	1110030
3.37062	1009785
3.37873	1152300
3.38687	1184546
3.39498	1010990
3.40312	1184270
3.41123	2321197
3.41935	3629280
3.42748	3271714
3.43560	1966298
3.44373	1118106
3.45185	800709
3.45997	643142
3.46810	562448
3.47622	509042
3.48435	443736
3.49247	405004
3.50058	370975
3.50872	342433
3.51683	325131
3.52495	311180
3.53308	304026
3.54120	281357
3.54933	278713
3.55745	272733
3.56557	259978
3.57370	256200
3.58182	252087
3.58995	248723
3.59807	233149
3.60618	235418
3.61432	316285
3.62243	632304
3.63057	1407897
3.63868	2050817
3.64680	1894121
3.65493	1162843
3.66305	694276
3.67117	476788
3.67930	399176
3.68742	328625
3.69555	307019
3.70367	282134
3.71178	260022
3.71992	245515
3.72803	240773
3.73617	246767
3.74428	240283
3.75240	243731
3.76053	250575
3.76865	234869
3.77677	221525
3.78490	203942
3.79302	215556
3.80115	204282
3.80927	215293
3.81738	202812
3.82552	214187
3.83363	214039
3.84177	221619
3.84988	211071
3.85800	194197
3.86613	185158
3.87425	180748
3.88238	184025
3.89050	183579
3.89862	193000
3.90675	179382
3.91487	176533
3.92298	175633
3.93112	176881
3.93923	170873
3.94737	170617
3.95548	169202
3.96360	167336
3.97173	162379
3.97985	158926
3.98798	168189
3.99610	158647
4.00422	165490
4.01235	163357
4.02047	169265
4.02858	162990
4.03672	163893
4.04483	163792
4.05297	168816
4.06108	168571
4.06920	170958
4.07733	168282
4.08545	172187
4.09358	169349
4.10170	168421
4.10982	162358
4.11795	160117
4.12607	160030
4.13420	165747
4.14232	176696
4.15043	179146
4.15857	185267
4.16668	174045
4.17480	162478
4.18293	164205
4.19105	160455
4.19918	150424
4.20730	150205
4.21542	154802
4.22355	165198
4.23167	180225
4.23980	184663
4.24792	177989
4.25603	168838
4.26417	158763
4.27228	151432
4.28042	153270
4.28853	153453
4.29665	151056
4.30478	146079
4.31290	149100
4.32102	154003
4.32915	157860
4.33727	156007
4.34540	158468
4.35352	152114
4.36163	145779
4.36977	152593
4.37788	142172
4.38602	156936
4.39413	144063
4.40225	147884
4.41038	145027
4.41850	148137
4.42662	145750
4.43475	148454
4.44287	144534
4.45100	159887
4.45912	169399
4.46723	173199
4.47537	171170
4.48348	159111
4.49162	152448
4.49973	147203
4.50785	144451
4.51598	144199
4.52410	141891
4.53223	149886
4.54035	145278
4.54847	143768
4.55660	142891
4.56472	142915
4.57283	140765
4.58097	138717
4.58908	139260
4.59722	139899
4.60533	132541
4.61345	135297
4.62158	139968
4.62970	136662
4.63783	133608
4.64595	138946
4.65407	136280
4.66220	134308
4.67032	136918
4.67845	134242
4.68657	137777
4.69468	138188
4.70282	139112
4.71093	133309
4.71905	129899
4.72718	136433
4.73530	133078
4.74343	133527
4.75155	133344
4.75967	132773
4.76780	129223
4.77592	128824
4.78405	136369
4.79217	134269
4.80028	133147
4.80842	134169
4.81653	141886
4.82465	140017
4.83278	139506
4.84090	136006
4.84903	145102
4.85715	135996
4.86527	145824
4.87340	150733
4.88152	144437
4.88965	144723
4.89777	138532
4.90588	139418
4.91402	159015
4.92213	247429
4.93027	556227
4.93838	1302325
4.94650	2326647
4.95463	3104806
4.96275	3061837
4.97087	2446457
4.97900	1738826
4.98712	1181882
4.99525	882715
5.00337	678685
5.01148	539511
5.01962	456853
5.02773	407177
5.03587	361801
5.04398	334370
5.05210	311183
5.06023	288699
5.06835	272492
5.07648	272920
5.08460	262271
5.09272	248463
5.10085	279916
5.10897	324832
5.11708	365053
5.12522	376024
5.13333	344657
5.14147	298875
5.14958	254547
5.15770	241725
5.16583	257865
5.17395	286932
5.18208	337505
5.19020	356584
5.19832	355227
5.20645	316354
5.21457	266863
5.22268	237271
5.23082	223160
5.23893	226611
5.24707	224131
5.25518	221257
5.26330	205069
5.27143	200012
5.27955	204655
5.28768	202820
5.29580	208493
5.30392	196341
5.31205	192298
5.32017	180334
5.32830	193602
5.33642	188860
5.34453	191379
5.35267	195944
5.36078	189912
5.36890	175832
5.37703	174145
5.38515	174530
5.39328	171855
5.40140	164445
5.40952	171579
5.41765	169447
5.42577	159113
5.43390	163750
5.44202	171887
5.45013	169262
5.45827	169401
5.46638	173242
5.47450	163226
5.48263	163759
5.49075	160528
5.49888	160766
5.50700	168513
5.51512	166496
5.52325	164353
5.53137	163149
5.53950	164335
5.54762	158364
5.55573	157864
5.56387	156567
5.57198	160899
5.58012	165244
5.58823	165440
5.59635	168641
5.60448	168379
5.61260	167998
5.62072	177636
5.62885	188717
5.63697	208095
5.64510	198739
5.65322	197082
5.66133	184608
5.66947	168634
5.67758	185503
5.68572	186666
5.69383	195324
5.70195	195398
5.71008	195414
5.71820	203745
5.72633	225534
5.73445	229855
5.74257	228781
5.75070	218866
5.75882	215894
5.76693	229651
5.77507	241036
5.78318	228336
5.79132	221665
5.79943	232285
5.80755	319100
5.81568	506581
5.82380	855260
5.83193	1158985
5.84005	1251169
5.84817	1075788
5.85630	795675
5.86442	533588
5.87253	370586
5.88067	288598
5.88878	250544
5.89692	224803
5.90503	239364
5.91315	290249
5.92128	401768
5.92940	530908
5.93753	579119
5.94565	550187
5.95377	422940
5.96190	305934
5.97002	246450
5.97815	209240
5.98627	194917
5.99438	169769
6.00252	164722
6.01063	141918
6.01875	144248
6.02688	132809
6.03500	135052
6.04313	121645
6.05125	117536
6.05937	119126
6.06750	113933
6.07562	114548
6.08375	110124
6.09187	114456
6.09998	111995
6.10812	109520
6.11623	110678
6.12437	105076
6.13248	110405
6.14060	117314
6.14873	109365
6.15685	118904
6.16497	114670
6.17310	128032
6.18122	138256
6.18935	148028
6.19747	158790
6.20558	182703
6.21372	180028
6.22183	169328
6.22997	150034
6.23808	143871
6.24620	145032
6.25433	146193
6.26245	139857
6.27057	148173
6.27870	144023
6.28682	150161
6.29495	150496
6.30307	152552
6.31118	154443
6.31932	162243
6.32743	163799
6.33557	163913
6.34368	171350
6.35180	170427
6.35993	175595
6.36805	186365
6.37618	181644
6.38430	176407
6.39242	182459
6.40055	177359
6.40867	179119
6.41678	185937
6.42492	187984
6.43303	190591
6.44117	199480
6.44928	198364
6.45740	199524
6.46553	203302
6.47365	204351
6.48178	212068
6.48990	209072
6.49802	202978
6.50615	209668
6.51427	167768
6.52238	150741
6.53052	141440
6.53863	135499
6.54677	139901
6.55488	132827
6.56300	138364
6.57113	129948
6.57925	122752
6.58738	123485
6.59550	120518
6.60362	120366
6.61175	118417
6.61987	117175
6.62800	123258
6.63612	115822
6.64423	115472
6.65237	112734
6.66048	113273
6.66860	106058
6.67673	105139
6.68485	108014
6.69298	115879
6.70110	105638
6.70922	109931
6.71735	113455
6.72547	129902
6.73360	157213
6.74172	191436
6.74983	210244
6.75797	211655
6.76608	203483
6.77422	169196
6.78233	153350
6.79045	125947
6.79858	117854
6.80670	109630
6.81482	105208
6.82295	105418
6.83107	96714
6.83920	103428
6.84732	110534
6.85543	132700
6.86357	191958
6.87168	321330
6.87982	514751
6.88793	699273
6.89605	812369
6.90418	779250
6.91230	622885
6.92043	443586
6.92855	298900
6.93667	192834
6.94480	140212
6.95292	113969
6.96103	96823
6.96917	90661
6.97728	82869
6.98542	79060
6.99353	77595
7.00165	77688
7.00978	82805
7.01790	100011
7.02603	130396
7.03415	198621
7.04227	269984
7.05040	332247
7.05852	356754
7.06663	328786
7.07477	276096
7.08288	222658
7.09102	171912
7.09913	147102
7.10725	117744
7.11538	109105
7.12350	105457
7.13163	100799
7.13975	100329
7.14787	95650
7.15600	94687
7.16412	89478
7.17225	88161
7.18037	91767
7.18848	77648
7.19662	83293
7.20473	84185
7.21285	93934
7.22098	96776
7.22910	100659
7.23723	99552
7.24535	101917
7.25347	103776
7.26160	101450
7.26972	109918
7.27785	120968
7.28597	137237
7.29408	149658
7.30222	152370
7.31033	139021
7.31845	127398
7.32658	114411
7.33470	106199
7.34283	117077
7.35095	117927
7.35907	124971
7.36720	107220
7.37532	104018
7.38345	104601
7.39157	130118
7.39968	161710
7.40782	217707
7.41593	271020
7.42407	275188
7.43218	255362
7.44030	211723
7.44843	165050
7.45655	133655
7.46467	115335
7.47280	104307
7.48092	98271
7.48905	97697
7.49717	108264
7.50528	135693
7.51342	159360
7.52153	190122
7.52967	200549
7.53778	188523
7.54590	159540
7.55403	134594
7.56215	111730
7.57028	99690
7.57840	84838
7.58652	84445
7.59465	79333
7.60277	76242
7.61088	76565
7.61902	79426
7.62713	76652
7.63527	82425
7.64338	81594
7.65150	77889
7.65963	77537
7.66775	75738
7.67588	73324
7.68400	72971
7.69212	72985
7.70025	76332
7.70837	69561
7.71648	65486
7.72462	65027
7.73273	68667
7.74087	66159
7.74898	68096
7.75710	63578
7.76523	67258
7.77335	61872
7.78148	65528
7.78960	63784
7.79772	62447
7.80585	63696
7.81397	66626
7.82210	66395
7.83022	65565
7.83833	62548
7.84647	60445
7.85458	59009
7.86270	63314
7.87083	65299
7.87895	63595
7.88708	64071
7.89520	65365
7.90332	64518
7.91145	62350
7.91957	60141
7.92770	60882
7.93582	58344
7.94393	56543
7.95207	61575
7.96018	61015
7.96832	60367
7.97643	65686
7.98455	69810
7.99268	66550
8.00080	61518
8.00892	63801
8.01705	61212
8.02517	67260
8.03330	60966
8.04142	59640
8.04953	67284
8.05767	62953
8.06578	59767
8.07392	61401
8.08203	61411
8.09015	62084
8.09828	57149
8.10640	61432
8.11452	57556
8.12265	56054
8.13077	63313
8.13890	63333
8.14702	61888
8.15513	70946
8.16327	62945
8.17138	64866
8.17952	64279
8.18763	65317
8.19575	65654
8.20388	57589
8.21200	61104
8.22013	59085
8.22825	61718
8.23637	59338
8.24450	56513
8.25262	56724
8.26073	54520
8.26887	59519
8.27698	56866
8.28512	57768
8.29323	60410
8.30135	60620
8.30948	56236
8.31760	54747
8.32573	60198
8.33385	64930
8.34197	63514
8.35010	74700
8.35822	71450
8.36633	66754
8.37447	65172
8.38258	63229
8.39072	58817
8.39883	57585
8.40695	55773
8.41508	58250
8.42320	61665
8.43133	54719
8.43945	57382
8.44757	55336
8.45570	54330
8.46382	53180
8.47195	53499
8.48007	55164
8.48818	57606
8.49632	59578
8.50443	69031
8.51255	78960
8.52068	83862
8.52880	79496
8.53693	72140
8.54505	67679
8.55317	68018
8.56130	65504
8.56942	67252
8.57755	67943
8.58567	65757
8.59378	60918
8.60192	60347
8.61003	52449
8.61817	56340
8.62628	59789
8.63440	57255
8.64253	57039
8.65065	58484
8.65877	57921
8.66690	56420
8.67502	54854
8.68315	53524
8.69127	58140
8.69938	54787
8.70752	58956
8.71563	59810
8.72377	61608
8.73188	72761
8.74000	116372
8.74813	234401
8.75625	482554
8.76437	778201
8.77250	1059608
8.78062	1069679
8.78875	900768
8.79687	602146
8.80498	402729
8.81312	284242
8.82123	219428
8.82937	180069
8.83748	150042
8.84560	141111
8.85373	132027
8.86185	120135
8.86998	111281
8.87810	108405
8.88622	104415
8.89435	101700
8.90247	99891
8.91058	93569
8.91872	98605
8.92683	93940
8.93497	90967
8.94308	88555
8.95120	86476
8.95933	84137
8.96745	84424
8.97558	87217
8.98370	87724
8.99182	90525
8.99995	82257
9.00807	89054
9.01620	82325
9.02432	81894
9.03243	81427
9.04057	80587
9.04868	78090
9.05680	82757
9.06493	77417
9.07305	75835
9.08118	77417
9.08930	78290
9.09742	81192
9.10555	81678
9.11367	74163
9.12180	78673
9.12992	79605
9.13803	78054
9.14617	78826
9.15428	79563
9.16240	74165
9.17053	71830
9.17865	74185
9.18678	77616
9.19490	72840
9.20302	72281
9.21115	67970
9.21927	71441
9.22740	74856
9.23552	71496
9.24363	68527
9.25177	72518
9.25988	69864
9.26802	73951
9.27613	83507
9.28425	86331
9.29238	89870
9.30050	96303
9.30862	90338
9.31675	89123
9.32487	83139
9.33300	78420
9.34112	75940
9.34923	73886
9.35737	72801
9.36548	77303
9.37362	78513
9.38173	70150
9.38985	73000
9.39798	67637
9.40610	66183
9.41423	68163
9.42235	64991
9.43047	65468
9.43860	64728
9.44672	67223
9.45483	63909
9.46297	64403
9.47108	63601
9.47922	62124
9.48733	64054
9.49545	59976
9.50358	64313
9.51170	65102
9.51983	63220
9.52795	62716
9.53607	65372
9.54420	61053
9.55232	63168
9.56043	59802
9.56857	55499
9.57668	61152
9.58482	55953
9.59293	56269
9.60105	60175
9.60918	63013
9.61730	58887
9.62543	53705
9.63355	50550
9.64167	60042
9.64980	60525
9.65792	60652
9.66605	64550
9.67417	58588
9.68228	58378
9.69042	50890
9.69853	46214
9.70665	49264
9.71478	47894
9.72290	46235
9.73103	44216
9.73915	43350
9.74727	45497
9.75540	42670
9.76352	44875
9.77165	41212
9.77977	43283
9.78788	44117
9.79602	44630
9.80413	44365
9.81225	42174
9.82038	41256
9.82850	44740
9.83663	45658
9.84475	44372
9.85287	43635
9.86100	42224
9.86912	41146
9.87725	40052
9.88537	43323
9.89348	43689
9.90162	41842
9.90973	41614
9.91787	41797
9.92598	43703
9.93410	41320
9.94223	42066
9.95035	47427
9.95847	49545
9.96660	55181
9.97472	70217
9.98285	84113
9.99097	85548
9.99908	88790
10.00722	82160
10.01533	75377
10.02347	71938
10.03158	61184
10.03970	63698
10.04783	57777
10.05595	54013
10.06408	52529
10.07220	51766
10.08032	52848
10.08845	50783
10.09657	48642
10.10468	44612
10.11282	48329
10.12093	42094
10.12907	45732
10.13718	47727
10.14530	41803
10.15343	42245
10.16155	43372
10.16968	45123
10.17780	42819
10.18592	43312
10.19405	43639
10.20217	46208
10.21028	50932
10.21842	49945
10.22653	49307
10.23467	55687
10.24278	50619
10.25090	52391
10.25903	50032
10.26715	48113
10.27528	49357
10.28340	51219
10.29152	54524
10.29965	52292
10.30777	50636
10.31590	51892
10.32402	51158
10.33213	46233
10.34027	45278
10.34838	45906
10.35650	45312
10.36463	42829
10.37275	44872
10.38088	50854
10.38900	52003
10.39712	53354
10.40525	51832
10.41337	51797
10.42150	51387
10.42962	49508
10.43773	44666
10.44587	42309
10.45398	41744
10.46212	37116
10.47023	43736
10.47835	39863
10.48648	45097
10.49460	43733
10.50272	43311
10.51085	43762
10.51897	45915
10.52710	43299
10.53522	45396
10.54333	51332
10.55147	51771
10.55958	49589
10.56772	48055
10.57583	45747
10.58395	45158
10.59208	46503
10.60020	42069
10.60832	42965
10.61645	49674
10.62457	42441
10.63270	43651
10.64082	42553
10.64893	41040
10.65707	43477
10.66518	45252
10.67332	43157
10.68143	48282
10.68955	46710
10.69768	48494
10.70580	43762
10.71393	48554
10.72205	49867
10.73017	46768
10.73830	48206
10.74642	50197
10.75453	49905
10.76267	50355
10.77078	49831
10.77892	52672
10.78703	50578
10.79515	48747
10.80328	47514
10.81140	46772
10.81953	46776
10.82765	43724
10.83577	43065
10.84390	42724
10.85202	40666
10.86013	41420
10.86827	39736
10.87638	39138
10.88452	40746
10.89263	38322
10.90075	40967
10.90888	37137
10.91700	35278
10.92513	39037
10.93325	38453
10.94137	37415
10.94950	40692
10.95762	40611
10.96575	39630
10.97387	45577
10.98198	42685
10.99012	47123
10.99823	47607
11.00635	46814
11.01448	46678
11.02260	41637
11.03073	42536
11.03885	40203
11.04697	40411
11.05510	41956
11.06322	44678
11.07135	37328
11.07947	36984
11.08758	38728
11.09572	34563
11.10383	37103
11.11197	39318
11.12008	39567
11.12820	39813
11.13633	43437
11.14445	42244
11.15257	43911
11.16070	47717
11.16882	48336
11.17695	51458
11.18507	46940
11.19318	48854
11.20132	46837
11.20943	48707
11.21757	44758
11.22568	44566
11.23380	44905
11.24193	48472
11.25005	46722
11.25817	42800
11.26630	45250
11.27442	40803
11.28255	47334
11.29067	57690
11.29878	72094
11.30692	85316
11.31503	107158
11.32317	116442
11.33128	119160
11.33940	127824
11.34753	114408
11.35565	110149
11.36378	104075
11.37190	94181
11.38002	84923
11.38815	71717
11.39627	65983
11.40438	57657
11.41252	55695
11.42063	51576
11.42877	49001
11.43688	43580
11.44500	46429
11.45313	45119
11.46125	44607
11.46938	42427
11.47750	39110
11.48562	42327
11.49375	41156
11.50187	43476
11.51000	42073
11.51812	42575
11.52623	47615
11.53437	49856
11.54248	54639
11.55060	53035
11.55873	58780
11.56685	57486
11.57498	58254
11.58310	59112
11.59122	61591
11.59935	57632
11.60747	57526
11.61560	52379
11.62372	52673
11.63183	47976
11.63997	45578
11.64808	40665
11.65620	40371
11.66433	45633
11.67245	41165
11.68058	44486
11.68870	49105
11.69682	61951
11.70495	63009
11.71307	71920
11.72120	82111
11.72932	72739
11.73743	70394
11.74557	68667
11.75368	67359
11.76182	66799
11.76993	64036
11.77805	64184
11.78618	65723
11.79430	60802
11.80242	55803
11.81055	53347
11.81867	50037
11.82680	50859
11.83492	48260
11.84303	48119
11.85117	44851
11.85928	45997
11.86742	49380
11.87553	47779
11.88365	43882
11.89178	44567
11.89990	43942
11.90802	40413
11.91615	43321
11.92427	47856
11.93240	42691
11.94052	45670
11.94863	52778
11.95677	57584
11.96488	62161
11.97302	61365
11.98113	59619
11.98925	58271
11.99738	60698
12.00550	55335
12.01363	55555
12.02175	51597
12.02987	48892
12.03800	45818
12.04612	42028
12.05423	45341
12.06237	42373
12.07048	39138
12.07862	38127
12.08673	40206
12.09485	37978
12.10298	40031
12.11110	38492
12.11923	41142
12.12735	40242
12.13547	38590
12.14360	39818
12.15172	38780
12.15985	42110
12.16797	41839
12.17608	39722
12.18422	39264
12.19233	39685
12.20045	39894
12.20858	40425
12.21670	41659
12.22483	40917
12.23295	42958
12.24107	35447
12.24920	35608
12.25732	41238
12.26545	36393
12.27357	37416
12.28168	38596
12.28982	41542
12.29793	35878
12.30607	35664
12.31418	38772
12.32230	40614
12.33043	41954
12.33855	42564
12.34667	42693
12.35480	39073
12.36292	37902
12.37105	35565
12.37917	37675
12.38728	38278
12.39542	36241
12.40353	36183
12.41167	37253
12.41978	38501
12.42790	38505
12.43603	40196
12.44415	36256
12.45227	37622
12.46040	42633
12.46852	42677
12.47665	41351
12.48477	40192
12.49288	38801
12.50102	39980
12.50913	41139
12.51727	38750
12.52538	39242
12.53350	35076
12.54163	37151
12.54975	35841
12.55788	36828
12.56600	40634
12.57412	34697
12.58225	37463
12.59037	36765
12.59848	36527
12.60662	39061
12.61473	37573
12.62287	34856
12.63098	39907
12.63910	36179
12.64723	36745
12.65535	37472
12.66348	36753
12.67160	34900
12.67972	34842
12.68785	35809
12.69597	37504
12.70408	35843
12.71222	39366
12.72033	38609
12.72847	45350
12.73658	44677
12.74470	53151
12.75283	50877
12.76095	47347
12.76908	45314
12.77720	43901
12.78532	45350
12.79345	41399
12.80157	40902
12.80970	45819
12.81782	47110
12.82593	49356
12.83407	46784
12.84218	47820
12.85030	46949
12.85843	48832
12.86655	44946
12.87468	44380
12.88280	41312
12.89092	38491
12.89905	35698
12.90717	36999
12.91530	36410
12.92342	33736
12.93153	38007
12.93967	43308
12.94778	40590
12.95592	48167
12.96403	56106
12.97215	65551
12.98028	83669
12.98840	95977
12.99652	107927
13.00465	116889
13.01277	111667
13.02090	114377
13.02902	99969
13.03713	87592
13.04527	76540
13.05338	67995
13.06152	60481
13.06963	53766
13.07775	51454
13.08588	47565
13.09400	47508
13.10212	44754
13.11025	41758
13.11837	47968
13.12650	47759
13.13462	42652
13.14273	41359
13.15087	43922
13.15898	43066
13.16712	40733
13.17523	42203
13.18335	40255
13.19148	42026
13.19960	45037
13.20773	40172
13.21585	44910
13.22397	40446
13.23210	43239
13.24022	41209
13.24833	43388
13.25647	39982
13.26458	47390
13.27272	46411
13.28083	51794
13.28895	56404
13.29708	60983
13.30520	65405
13.31333	61516
13.32145	64163
13.32957	62704
13.33770	56271
13.34582	59081
13.35395	59252
13.36207	59120
13.37018	57209
13.37832	56698
13.38643	51885
13.39455	51114
13.40268	50179
13.41080	47509
13.41893	41498
13.42705	46386
13.43517	40681
13.44330	37525
13.45142	42422
13.45955	40302
13.46767	38643
13.47578	37715
13.48392	39906
13.49203	38224
13.50015	35805
13.50828	34662
13.51640	38826
13.52453	36542
13.53265	38809
13.54077	39185
13.54890	39479
13.55702	40166
13.56515	43866
13.57327	50006
13.58138	52945
13.58952	56121
13.59763	57850
13.60577	58960
13.61388	62618
13.62200	62179
13.63013	56090
13.63825	65175
13.64637	67350
13.65450	66844
13.66262	69457
13.67075	68645
13.67887	65599
13.68698	65364
13.69512	55448
13.70323	52302
13.71137	48092
13.71948	49048
13.72760	45938
13.73573	41151
13.74385	48135
13.75197	46266
13.76010	45207
13.76822	42732
13.77635	44971
13.78447	46351
13.79258	43043
13.80072	42606
13.80883	43853
13.81697	41167
13.82508	42512
13.83320	41723
13.84133	39267
13.84945	42217
13.85758	41712
13.86570	40998
13.87382	38117
13.88195	42211
13.89007	41332
13.89818	43312
13.90632	45206
13.91443	46839
13.92257	57908
13.93068	53596
13.93880	61848
13.94693	56059
13.95505	52230
13.96318	47525
13.97130	50287
13.97942	48862
13.98755	50427
13.99567	43857
14.00380	44953
14.01192	48231
14.02003	49946
14.02817	48892
14.03628	47347
14.04440	48188
14.05253	50609
14.06065	49586
14.06878	46516
14.07690	46460
14.08502	47232
14.09315	41024
14.10127	38707
14.10940	39090
14.11752	39089
14.12563	41064
14.13377	43163
14.14188	60401
14.15000	100914
14.15813	167819
14.16625	266015
14.17438	346580
14.18250	390269
14.19062	336440
14.19875	263980
14.20687	195814
14.21500	145866
14.22312	117212
14.23123	106141
14.23937	96499
14.24748	90537
14.25562	92647
14.26373	87087
14.27185	81090
14.27998	75313
14.28810	66121
14.29622	75947
14.30435	71394
14.31247	65943
14.32060	59417
14.32872	55651
14.33683	49561
14.34497	47456
14.35308	41924
14.36122	40235
14.36933	42112
14.37745	40659
14.38558	41724
14.39370	39778
14.40183	39128
14.40995	41990
14.41807	40858
14.42620	39765
14.43432	42723
14.44243	38586
14.45057	40181
14.45868	39567
14.46682	40570
14.47493	37009
14.48305	38587
14.49118	40348
14.49930	36181
14.50743	36220
14.51555	38735
14.52367	41011
14.53180	37301
14.53992	41788
14.54803	37549
14.55617	42801
14.56428	38364
14.57242	37374
14.58053	39327
14.58865	37917
14.59678	36929
14.60490	37615
14.61303	38532
14.62115	37372
14.62927	37554
14.63740	34778
14.64552	38363
14.65365	36963
14.66177	38241
14.66988	39218
14.67802	34654
14.68613	40760
14.69425	35347
14.70238	33462
14.71050	34724
14.71863	34662
14.72675	36722
14.73487	39731
14.74300	40355
14.75112	34424
14.75925	40192
14.76737	38249
14.77548	36947
14.78362	34588
14.79173	34807
14.79985	38970
14.80798	35803
14.81610	37238
14.82423	38637
14.83235	39387
14.84047	37749
14.84860	35393
14.85672	40091
14.86485	40691
14.87297	38955
14.88108	38574
14.88922	39740
14.89733	39800
14.90547	39717
14.91358	36262
14.92170	40593
14.92983	40034
14.93795	39240
14.94607	36154
14.95420	36726
14.96232	36408
14.97045	38593
14.97857	39458
14.98668	38734
14.99482	37674
15.00293	37511
15.01107	35681
15.01918	37791
15.02730	35469
15.03543	37936
15.04355	36631
15.05168	37383
15.05980	35832
15.06792	34535
15.07605	39701
15.08417	37082
15.09228	35642
15.10042	37869
15.10853	35041
15.11667	34062
15.12478	36946
15.13290	35783
15.14103	37026
15.14915	36234
15.15728	34919
15.16540	34627
15.17352	35298
15.18165	35984
15.18977	35071
15.19788	34104
15.20602	33666
15.21413	33356
15.22227	35769
15.23038	35282
15.23850	35279
15.24663	32600
15.25475	37497
15.26288	29678
15.27100	35443
15.27912	32752
15.28725	36822
15.29537	34589
15.30350	34317
15.31162	36324
15.31973	34404
15.32787	31708
15.33598	32069
15.34410	37525
15.35223	34964
15.36035	33545
15.36848	31605
15.37660	34887
15.38472	33939
15.39285	31006
15.40097	34081
15.40910	31915
15.41722	31662
15.42533	31565
15.43347	33696
15.44158	32246
15.44972	37264
15.45783	32555
15.46595	31427
15.47408	37069
15.48220	36159
15.49032	34800
15.49845	31409
15.50657	32465
15.51470	34347
15.52282	34141
15.53093	33875
15.53907	33185
15.54718	33445
15.55532	35870
15.56343	36052
15.57155	37051
15.57968	34039
15.58780	35284
15.59592	34546
15.60405	28255
15.61217	29707
15.62030	36178
15.62842	33482
15.63653	33201
15.64467	31667
15.65278	34718
15.66092	35578
15.66903	37003
15.67715	32218
15.68528	37493
15.69340	35724
15.70153	36334
15.70965	31225
15.71777	33343
15.72590	37633
15.73402	36561
15.74213	38158
15.75027	35772
15.75838	44385
15.76652	44084
15.77463	47530
15.78275	43875
15.79088	45060
15.79900	42212
15.80713	38836
15.81525	38123
15.82337	40472
15.83150	35904
15.83962	35661
15.84775	32452
15.85587	34831
15.86398	35599
15.87212	34955
15.88023	33961
15.88835	35099
15.89648	32306
15.90460	32967
15.91273	36613
15.92085	38089
15.92897	32975
15.93710	39205
15.94522	38658
15.95335	37355
15.96147	37642
15.96958	34464
15.97772	36940
15.98583	36051
15.99395	38583
16.00208	38255
16.01020	44524
16.01833	50455
16.02645	62626
16.03457	56286
16.04270	55362
16.05082	54754
16.05895	49380
16.06707	44397
16.07518	40343
16.08332	42694
16.09143	37991
16.09957	40502
16.10768	39999
16.11580	36123
16.12393	38029
16.13205	38394
16.14017	35624
16.14830	38116
16.15642	34150
16.16455	38393
16.17267	33997
16.18078	37479
16.18892	35779
16.19703	35512
16.20517	37221
16.21328	38918
16.22140	35162
16.22953	34966
16.23765	36563
16.24577	40298
16.25390	39165
16.26202	36318
16.27015	37071
16.27827	37037
16.28638	37499
16.29452	35935
16.30263	36526
16.31077	35303
16.31888	38007
16.32700	32884
16.33513	35338
16.34325	36775
16.35138	37558
16.35950	35614
16.36762	37507
16.37575	35818
16.38387	34001
16.39198	36680
16.40012	38234
16.40823	36033
16.41637	32153
16.42448	38590
16.43260	38225
16.44073	35558
16.44885	37883
16.45698	38245
16.46510	34079
16.47322	36315
16.48135	37405
16.48947	36309
16.49760	35449
16.50572	33967
16.51383	39077
16.52197	41070
16.53008	43779
16.53820	38615
16.54633	35544
16.55445	37549
16.56258	40163
16.57070	39646
16.57882	38155
16.58695	36994
16.59507	38664
16.60320	38729
16.61132	37791
16.61943	41879
16.62757	40244
16.63568	40878
16.64380	35010
16.65193	34350
16.66005	37939
16.66818	37851
16.67630	38426
16.68442	34980
16.69255	37689
16.70067	37454
16.70880	34220
16.71692	34418
16.72503	36582
16.73317	40430
16.74128	33602
16.74942	33899
16.75753	37353
16.76565	41951
16.77378	38235
16.78190	36433
16.79002	36631
16.79815	38090
16.80627	38750
16.81440	37157
16.82252	35640
16.83063	36577
16.83877	33844
16.84688	37758
16.85502	36930
16.86313	35734
16.87125	34537
16.87938	43332
16.88750	38541
16.89563	37604
16.90375	37611
16.91187	36112
16.92000	36524
16.92812	34472
16.93623	35176
16.94437	38571
16.95248	38205
16.96062	36565
16.96873	34500
16.97685	36717
16.98498	37325
16.99310	33812
17.00123	37706
17.00935	39615
17.01747	34683
17.02560	39247
17.03372	34264
17.04183	34714
17.04997	41847
17.05808	35620
17.06622	35707
17.07433	38072
17.08245	39599
17.09058	40398
17.09870	37369
17.10683	40531
17.11495	37779
17.12307	36903
17.13120	39020
17.13932	40588
17.14745	37278
17.15557	38234
17.16368	38241
17.17182	38330
17.17993	41581
17.18805	38069
17.19618	38830
17.20430	35825
17.21243	36358
17.22055	38004
17.22867	36111
17.23680	37254
17.24492	39179
17.25305	40517
17.26117	37843
17.26928	40022
17.27742	34123
17.28553	36980
17.29365	36773
17.30178	37858
17.30990	36248
17.31803	37328
17.32615	37831
17.33427	37933
17.34240	38173
17.35052	42191
17.35865	43147
17.36677	42261
17.37488	46687
17.38302	44530
17.39113	45613
17.39927	43075
17.40738	45123
17.41550	44962
17.42363	49293
17.43175	44127
17.43987	41205
17.44800	39755
17.45612	41039
17.46425	40646
17.47237	41608
17.48048	41511
17.48862	40964
17.49673	40843
17.50487	41023
17.51298	43326
17.52110	49617
17.52923	51440
17.53735	57177
17.54548	57077
17.55360	65021
17.56172	72246
17.56985	70910
17.57797	69624
17.58608	62369
17.59422	60832
17.60233	51660
17.61047	50850
17.61858	42918
17.62670	42787
17.63483	41751
17.64295	40345
17.65108	42892
17.65920	41442
17.66732	42080
17.67545	40517
17.68357	40774
17.69170	44352
17.69982	47090
17.70793	44447
17.71607	42753
17.72418	42207
17.73230	43607
17.74043	41821
17.74855	39633
17.75668	41857
17.76480	43515
17.77292	43810
17.78105	40484
17.78917	40654
17.79730	41161
17.80542	41845
17.81353	41686
17.82167	43175
17.82978	40723
17.83790	43612
17.84603	45015
17.85415	47592
17.86228	48166
17.87040	45407
17.87852	46612
17.88665	47844
17.89477	42416
17.90290	41963
17.91102	39167
17.91913	39789
17.92727	37864
17.93538	38071
17.94352	40544
17.95163	36313
17.95975	38375
17.96788	41551
17.97600	37937
17.98412	35327
17.99225	35133
18.00037	37454
18.00850	34365
18.01662	42036
18.02473	40492
18.03287	40634
18.04098	44053
18.04912	42890
18.05723	46210
18.06535	47716
18.07348	44513
18.08160	42761
18.08972	42775
18.09785	42709
18.10597	51088
18.11410	44591
18.12222	42719
18.13033	43863
18.13847	39071
18.14658	42276
18.15472	39047
18.16283	40752
18.17095	40601
18.17908	41685
18.18720	40581
18.19533	39526
18.20345	37614
18.21157	40564
18.21970	41120
18.22782	46715
18.23593	39577
18.24407	44654
18.25218	40448
18.26032	43339
18.26843	40337
18.27655	38407
18.28468	38886
18.29280	37720
18.30093	40574
18.30905	39496
18.31717	38978
18.32530	37617
18.33342	37405
18.34155	35830
18.34967	37642
18.35778	37161
18.36592	39693
18.37403	40934
18.38215	41580
18.39028	40153
18.39840	43941
18.40653	45899
18.41465	42610
18.42277	42386
18.43090	43158
18.43902	45951
18.44715	40415
18.45527	45449
18.46338	42892
18.47152	46835
18.47963	42814
18.48775	43744
18.49588	45264
18.50400	42847
18.51213	44691
18.52025	42943
18.52837	42693
18.53650	44243
18.54462	44072
18.55275	43038
18.56087	47013
18.56898	42101
18.57712	40856
18.58523	43726
18.59337	45374
18.60148	46011
18.60960	48077
18.61773	49646
18.62585	47298
18.63397	49915
18.64210	45743
18.65022	47027
18.65835	47277
18.66647	46256
18.67458	41764
18.68272	46819
18.69083	42103
18.69897	41547
18.70708	43334
18.71520	43281
18.72333	40614
18.73145	40806
18.73958	43048
18.74770	40485
18.75582	38941
18.76395	37580
18.77207	38722
18.78018	41796
18.78832	41030
18.79643	41992
18.80457	38129
18.81268	40637
18.82080	37996
18.82893	37446
18.83705	35835
18.84518	39297
18.85330	39703
18.86142	39238
18.86955	40895
18.87767	41021
18.88578	40217
18.89392	39838
18.90203	41148
18.91017	46568
18.91828	42888
18.92640	45231
18.93453	41275
18.94265	40971
18.95078	41526
18.95890	41760
18.96702	41200
18.97515	41409
18.98327	40980
18.99140	38144
18.99952	41855
19.00763	40215
19.01577	41216
19.02388	40257
19.03200	42786
19.04013	42114
19.04825	42395
19.05638	39960
19.06450	43505
19.07262	49489
19.08075	51522
19.08887	60517
19.09700	63754
19.10512	65857
19.11323	65463
19.12137	64191
19.12948	60607
19.13760	58174
19.14573	60022
19.15385	65262
19.16198	67264
19.17010	65679
19.17822	62973
19.18635	66858
19.19447	56187
19.20260	55351
19.21072	47268
19.21883	47904
19.22697	44306
19.23508	45721
19.24322	43995
19.25133	49667
19.25945	40323
19.26758	46560
19.27570	47050
19.28382	48903
19.29195	49133
19.30007	50470
19.30820	48577
19.31632	51930
19.32443	49112
19.33257	49944
19.34068	45492
19.34882	45745
19.35693	42502
19.36505	44633
19.37318	41272
19.38130	42163
19.38943	45002
19.39755	42860
19.40567	40960
19.41380	38437
19.42192	43209
19.43003	39496
19.43817	47171
19.44628	62713
19.45442	85637
19.46253	137398
19.47065	164096
19.47878	193305
19.48690	193531
19.49503	153977
19.50315	119517
19.51127	83732
19.51940	62714
19.52752	57869
19.53563	48443
19.54377	48803
19.55188	42890
19.56002	44065
19.56813	42725
19.57625	45213
19.58438	51239
19.59250	43378
19.60063	41732
19.60875	49397
19.61687	40118
19.62500	46526
19.63312	53224
19.64125	61607
19.64937	78330
19.65748	89021
19.66562	96705
19.67373	99183
19.68185	82572
19.68998	75322
19.69810	70579
19.70623	64516
19.71435	56307
19.72247	62203
19.73060	51337
19.73872	54352
19.74685	47953
19.75497	48322
19.76308	42538
19.77122	47721
19.77933	47503
19.78747	48354
19.79558	46012
19.80370	45518
19.81183	43565
19.81995	40145
19.82807	43287
19.83620	43794
19.84432	43161
19.85245	46453
19.86057	46239
19.86868	52508
19.87682	59455
19.88493	65095
19.89307	80179
19.90118	90227
19.90930	100843
19.91743	106736
19.92555	107228
19.93367	101610
19.94180	101708
19.94992	97858
19.95805	97499
19.96617	88323
19.97428	85702
19.98242	89381
19.99053	85358
19.99867	85663
20.00678	79185
20.01490	77915
20.02303	77930
20.03115	77958
20.03928	72163
20.04740	67657
20.05552	59442
20.06365	57439
20.07177	55291
20.07988	50597
20.08802	50345
20.09613	53547
20.10427	48447
20.11238	52271
20.12050	49488
20.12863	49735
20.13675	51909
20.14488	46006
20.15300	49424
20.16112	49226
20.16925	53746
20.17737	50017
20.18550	53767
20.19362	54108
20.20173	54335
20.20987	51234
20.21798	54609
20.22610	51284
20.23423	53636
20.24235	61451
20.25048	70864
20.25860	78969
20.26672	89230
20.27485	91810
20.28297	90302
20.29110	79651
20.29922	79630
20.30733	64994
20.31547	61194
20.32358	48776
20.33170	48298
20.33983	49015
20.34795	50614
20.35608	45347
20.36420	47420
20.37232	46750
20.38045	44626
20.38857	43324
20.39670	46153
20.40482	49217
20.41293	52221
20.42107	52394
20.42918	54580
20.43732	56891
20.44543	53824
20.45355	52912
20.46168	53154
20.46980	49681
20.47792	51114
20.48605	50019
20.49417	47621
20.50230	49110
20.51042	40851
20.51853	46167
20.52667	42273
20.53478	40575
20.54292	43235
20.55103	42463
20.55915	38984
20.56728	43418
20.57540	42055
20.58352	38511
20.59165	38944
20.59977	37528
20.60790	38863
20.61602	42271
20.62413	38699
20.63227	41891
20.64038	40696
20.64852	39331
20.65663	38158
20.66475	37383
20.67288	39729
20.68100	40911
20.68913	41491
20.69725	41587
20.70537	40263
20.71350	39509
20.72162	41624
20.72973	37704
20.73787	41819
20.74598	41432
20.75412	44368
20.76223	42263
20.77035	41404
20.77848	40391
20.78660	42017
20.79473	39932
20.80285	44165
20.81097	40716
20.81910	37748
20.82722	41609
20.83535	36362
20.84347	44485
20.85158	40523
20.85972	42333
20.86783	42382
20.87595	37861
20.88408	37661
20.89220	38395
20.90033	39465
20.90845	38993
20.91657	38939
20.92470	39171
20.93282	39103
20.94095	38417
20.94907	40690
20.95718	37721
20.96532	39189
20.97343	38274
20.98155	44061
20.98968	42069
20.99780	41760
21.00593	38102
21.01405	40802
21.02217	45548
21.03030	40500
21.03842	39798
21.04655	41970
21.05467	41637
21.06278	43007
21.07092	42730
21.07903	43099
21.08717	44652
21.09528	41807
21.10340	41988
21.11153	43658
21.11965	41703
21.12777	38776
21.13590	43339
21.14402	41354
21.15215	42945
21.16027	39686
21.16838	44416
21.17652	45192
21.18463	42682
21.19277	42947
21.20088	46083
21.20900	43126
21.21713	39539
21.22525	38549
21.23338	40197
21.24150	42355
21.24962	47523
21.25775	44442
21.26587	41791
21.27398	47106
21.28212	45658
21.29023	41790
21.29837	47257
21.30648	46828
21.31460	46949
21.32273	42959
21.33085	47680
21.33898	39412
21.34710	41150
21.35522	44251
21.36335	40833
21.37147	43492
21.37958	43510
21.38772	42785
21.39583	42288
21.40397	44675
21.41208	46809
21.42020	42590
21.42833	43376
21.43645	39919
21.44458	48907
21.45270	44117
21.46082	43167
21.46895	40791
21.47707	41943
21.48520	41661
21.49332	41286
21.50143	40588
21.50957	37774
21.51768	40965
21.52580	40827
21.53393	42594
21.54205	43868
21.55018	39227
21.55830	43953
21.56642	40850
21.57455	40378
21.58267	42229
21.59080	48637
21.59892	49106
21.60703	52318
21.61517	56388
21.62328	63193
21.63140	58801
21.63953	52497
21.64765	50160
21.65578	45762
21.66390	46046
21.67202	43022
21.68015	41842
21.68827	37827
21.69640	46842
21.70452	42315
21.71263	43359
21.72077	39824
21.72888	41397
21.73702	40201
21.74513	45733
21.75325	44670
21.76138	41649
21.76950	46981
21.77762	46280
21.78575	46167
21.79387	49898
21.80200	51850
21.81012	56514
21.81823	53408
21.82637	52042
21.83448	49682
21.84262	52157
21.85073	45612
21.85885	41866
21.86698	44603
21.87510	40609
21.88323	41338
21.89135	40863
21.89947	40041
21.90760	41398
21.91572	40562
21.92383	38559
21.93197	38676
21.94008	41496
21.94822	40412
21.95633	41082
21.96445	39895
21.97258	35684
21.98070	37482
21.98883	42030
21.99695	42455
22.00507	40696
22.01320	39330
22.02132	37437
22.02943	40462
22.03757	39728
22.04568	41414
22.05382	38343
22.06193	40762
22.07005	40587
22.07818	40834
22.08630	45394
22.09443	40291
22.10255	40117
22.11067	40780
22.11880	43426
22.12692	40173
22.13505	40988
22.14317	40646
22.15128	40765
22.15942	40995
22.16753	41289
22.17565	41412
22.18378	38717
22.19190	39961
22.20003	38228
22.20815	40054
22.21627	39754
22.22440	38534
22.23252	38868
22.24065	40578
22.24877	38669
22.25688	38154
22.26502	36681
22.27313	37640
22.28127	38194
22.28938	40534
22.29750	37710
22.30563	38814
22.31375	39359
22.32187	42804
22.33000	38262
22.33812	38251
22.34625	41647
22.35437	41566
22.36248	36635
22.37062	40190
22.37873	39052
22.38687	37524
22.39498	34094
22.40310	39266
22.41123	40736
22.41935	35188
22.42747	39432
22.43560	38191
22.44372	39768
22.45185	37568
22.45997	37902
22.46808	38381
22.47622	39566
22.48433	36174
22.49247	39141
22.50058	36041
22.50870	40667
22.51683	35560
22.52495	39711
22.53308	36507
22.54120	37788
22.54932	39973
22.55745	37160
22.56557	37532
22.57368	34362
22.58182	34815
22.58993	38073
22.59807	40201
22.60618	35879
22.61430	37029
22.62243	38171
22.63055	35517
22.63868	32570
22.64680	35563
22.65492	35972
22.66305	37974
22.67117	38585
22.67928	36839
22.68742	34142
22.69553	34900
22.70367	37038
22.71178	33443
22.71990	33866
22.72803	32604
22.73615	35050
22.74428	37913
22.75240	36614
22.76052	38606
22.76865	32526
22.77677	32579
22.78490	35769
22.79302	33568
22.80113	36446
22.80927	33928
22.81738	34589
22.82550	36645
22.83363	37410
22.84175	39779
22.84988	39975
22.85800	38818
22.86612	37239
22.87425	38714
22.88237	37512
22.89050	39853
22.89862	45467
22.90673	50168
22.91487	50959
22.92298	52419
22.93112	59745
22.93923	64992
22.94735	62365
22.95548	59590
22.96360	55164
22.97172	57791
22.97985	55253
22.98797	51706
22.99610	47850
23.00422	46188
23.01233	49727
23.02047	46574
23.02858	41984
23.03672	46656
23.04483	43735
23.05295	39406
23.06108	40525
23.06920	38605
23.07733	40068
23.08545	40755
23.09357	37454
23.10170	39908
23.10982	40416
23.11793	41115
23.12607	38893
23.13418	39350
23.14232	40533
23.15043	40920
23.15855	38093
23.16668	41065
23.17480	41077
23.18293	37668
23.19105	41307
23.19917	38236
23.20730	40858
23.21542	39611
23.22353	37574
23.23167	39751
23.23978	41907
23.24792	39596
23.25603	38773
23.26415	36676
23.27228	37906
23.28040	40469
23.28853	38685
23.29665	41728
23.30477	39796
23.31290	38457
23.32102	38865
23.32915	39170
23.33727	38648
23.34538	40601
23.35352	39361
23.36163	40036
23.36975	40254
23.37788	38329
23.38600	43187
23.39413	43074
23.40225	41983
23.41037	46249
23.41850	41865
23.42662	43045
23.43475	44919
23.44287	39969
23.45098	38037
23.45912	42196
23.46723	40051
23.47535	41076
23.48348	34848
23.49160	38175
23.49973	40527
23.50785	40437
23.51597	41424
23.52410	38913
23.53222	37915
23.54035	39254
23.54847	43809
23.55658	38988
23.56472	45308
23.57283	45145
23.58097	43166
23.58908	41344
23.59720	41726
23.60533	40713
23.61345	42035
23.62157	42359
23.62970	43541
23.63782	40497
23.64595	42661
23.65407	45038
23.66218	48311
23.67032	48838
23.67843	47520
23.68657	47543
23.69468	48740
23.70280	48007
23.71093	50582
23.71905	54183
23.72718	52898
23.73530	71780
23.74342	113278
23.75155	243309
23.75967	493944
23.76778	981276
23.77592	1611502
23.78403	2165974
23.79217	2322969
23.80028	2141164
23.80840	1764908
23.81653	1361977
23.82465	981866
23.83278	746426
23.84090	571676
23.84902	458235
23.85715	370669
23.86527	328613
23.87338	270918
23.88152	239220
23.88963	207848
23.89777	186786
23.90588	180068
23.91400	167551
23.92213	158132
23.93025	142406
23.93838	138836
23.94650	128132
23.95462	125124
23.96275	111449
23.97087	111589
23.97900	108356
23.98712	110279
23.99523	100398
24.00337	99277
24.01148	96452
24.01960	96562
24.02773	89380
24.03585	89560
24.04398	84606
24.05210	83757
24.06022	82830
24.06835	79563
24.07647	84080
24.08460	80121
24.09272	77449
24.10083	80197
24.10897	81027
24.11708	76471
24.12522	71994
24.13333	72393
24.14145	71494
24.14958	75481
24.15770	68492
24.16582	70642
24.17395	74115
24.18207	74067
24.19020	74660
24.19832	85273
24.20643	73814
24.21457	75129
24.22268	76882
24.23082	67242
24.23893	62353
24.24705	63746
24.25518	60852
24.26330	61701
24.27142	60717
24.27955	56082
24.28767	58228
24.29580	64366
24.30392	59710
24.31203	56437
24.32017	56358
24.32828	60550
24.33642	70893
24.34453	82892
24.35265	107476
24.36078	122681
24.36890	136878
24.37703	122594
24.38515	105978
24.39327	80731
24.40140	67358
24.40952	59274
24.41763	56123
24.42577	53506
24.43388	54064
24.44202	54975
24.45013	56866
24.45825	64947
24.46638	60822
24.47450	62064
24.48263	59816
24.49075	56740
24.49887	58258
24.50700	55748
24.51512	55606
24.52323	49720
24.53137	52691
24.53948	48599
24.54762	46610
24.55573	48573
24.56385	49821
24.57198	49363
24.58010	48158
24.58823	43780
24.59635	47891
24.60447	47312
24.61260	46791
24.62072	47496
24.62885	47916
24.63697	47370
24.64508	47345
24.65322	49335
24.66133	50614
24.66945	49277
24.67758	47416
24.68570	49019
24.69383	46146
24.70195	49226
24.71007	47503
24.71820	51708
24.72632	43830
24.73445	43378
24.74257	47054
24.75068	47549
24.75882	41902
24.76693	45642
24.77507	43277
24.78318	50281
24.79130	44322
24.79943	42806
24.80755	42830
24.81567	47907
24.82380	44079
24.83192	44924
24.84005	43335
24.84817	42152
24.85628	40841
24.86442	44179
24.87253	46115
24.88067	43156
24.88878	41835
24.89690	41892
24.90503	43692
24.91315	44645
24.92127	43688
24.92940	41334
24.93752	44705
24.94565	42123
24.95377	40701
24.96188	41516
24.97002	43390
24.97813	40595
24.98627	46361
24.99438	42904
25.00250	42679
25.01063	41387
25.01875	44107
25.02688	39679
25.03500	41849
25.04312	43336
25.05125	42048
25.05937	41061
25.06748	41078
25.07562	41196
25.08373	42448
25.09187	40492
25.09998	42803
25.10810	39642
25.11623	38796
25.12435	43019
25.13248	41051
25.14060	44945
25.14872	42777
25.15685	44975
25.16497	42147
25.17310	45472
25.18122	39152
25.18933	39761
25.19747	42504
25.20558	40847
25.21370	39867
25.22183	40009
25.22995	40371
25.23808	40625
25.24620	39937
25.25432	41711
25.26245	41827
25.27057	43387
25.27870	43234
25.28682	43047
25.29493	46710
25.30307	50902
25.31118	49711
25.31930	53692
25.32743	51616
25.33555	51237
25.34368	46932
25.35180	48190
25.35992	44920
25.36805	43331
25.37617	43952
25.38430	41048
25.39242	38101
25.40053	41408
25.40867	39417
25.41678	36573
25.42492	42307
25.43303	42915
25.44115	40092
25.44928	39912
25.45740	39354
25.46552	37441
25.47365	39176
25.48177	36406
25.48990	36776
25.49802	39010
25.50613	40627
25.51427	38534
25.52238	40873
25.53052	37096
25.53863	36406
25.54675	36774
25.55488	35977
25.56300	36582
25.57113	37457
25.57925	38133
25.58737	34664
25.59550	37553
25.60362	37377
25.61173	37862
25.61987	37992
25.62798	39227
25.63612	35250
25.64423	34444
25.65235	36303
25.66048	35329
25.66860	40987
25.67673	35386
25.68485	37874
25.69297	30774
25.70110	34110
25.70922	35887
25.71733	36352
25.72547	34155
25.73358	36721
25.74172	33467
25.74983	35905
25.75795	36575
25.76608	36497
25.77420	36078
25.78233	36347
25.79045	28692
25.79857	34987
25.80670	33384
25.81482	35310
25.82295	36603
25.83107	34133
25.83918	33375
25.84732	36494
25.85543	33334
25.86355	34083
25.87168	32831
25.87980	36970
25.88793	32893
25.89605	33192
25.90417	35534
25.91230	35250
25.92042	36443
25.92855	36054
25.93667	34293
25.94478	37441
25.95292	34118
25.96103	34776
25.96915	31969
25.97728	36653
25.98540	36041
25.99353	40797
26.00165	32980
26.00977	32621
26.01790	33358
26.02602	33038
26.03415	36335
26.04227	32220
26.05038	34260
26.05852	30184
26.06663	32126
26.07477	36775
26.08288	35977
26.09100	36950
26.09913	40309
26.10725	34626
26.11537	38762
26.12350	41575
26.13162	42884
26.13975	44669
26.14787	49797
26.15598	44938
26.16412	45210
26.17223	42778
26.18037	43104
26.18848	42304
26.19660	40161
26.20473	36940
26.21285	37739
26.22098	37281
26.22910	38525
26.23722	34583
26.24535	32915
26.25347	35903
26.26158	35310
26.26972	35161
26.27783	36159
26.28597	34768
26.29408	34825
26.30220	31499
26.31033	37042
26.31845	35363
26.32658	33072
26.33470	30587
26.34282	32452
26.35095	30689
26.35907	35606
26.36718	34811
26.37532	35833
26.38343	35411
26.39157	33243
26.39968	33237
26.40780	31555
26.41593	32520
26.42405	39486
26.43218	33659
26.44030	33963
26.44842	37908
26.45655	35840
26.46467	33114
26.47280	34781
26.48092	37602
26.48903	34117
26.49717	35930
26.50528	32306
26.51340	34259
26.52153	33976
26.52965	33030
26.53778	31258
26.54590	31571
26.55402	36893
26.56215	34813
26.57027	36414
26.57840	33194
26.58652	33247
26.59463	34454
26.60277	35698
26.61088	32065
26.61902	34784
26.62713	32674
26.63525	30437
26.64338	34724
26.65150	33029
26.65962	32210
26.66775	32645
26.67587	34718
26.68400	36099
26.69212	34374
26.70023	34271
26.70837	33755
26.71648	35333
26.72462	35525
26.73273	35185
26.74085	37629
26.74898	35164
26.75710	37813
26.76522	36489
26.77335	34275
26.78147	34296
26.78960	33323
26.79772	36976
26.80583	35736
26.81397	33670
26.82208	36510
26.83022	37201
26.83833	32871
26.84645	38299
26.85458	32858
26.86270	35702
26.87083	34258
26.87895	35399
26.88707	31790
26.89520	37167
26.90332	34140
26.91143	37226
26.91957	39247
26.92768	39212
26.93582	41290
26.94393	44601
26.95205	58683
26.96018	78716
26.96830	120812
26.97643	203182
26.98455	289630
26.99267	405149
27.00080	509186
27.00892	556088
27.01703	557824
27.02517	498443
27.03328	415708
27.04142	335396
27.04953	278187
27.05765	210494
27.06578	177712
27.07390	150636
27.08203	125863
27.09015	111550
27.09827	100255
27.10640	95880
27.11452	92209
27.12265	88473
27.13077	80826
27.13888	68472
27.14702	73556
27.15513	69013
27.16325	66820
27.17138	69669
27.17950	66065
27.18763	59201
27.19575	59428
27.20387	58476
27.21200	60256
27.22012	58023
27.22825	52365
27.23637	56956
27.24448	54590
27.25262	50941
27.26073	49324
27.26887	53373
27.27698	48869
27.28510	47051
27.29323	48695
27.30135	48659
27.30947	46283
27.31760	46748
27.32572	46906
27.33385	44005
27.34197	45430
27.35008	44613
27.35822	45213
27.36633	43446
27.37447	41645
27.38258	41444
27.39070	40901
27.39883	43302
27.40695	43395
27.41508	41781
27.42320	44638
27.43132	48125
27.43945	42705
27.44757	43207
27.45568	45009
27.46382	42247
27.47193	39440
27.48007	39510
27.48818	43938
27.49630	42010
27.50443	43167
27.51255	40524
27.52068	42968
27.52880	41516
27.53692	38899
27.54505	37277
27.55317	41012
27.56128	41348
27.56942	42752
27.57753	39858
27.58567	39541
27.59378	44079
27.60190	39153
27.61003	39509
27.61815	37387
27.62628	42394
27.63440	37162
27.64252	37996
27.65065	37713
27.65877	38305
27.66690	45889
27.67502	39359
27.68313	37942
27.69127	40779
27.69938	39083
27.70750	41519
27.71563	43116
27.72375	44290
27.73188	44058
27.74000	43153
27.74812	42326
27.75625	46317
27.76437	44502
27.77250	41980
27.78062	43440
27.78873	39806
27.79687	38687
27.80498	38912
27.81310	41640
27.82123	39680
27.82935	39943
27.83748	38053
27.84560	34949
27.85372	40744
27.86185	37290
27.86997	38744
27.87810	38049
27.88622	40820
27.89433	39514
27.90247	34566
27.91058	36550
27.91872	34393
27.92683	38852
27.93495	37100
27.94308	33196
27.95120	35166
27.95932	35000
27.96745	38109
27.97557	38001
27.98370	37963
27.99182	39404
27.99993	42548
28.00807	38490
28.01618	40440
28.02432	39132
28.03243	37556
28.04055	38265
28.04868	35466
28.05680	39618
28.06493	38645
28.07305	42379
28.08117	43341
28.08930	49836
28.09742	57928
28.10553	68997
28.11367	69873
28.12178	75390
28.12992	68928
28.13803	56608
28.14615	53105
28.15428	45519
28.16240	44663
28.17053	43588
28.17865	42428
28.18677	40991
28.19490	42825
28.20302	40706
28.21113	37377
28.21927	40701
28.22738	36563
28.23552	41395
28.24363	40943
28.25175	42772
28.25988	50618
28.26800	66012
28.27613	93915
28.28425	118941
28.29237	152176
28.30050	188727
28.30862	221235
28.31675	253267
28.32487	268968
28.33298	281045
28.34112	269208
28.34923	261521
28.35735	235960
28.36548	227333
28.37360	197937
28.38173	174017
28.38985	157095
28.39797	140174
28.40610	130253
28.41422	112015
28.42235	103264
28.43047	99353
28.43858	87123
28.44672	81939
28.45483	77935
28.46297	71113
28.47108	73134
28.47920	68741
28.48733	70408
28.49545	68024
28.50357	69684
28.51170	58444
28.51982	64694
28.52795	62295
28.53607	60964
28.54418	61521
28.55232	56597
28.56043	57778
28.56857	56522
28.57668	51840
28.58480	56730
28.59293	58775
28.60105	56229
28.60917	54284
28.61730	56289
28.62542	54900
28.63355	54266
28.64167	53471
28.64978	56005
28.65792	56476
28.66603	60126
28.67417	57088
28.68228	54411
28.69040	54810
28.69853	55180
28.70665	60798
28.71478	65627
28.72290	73101
28.73102	80161
28.73915	76515
28.74727	73415
28.75538	71222
28.76352	57823
28.77163	56473
28.77977	50264
28.78788	47313
28.79600	45242
28.80413	45134
28.81225	45567
28.82038	45271
28.82850	46542
28.83662	47643
28.84475	44462
28.85287	44003
28.86098	42754
28.86912	42887
28.87723	46316
28.88537	45492
28.89348	42978
28.90160	44502
28.90973	45063
28.91785	44816
28.92598	44228
28.93410	43395
28.94222	44038
28.95035	44243
28.95847	49647
28.96660	50304
28.97472	45367
28.98283	43386
28.99097	40990
28.99908	46332
29.00720	45755
29.01533	41638
29.02345	41658
29.03158	43512
29.03970	40090
29.04782	43623
29.05595	43914
29.06407	40012
29.07220	45838
29.08032	40672
29.08843	41260
29.09657	37366
29.10468	41411
29.11282	38639
29.12093	40572
29.12905	42927
29.13718	43339
29.14530	38733
29.15342	41222
29.16155	45729
29.16967	39654
29.17780	39996
29.18592	39064
29.19403	39678
29.20217	44632
29.21028	40233
29.21842	45068
29.22653	46712
29.23465	47116
29.24278	44547
29.25090	48854
29.25902	48658
29.26715	49713
29.27527	51853
29.28340	50999
29.29152	46828
29.29963	46838
29.30777	44450
29.31588	45414
29.32402	43395
29.33213	46318
29.34025	38983
29.34838	42845
29.35650	42571
29.36463	43472
29.37275	37551
29.38087	40027
29.38900	41059
29.39712	41776
29.40523	37599
29.41337	40708
29.42148	39344
29.42962	42638
29.43773	40281
29.44585	38999
29.45398	37264
29.46210	40684
29.47023	43443
29.47835	41338
29.48647	41663
29.49460	42021
29.50272	46309
29.51085	47019
29.51897	45432
29.52708	43725
29.53522	41540
29.54333	43215
29.55145	43447
29.55958	39439
29.56770	44871
29.57583	49227
29.58395	52763
29.59207	54165
29.60020	57547
29.60832	53749
29.61645	52246
29.62457	49398
29.63268	47404
29.64082	43483
29.64893	45499
29.65705	42642
29.66518	44213
29.67330	40004
29.68143	38669
29.68955	38268
29.69767	42162
29.70580	40735
29.71392	42165
29.72205	37955
29.73017	38369
29.73828	38723
29.74642	38907
29.75453	43879
29.76267	41688
29.77078	38613
29.77890	38946
29.78703	40546
29.79515	39059
29.80327	38387
29.81140	38391
29.81952	40263
29.82765	38041
29.83577	37261
29.84388	37395
29.85202	42674
29.86013	40108
29.86827	42040
29.87638	39678
29.88450	46924
29.89263	54368
29.90075	63512
29.90888	72957
29.91700	92081
29.92512	103797
29.93325	114576
29.94137	127041
29.94948	134737
29.95762	144217
29.96573	149974
29.97387	144390
29.98198	147815
29.99010	143269
29.99823	135760
30.00635	132740
30.01448	119147
30.02260	117773
30.03072	104417
30.03885	95127
30.04697	97845
30.05508	90299
30.06322	80791
30.07133	80293
30.07947	77953
30.08758	76487
30.09570	66913
30.10383	65107
30.11195	64371
30.12008	67115
30.12820	58446
30.13632	58966
30.14445	55633
30.15257	57666
30.16070	58946
30.16882	60036
30.17693	55275
30.18507	53523
30.19318	51760
30.20130	53390
30.20943	54549
30.21755	48145
30.22568	52629
30.23380	46879
30.24192	45798
30.25005	51338
30.25817	47042
30.26630	48774
30.27442	46789
30.28253	52289
30.29067	44409
30.29878	49964
30.30690	46277
30.31503	51186
30.32315	47203
30.33128	44680
30.33940	49720
30.34752	44652
30.35565	46067
30.36377	48109
30.37190	45393
30.38002	46379
30.38813	43898
30.39627	44364
30.40438	44793
30.41252	42445
30.42063	43209
30.42875	42304
30.43688	42502
30.44500	46922
30.45312	44309
30.46125	46605
30.46937	41338
30.47750	43721
30.48562	44771
30.49373	51871
30.50187	48998
30.50998	46848
30.51812	48424
30.52623	48004
30.53435	43089
30.54248	45457
30.55060	42065
30.55873	43987
30.56685	44090
30.57497	42054
30.58310	45745
30.59122	42518
30.59933	41782
30.60747	47208
30.61558	42537
30.62372	41870
30.63183	45307
30.63995	40926
30.64808	42707
30.65620	42633
30.66433	40512
30.67245	47726
30.68057	42881
30.68870	44788
30.69682	42975
30.70493	43715
30.71307	42469
30.72118	42194
30.72932	40536
30.73743	43212
30.74555	44747
30.75368	42346
30.76180	44460
30.76993	45140
30.77805	42581
30.78617	47619
30.79430	44873
30.80242	42109
30.81055	45376
30.81867	44679
30.82678	42477
30.83492	42851
30.84303	40297
30.85115	44337
30.85928	40500
30.86740	40497
30.87553	44718
30.88365	44000
30.89177	38412
30.89990	39288
30.90802	43950
30.91615	38699
30.92427	42640
30.93238	40930
30.94052	40535
30.94863	40085
30.95677	39353
30.96488	45820
30.97300	44550
30.98113	41626
30.98925	36226
30.99737	44408
31.00550	45766
31.01362	39434
31.02175	44470
31.02987	42828
31.03798	41899
31.04612	42594
31.05423	43649
31.06237	42987
31.07048	48170
31.07860	43590
31.08673	46613
31.09485	50304
31.10297	48148
31.11110	46101
31.11922	49654
31.12735	49279
31.13547	46868
31.14358	46871
31.15172	45239
31.15983	46613
31.16797	49749
31.17608	57343
31.18420	70119
31.19233	82942
31.20045	96835
31.20858	112581
31.21670	128639
31.22482	114045
31.23295	101457
31.24107	83708
31.24918	68525
31.25732	60812
31.26543	49032
31.27357	49857
31.28168	43566
31.28980	45455
31.29793	45813
31.30605	43839
31.31418	43816
31.32230	46042
31.33042	40297
31.33855	39029
31.34667	40778
31.35478	45572
31.36292	40671
31.37103	43949
31.37917	38573
31.38728	44186
31.39540	47539
31.40353	43789
31.41165	43846
31.41978	42273
31.42790	41629
31.43602	44225
31.44415	42073
31.45227	46829
31.46040	40356
31.46852	45961
31.47663	50120
31.48477	43781
31.49288	42438
31.50100	44285
31.50913	47215
31.51725	42145
31.52538	42256
31.53350	42362
31.54162	44541
31.54975	41792
31.55787	47677
31.56600	43293
31.57412	44607
31.58223	42571
31.59037	45581
31.59848	47158
31.60662	45363
31.61473	42159
31.62285	44694
31.63098	43563
31.63910	43127
31.64722	46552
31.65535	44061
31.66347	45037
31.67160	47687
31.67972	52249
31.68783	54270
31.69597	50255
31.70408	54301
31.71222	50150
31.72033	48440
31.72845	50333
31.73658	45066
31.74470	46487
31.75282	44254
31.76095	44393
31.76907	44091
31.77720	43813
31.78532	44163
31.79343	45350
31.80157	44376
31.80968	44996
31.81782	45646
31.82593	51130
31.83405	49268
31.84218	52214
31.85030	57072
31.85843	62646
31.86655	72222
31.87467	86318
31.88280	89037
31.89092	96877
31.89903	104234
31.90717	104104
31.91528	101630
31.92342	104652
31.93153	99884
31.93965	100018
31.94778	94925
31.95590	89581
31.96403	88249
31.97215	87412
31.98027	75992
31.98840	74079
31.99652	73024
32.00465	71355
32.01277	69222
32.02088	72064
32.02902	66159
32.03713	62223
32.04525	65095
32.05338	67628
32.06150	62009
32.06963	57367
32.07775	55931
32.08587	53581
32.09400	56584
32.10212	53713
32.11025	51561
32.11837	49488
32.12648	53739
32.13462	53482
32.14273	53654
32.15085	50944
32.15898	49387
32.16710	50596
32.17523	49657
32.18335	50114
32.19147	47984
32.19960	50198
32.20772	48209
32.21585	52183
32.22397	50535
32.23208	50268
32.24022	49414
32.24833	52035
32.25647	47982
32.26458	48504
32.27270	49306
32.28083	50094
32.28895	52540
32.29707	48411
32.30520	48769
32.31332	51052
32.32145	48220
32.32957	48934
32.33768	48598
32.34582	49976
32.35393	49913
32.36207	50848
32.37018	50927
32.37830	48193
32.38643	47236
32.39455	48635
32.40267	45954
32.41080	46535
32.41892	45614
32.42705	47847
32.43517	48030
32.44328	47832
32.45142	46561
32.45953	46468
32.46767	46150
32.47578	47859
32.48390	45665
32.49203	47018
32.50015	45627
32.50828	46336
32.51640	46759
32.52452	48238
32.53265	44764
32.54077	49547
32.54888	47676
32.55702	45575
32.56513	49694
32.57327	45339
32.58138	51649
32.58950	49042
32.59763	54964
32.60575	54693
32.61388	65624
32.62200	66936
32.63012	70997
32.63825	65281
32.64637	59498
32.65450	59529
32.66262	49543
32.67073	52012
32.67887	51843
32.68698	52048
32.69510	52865
32.70323	55099
32.71135	50676
32.71948	50507
32.72760	48781
32.73572	50809
32.74385	48187
32.75197	46463
32.76010	48134
32.76822	51868
32.77633	50329
32.78447	47876
32.79258	49929
32.80072	47030
32.80883	46447
32.81695	44231
32.82508	44658
32.83320	49134
32.84132	48670
32.84945	45712
32.85757	47068
32.86570	46836
32.87382	48983
32.88193	47320
32.89007	48484
32.89818	48587
32.90632	49014
32.91443	45168
32.92255	47837
32.93068	47726
32.93880	52346
32.94692	47495
32.95505	50093
32.96317	48170
32.97130	45235
32.97942	46889
32.98753	48302
32.99567	46297
33.00378	46347
33.01192	49335
33.02003	45394
33.02815	46076
33.03628	49062
33.04440	48302
33.05253	47717
33.06065	47095
33.06877	48984
33.07690	46985
33.08502	54957
33.09313	54024
33.10127	64640
33.10938	71841
33.11752	70637
33.12563	73951
33.13375	69744
33.14188	64845
33.15000	61178
33.15813	53447
33.16625	53569
33.17437	50824
33.18250	49231
33.19062	48109
33.19873	50403
33.20687	49295
33.21498	48071
33.22312	47750
33.23123	47763
33.23935	48583
33.24748	44697
33.25560	48235
33.26373	51579
33.27185	49663
33.27997	51405
33.28810	48083
33.29622	45616
33.30435	49020
33.31247	47167
33.32058	49277
33.32872	48540
33.33683	48082
33.34495	51057
33.35308	48790
33.36120	47242
33.36933	49138
33.37745	49216
33.38557	49138
33.39370	46146
33.40182	46804
33.40995	47334
33.41807	49204
33.42618	46448
33.43432	45839
33.44243	44430
33.45057	45778
33.45868	47895
33.46680	49624
33.47493	44628
33.48305	46892
33.49117	47463
33.49930	46908
33.50742	50198
33.51555	45325
33.52367	49280
33.53178	50035
33.53992	47532
33.54803	44881
33.55617	48544
33.56428	50152
33.57240	44114
33.58053	49884
33.58865	53074
33.59677	46045
33.60490	49854
33.61302	47688
33.62115	45092
33.62927	47070
33.63738	49721
33.64552	48351
33.65363	54663
33.66177	52027
33.66988	49658
33.67800	48066
33.68613	48903
33.69425	44754
33.70238	45574
33.71050	50877
33.71862	46031
33.72675	46276
33.73487	49367
33.74298	45963
33.75112	48890
33.75923	51143
33.76737	45521
33.77548	47166
33.78360	52773
33.79173	52563
33.79985	50854
33.80798	51525
33.81610	49715
33.82422	51318
33.83235	52231
33.84047	51334
33.84860	54433
33.85672	48914
33.86483	58659
33.87297	54761
33.88108	56525
33.88920	55700
33.89733	57149
33.90545	55377
33.91358	54295
33.92170	56633
33.92982	60687
33.93795	59046
33.94607	57441
33.95420	60359
33.96232	60834
33.97043	59763
33.97857	63250
33.98668	66246
33.99480	60584
34.00293	61013
34.01105	59859
34.01918	58986
34.02730	60395
34.03542	59606
34.04355	59129
34.05167	59032
34.05980	58859
34.06792	54570
34.07603	56385
34.08417	58682
34.09228	57039
34.10042	56988
34.10853	56895
34.11665	53768
34.12478	55401
34.13290	56334
34.14102	58664
34.14915	54627
34.15727	57220
34.16540	54955
34.17352	57706
34.18163	57163
34.18977	52567
34.19788	52669
34.20602	54043
34.21413	50305
34.22225	51606
34.23038	54798
34.23850	53901
34.24662	53672
34.25475	50499
34.26287	56876
34.27100	53376
34.27912	51429
34.28723	50287
34.29537	53839
34.30348	54572
34.31162	57175
34.31973	53274
34.32785	54072
34.33598	58728
34.34410	54216
34.35223	55836
34.36035	53112
34.36847	54843
34.37660	49541
34.38472	56328
34.39283	54003
34.40097	57354
34.40908	50320
34.41722	53401
34.42533	55315
34.43345	53654
34.44158	54145
34.44970	56215
34.45783	63459
34.46595	67468
34.47407	81242
34.48220	87716
34.49032	100252
34.49845	109466
34.50657	107099
34.51468	110690
34.52282	107015
34.53093	106802
34.53905	100096
34.54718	92090
34.55530	91948
34.56343	82242
34.57155	79539
34.57967	75875
34.58780	73075
34.59592	73323
34.60405	72728
34.61217	71472
34.62028	68787
34.62842	67284
34.63653	64782
34.64465	68540
34.65278	66267
34.66090	65739
34.66903	69980
34.67715	72213
34.68527	67467
34.69340	65672
34.70152	62384
34.70965	63870
34.71777	67570
34.72588	66451
34.73402	62071
34.74213	62252
34.75027	64504
34.75838	63993
34.76650	71657
34.77463	67337
34.78275	63668
34.79087	59176
34.79900	63922
34.80712	61959
34.81525	62897
34.82337	65672
34.83148	62748
34.83962	61370
34.84773	63298
34.85587	64496
34.86398	64719
34.87210	64755
34.88023	62669
34.88835	68477
34.89648	61541
34.90460	61414
34.91272	64905
34.92085	64796
34.92897	67956
34.93708	63863
34.94522	66873
34.95333	67139
34.96147	70457
34.96958	61991
34.97770	63017
34.98583	57981
34.99395	61213
35.00208	62655
35.01020	58848
35.01832	57624
35.02645	61963
35.03457	62686
35.04268	60295
35.05082	60817
35.05893	59626
35.06707	60509
35.07518	61886
35.08330	62626
35.09143	60825
35.09955	60782
35.10768	62334
35.11580	58019
35.12392	62106
35.13205	63346
35.14017	61486
35.14830	66732
35.15642	64425
35.16453	64343
35.17267	62598
35.18078	61766
35.18890	67117
35.19703	63928
35.20515	66123
35.21328	61367
35.22140	64517
35.22952	63984
35.23765	63768
35.24577	59871
35.25390	68894
35.26202	67043
35.27013	67197
35.27827	62232
35.28638	64969
35.29452	60020
35.30263	66474
35.31075	62343
35.31888	63248
35.32700	63533
35.33512	58839
35.34325	56416
35.35137	61283
35.35950	63144
35.36762	61326
35.37573	66423
35.38387	65920
35.39198	62640
35.40012	63802
35.40823	64886
35.41635	69229
35.42448	60863
35.43260	66192
35.44072	64740
35.44885	66554
35.45697	71012
35.46510	71799
35.47322	70775
35.48133	69284
35.48947	71026
35.49758	67174
35.50572	67116
35.51383	63050
35.52195	65570
35.53008	64071
35.53820	68034
35.54633	62134
35.55445	64960
35.56257	62905
35.57070	68824
35.57882	69789
35.58693	68531
35.59507	63568
35.60318	62815
35.61132	71869
35.61943	74204
35.62755	72361
35.63568	71668
35.64380	69223
35.65193	68147
35.66005	70173
35.66817	67607
35.67630	66743
35.68442	70808
35.69253	65112
35.70067	64785
35.70878	63944
35.71692	68440
35.72503	68952
35.73315	70879
35.74128	65893
35.74940	58213
35.75753	61861
35.76565	60824
35.77377	65897
35.78190	63430
35.79002	68847
35.79815	66767
35.80627	67794
35.81438	68203
35.82252	64148
35.83063	72048
35.83875	67930
35.84688	68437
35.85500	64086
35.86313	65968
35.87125	64469
35.87937	69969
35.88750	65856
35.89562	67751
35.90375	68208
35.91187	63746
35.91998	67556
35.92812	67214
35.93623	65792
35.94437	67266
35.95248	64164
35.96060	66916
35.96873	68278
35.97685	65917
35.98497	74176
35.99310	74343
36.00122	67450
36.00935	71884
36.01747	69661
36.02558	73722
36.03372	71924
36.04183	73332
36.04997	70690
36.05808	69921
36.06620	70978
36.07433	68031
36.08245	67561
36.09057	67522
36.09870	67862
36.10682	73124
36.11495	68677
36.12307	67601
36.13118	67260
36.13932	65750
36.14743	73265
36.15557	69750
36.16368	70258
36.17180	66742
36.17993	62954
36.18805	66548
36.19618	70364
36.20430	70492
36.21242	69692
36.22055	70489
36.22867	72565
36.23678	70043
36.24492	79325
36.25303	88597
36.26117	89544
36.26928	100713
36.27740	93563
36.28553	92220
36.29365	82910
36.30178	79248
36.30990	71120
36.31802	74293
36.32615	74598
36.33427	72636
36.34240	69466
36.35052	71036
36.35863	70370
36.36677	70456
36.37488	69552
36.38300	67990
36.39113	72424
36.39925	75910
36.40738	74267
36.41550	70787
36.42362	69788
36.43175	78154
36.43987	67027
36.44800	67168
36.45612	72499
36.46423	70892
36.47237	71980
36.48048	69792
36.48860	67541
36.49673	70031
36.50485	75300
36.51298	69251
36.52110	72973
36.52922	72252
36.53735	77393
36.54547	75895
36.55360	71486
36.56172	67173
36.56983	71312
36.57797	74119
36.58608	71357
36.59422	74476
36.60233	73290
36.61045	75364
36.61858	70377
36.62670	71610
36.63482	76540
36.64295	73298
36.65107	73987
36.65920	74219
36.66732	72110
36.67543	74049
36.68357	73242
36.69168	74564
36.69982	72841
36.70793	74629
36.71605	77227
36.72418	75234
36.73230	72871
36.74042	76656
36.74855	77223
36.75667	76261
36.76480	73009
36.77292	74230
36.78103	75610
36.78917	70387
36.79728	77382
36.80542	74341
36.81353	73810
36.82165	74561
36.82978	77003
36.83790	76925
36.84603	73170
36.85415	73034
36.86227	75149
36.87040	79407
36.87852	73407
36.88663	79846
36.89477	78591
36.90288	77915
36.91102	74117
36.91913	78422
36.92725	78536
36.93538	80836
36.94350	78502
36.95163	78727
36.95975	78502
36.96787	79330
36.97600	80944
36.98412	80211
36.99225	89279
37.00037	95936
37.00848	103219
37.01662	117714
37.02473	137875
37.03285	132882
37.04098	130328
37.04910	122050
37.05723	110762
37.06535	96861
37.07347	91585
37.08160	81040
37.08972	84675
37.09785	82234
37.10597	77813
37.11408	79743
37.12222	81410
37.13033	79283
37.13845	80745
37.14658	84997
37.15470	86692
37.16283	80037
37.17095	82507
37.17907	76021
37.18720	87244
37.19532	80319
37.20345	86557
37.21157	80714
37.21968	80537
37.22782	82221
37.23593	85145
37.24407	84026
37.25218	86882
37.26030	93314
37.26843	95188
37.27655	99838
37.28467	109317
37.29280	118483
37.30092	128251
37.30905	128217
37.31717	133249
37.32528	120392
37.33342	131279
37.34153	117164
37.34967	110989
37.35778	106418
37.36590	109193
37.37403	104881
37.38215	105467
37.39028	104130
37.39840	95862
37.40652	94928
37.41465	91668
37.42277	91247
37.43088	99559
37.43902	96124
37.44713	98896
37.45527	93782
37.46338	93701
37.47150	89944
37.47963	91334
37.48775	88280
