Z:\data\JTB-E02\BACandBLUE\JTB-E18-007-09.D Fri Apr 12 11:54:25 2019
Start of data points
2.09520,125623
2.10332,126782
2.11145,123106
2.11957,128577
2.12770,121435
2.13582,117340
2.14393,121632
2.15207,119543
2.16018,120999
2.16830,121721
2.17643,119907
2.18455,117923
2.19268,119977
2.20080,114582
2.20892,117143
2.21705,111903
2.22517,113359
2.23330,114826
2.24142,109677
2.24953,112110
2.25767,117804
2.26578,117904
2.27390,351330
2.28203,1638388
2.29015,2015531
2.29828,965166
2.30640,566999
2.31452,461249
2.32265,414771
2.33077,377772
2.33890,326278
2.34702,308309
2.35513,275878
2.36327,260937
2.37138,259592
2.37952,234975
2.38763,239510
2.39575,221793
2.40388,215579
2.41200,216418
2.42012,209762
2.42825,200611
2.43637,198060
2.44450,197629
2.45262,197081
2.46073,191178
2.46887,185074
2.47698,180890
2.48512,178321
2.49323,186304
2.50135,190521
2.50948,186091
2.51760,179597
2.52572,171201
2.53385,174159
2.54197,172514
2.55010,167927
2.55822,201960
2.56633,346180
2.57447,429942
2.58258,342487
2.59072,284199
2.59883,261898
2.60695,436485
2.61508,1744737
2.62320,2806661
2.63133,1837576
2.63945,1046812
2.64757,715954
2.65570,535769
2.66382,415549
2.67193,352991
2.68007,307936
2.68818,281323
2.69632,258738
2.70443,234383
2.71255,226645
2.72068,214927
2.72880,204379
2.73693,196395
2.74505,190350
2.75317,189020
2.76130,184521
2.76942,184164
2.77755,189136
2.78567,261018
2.79378,472671
2.80192,511940
2.81003,375146
2.81815,315774
2.82628,299734
2.83440,275392
2.84253,259215
2.85065,229602
2.85877,212055
2.86690,214790
2.87502,202386
2.88315,185367
2.89127,187730
2.89938,191003
2.90752,185522
2.91563,178979
2.92377,173918
2.93188,171083
2.94000,169704
2.94813,164018
2.95625,168661
2.96437,195077
2.97250,255707
2.98062,251949
2.98875,217033
2.99687,212335
3.00498,224176
3.01312,222292
3.02123,201867
3.02937,188591
3.03748,183789
3.04560,188171
3.05373,180266
3.06185,190745
3.06997,201042
3.07810,250295
3.08622,1007108
3.09435,5005062
3.10247,1.228961E+07
3.11058,2.061066E+07
3.11872,2.605124E+07
3.12683,2.314829E+07
3.13497,1.696612E+07
3.14308,1.288863E+07
3.15120,1.024333E+07
3.15933,8329967
3.16745,6777026
3.17558,5679331
3.18370,4804277
3.19182,4283319
3.19995,4234205
3.20807,3965755
3.21618,3354026
3.22432,2860786
3.23243,2474648
3.24057,2216877
3.24868,1966198
3.25680,1793595
3.26493,1618857
3.27305,1453842
3.28118,1343820
3.28930,1264801
3.29742,1406509
3.30555,2214742
3.31367,3999967
3.32178,5570657
3.32992,5661496
3.33803,4880010
3.34617,4129874
3.35428,3547267
3.36240,3109200
3.37053,2788812
3.37865,2506840
3.38678,2296008
3.39490,2122897
3.40302,1947042
3.41115,1809831
3.41927,1678689
3.42740,1600267
3.43552,1483709
3.44363,1408553
3.45177,1332570
3.45988,1280887
3.46800,1177361
3.47613,1130522
3.48425,1067584
3.49238,1022247
3.50050,974003
3.50862,944266
3.51675,895742
3.52487,875919
3.53300,847797
3.54112,828441
3.54923,803892
3.55737,796718
3.56548,746517
3.57362,756302
3.58173,855352
3.58985,884251
3.59798,813178
3.60610,754490
3.61422,699601
3.62235,685872
3.63047,678047
3.63860,657792
3.64672,635952
3.65483,619171
3.66297,660776
3.67108,1381849
3.67922,4551104
3.68733,9263898
3.69545,1.025408E+07
3.70358,7478946
3.71170,5205291
3.71982,4046031
3.72795,3397415
3.73607,2977650
3.74420,2610743
3.75232,2361568
3.76043,2168244
3.76857,1984063
3.77668,1831581
3.78482,1723992
3.79293,1607774
3.80105,1545221
3.80918,1720020
3.81730,2500077
3.82543,3452895
3.83355,3499105
3.84167,2763100
3.84980,2257789
3.85792,1962883
3.86603,1765770
3.87417,1616553
3.88228,1501573
3.89042,1399252
3.89853,1306171
3.90665,1241110
3.91478,1164223
3.92290,1145695
3.93103,1187896
3.93915,1258609
3.94727,1433968
3.95540,2973816
3.96352,8738788
3.97165,1.830244E+07
3.97977,2.354259E+07
3.98788,2.100404E+07
3.99602,1.512115E+07
4.00413,1.488262E+07
4.01225,2.84107E+07
4.02038,5.022038E+07
4.02850,6.369762E+07
4.03663,6.185807E+07
4.04475,4.57089E+07
4.05287,2.83583E+07
4.06100,1.861312E+07
4.06912,1.367914E+07
4.07725,1.051952E+07
4.08537,8557022
4.09348,7034358
4.10162,5998681
4.10973,5105601
4.11785,4471559
4.12598,3985628
4.13410,3551093
4.14223,3268996
4.15035,2984155
4.15847,2797010
4.16660,2604093
4.17472,2428104
4.18285,2309189
4.19097,2223000
4.19908,2076037
4.20722,1936827
4.21533,2175915
4.22347,3948659
4.23158,8477321
4.23970,1.355789E+07
4.24783,1.541472E+07
4.25595,1.285768E+07
4.26407,8753684
4.27220,6096930
4.28032,4544050
4.28845,3552628
4.29657,2893453
4.30468,2459148
4.31282,2142152
4.32093,1889500
4.32907,1738042
4.33718,1572965
4.34530,1452270
4.35343,1379925
4.36155,1315026
4.36967,1282173
4.37780,1257596
4.38592,1228308
4.39405,1173345
4.40217,1115021
4.41028,1061365
4.41842,1021577
4.42653,966729
4.43467,926334
4.44278,904627
4.45090,867550
4.45903,856722
4.46715,826241
4.47528,819158
4.48340,796504
4.49152,782403
4.49965,768041
4.50777,758607
4.51588,725095
4.52402,724238
4.53213,701069
4.54027,695696
4.54838,675100
4.55650,671130
4.56463,669602
4.57275,633920
4.58088,629674
4.58900,633114
4.59712,618913
4.60525,599134
4.61337,605732
4.62150,582588
4.62962,607444
4.63773,681203
4.64587,781983
4.65398,835254
4.66210,815183
4.67023,730475
4.67835,676552
4.68648,642833
4.69460,629395
4.70272,610777
4.71085,588011
4.71897,556992
4.72710,548549
4.73522,536710
4.74333,518142
4.75147,515321
4.75958,498870
4.76770,504016
4.77583,502328
4.78395,489087
4.79208,526367
4.80020,687847
4.80832,1024779
4.81645,1339228
4.82457,1329621
4.83270,1104435
4.84082,936566
4.84893,852943
4.85707,818859
4.86518,775267
4.87332,728850
4.88143,693339
4.88955,661565
4.89768,619034
4.90580,585888
4.91392,554907
4.92205,545645
4.93017,545957
4.93830,576456
4.94642,768486
4.95453,1338248
4.96267,2471570
4.97078,3664176
4.97892,4305545
4.98703,3954323
4.99515,3224943
5.00328,2585278
5.01140,2101097
5.01953,1801629
5.02765,1597660
5.03577,1489829
5.04390,1441920
5.05202,1392901
5.06013,1341184
5.06827,1252206
5.07638,1132917
5.08452,1081230
5.09263,1003088
5.10075,960468
5.10888,933086
5.11700,887053
5.12513,835672
5.13325,814511
5.14137,786534
5.14950,762743
5.15762,759982
5.16573,758574
5.17387,782795
5.18198,777587
5.19012,763057
5.19823,726218
5.20635,738906
5.21448,744496
5.22260,731771
5.23073,714664
5.23885,691658
5.24697,662075
5.25510,641599
5.26322,613960
5.27135,583992
5.27947,553035
5.28758,546789
5.29572,535236
5.30383,525551
5.31195,526392
5.32008,505305
5.32820,507260
5.33633,522509
5.34445,576927
5.35257,594026
5.36070,572108
5.36882,560191
5.37695,520002
5.38507,499032
5.39318,491921
5.40132,512986
5.40943,500062
5.41755,482099
5.42568,486055
5.43380,468635
5.44193,444994
5.45005,447810
5.45817,452859
5.46630,444013
5.47442,440621
5.48255,429718
5.49067,416658
5.49878,423765
5.50692,404884
5.51503,395023
5.52317,404482
5.53128,401863
5.53940,404272
5.54753,389321
5.55565,383438
5.56377,408171
5.57190,454537
5.58002,492150
5.58815,500408
5.59627,506513
5.60438,458229
5.61252,413566
5.62063,403886
5.62877,390945
5.63688,396698
5.64500,379801
5.65313,371015
5.66125,381044
5.66938,365392
5.67750,372623
5.68562,380553
5.69375,400365
5.70187,431414
5.70998,421961
5.71812,404608
5.72623,383339
5.73437,361146
5.74248,363042
5.75060,354162
5.75873,352998
5.76685,347152
5.77498,340892
5.78310,347089
5.79122,323860
5.79935,334561
5.80747,340580
5.81558,335452
5.82372,331351
5.83183,337233
5.83997,354716
5.84808,386975
5.85620,389285
5.86433,386132
5.87245,364342
5.88058,345654
5.88870,334746
5.89682,330336
5.90495,306903
5.91307,287163
5.92120,265783
5.92932,251673
5.93743,261350
5.94557,268848
5.95368,273694
5.96180,303547
5.96993,342461
5.97805,363741
5.98618,384437
5.99430,417088
6.00242,424753
6.01055,430130
6.01867,437009
6.02680,479058
6.03492,504737
6.04303,474014
6.05117,410192
6.05928,353439
6.06742,305118
6.07553,286959
6.08365,270488
6.09178,256373
6.09990,248811
6.10802,251759
6.11615,248731
6.12427,252485
6.13240,266566
6.14052,322837
6.14863,408355
6.15677,468830
6.16488,472589
6.17302,431958
6.18113,370843
6.18925,345574
6.19738,326113
6.20550,299278
6.21362,287254
6.22175,276734
6.22987,267188
6.23800,259447
6.24612,261213
6.25423,270007
6.26237,276388
6.27048,270768
6.27862,267959
6.28673,261074
6.29485,254318
6.30298,256960
6.31110,249538
6.31923,252046
6.32735,283646
6.33547,372729
6.34360,496289
6.35172,575718
6.35983,569048
6.36797,480320
6.37608,386736
6.38422,335778
6.39233,317849
6.40045,300844
6.40858,286176
6.41670,279691
6.42483,268609
6.43295,260754
6.44107,247345
6.44920,238622
6.45732,242142
6.46545,239406
6.47357,239475
6.48168,225981
6.48982,231847
6.49793,224996
6.50605,231059
6.51418,228809
6.52230,221969
6.53043,228975
6.53855,219157
6.54667,224351
6.55480,223747
6.56292,228314
6.57105,228973
6.57917,252593
6.58728,281318
6.59542,277679
6.60353,266424
6.61165,255148
6.61978,238386
6.62790,237224
6.63603,219989
6.64415,227655
6.65227,223395
6.66040,235464
6.66852,264198
6.67665,302273
6.68477,312197
6.69288,290595
6.70102,260795
6.70913,256161
6.71727,243502
6.72538,231638
6.73350,227653
6.74163,223270
6.74975,234802
6.75787,222162
6.76600,225959
6.77412,220070
6.78225,221806
6.79037,215835
6.79848,220995
6.80662,237662
6.81473,256778
6.82287,261508
6.83098,258329
6.83910,244623
6.84723,233831
6.85535,245061
6.86347,271342
6.87160,297620
6.87972,290490
6.88785,257160
6.89597,209267
6.90408,183424
6.91222,163377
6.92033,152277
6.92847,144502
6.93658,144082
6.94470,147596
6.95283,144810
6.96095,150815
6.96908,159965
6.97720,156877
6.98532,164852
6.99345,168174
7.00157,165262
7.00968,156188
7.01782,154605
7.02593,155349
7.03407,154852
7.04218,150997
7.05030,152914
7.05843,149711
7.06655,155413
7.07468,151464
7.08280,149065
7.09092,145877
7.09905,140338
7.10717,143953
7.11530,138409
7.12342,136520
7.13153,132397
7.13967,131969
7.14778,154512
7.15590,197619
7.16403,249398
7.17215,304279
7.18028,332709
7.18840,311951
7.19652,273602
7.20465,235862
7.21277,236405
7.22090,303866
7.22902,559277
7.23713,1118516
7.24527,1802582
7.25338,2074458
7.26150,1866990
7.26963,1286998
7.27775,791698
7.28588,537864
7.29400,390162
7.30212,306728
7.31025,248392
7.31837,209785
7.32650,193637
7.33462,191958
7.34273,190729
7.35087,178993
7.35898,175855
7.36712,168422
7.37523,168281
7.38335,167267
7.39148,169938
7.39960,165409
7.40772,158902
7.41585,154743
7.42397,163605
7.43210,159098
7.44022,150199
7.44833,155471
7.45647,148987
7.46458,154578
7.47272,153395
7.48083,152224
7.48895,147243
7.49708,141336
7.50520,147322
7.51333,141441
7.52145,162876
7.52957,198133
7.53770,275011
7.54582,391046
7.55393,535966
7.56207,624962
7.57018,643070
7.57832,622959
7.58643,507009
7.59455,404745
7.60268,308411
7.61080,255150
7.61893,218788
7.62705,193471
7.63517,178289
7.64330,158103
7.65142,159167
7.65953,159234
7.66767,149227
7.67578,141634
7.68392,138879
7.69203,138911
7.70015,141625
7.70828,137619
7.71640,138186
7.72453,142519
7.73265,131262
7.74077,130633
7.74890,131483
7.75702,122596
7.76515,134963
7.77327,131485
7.78138,145812
7.78952,154663
7.79763,160427
7.80575,168510
7.81388,183487
7.82200,169785
7.83013,170191
7.83825,158554
7.84637,147802
7.85450,138258
7.86262,142868
7.87075,145590
7.87887,153486
7.88698,151784
7.89512,165350
7.90323,159611
7.91135,158375
7.91948,149622
7.92760,144332
7.93573,162449
7.94385,167635
7.95197,180781
7.96010,197870
7.96822,208222
7.97635,210531
7.98447,224737
7.99258,207655
8.00072,199720
8.00883,179636
8.01697,169369
8.02508,158251
8.03320,155499
8.04133,162918
8.04945,163912
8.05757,166648
8.06570,160543
8.07382,152675
8.08195,147272
8.09007,146038
8.09818,142525
8.10632,145945
8.11443,134423
8.12257,137558
8.13068,132552
8.13880,130046
8.14693,144271
8.15505,150238
8.16318,159145
8.17130,154501
8.17942,143775
8.18755,144334
8.19567,138168
8.20378,131181
8.21192,134369
8.22003,132416
8.22817,130558
8.23628,126556
8.24440,132152
8.25253,130614
8.26065,124779
8.26878,126049
8.27690,124996
8.28502,130586
8.29315,126210
8.30127,119616
8.30940,121369
8.31752,127431
8.32563,125225
8.33377,126919
8.34188,130212
8.35000,117921
8.35813,123697
8.36625,135180
8.37438,142259
8.38250,162110
8.39062,177987
8.39875,177712
8.40687,164011
8.41500,160562
8.42312,148415
8.43123,122878
8.43937,126282
8.44748,125214
8.45560,121917
8.46373,119319
8.47185,120982
8.47998,112528
8.48810,113409
8.49622,116247
8.50435,115095
8.51247,118965
8.52060,142979
8.52872,203138
8.53683,424220
8.54497,955973
8.55308,1809557
8.56122,2510209
8.56933,2699797
8.57745,2244868
8.58558,1467208
8.59370,859089
8.60182,534601
8.60995,410586
8.61807,371776
8.62620,338509
8.63432,309863
8.64243,275567
8.65057,247215
8.65868,221956
8.66682,205454
8.67493,199518
8.68305,187813
8.69118,185697
8.69930,175749
8.70742,174853
8.71555,170784
8.72367,167720
8.73180,165866
8.73992,167051
8.74803,159286
8.75617,172096
8.76428,210807
8.77242,346977
8.78053,599725
8.78865,927704
8.79678,1177440
8.80490,1195680
8.81303,1063322
8.82115,810935
8.82927,607737
8.83740,462936
8.84552,385714
8.85363,390952
8.86177,399966
8.86988,401758
8.87802,387862
8.88613,373218
8.89425,361469
8.90238,334403
8.91050,317557
8.91863,308776
8.92675,291432
8.93487,290095
8.94300,292203
8.95112,301796
8.95925,298238
8.96737,289441
8.97548,278512
8.98362,266312
8.99173,255968
8.99985,250038
9.00798,231877
9.01610,230514
9.02423,225976
9.03235,211763
9.04047,204364
9.04860,196202
9.05672,190533
9.06485,190032
9.07297,194640
9.08108,180366
9.08922,185647
9.09733,187475
9.10545,182631
9.11358,197378
9.12170,199357
9.12983,203012
9.13795,199503
9.14607,192703
9.15420,190520
9.16232,181500
9.17045,177122
9.17857,178155
9.18668,173468
9.19482,169746
9.20293,168043
9.21107,172760
9.21918,176026
9.22730,160388
9.23543,161069
9.24355,163666
9.25167,158621
9.25980,159747
9.26792,152231
9.27605,152981
9.28417,146969
9.29228,154134
9.30042,145492
9.30853,144682
9.31667,144154
9.32478,143931
9.33290,140931
9.34103,137594
9.34915,140151
9.35728,131743
9.36540,131287
9.37352,134897
9.38165,131282
9.38977,133343
9.39788,130047
9.40602,136278
9.41413,134232
9.42227,143852
9.43038,161307
9.43850,175193
9.44663,183220
9.45475,188367
9.46288,185596
9.47100,163253
9.47912,154181
9.48725,144953
9.49537,130966
9.50348,132647
9.51162,129514
9.51973,138657
9.52787,151202
9.53598,156081
9.54410,148638
9.55223,148287
9.56035,139530
9.56848,131717
9.57660,143378
9.58472,150004
9.59285,157222
9.60097,156764
9.60910,156223
9.61722,131439
9.62533,113892
9.63347,102712
9.64158,96622
9.64970,94138
9.65783,91025
9.66595,89813
9.67408,87732
9.68220,88653
9.69032,87207
9.69845,90395
9.70657,85371
9.71470,89978
9.72282,87065
9.73093,83772
9.73907,85513
9.74718,83688
9.75530,90591
9.76343,80523
9.77155,79823
9.77968,82587
9.78780,78857
9.79592,76341
9.80405,80326
9.81217,79665
9.82030,77355
9.82842,80084
9.83653,78739
9.84467,77500
9.85278,76486
9.86092,80566
9.86903,88103
9.87715,88525
9.88528,91674
9.89340,88684
9.90152,86239
9.90965,81742
9.91777,80887
9.92590,80561
9.93402,83900
9.94213,115831
9.95027,163725
9.95838,219473
9.96652,282110
9.97463,292199
9.98275,267846
9.99088,232157
9.99900,206102
10.00713,191349
10.01525,186929
10.02337,177249
10.03150,173745
10.03962,147756
10.04773,138747
10.05587,128145
10.06398,123266
10.07212,115262
10.08023,118859
10.08835,118789
10.09648,117436
10.10460,112881
10.11273,113461
10.12085,111930
10.12897,109478
10.13710,99591
10.14522,102687
10.15333,98853
10.16147,101392
10.16958,96985
10.17772,99839
10.18583,91845
10.19395,93624
10.20208,91394
10.21020,94139
10.21833,93476
10.22645,86878
10.23457,85238
10.24270,93460
10.25082,95428
10.25895,108079
10.26707,133046
10.27518,242935
10.28332,519366
10.29143,1059655
10.29955,1831579
10.30768,2675967
10.31580,3732455
10.32393,5241020
10.33205,7624572
10.34017,9935835
10.34830,1.128651E+07
10.35642,1.023069E+07
10.36455,7763749
10.37267,5370439
10.38078,3835024
10.38892,3005733
10.39703,2396795
10.40517,1844872
10.41328,1432369
10.42140,1111669
10.42953,929510
10.43765,802313
10.44577,732821
10.45390,685386
10.46202,653488
10.47015,610621
10.47827,575123
10.48638,540346
10.49452,498403
10.50263,460105
10.51077,442917
10.51888,424573
10.52700,396714
10.53513,379116
10.54325,368295
10.55137,359927
10.55950,347746
10.56762,333966
10.57575,319929
10.58387,312055
10.59198,294996
10.60012,286578
10.60823,275614
10.61637,266627
10.62448,260387
10.63260,249458
10.64073,234281
10.64885,226010
10.65698,219177
10.66510,226513
10.67322,211679
10.68135,209219
10.68947,205296
10.69758,199320
10.70572,193998
10.71383,184697
10.72197,193240
10.73008,191593
10.73820,181975
10.74633,177570
10.75445,179351
10.76258,169474
10.77070,176654
10.77882,173236
10.78695,167300
10.79507,159115
10.80320,157656
10.81132,154268
10.81943,152666
10.82757,150668
10.83568,144666
10.84380,145515
10.85193,138515
10.86005,140928
10.86818,136556
10.87630,132093
10.88442,136591
10.89255,132712
10.90067,127745
10.90880,128803
10.91692,123603
10.92503,125034
10.93317,126197
10.94128,125202
10.94940,121154
10.95753,120815
10.96565,121253
10.97378,124225
10.98190,120742
10.99002,122352
10.99815,117483
11.00627,113970
11.01440,119027
11.02252,108194
11.03063,107391
11.03877,110665
11.04688,103138
11.05502,101805
11.06313,103275
11.07125,106388
11.07938,103744
11.08750,105424
11.09562,109579
11.10375,101284
11.11187,104329
11.12000,105277
11.12812,99289
11.13623,95514
11.14437,99468
11.15248,94577
11.16062,99207
11.16873,96034
11.17685,98525
11.18498,98105
11.19310,106772
11.20122,102361
11.20935,99719
11.21747,93387
11.22560,98457
11.23372,94012
11.24183,90615
11.24997,84731
11.25808,81361
11.26622,80388
11.27433,70955
11.28245,75462
11.29058,77635
11.29870,84492
11.30683,88047
11.31495,110424
11.32307,144304
11.33120,206894
11.33932,272681
11.34743,312165
11.35557,337762
11.36368,315095
11.37182,261539
11.37993,199217
11.38805,162616
11.39618,145903
11.40430,134982
11.41243,136991
11.42055,132622
11.42867,134655
11.43680,126422
11.44492,129615
11.45305,114887
11.46117,113264
11.46928,110978
11.47742,110407
11.48553,115933
11.49365,134974
11.50178,156308
11.50990,175328
11.51803,173856
11.52615,161851
11.53427,148255
11.54240,135202
11.55052,120662
11.55865,124148
11.56677,125194
11.57488,113144
11.58302,107991
11.59113,103841
11.59925,110054
11.60738,122982
11.61550,140262
11.62363,171229
11.63175,186825
11.63987,182758
11.64800,166284
11.65612,143338
11.66425,126723
11.67237,119887
11.68048,114569
11.68862,106048
11.69673,106594
11.70487,103531
11.71298,103523
11.72110,98257
11.72923,102180
11.73735,91514
11.74547,92784
11.75360,101576
11.76172,93152
11.76985,90132
11.77797,98834
11.78608,89121
11.79422,93107
11.80233,94531
11.81047,91449
11.81858,90275
11.82670,94272
11.83483,90788
11.84295,95287
11.85108,103699
11.85920,100252
11.86732,91213
11.87545,85891
11.88357,86058
11.89168,78545
11.89982,86393
11.90793,94764
11.91607,134354
11.92418,192925
11.93230,251581
11.94043,309986
11.94855,309421
11.95668,281351
11.96480,232197
11.97292,196154
11.98105,247610
11.98917,484116
11.99728,1156645
12.00542,2261691
12.01353,3463257
12.02167,4494330
12.02978,5053306
12.03790,4314128
12.04603,3623068
12.05415,2612749
12.06228,1975114
12.07040,1609052
12.07852,1389413
12.08665,1250966
12.09477,1139577
12.10290,1074390
12.11102,1055108
12.11913,999777
12.12727,935317
12.13538,899263
12.14350,869697
12.15163,815653
12.15975,785600
12.16788,787365
12.17600,724372
12.18412,715507
12.19225,689517
12.20037,647942
12.20850,637498
12.21662,604937
12.22473,580689
12.23287,566840
12.24098,573368
12.24910,543016
12.25723,523528
12.26535,518182
12.27348,488256
12.28160,483205
12.28972,496467
12.29785,485594
12.30597,456049
12.31410,445703
12.32222,430440
12.33033,417762
12.33847,432276
12.34658,386845
12.35472,390944
12.36283,390675
12.37095,395059
12.37908,389273
12.38720,392115
12.39532,409757
12.40345,429167
12.41157,446211
12.41970,456297
12.42782,426100
12.43593,419901
12.44407,390695
12.45218,375594
12.46032,368510
12.46843,341933
12.47655,330493
12.48468,331554
12.49280,323320
12.50093,312470
12.50905,307132
12.51717,307821
12.52530,304030
12.53342,281940
12.54153,282726
12.54967,301241
12.55778,321966
12.56592,338984
12.57403,369373
12.58215,372983
12.59028,348449
12.59840,329675
12.60653,319607
12.61465,284492
12.62277,268553
12.63090,273265
12.63902,274983
12.64715,255290
12.65527,241624
12.66338,229322
12.67152,220358
12.67963,189796
12.68775,171535
12.69588,147702
12.70400,130193
12.71213,119619
12.72025,117284
12.72837,120428
12.73650,113844
12.74462,123877
12.75275,125672
12.76087,117959
12.76898,111465
12.77712,107354
12.78523,106236
12.79335,102609
12.80148,99241
12.80960,98050
12.81773,96473
12.82585,93342
12.83397,93840
12.84210,91000
12.85022,89366
12.85835,90002
12.86647,89704
12.87458,84102
12.88272,83332
12.89083,87954
12.89897,83913
12.90708,91203
12.91520,86283
12.92333,86724
12.93145,82665
12.93957,85236
12.94770,94063
12.95582,137512
12.96395,259540
12.97207,595304
12.98018,1210017
12.98832,1913179
12.99643,2249217
13.00457,2192760
13.01268,1695320
13.02080,1136400
13.02893,698231
13.03705,460061
13.04517,334375
13.05330,272865
13.06142,232115
13.06955,209170
13.07767,190292
13.08578,173027
13.09392,165679
13.10203,155193
13.11017,143171
13.11828,135351
13.12640,130657
13.13453,129215
13.14265,124155
13.15078,114331
13.15890,112699
13.16702,106235
13.17515,112579
13.18327,109552
13.19138,111701
13.19952,115378
13.20763,109634
13.21577,118237
13.22388,114839
13.23200,110025
13.24013,116455
13.24825,108957
13.25638,105203
13.26450,97488
13.27262,94404
13.28075,92530
13.28887,89851
13.29700,91067
13.30512,96621
13.31323,86032
13.32137,84908
13.32948,84083
13.33760,79267
13.34573,83210
13.35385,80684
13.36198,86572
13.37010,78830
13.37822,79058
13.38635,74761
13.39447,79396
13.40260,78325
13.41072,78894
13.41883,79826
13.42697,80140
13.43508,78123
13.44320,74298
13.45133,75326
13.45945,75907
13.46758,78299
13.47570,73686
13.48382,73881
13.49195,76448
13.50007,73413
13.50820,71994
13.51632,80857
13.52443,80292
13.53257,78069
13.54068,76850
13.54882,71805
13.55693,74125
13.56505,76394
13.57318,75664
13.58130,75190
13.58942,71919
13.59755,73205
13.60567,75989
13.61380,82497
13.62192,85225
13.63003,81682
13.63817,84634
13.64628,83358
13.65442,72419
13.66253,74794
13.67065,72581
13.67878,73267
13.68690,68450
13.69503,71312
13.70315,67001
13.71127,70968
13.71940,67460
13.72752,70598
13.73563,76902
13.74377,100904
13.75188,188309
13.76002,408423
13.76813,851173
13.77625,1500135
13.78438,2053496
13.79250,2474574
13.80063,2539243
13.80875,2139150
13.81687,1788327
13.82500,1333489
13.83312,1097637
13.84123,980955
13.84937,864652
13.85748,799025
13.86562,728713
13.87373,682881
13.88185,631242
13.88998,594855
13.89810,566173
13.90623,515402
13.91435,511276
13.92247,468298
13.93060,460434
13.93872,456960
13.94685,454196
13.95497,489241
13.96308,594641
13.97122,880732
13.97933,1146314
13.98745,1506193
13.99558,1748128
14.00370,1754196
14.01183,1537228
14.01995,1259707
14.02807,1021134
14.03620,850221
14.04432,790821
14.05245,724438
14.06057,651539
14.06868,608437
14.07682,583433
14.08493,594451
14.09305,563624
14.10118,517796
14.10930,514219
14.11743,534757
14.12555,505188
14.13367,517225
14.14180,565702
14.14992,638863
14.15805,750781
14.16617,797168
14.17428,784077
14.18242,741004
14.19053,730023
14.19867,740605
14.20678,781802
14.21490,867570
14.22303,918007
14.23115,887582
14.23927,807450
14.24740,727738
14.25552,643181
14.26365,587611
14.27177,528640
14.27988,472567
14.28802,433655
14.29613,411638
14.30427,385147
14.31238,361545
14.32050,337538
14.32863,326555
14.33675,316930
14.34488,308774
14.35300,295507
14.36112,293669
14.36925,274991
14.37737,263993
14.38548,238351
14.39362,230674
14.40173,233097
14.40987,214612
14.41798,215540
14.42610,218212
14.43423,216493
14.44235,201575
14.45048,191217
14.45860,170246
14.46672,166035
14.47485,156509
14.48297,148094
14.49108,151689
14.49922,149915
14.50733,151405
14.51547,168905
14.52358,188993
14.53170,214631
14.53983,239835
14.54795,240167
14.55608,221414
14.56420,194753
14.57232,180627
14.58045,161881
14.58857,146848
14.59670,143684
14.60482,138182
14.61293,126890
14.62107,121175
14.62918,115570
14.63730,119256
14.64543,111885
14.65355,109481
14.66168,104284
14.66980,110516
14.67792,104109
14.68605,94241
14.69417,96287
14.70230,100911
14.71042,97224
14.71853,100314
14.72667,98851
14.73478,97773
14.74292,99944
14.75103,112258
14.75915,110435
14.76728,108437
14.77540,112988
14.78352,109408
14.79165,130631
14.79977,175867
14.80790,343223
14.81602,727260
14.82413,1412203
14.83227,2316604
14.84038,3035162
14.84852,3330465
14.85663,3065232
14.86475,2390727
14.87288,1736733
14.88100,1225035
14.88912,923288
14.89725,723844
14.90537,611072
14.91350,522973
14.92162,464100
14.92973,425395
14.93787,383431
14.94598,364258
14.95412,328430
14.96223,317005
14.97035,300723
14.97848,290764
14.98660,275654
14.99473,252640
15.00285,241884
15.01097,232427
15.01910,221377
15.02722,204739
15.03533,206289
15.04347,191525
15.05158,181914
15.05972,187106
15.06783,173807
15.07595,171305
15.08408,159591
15.09220,167903
15.10033,159276
15.10845,154001
15.11657,148160
15.12470,149478
15.13282,150084
15.14093,147152
15.14907,150354
15.15718,151781
15.16532,142777
15.17343,132803
15.18155,116349
15.18968,104361
15.19780,100233
15.20593,96425
15.21405,88676
15.22217,96982
15.23030,89517
15.23842,86361
15.24655,85349
15.25467,83406
15.26278,81593
15.27092,82872
15.27903,84045
15.28715,82412
15.29528,83132
15.30340,79597
15.31153,75774
15.31965,82151
15.32777,86654
15.33590,90188
15.34402,82197
15.35215,78514
15.36027,76564
15.36838,75238
15.37652,80293
15.38463,75450
15.39277,77213
15.40088,77547
15.40900,73510
15.41713,73536
15.42525,74025
15.43337,78861
15.44150,70971
15.44962,66579
15.45775,72288
15.46587,73670
15.47398,78982
15.48212,79320
15.49023,86569
15.49837,95751
15.50648,98345
15.51460,110185
15.52273,110536
15.53085,101646
15.53897,95316
15.54710,95380
15.55522,89705
15.56335,87378
15.57147,85076
15.57958,78340
15.58772,78551
15.59583,74824
15.60397,77114
15.61208,74768
15.62020,75483
15.62833,76739
15.63645,80996
15.64458,81118
15.65270,74686
15.66082,80679
15.66895,82134
15.67707,76488
15.68518,80094
15.69332,76477
15.70143,69869
15.70957,69800
15.71768,71041
15.72580,70027
15.73393,69095
15.74205,68343
15.75018,67533
15.75830,76041
15.76642,102382
15.77455,141918
15.78267,200496
15.79080,274137
15.79892,330560
15.80703,361318
15.81517,342967
15.82328,298911
15.83140,245109
15.83953,195008
15.84765,169980
15.85578,154250
15.86390,137596
15.87202,137310
15.88015,120437
15.88827,123012
15.89640,114644
15.90452,108716
15.91263,104696
15.92077,104585
15.92888,105270
15.93700,100934
15.94513,104671
15.95325,103698
15.96138,124824
15.96950,152474
15.97762,177869
15.98575,222809
15.99387,235547
16.00200,237933
16.01012,231376
16.01823,221159
16.02637,214280
16.03448,204418
16.04262,203129
16.05073,183697
16.05885,167693
16.06698,151563
16.07510,144288
16.08322,138032
16.09135,130627
16.09947,117235
16.10760,116263
16.11572,110861
16.12383,111084
16.13197,108199
16.14008,115202
16.14822,110191
16.15633,110980
16.16445,103239
16.17258,104616
16.18070,100994
16.18883,97205
16.19695,95116
16.20507,95022
16.21320,94965
16.22132,88977
16.22943,90459
16.23757,86496
16.24568,89199
16.25382,86035
16.26193,91809
16.27005,83936
16.27818,81883
16.28630,89271
16.29443,92179
16.30255,90916
16.31067,85006
16.31880,84065
16.32692,89019
16.33503,80386
16.34317,85571
16.35128,83601
16.35942,93251
16.36753,112404
16.37565,144497
16.38378,192979
16.39190,234811
16.40003,264872
16.40815,263170
16.41627,242629
16.42440,207046
16.43252,171010
16.44065,149278
16.44877,139606
16.45688,141040
16.46502,174619
16.47313,245735
16.48125,381912
16.48938,561135
16.49750,729882
16.50563,769076
16.51375,683448
16.52187,538033
16.53000,400021
16.53812,302788
16.54625,245577
16.55437,207301
16.56248,188314
16.57062,172650
16.57873,159113
16.58685,153493
16.59498,144262
16.60310,142014
16.61123,133519
16.61935,129475
16.62747,127428
16.63560,123343
16.64372,118125
16.65185,114727
16.65997,116984
16.66808,114055
16.67622,105521
16.68433,101791
16.69247,97096
16.70058,100400
16.70870,90686
16.71683,90750
16.72495,87797
16.73307,83537
16.74120,80519
16.74932,79092
16.75745,86583
16.76557,82139
16.77368,88415
16.78182,87457
16.78993,87105
16.79807,85746
16.80618,79484
16.81430,81905
16.82243,76304
16.83055,73155
16.83868,72966
16.84680,71987
16.85492,76021
16.86305,75686
16.87117,73476
16.87928,77916
16.88742,76879
16.89553,73354
16.90367,72261
16.91178,69734
16.91990,73123
16.92803,71205
16.93615,70184
16.94428,69411
16.95240,67509
16.96052,68758
16.96865,67583
16.97677,73535
16.98488,67812
16.99302,72475
17.00113,64298
17.00927,69467
17.01738,71542
17.02550,69374
17.03363,68791
17.04175,70756
17.04988,71094
17.05800,72632
17.06612,72772
17.07425,77503
17.08237,72912
17.09050,73608
17.09862,73225
17.10673,69668
17.11487,77334
17.12298,78357
17.13110,71939
17.13923,79351
17.14735,74165
17.15548,79070
17.16360,73151
17.17172,82819
17.17985,77500
17.18797,73952
17.19610,70980
17.20422,75352
17.21233,71757
17.22047,68448
17.22858,68760
17.23672,71207
17.24483,68402
17.25295,71035
17.26108,69763
17.26920,67644
17.27732,71009
17.28545,69523
17.29357,69170
17.30170,72589
17.30982,73083
17.31793,77252
17.32607,93672
17.33418,108723
17.34232,118487
17.35043,139277
17.35855,141471
17.36668,137862
17.37480,129266
17.38292,123733
17.39105,112112
17.39917,103333
17.40730,106276
17.41542,96449
17.42353,97387
17.43167,94916
17.43978,92660
17.44792,91023
17.45603,90845
17.46415,84030
17.47228,84373
17.48040,83472
17.48853,80476
17.49665,76391
17.50477,86095
17.51290,75886
17.52102,76220
17.52913,73793
17.53727,75873
17.54538,78653
17.55352,78252
17.56163,67313
17.56975,73138
17.57788,79346
17.58600,88849
17.59413,103322
17.60225,144663
17.61037,205200
17.61850,286570
17.62662,392335
17.63473,898664
17.64287,8252738
17.65098,2.3894E+07
17.65912,2.723207E+07
17.66723,2.690645E+07
17.67535,2.572356E+07
17.68348,2.446892E+07
17.69160,2.299215E+07
17.69973,2.133897E+07
17.70785,2.033745E+07
17.71597,1.917641E+07
17.72410,1.7948E+07
17.73222,1.691269E+07
17.74035,1.558929E+07
17.74847,1.402706E+07
17.75658,1.333955E+07
17.76472,1.232663E+07
17.77283,1.164479E+07
17.78095,1.090657E+07
17.78908,1.012389E+07
17.79720,9447141
17.80533,8908636
17.81345,8281615
17.82157,7699299
17.82970,7363800
17.83782,7016195
17.84595,6674995
17.85407,6154043
17.86218,5944200
17.87032,5625121
17.87843,5372632
17.88657,5106268
17.89468,4882577
17.90280,4618929
17.91093,4445878
17.91905,4181957
17.92717,4017772
17.93530,3855355
17.94342,3692681
17.95155,3532586
17.95967,3421662
17.96778,3271910
17.97592,3141212
17.98403,2984181
17.99217,2889094
18.00028,2763809
18.00840,2707233
18.01653,2603986
18.02465,2546011
18.03277,2451896
18.04090,2360784
18.04902,2320222
18.05715,2259894
18.06527,2225897
18.07338,2308539
18.08152,2475767
18.08963,2800987
18.09777,3137214
18.10588,3386465
18.11400,3381125
18.12213,3261300
18.13025,3026910
18.13838,2749042
18.14650,2486448
18.15462,2326700
18.16275,2197042
18.17087,2106381
18.17898,1994903
18.18712,1912433
18.19523,1813245
18.20337,1694075
18.21148,1646972
18.21960,1572960
18.22773,1534403
18.23585,1480084
18.24398,1402348
18.25210,1354118
18.26022,1305426
18.26835,1256360
18.27647,1230626
18.28460,1193059
18.29272,1117244
18.30083,1055916
18.30897,1021638
18.31708,978991
18.32520,946840
18.33333,938827
18.34145,921065
18.34958,887594
18.35770,874636
18.36582,848743
18.37395,813031
18.38207,812986
18.39020,793606
18.39832,786308
18.40643,769887
18.41457,766889
18.42268,737081
18.43080,729785
18.43893,717228
18.44705,730084
18.45518,711113
18.46330,723123
18.47142,741656
18.47955,764295
18.48767,807282
18.49580,829522
18.50392,809714
18.51203,768246
18.52017,734291
18.52828,697769
18.53642,659927
18.54453,628317
18.55265,597140
18.56078,583983
18.56890,578836
18.57702,570066
18.58515,578052
18.59327,546474
18.60140,543603
18.60952,527652
18.61763,529130
18.62577,519745
18.63388,516140
18.64202,506658
18.65013,499124
18.65825,498011
18.66638,480971
18.67450,472956
18.68262,463852
18.69075,460461
18.69887,452173
18.70700,446880
18.71512,436049
18.72323,442980
18.73137,424021
18.73948,421611
18.74762,427014
18.75573,413773
18.76385,401206
18.77198,400429
18.78010,396290
18.78823,390577
18.79635,390540
18.80447,386608
18.81260,388685
18.82072,380049
18.82883,367495
18.83697,376683
18.84508,388371
18.85322,368768
18.86133,370986
18.86945,359465
18.87758,342306
18.88570,355542
18.89383,347223
18.90195,347284
18.91007,338125
18.91820,342687
18.92632,345694
18.93445,344415
18.94257,359784
18.95068,377802
18.95882,411932
18.96693,410463
18.97505,417343
18.98318,418831
18.99130,400683
18.99943,383999
19.00755,369826
19.01567,345861
19.02380,336595
19.03192,329289
19.04005,322098
19.04817,312598
19.05628,316732
19.06442,320098
19.07253,314014
19.08067,314929
19.08878,329300
19.09690,362357
19.10503,386591
19.11315,416387
19.12127,416055
19.12940,415195
19.13752,396175
19.14565,364939
19.15377,361622
19.16188,341469
19.17002,333237
19.17813,323617
19.18627,314226
19.19438,313618
19.20250,300223
19.21063,293136
19.21875,289777
19.22687,274195
19.23500,274221
19.24312,268289
19.25125,260116
19.25937,262150
19.26748,260983
19.27562,255550
19.28373,255346
19.29187,255556
19.29998,260043
19.30810,260585
19.31623,257084
19.32435,256710
19.33248,251063
19.34060,252523
19.34872,261102
19.35685,277222
19.36497,290757
19.37308,319263
19.38122,337663
19.38933,367376
19.39747,349830
19.40558,331713
19.41370,323598
19.42183,289857
19.42995,276818
19.43808,265671
19.44620,264667
19.45432,262666
19.46245,258341
19.47057,259426
19.47868,286593
19.48682,304338
19.49493,333066
19.50307,366019
19.51118,417744
19.51930,473143
19.52743,494934
19.53555,475267
19.54368,417600
19.55180,360914
19.55992,313387
19.56805,270950
19.57617,252564
19.58430,241724
19.59242,236887
19.60053,234434
19.60867,238056
19.61678,229346
19.62490,239787
19.63303,244426
19.64115,272133
19.64928,316981
19.65740,417017
19.66552,554132
19.67365,678450
19.68177,777502
19.68990,780355
19.69802,725251
19.70613,642191
19.71427,549060
19.72238,456426
19.73052,409060
19.73863,362609
19.74675,334493
19.75488,301473
19.76300,279652
19.77112,263860
19.77925,257224
19.78737,248353
19.79550,242822
19.80362,233013
19.81173,224206
19.81987,229938
19.82798,228784
19.83612,226787
19.84423,223271
19.85235,227505
19.86048,249261
19.86860,326033
19.87672,531519
19.88485,919802
19.89297,1504856
19.90110,2156698
19.90922,2701542
19.91733,2894128
19.92547,2791590
19.93358,2404113
19.94172,1995054
19.94983,1608294
19.95795,1368572
19.96608,1195172
19.97420,1067224
19.98233,976182
19.99045,909056
19.99857,855344
20.00670,801187
20.01482,750949
20.02293,703254
20.03107,662279
20.03918,619052
20.04732,569741
20.05543,506128
20.06355,444910
20.07168,387862
20.07980,345708
20.08793,311712
20.09605,294599
20.10417,274044
20.11230,264732
20.12042,252005
20.12855,252182
20.13667,249184
20.14478,245953
20.15292,229997
20.16103,232230
20.16915,244112
20.17728,244358
20.18540,264618
20.19353,287181
20.20165,297036
20.20977,312369
20.21790,315549
20.22602,304234
20.23415,302527
20.24227,302889
20.25038,311765
20.25852,336474
20.26663,396228
20.27475,488112
20.28288,567660
20.29100,645360
20.29913,649729
20.30725,624097
20.31537,570464
20.32350,480242
20.33162,409297
20.33975,342356
20.34787,299017
20.35598,270012
20.36412,243727
20.37223,226057
20.38037,220464
20.38848,213282
20.39660,204863
20.40473,207132
20.41285,205916
20.42097,209760
20.42910,223517
20.43722,230512
20.44535,249958
20.45347,257629
20.46158,266287
20.46972,263630
20.47783,251396
20.48597,239307
20.49408,221159
20.50220,204693
20.51033,196169
20.51845,184586
20.52657,174489
20.53470,171313
20.54282,169716
20.55095,170976
20.55907,158812
20.56718,166678
20.57532,162322
20.58343,161959
20.59157,157402
20.59968,154035
20.60780,148828
20.61593,149913
20.62405,150736
20.63218,148694
20.64030,145520
20.64842,144593
20.65655,139662
20.66467,138097
20.67278,145115
20.68092,144786
20.68903,144559
20.69717,139731
20.70528,140097
20.71340,141706
20.72153,136501
20.72965,138824
20.73778,131718
20.74590,135678
20.75402,139860
20.76215,131791
20.77027,143791
20.77840,143457
20.78652,141260
20.79463,149040
20.80277,177976
20.81088,205140
20.81900,237944
20.82713,257502
20.83525,256653
20.84338,255762
20.85150,218228
20.85962,194435
20.86775,172567
20.87587,156017
20.88400,150909
20.89212,143142
20.90023,140630
20.90837,141991
20.91648,141830
20.92460,147924
20.93273,140211
20.94085,137875
20.94898,145874
20.95710,136549
20.96522,134719
20.97335,135329
20.98147,134747
20.98960,133412
20.99772,129633
21.00583,130219
21.01397,129428
21.02208,124730
21.03022,126339
21.03833,126543
21.04645,130999
21.05458,133250
21.06270,135162
21.07082,140749
21.07895,132270
21.08707,145675
21.09520,139807
21.10332,140715
21.11143,135447
21.11957,135021
21.12768,129879
21.13582,123033
21.14393,126771
21.15205,135808
21.16018,140696
21.16830,147439
21.17643,154044
21.18455,147703
21.19267,144988
21.20080,141712
21.20892,133192
21.21703,143996
21.22517,134952
21.23328,129962
21.24142,128391
21.24953,123748
21.25765,125511
21.26578,121681
21.27390,121304
21.28203,121345
21.29015,121528
21.29827,125408
21.30640,117612
21.31452,115816
21.32263,114498
21.33077,112437
21.33888,115156
21.34702,114938
21.35513,116313
21.36325,112745
21.37138,111597
21.37950,115324
21.38763,117861
21.39575,119222
21.40387,130252
21.41200,139487
21.42012,147864
21.42825,162894
21.43637,158200
21.44448,152364
21.45262,145550
21.46073,137103
21.46885,130317
21.47698,132725
21.48510,131850
21.49323,120924
21.50135,128578
21.50947,117616
21.51760,120250
21.52572,120035
21.53385,127023
21.54197,120312
21.55008,126011
21.55822,117598
21.56633,116195
21.57445,115095
21.58258,117950
21.59070,118075
21.59883,121847
21.60695,128182
21.61507,126564
21.62320,142079
21.63132,150650
21.63945,182775
21.64757,188823
21.65568,195085
21.66382,196241
21.67193,191653
21.68007,183379
21.68818,169828
21.69630,149725
21.70443,148272
21.71255,136576
21.72067,133046
21.72880,122802
21.73692,123200
21.74505,123995
21.75317,123292
21.76128,114800
21.76942,113574
21.77753,121120
21.78567,116736
21.79378,118339
21.80190,125323
21.81003,130291
21.81815,139991
21.82628,146932
21.83440,167078
21.84252,177755
21.85065,183206
21.85877,178423
21.86688,179584
21.87502,161460
21.88313,140338
21.89127,130264
21.89938,116645
21.90750,110518
21.91563,102287
21.92375,101799
21.93188,107251
21.94000,106194
21.94812,98815
21.95625,97312
21.96437,95801
21.97248,93234
21.98062,92344
21.98873,91274
21.99687,87489
22.00498,86906
22.01310,94272
22.02123,89185
22.02935,86192
22.03748,83464
22.04560,86321
22.05372,86547
22.06185,86781
22.06997,87207
22.07810,85217
22.08622,90499
22.09433,84067
22.10247,85874
22.11058,87016
22.11870,83096
22.12683,85959
22.13495,84730
22.14308,89268
22.15120,91774
22.15932,88735
22.16745,92101
22.17557,94040
22.18370,93821
22.19182,94948
22.19993,95132
22.20807,96640
22.21618,93393
22.22432,100519
22.23243,99698
22.24055,96658
22.24868,100216
22.25680,97615
22.26492,93202
22.27305,91236
22.28117,90813
22.28930,88371
22.29742,86883
22.30553,88321
22.31367,87353
22.32178,93879
22.32992,102007
22.33803,92552
22.34615,93094
22.35428,92697
22.36240,90269
22.37052,87522
22.37865,88870
22.38677,81378
22.39490,87577
22.40302,92257
22.41113,105032
22.41927,123920
22.42738,128024
22.43552,141205
22.44363,148889
22.45175,151119
22.45988,148827
22.46800,148657
22.47613,139776
22.48425,140602
22.49237,132198
22.50050,131804
22.50862,131677
22.51673,130774
22.52487,130297
22.53298,128873
22.54112,131919
22.54923,136641
22.55735,130694
22.56548,127680
22.57360,130080
22.58173,121043
22.58985,123085
22.59797,115585
22.60610,111643
22.61422,114972
22.62235,110282
22.63047,111546
22.63858,105132
22.64672,107514
22.65483,105417
22.66295,106532
22.67108,118997
22.67920,105330
22.68733,106041
22.69545,104706
22.70357,109651
22.71170,105756
22.71982,110919
22.72795,106718
22.73607,110453
22.74418,116931
22.75232,114291
22.76043,110813
22.76855,109451
22.77668,104960
22.78480,103445
22.79293,103720
22.80105,105546
22.80917,112057
22.81730,113609
22.82542,116742
22.83355,114637
22.84167,115577
22.84978,112485
22.85792,117705
22.86603,115671
22.87417,106748
22.88228,110371
22.89040,125619
22.89853,120824
22.90665,134096
22.91477,151150
22.92290,179692
22.93102,207866
22.93915,230247
22.94727,235942
22.95538,238903
22.96352,205148
22.97163,194342
22.97977,177308
22.98788,159527
22.99600,144849
23.00413,151390
23.01225,142321
23.02037,128266
23.02850,117862
23.03662,116574
23.04475,110253
23.05287,107139
23.06098,117716
23.06912,117575
23.07723,126963
23.08537,125515
23.09348,133760
23.10160,130335
23.10973,131248
23.11785,131617
23.12598,131015
23.13410,128832
23.14222,127414
23.15035,127844
23.15847,131794
23.16658,133642
23.17472,132811
23.18283,126441
23.19097,129783
23.19908,128021
23.20720,123988
23.21533,129123
23.22345,133099
23.23158,132678
23.23970,124738
23.24782,127290
23.25595,126511
23.26407,135080
23.27220,133673
23.28032,137377
23.28843,138340
23.29657,132417
23.30468,128764
23.31280,124917
23.32093,127268
23.32905,130456
23.33718,134445
23.34530,139172
23.35342,150498
23.36155,178467
23.36967,203543
23.37780,242725
23.38592,295428
23.39403,335894
23.40217,404589
23.41028,443138
23.41840,475841
23.42653,520957
23.43465,542985
23.44278,538904
23.45090,539533
23.45902,510589
23.46715,507195
23.47527,484257
23.48340,473774
23.49152,437690
23.49963,412523
23.50777,392144
23.51588,371543
23.52402,345797
23.53213,326617
23.54025,299327
23.54838,303751
23.55650,273404
23.56462,273287
23.57275,257000
23.58087,259829
23.58900,265330
23.59712,283243
23.60523,318873
23.61337,326981
23.62148,330119
23.62962,313011
23.63773,282272
23.64585,257005
23.65398,242543
23.66210,232803
23.67023,215199
23.67835,213758
23.68647,196436
23.69460,185819
23.70272,169218
23.71083,169287
23.71897,161596
23.72708,150764
23.73522,158197
23.74333,168030
23.75145,218304
23.75958,383999
23.76770,765064
23.77583,1578101
23.78395,2827114
23.79207,4055851
23.80020,4825421
23.80832,4819857
23.81643,4233039
23.82457,3257969
23.83268,2465937
23.84082,1813366
23.84893,1342306
23.85705,1076549
23.86518,859972
23.87330,712015
23.88143,626286
23.88955,552686
23.89767,503310
23.90580,459958
23.91392,434212
23.92205,410229
23.93017,375773
23.93828,364049
23.94642,345693
23.95453,313910
23.96265,309356
23.97078,297466
23.97890,284375
23.98703,271726
23.99515,289090
24.00327,344969
24.01140,518423
24.01952,864689
24.02765,1481467
24.03577,2200369
24.04388,2673207
24.05202,2709666
24.06013,2220217
24.06825,1536883
24.07638,981049
24.08450,609993
24.09263,406010
24.10075,300214
24.10887,258367
24.11700,225900
24.12512,218928
24.13325,214912
24.14137,221554
24.14948,212616
24.15762,212389
24.16573,210344
24.17387,205722
24.18198,192951
24.19010,187962
24.19823,182801
24.20635,176532
24.21447,179414
24.22260,180863
24.23072,188597
24.23885,183729
24.24697,173609
24.25508,166729
24.26322,159309
24.27133,149331
24.27947,146081
24.28758,142684
24.29570,143155
24.30383,144911
24.31195,132863
24.32008,135635
24.32820,128242
24.33632,126523
24.34445,131285
24.35257,130096
24.36068,127094
24.36882,133334
24.37693,129837
24.38507,142933
24.39318,161117
24.40130,190238
24.40943,218078
24.41755,243443
24.42568,233596
24.43380,202669
24.44192,176615
24.45005,142435
24.45817,136728
24.46630,130764
24.47442,126841
24.48253,135662
24.49067,138358
24.49878,134811
24.50690,147054
24.51503,155950
24.52315,158067
24.53128,163543
24.53940,154528
24.54752,152728
24.55565,148490
24.56377,137939
24.57190,136498
24.58002,131449
24.58813,127668
24.59627,124508
24.60438,118749
24.61250,118934
24.62063,120965
24.62875,110570
24.63688,114955
24.64500,112631
24.65312,114503
24.66125,115927
24.66937,114568
24.67750,113388
24.68562,110779
24.69373,110103
24.70187,106768
24.70998,103034
24.71812,102324
24.72623,115403
24.73435,128891
24.74248,134797
24.75060,147801
24.75872,145566
24.76685,151703
24.77497,157917
24.78310,169923
24.79122,170107
24.79933,173131
24.80747,173181
24.81558,178116
24.82372,176769
24.83183,175427
24.83995,186942
24.84808,191310
24.85620,216799
24.86432,247447
24.87245,309496
24.88057,386779
24.88870,480242
24.89682,556906
24.90493,586768
24.91307,561260
24.92118,500906
24.92932,419392
24.93743,332775
24.94555,280003
24.95368,237281
24.96180,212947
24.96993,202015
24.97805,189862
24.98617,180564
24.99430,185022
25.00242,189023
25.01053,182842
25.01867,183308
25.02678,181421
25.03492,180320
25.04303,176373
25.05115,172294
25.05928,179341
25.06740,169918
25.07553,172057
25.08365,181802
25.09177,184524
25.09990,192348
25.10802,220418
25.11615,287216
25.12427,427310
25.13238,692865
25.14052,1068537
25.14863,1436268
25.15675,1667728
25.16488,1699954
25.17300,1460508
25.18113,1156702
25.18925,830016
25.19737,590821
25.20550,440122
25.21362,328226
25.22175,275656
25.22987,240425
25.23798,235088
25.24612,225432
25.25423,243037
25.26235,251471
25.27048,264532
25.27860,277310
25.28673,276115
25.29485,262375
25.30297,234720
25.31110,223223
25.31922,202192
25.32735,185909
25.33547,179964
25.34358,175144
25.35172,168407
25.35983,167033
25.36797,166829
25.37608,155155
25.38420,163817
25.39233,159096
25.40045,152097
25.40857,158795
25.41670,151652
25.42482,147640
25.43295,146579
25.44107,148145
25.44918,138780
25.45732,148876
25.46543,143478
25.47357,156984
25.48168,152754
25.48980,157937
25.49793,158049
25.50605,156298
25.51418,155641
25.52230,146492
25.53042,149225
25.53855,135641
25.54667,140218
25.55478,139108
25.56292,137388
25.57103,135851
25.57917,136954
25.58728,130516
25.59540,131573
25.60353,125910
25.61165,127079
25.61978,127126
25.62790,123538
25.63602,122169
25.64415,119164
25.65227,118223
25.66038,117135
25.66852,110273
25.67663,116031
25.68477,102645
25.69288,99798
25.70100,101245
25.70913,92704
25.71725,97367
25.72538,98269
25.73350,97266
25.74162,93484
25.74975,99088
25.75787,95612
25.76600,113629
25.77412,141143
25.78223,179338
25.79037,207315
25.79848,232518
25.80660,231173
25.81473,202356
25.82285,161940
25.83098,135684
25.83910,126715
25.84722,125464
25.85535,132528
25.86347,133487
25.87160,135109
25.87972,123583
25.88783,111332
25.89597,105141
25.90408,101004
25.91220,94672
25.92033,89853
25.92845,92801
25.93658,84219
25.94470,84022
25.95282,91506
25.96095,86375
25.96907,86204
25.97720,85237
25.98532,88056
25.99343,82124
26.00157,76734
26.00968,78321
26.01782,78772
26.02593,81728
26.03405,79008
26.04218,88445
26.05030,100881
26.05842,104832
26.06655,119625
26.07467,127504
26.08280,132079
26.09092,137048
26.09903,135862
26.10717,139961
26.11528,142296
26.12342,146652
26.13153,152031
26.13965,149227
26.14778,149680
26.15590,149073
26.16403,148754
26.17215,152735
26.18027,150163
26.18840,145581
26.19652,149348
26.20463,146235
26.21277,146676
26.22088,149090
26.22902,145891
26.23713,147141
26.24525,138398
26.25338,142782
26.26150,145022
26.26963,150273
26.27775,148153
26.28587,146865
26.29400,148003
26.30212,145356
26.31023,144283
26.31837,141521
26.32648,140730
26.33462,136325
26.34273,141635
26.35085,143400
26.35898,140384
26.36710,137773
26.37523,133843
26.38335,139870
26.39147,142678
26.39960,144701
26.40772,157700
26.41585,152845
26.42397,153103
26.43208,145639
26.44022,147187
26.44833,144507
26.45645,141360
26.46458,145423
26.47270,139876
26.48083,144221
26.48895,140201
26.49707,140407
26.50520,140686
26.51332,134641
26.52145,130535
26.52957,116513
26.53768,128323
26.54582,118098
26.55393,122599
26.56207,113167
26.57018,124163
26.57830,120099
26.58643,118213
26.59455,125590
26.60267,118484
26.61080,115213
26.61892,116379
26.62705,108713
26.63517,106883
26.64328,113640
26.65142,109343
26.65953,110626
26.66767,119389
26.67578,118124
26.68390,119818
26.69203,116831
26.70015,115490
26.70827,111349
26.71640,108639
26.72452,107144
26.73265,104028
26.74077,113359
26.74888,114305
26.75702,112073
26.76513,111265
26.77327,108056
26.78138,105269
26.78950,102957
26.79763,117480
26.80575,110439
26.81388,116371
26.82200,109606
26.83012,109491
26.83825,113214
26.84637,117373
26.85448,111134
26.86262,112124
26.87073,107480
26.87887,106380
26.88698,107539
26.89510,104637
26.90323,104173
26.91135,99269
26.91948,101309
26.92760,97869
26.93572,104478
26.94385,102406
26.95197,100477
26.96008,107773
26.96822,111410
26.97633,129380
26.98447,178922
26.99258,254627
27.00070,402712
27.00883,607714
27.01695,850389
27.02508,1086550
27.03320,1239847
27.04132,1290732
27.04945,1204145
27.05757,1006450
27.06570,815865
27.07382,637963
27.08193,507557
27.09007,429635
27.09818,372832
27.10630,323003
27.11443,288463
27.12255,258481
27.13068,243667
27.13880,228248
27.14692,213095
27.15505,206769
27.16317,190235
27.17130,191634
27.17942,177824
27.18753,177540
27.19567,171259
27.20378,167029
27.21192,158153
27.22003,155272
27.22815,157496
27.23628,160003
27.24440,147363
27.25252,149596
27.26065,141997
27.26877,141598
27.27690,131331
27.28502,125890
27.29313,126994
27.30127,125426
27.30938,129504
27.31752,121664
27.32563,114382
27.33375,114907
27.34188,112662
27.35000,109620
27.35812,109089
27.36625,113879
27.37437,111299
27.38250,112510
27.39062,116028
27.39873,114058
27.40687,101346
27.41498,108751
27.42312,99284
27.43123,101620
27.43935,99057
27.44748,96684
27.45560,96434
27.46373,96001
27.47185,91432
27.47997,97520
27.48810,99590
27.49622,91095
27.50433,89795
27.51247,93236
27.52058,89711
27.52872,92246
27.53683,94682
27.54495,95232
27.55308,96540
27.56120,96783
27.56933,92728
27.57745,89581
27.58557,99134
27.59370,106127
27.60182,108735
27.60995,114029
27.61807,116149
27.62618,105380
27.63432,101432
27.64243,95541
27.65055,91022
27.65868,90253
27.66680,88718
27.67493,85676
27.68305,85503
27.69117,83646
27.69930,79373
27.70742,87781
27.71555,85221
27.72367,85246
27.73178,82144
27.73992,80388
27.74803,76167
27.75615,77604
27.76428,76355
27.77240,83271
27.78053,81655
27.78865,81878
27.79677,79699
27.80490,83443
27.81302,85155
27.82115,78276
27.82927,83721
27.83738,85564
27.84552,80870
27.85363,78432
27.86177,78493
27.86988,76422
27.87800,82396
27.88613,78876
27.89425,77228
27.90237,74397
27.91050,72072
27.91862,72707
27.92675,74632
27.93487,71392
27.94298,74646
27.95112,66169
27.95923,72033
27.96737,71455
27.97548,73444
27.98360,70473
27.99173,75581
27.99985,70718
28.00798,70246
28.01610,70881
28.02422,73831
28.03235,72600
28.04047,70191
28.04858,72230
28.05672,75050
28.06483,75136
28.07297,76702
28.08108,76088
28.08920,78215
28.09733,76372
28.10545,81653
28.11358,77979
28.12170,79753
28.12982,74140
28.13795,78252
28.14607,70470
28.15418,69218
28.16232,70031
28.17043,65860
28.17857,68687
28.18668,80737
28.19480,83021
28.20293,92453
28.21105,101285
28.21918,110399
28.22730,119721
28.23542,115789
28.24355,109086
28.25167,102035
28.25980,94687
28.26792,85802
28.27603,79009
28.28417,79859
28.29228,73412
28.30040,77553
28.30853,76901
28.31665,80490
28.32478,84160
28.33290,90796
28.34102,98661
28.34915,115698
28.35727,136935
28.36540,141407
28.37352,154523
28.38163,171999
28.38977,173640
28.39788,182175
28.40600,189217
28.41413,181956
28.42225,182744
28.43038,168212
28.43850,160350
28.44662,145697
28.45475,139435
28.46287,133317
28.47100,126101
28.47912,119772
28.48723,118435
28.49537,107592
28.50348,104980
28.51162,108272
28.51973,101020
28.52785,107491
28.53598,109654
28.54410,95781
28.55222,92517
28.56035,90114
28.56847,87792
28.57660,92047
28.58472,92282
28.59283,93342
28.60097,88413
28.60908,91666
28.61722,93210
28.62533,98249
28.63345,99453
28.64158,102251
28.64970,99138
28.65783,103976
28.66595,102779
28.67407,100381
28.68220,101571
28.69032,98028
28.69843,95681
28.70657,90053
28.71468,91446
28.72282,89688
28.73093,91708
28.73905,88243
28.74718,85090
28.75530,91320
28.76343,101558
28.77155,110626
28.77967,115684
28.78780,122369
28.79592,127827
28.80403,123128
28.81217,109881
28.82028,109139
28.82842,106609
28.83653,99019
28.84465,89385
28.85278,91137
28.86090,85425
28.86903,85171
28.87715,83206
28.88527,86159
28.89340,90725
28.90152,89161
28.90965,88852
28.91777,88629
28.92588,89937
28.93402,89229
28.94213,89602
28.95025,88501
28.95838,88353
28.96650,91373
28.97463,89819
28.98275,86468
28.99087,85460
28.99900,87460
29.00712,85230
29.01525,81322
29.02337,80817
29.03148,85022
29.03962,78109
29.04773,78223
29.05587,76651
29.06398,81009
29.07210,76737
29.08023,76860
29.08835,78308
29.09647,77598
29.10460,79003
29.11272,77778
29.12085,78280
29.12897,79152
29.13708,77256
29.14522,77735
29.15333,73732
29.16147,77672
29.16958,73547
29.17770,79832
29.18583,78258
29.19395,78239
29.20207,81486
29.21020,89972
29.21832,88805
29.22645,96486
29.23457,93596
29.24268,100396
29.25082,102935
29.25893,97043
29.26707,99647
29.27518,106753
29.28330,105997
29.29143,100920
29.29955,90028
29.30768,88734
29.31580,87038
29.32392,76081
29.33205,75528
29.34017,74102
29.34828,76423
29.35642,74934
29.36453,74089
29.37267,73388
29.38078,72827
29.38890,67037
29.39703,67510
29.40515,74186
29.41328,74557
29.42140,72412
29.42952,71997
29.43765,76155
29.44577,74546
29.45388,74201
29.46202,72893
29.47013,69652
29.47827,73047
29.48638,76583
29.49450,78810
29.50263,81355
29.51075,83804
29.51888,83223
29.52700,81998
29.53512,79220
29.54325,76691
29.55137,72668
29.55950,77069
29.56762,74803
29.57573,71135
29.58387,75394
29.59198,72490
29.60010,66025
29.60823,76899
29.61635,70008
29.62448,69988
29.63260,73837
29.64072,65570
29.64885,68185
29.65697,65673
29.66510,63191
29.67322,60828
29.68133,67963
29.68947,65727
29.69758,71125
29.70572,65911
29.71383,66876
29.72195,67830
29.73008,66182
29.73820,66398
29.74632,67352
29.75445,70602
29.76257,65327
29.77070,65980
29.77882,62659
29.78693,60520
29.79507,62446
29.80318,62152
29.81132,63046
29.81943,61485
29.82755,69049
29.83568,65367
29.84380,63545
29.85193,62654
29.86005,62250
29.86817,60763
29.87630,72482
29.88442,73155
29.89253,80487
29.90067,88691
29.90878,100808
29.91692,93487
29.92503,93101
29.93315,83667
29.94128,78442
29.94940,73524
29.95753,68421
29.96565,70363
29.97377,72758
29.98190,77940
29.99002,86363
29.99813,93936
30.00627,98358
30.01438,94388
30.02252,100525
30.03063,112378
30.03875,107298
30.04688,112594
30.05500,120935
30.06313,117421
30.07125,114818
30.07937,119020
30.08750,114548
30.09562,112385
30.10375,110744
30.11187,116366
30.11998,112286
30.12812,105994
30.13623,105432
30.14435,107748
30.15248,98293
30.16060,99875
30.16873,96877
30.17685,92063
30.18497,90745
30.19310,89876
30.20122,82286
30.20935,91589
30.21747,86551
30.22558,87311
30.23372,85491
30.24183,78547
30.24995,81527
30.25808,82285
30.26620,76200
30.27433,72643
30.28245,81169
30.29057,77272
30.29870,66998
30.30682,72104
30.31495,65494
30.32307,77072
30.33118,67099
30.33932,68093
30.34743,72682
30.35557,67184
30.36368,69047
30.37180,63851
30.37993,68265
30.38805,63772
30.39617,65103
30.40430,66798
30.41242,71358
30.42055,63732
30.42867,65097
30.43678,67928
30.44492,69043
30.45303,62286
30.46117,58373
30.46928,63464
30.47740,68799
30.48553,66286
30.49365,66386
30.50178,69608
30.50990,75171
30.51802,68930
30.52615,69855
30.53427,72317
30.54238,67581
30.55052,64799
30.55863,66670
30.56677,66498
30.57488,68508
30.58300,66701
30.59113,63907
30.59925,63814
30.60738,59518
30.61550,66521
30.62362,64540
30.63175,65428
30.63987,63845
30.64798,62336
30.65612,62862
30.66423,62992
30.67237,62940
30.68048,62298
30.68860,69414
30.69673,65303
30.70485,60494
30.71298,63944
30.72110,64633
30.72922,67620
30.73735,62728
30.74547,60708
30.75360,67210
30.76172,61411
30.76983,62177
30.77797,62844
30.78608,65490
30.79420,74025
30.80233,83821
30.81045,84477
30.81858,87684
30.82670,96605
30.83482,88037
30.84295,81878
30.85107,73805
30.85920,70537
30.86732,69070
30.87543,68999
30.88357,68617
30.89168,66755
30.89982,67995
30.90793,66565
30.91605,66601
30.92418,61721
30.93230,67802
30.94042,61436
30.94855,61996
30.95667,60889
30.96480,59748
30.97292,58749
30.98103,60537
30.98917,61853
30.99728,61573
31.00542,61004
31.01353,58262
31.02165,58864
31.02978,62957
31.03790,61478
31.04602,64198
31.05415,67328
31.06227,56324
31.07040,63239
31.07852,59300
31.08663,72407
31.09477,79872
31.10288,82621
31.11102,92444
31.11913,91181
31.12725,82016
31.13538,80313
31.14350,75699
31.15163,77488
31.15975,69962
31.16787,76459
31.17600,72153
31.18412,76553
31.19223,89898
31.20037,100024
31.20848,123053
31.21662,142328
31.22473,160841
31.23285,172891
31.24098,163320
31.24910,156019
31.25723,138504
31.26535,115508
31.27347,94883
31.28160,89499
31.28972,77096
31.29783,75809
31.30597,71936
31.31408,66648
31.32222,68178
31.33033,70555
31.33845,63102
31.34658,67500
31.35470,66029
31.36283,62426
31.37095,66966
31.37907,62008
31.38720,66179
31.39532,68825
31.40345,70683
31.41157,61110
31.41968,67660
31.42782,67367
31.43593,66639
31.44405,68396
31.45218,65593
31.46030,68203
31.46843,66306
31.47655,68341
31.48467,63817
31.49280,62585
31.50092,67723
31.50905,67724
31.51717,67283
31.52528,67868
31.53342,66806
31.54153,67490
31.54967,71392
31.55778,71169
31.56590,66895
31.57403,66493
31.58215,72084
31.59027,79030
31.59840,72059
31.60652,75950
31.61465,67392
31.62277,66699
31.63088,70471
31.63902,72501
31.64713,65887
31.65527,66632
31.66338,68559
31.67150,70638
31.67963,72905
31.68775,71208
31.69587,73065
31.70400,72480
31.71212,69651
31.72025,65114
31.72837,65175
31.73648,66379
31.74462,70351
31.75273,65901
31.76087,67165
31.76898,62943
31.77710,63268
31.78523,67910
31.79335,68140
31.80148,69370
31.80960,74746
31.81772,72667
31.82585,76240
31.83397,67052
31.84208,63554
31.85022,65167
31.85833,69809
31.86647,63668
31.87458,67898
31.88270,70680
31.89083,73514
31.89895,77052
31.90708,70659
31.91520,73693
31.92332,76553
31.93145,82213
31.93957,87778
31.94770,90583
31.95582,96711
31.96393,104317
31.97207,100420
31.98018,109279
31.98830,113963
31.99643,117626
32.00455,110371
32.01268,111316
32.02080,110266
32.02892,109799
32.03705,105541
32.04517,109126
32.05330,101618
32.06142,100934
32.06953,102251
32.07767,97510
32.08578,94397
32.09390,98023
32.10203,96662
32.11015,93457
32.11828,89114
32.12640,81367
32.13452,77025
32.14265,81513
32.15077,80272
32.15890,79056
32.16702,71363
32.17513,76125
32.18327,71476
32.19138,75621
32.19952,72964
32.20763,71851
32.21575,69389
32.22388,74676
32.23200,78158
32.24012,76738
32.24825,78185
32.25637,83925
32.26450,85882
32.27262,94995
32.28073,94203
32.28887,87405
32.29698,86244
32.30512,81829
32.31323,77804
32.32135,74937
32.32948,73712
32.33760,75683
32.34573,77253
32.35385,70789
32.36197,67666
32.37010,69198
32.37822,68631
32.38633,69196
32.39447,71839
32.40258,67748
32.41072,65170
32.41883,67097
32.42695,75407
32.43508,66203
32.44320,66470
32.45133,62093
32.45945,63893
32.46757,61998
32.47570,65455
32.48382,64467
32.49193,64039
32.50007,64061
32.50818,59339
32.51632,64775
32.52443,64140
32.53255,59590
32.54068,68551
32.54880,64859
32.55693,64856
32.56505,63423
32.57317,71495
32.58130,67022
32.58942,63211
32.59755,64527
32.60567,66141
32.61378,60568
32.62192,65803
32.63003,60436
32.63815,59340
32.64628,60685
32.65440,69113
32.66253,72181
32.67065,79433
32.67877,83931
32.68690,83736
32.69502,82394
32.70315,83651
32.71127,77041
32.71938,78967
32.72752,67904
32.73563,71129
32.74375,67365
32.75188,67036
32.76000,66632
32.76813,64479
32.77625,63722
32.78437,65267
32.79250,60589
32.80062,61465
32.80875,63664
32.81687,58735
32.82498,57769
32.83312,57097
32.84123,59457
32.84937,67588
32.85748,60467
32.86560,61943
32.87373,64439
32.88185,62804
32.88997,58850
32.89810,61167
32.90622,61477
32.91435,61709
32.92247,60615
32.93058,56723
32.93872,64751
32.94683,61567
32.95497,58761
32.96308,60706
32.97120,61560
32.97933,61396
32.98745,62250
32.99558,68551
33.00370,67610
33.01182,67302
33.01995,69539
33.02807,71107
33.03618,68329
33.04432,66273
33.05243,63441
33.06057,64580
33.06868,66120
33.07680,66533
33.08493,67111
33.09305,67242
33.10118,72881
33.10930,85234
33.11742,93653
33.12555,89856
33.13367,98364
33.14178,93399
33.14992,86422
33.15803,72861
33.16617,65658
33.17428,64696
33.18240,65887
33.19053,66521
33.19865,63788
33.20678,70002
33.21490,64087
33.22302,66616
33.23115,71874
33.23927,70115
33.24740,65330
33.25552,66283
33.26363,66835
33.27177,59247
33.27988,62987
33.28800,67377
33.29613,65431
33.30425,61602
33.31238,66395
33.32050,64309
33.32862,62094
33.33675,57480
33.34487,61471
33.35300,63622
33.36112,62442
33.36923,60192
33.37737,63160
33.38548,60907
33.39362,62622
33.40173,63902
33.40985,61283
33.41798,71945
33.42610,74944
33.43422,67735
33.44235,72061
33.45047,70249
33.45860,73724
33.46672,70969
33.47483,70053
33.48297,63818
33.49108,60988
33.49922,61936
33.50733,60315
33.51545,61688
33.52358,61860
33.53170,65300
33.53982,63854
33.54795,64066
33.55607,69654
33.56420,73040
33.57232,73830
33.58043,69213
33.58857,69818
33.59668,67585
33.60482,60733
33.61293,60604
33.62105,60108
33.62918,60980
33.63730,61724
33.64543,61693
33.65355,70251
33.66167,67762
33.66980,61595
33.67792,68966
33.68603,71862
33.69417,62616
33.70228,64715
33.71042,62119
33.71853,63741
33.72665,66036
33.73478,69010
33.74290,70097
33.75103,70700
33.75915,76546
33.76727,73596
33.77540,73517
33.78352,64295
33.79163,67627
33.79977,63030
33.80788,63022
33.81602,60891
33.82413,65269
33.83225,65651
33.84038,67324
33.84850,68451
33.85663,73733
33.86475,72203
33.87287,78424
33.88100,76345
33.88912,72264
33.89725,75750
33.90537,82626
33.91348,82824
33.92162,78677
33.92973,78213
33.93785,80077
33.94598,81118
33.95410,75598
33.96223,69885
33.97035,67820
33.97847,65391
33.98660,65471
33.99472,64447
34.00285,64615
34.01097,65471
34.01908,67182
34.02722,67833
34.03533,67055
34.04347,65985
34.05158,62453
34.05970,61887
34.06783,62322
34.07595,63395
34.08407,69737
34.09220,64688
34.10032,65333
34.10845,65911
34.11657,61739
34.12468,62533
34.13282,63202
34.14093,63903
34.14907,64429
34.15718,61108
34.16530,59024
34.17343,65012
34.18155,67528
34.18968,68084
34.19780,70556
34.20592,71843
34.21405,70181
34.22217,68715
34.23028,74522
34.23842,70346
34.24653,60352
34.25467,61156
34.26278,63665
34.27090,62498
34.27903,63332
34.28715,62731
34.29528,60293
34.30340,64557
34.31152,64037
34.31965,56810
34.32777,61005
34.33588,69309
34.34402,64096
34.35213,61204
34.36027,62419
34.36838,62069
34.37650,64422
34.38463,61055
34.39275,58894
34.40088,59206
34.40900,63092
34.41712,64256
34.42525,64693
34.43337,61412
34.44150,63356
34.44962,54398
34.45773,65880
34.46587,63092
34.47398,56333
34.48210,63381
34.49023,61470
34.49835,59307
34.50648,63359
34.51460,61346
34.52272,62893
34.53085,72280
34.53897,78448
34.54710,84168
34.55522,93810
34.56333,98911
34.57147,108729
34.57958,105664
34.58770,100970
34.59583,95937
34.60395,100413
34.61208,94186
34.62020,91522
34.62832,97094
34.63645,86553
34.64457,88540
34.65270,89107
34.66082,86815
34.66893,78364
34.67707,74983
34.68518,82184
34.69332,78212
34.70143,77605
34.70955,74399
34.71768,72550
34.72580,77526
34.73392,69553
34.74205,66756
34.75017,70493
34.75830,78533
34.76642,66566
34.77453,68386
34.78267,60155
34.79078,71201
34.79892,65392
34.80703,71576
34.81515,68792
34.82328,66932
34.83140,69142
34.83953,73937
34.84765,72001
34.85577,67975
34.86390,68075
34.87202,69172
34.88013,68934
34.88827,67621
34.89638,70373
34.90452,67357
34.91263,68660
34.92075,69199
34.92888,73512
34.93700,71043
34.94513,68269
34.95325,71067
34.96137,73038
34.96950,76011
34.97762,75691
34.98573,77093
34.99387,74779
35.00198,72248
35.01012,79676
35.01823,78423
35.02635,80949
35.03448,79886
35.04260,86873
35.05073,84512
35.05885,72426
35.06697,79602
35.07510,75058
35.08322,77590
35.09135,72471
35.09947,77499
35.10758,71095
35.11572,66611
35.12383,68168
35.13195,66739
35.14008,67365
35.14820,71897
35.15633,65648
35.16445,69333
35.17257,71955
35.18070,68594
35.18882,74007
35.19695,66551
35.20507,68248
35.21318,63175
35.22132,65914
35.22943,69074
35.23757,72147
35.24568,65916
35.25380,67320
35.26193,72865
35.27005,77407
35.27817,76380
35.28630,70589
35.29442,76619
35.30255,69568
35.31067,73749
35.31878,65497
35.32692,67465
35.33503,69025
35.34317,71352
35.35128,68391
35.35940,73392
35.36753,73264
35.37565,76236
35.38377,78567
35.39190,80233
35.40002,87316
35.40815,92422
35.41627,91671
35.42438,103909
35.43252,96483
35.44063,98199
35.44877,95102
35.45688,87181
35.46500,87557
35.47313,76731
35.48125,75375
35.48938,71750
35.49750,72650
35.50562,72452
35.51375,72542
35.52187,70274
35.52998,70288
35.53812,69024
35.54623,74010
35.55437,72623
35.56248,74759
35.57060,71498
35.57873,69042
35.58685,66167
35.59498,67252
35.60310,71660
35.61122,68183
35.61935,72343
35.62747,67572
35.63558,64305
35.64372,67496
35.65183,67664
35.65997,71410
35.66808,71871
35.67620,77332
35.68433,74551
35.69245,77552
35.70058,80321
35.70870,77799
35.71682,80228
35.72495,78397
35.73307,78573
35.74120,77210
35.74932,74009
35.75743,72990
35.76557,73045
35.77368,77484
35.78180,79711
35.78993,77166
35.79805,84253
35.80618,77444
35.81430,73515
35.82242,73405
35.83055,73017
35.83867,67656
35.84680,72157
35.85492,70839
35.86303,73017
35.87117,72567
35.87928,75418
35.88742,76316
35.89553,71801
35.90365,69534
35.91178,68521
35.91990,73664
35.92802,67158
35.93615,68223
35.94427,68769
35.95240,70365
35.96052,70742
35.96863,67349
35.97677,65780
35.98488,70095
35.99302,71339
36.00113,67865
36.00925,69000
36.01738,70610
36.02550,76222
36.03362,72543
36.04175,73328
36.04987,72335
36.05800,71948
36.06612,67145
36.07423,71526
36.08237,69592
36.09048,72368
36.09862,68580
36.10673,71178
36.11485,73785
36.12298,68836
36.13110,64740
36.13923,69676
36.14735,69421
36.15547,69473
36.16360,68933
36.17172,69135
36.17983,69445
36.18797,67970
36.19608,69647
36.20422,71087
36.21233,70225
36.22045,67115
36.22858,70635
36.23670,72567
36.24483,68056
36.25295,69961
36.26107,74051
36.26920,75865
36.27732,77864
36.28545,76397
36.29357,74900
36.30168,80626
36.30982,85030
36.31793,83562
36.32605,86987
36.33418,88174
36.34230,83918
36.35043,76856
36.35855,72628
36.36667,76880
36.37480,69378
36.38292,72060
36.39105,71370
36.39917,73515
36.40728,70360
36.41542,73881
36.42353,74581
36.43165,79317
36.43978,76681
36.44790,79344
36.45603,79344
36.46415,84812
36.47227,80862
36.48040,84080
36.48852,83122
36.49665,84624
36.50477,83231
36.51288,79364
36.52102,85058
36.52913,81928
36.53727,85925
36.54538,84118
36.55350,79870
36.56163,73211
36.56975,72186
36.57787,70892
36.58600,71512
36.59412,72249
36.60225,72892
36.61037,71250
36.61848,74249
36.62662,77341
36.63473,77690
36.64287,84585
36.65098,91142
36.65910,83999
36.66723,88150
36.67535,89395
36.68347,89141
36.69160,86585
36.69972,88505
36.70785,76258
36.71597,81017
36.72408,77705
36.73222,75273
36.74033,80078
36.74847,73045
36.75658,67792
36.76470,71596
36.77283,74309
36.78095,71261
36.78908,72544
36.79720,71249
36.80532,72256
36.81345,72242
36.82157,68850
36.82968,69953
36.83782,69979
36.84593,74312
36.85407,73438
36.86218,70649
36.87030,65953
36.87843,81768
36.88655,76696
36.89468,75331
36.90280,79066
36.91092,74766
36.91905,71600
36.92717,71518
36.93530,74211
36.94342,71995
36.95153,71654
36.95967,69920
36.96778,74282
36.97590,76583
36.98403,73136
36.99215,76489
37.00028,76313
37.00840,70366
37.01652,74780
37.02465,76809
37.03277,74609
37.04090,78677
37.04902,76688
37.05713,74765
37.06527,78790
37.07338,81758
37.08150,80094
37.08963,79001
37.09775,79052
37.10588,84332
37.11400,78470
37.12212,90050
37.13025,92605
37.13837,87572
37.14650,95247
37.15462,90488
37.16273,87273
37.17087,83272
37.17898,84413
37.18712,79887
37.19523,78849
37.20335,73991
37.21148,75900
37.21960,74000
37.22772,74112
37.23585,78363
37.24397,75101
37.25210,76147
37.26022,74584
37.26833,85904
37.27647,73529
37.28458,76769
37.29272,73740
37.30083,79766
37.30895,75669
37.31708,84130
37.32520,81206
37.33333,86239
37.34145,85078
37.34957,89507
37.35770,91547
37.36582,93236
37.37393,101349
37.38207,95549
37.39018,100827
37.39832,93355
37.40643,90291
37.41455,92448
37.42268,90239
37.43080,91940
37.43893,85579
37.44705,79835
37.45517,87247
37.46330,91635
37.47142,86741
37.47953,84843
37.48767,86192
