C:\MassHunter\GCMS\1\data\JTB-E18\JTB-E18-024-08.D Wed Sep 11 13:16:43 2019
Start of data points
2.09538	157845
2.10352	156617
2.11163	159621
2.11975	159817
2.12788	153853
2.13600	157720
2.14412	160169
2.15225	150412
2.16037	147417
2.16850	144891
2.17662	148659
2.18473	142035
2.19287	136494
2.20098	131466
2.20912	134869
2.21723	132395
2.22535	141054
2.23348	124708
2.24160	120725
2.24972	128027
2.25785	122381
2.26597	133852
2.27410	462761
2.28222	1852047
2.29033	1840705
2.29847	796067
2.30658	458214
2.31472	358836
2.32283	325602
2.33095	289872
2.33908	269886
2.34720	256736
2.35533	228679
2.36345	217153
2.37157	210036
2.37970	220980
2.38782	420587
2.39593	387918
2.40407	253354
2.41218	214470
2.42032	207081
2.42843	232437
2.43655	212878
2.44468	208954
2.45280	214908
2.46093	205462
2.46905	182146
2.47717	178710
2.48530	171709
2.49342	198828
2.50155	238615
2.50967	201852
2.51778	176906
2.52592	183066
2.53403	168352
2.54215	168798
2.55028	165990
2.55840	183148
2.56653	172577
2.57465	158461
2.58277	158722
2.59090	164439
2.59902	162798
2.60715	163369
2.61527	179861
2.62338	198780
2.63152	200395
2.63963	182352
2.64775	160588
2.65588	164739
2.66400	161750
2.67213	171806
2.68025	233060
2.68837	254773
2.69650	198483
2.70462	169403
2.71275	152354
2.72087	156640
2.72898	149066
2.73712	160358
2.74523	151975
2.75337	152741
2.76148	154382
2.76960	154031
2.77773	147011
2.78585	145283
2.79397	151683
2.80210	150816
2.81022	165552
2.81835	181660
2.82647	344180
2.83458	955548
2.84272	1167121
2.85083	685664
2.85897	408727
2.86708	371436
2.87520	322462
2.88333	247808
2.89145	207114
2.89958	190571
2.90770	177437
2.91582	177424
2.92395	167324
2.93207	164074
2.94018	159514
2.94832	155467
2.95643	147239
2.96457	143493
2.97268	146525
2.98080	145752
2.98893	153694
2.99705	166315
3.00518	179966
3.01330	205886
3.02142	230733
3.02955	441988
3.03767	917886
3.04578	1336212
3.05392	3132920
3.06203	8944481
3.07017	1.222751E+07
3.07828	8385414
3.08640	4062133
3.09453	2198121
3.10265	1412316
3.11078	1013918
3.11890	762906
3.12702	606517
3.13515	496684
3.14327	417724
3.15140	364583
3.15952	324181
3.16763	304854
3.17577	304667
3.18388	274327
3.19200	249286
3.20013	234014
3.20825	221093
3.21638	220305
3.22450	229702
3.23262	244938
3.24075	240581
3.24887	212103
3.25700	197891
3.26512	188304
3.27323	184634
3.28137	264288
3.28948	831362
3.29760	3032320
3.30573	6779673
3.31385	9122604
3.32198	7818192
3.33010	5118416
3.33822	3241233
3.34635	2226956
3.35447	1678850
3.36260	1308296
3.37072	1224585
3.37883	1436185
3.38697	1645760
3.39508	1460821
3.40322	1470725
3.41133	2892622
3.41945	5266245
3.42758	5455723
3.43570	3451728
3.44382	1902661
3.45195	1204275
3.46007	934023
3.46820	792096
3.47632	702721
3.48443	601806
3.49257	542514
3.50068	477853
3.50882	447477
3.51693	426659
3.52505	397226
3.53318	393078
3.54130	361074
3.54943	346776
3.55755	324173
3.56567	319470
3.57380	302505
3.58192	308970
3.59003	298551
3.59817	286221
3.60628	284647
3.61442	359301
3.62253	741039
3.63065	1841570
3.63878	3104613
3.64690	3116208
3.65503	2077731
3.66315	1153510
3.67127	739632
3.67940	553957
3.68752	462748
3.69563	410334
3.70377	356305
3.71188	335964
3.72002	318185
3.72813	304976
3.73625	311867
3.74438	305518
3.75250	313940
3.76063	317034
3.76875	303467
3.77687	281616
3.78500	256674
3.79312	258654
3.80125	253451
3.80937	249578
3.81748	255059
3.82562	248669
3.83373	258510
3.84185	258535
3.84998	256909
3.85810	237163
3.86623	222673
3.87435	225652
3.88247	225804
3.89060	222561
3.89872	222745
3.90685	229411
3.91497	221565
3.92308	228311
3.93122	218736
3.93933	217307
3.94747	210441
3.95558	204082
3.96370	209655
3.97183	200294
3.97995	200039
3.98807	203204
3.99620	190063
4.00432	199596
4.01245	198609
4.02057	200219
4.02868	197800
4.03682	191605
4.04493	190947
4.05307	200518
4.06118	209183
4.06930	220193
4.07743	210455
4.08555	203359
4.09367	197380
4.10180	197143
4.10992	198750
4.11805	195479
4.12617	194002
4.13428	208342
4.14242	224316
4.15053	247504
4.15867	256738
4.16678	248753
4.17490	216363
4.18303	205171
4.19115	193243
4.19928	186932
4.20740	184983
4.21552	191774
4.22365	235522
4.23177	328733
4.23988	416548
4.24802	390606
4.25613	315374
4.26427	258259
4.27238	229777
4.28050	221185
4.28863	205974
4.29675	202852
4.30488	186888
4.31300	186353
4.32112	189690
4.32925	191765
4.33737	189427
4.34548	186098
4.35362	180944
4.36173	188754
4.36987	184523
4.37798	185497
4.38610	181590
4.39423	178586
4.40235	178252
4.41048	173915
4.41860	176847
4.42672	170485
4.43485	177885
4.44297	185707
4.45110	196740
4.45922	212368
4.46733	227685
4.47547	212428
4.48358	208639
4.49170	191486
4.49983	186542
4.50795	185560
4.51608	179816
4.52420	177536
4.53232	176140
4.54045	174258
4.54857	168912
4.55670	178199
4.56482	166898
4.57293	173012
4.58107	172656
4.58918	169083
4.59732	166210
4.60543	169339
4.61355	171037
4.62168	168323
4.62980	163423
4.63792	162277
4.64605	166303
4.65417	167099
4.66230	162082
4.67042	171999
4.67853	171419
4.68667	167696
4.69478	167520
4.70292	169218
4.71103	163161
4.71915	165087
4.72728	167029
4.73540	163656
4.74352	165415
4.75165	164377
4.75977	172462
4.76790	163951
4.77602	163973
4.78413	166264
4.79227	155418
4.80038	166338
4.80852	165902
4.81663	174610
4.82475	177732
4.83288	175160
4.84100	167431
4.84913	170569
4.85725	167468
4.86537	177812
4.87350	179000
4.88162	169588
4.88973	171090
4.89787	170148
4.90598	171571
4.91412	183253
4.92223	265408
4.93035	576959
4.93848	1345175
4.94660	2533181
4.95473	3474517
4.96285	3604900
4.97097	2940628
4.97910	2086940
4.98722	1429055
4.99535	1028578
5.00347	782733
5.01158	627039
5.01972	538736
5.02783	459268
5.03595	414879
5.04408	377845
5.05220	343075
5.06033	339648
5.06845	301091
5.07657	289875
5.08470	292242
5.09282	291079
5.10095	332154
5.10907	379861
5.11718	463731
5.12532	479588
5.13343	457134
5.14155	376484
5.14968	312335
5.15780	287330
5.16593	303016
5.17405	338150
5.18217	415996
5.19030	466656
5.19842	460269
5.20655	401201
5.21467	337035
5.22278	298512
5.23092	262697
5.23903	246387
5.24717	252759
5.25528	249818
5.26340	234549
5.27153	222887
5.27965	230409
5.28777	233263
5.29590	238712
5.30402	237446
5.31215	227872
5.32027	222057
5.32838	225183
5.33652	225266
5.34463	228413
5.35277	215669
5.36088	218034
5.36900	211130
5.37713	197256
5.38525	188996
5.39338	196230
5.40150	186711
5.40962	184890
5.41775	180015
5.42587	189216
5.43398	187597
5.44212	184979
5.45023	191350
5.45837	187242
5.46648	192434
5.47460	182732
5.48273	182462
5.49085	177042
5.49898	187674
5.50710	182453
5.51522	183471
5.52335	187794
5.53147	183275
5.53958	185015
5.54772	182910
5.55583	178169
5.56397	183497
5.57208	185127
5.58020	179806
5.58833	189299
5.59645	184916
5.60458	185024
5.61270	191520
5.62082	194426
5.62895	201867
5.63707	226900
5.64520	224447
5.65332	228575
5.66143	210709
5.66957	197219
5.67768	194482
5.68580	199599
5.69393	204863
5.70205	211952
5.71018	217488
5.71830	239561
5.72642	265069
5.73455	277500
5.74267	274852
5.75080	272327
5.75892	266657
5.76703	281726
5.77517	298129
5.78328	295104
5.79140	277975
5.79953	287303
5.80765	373322
5.81578	651323
5.82390	1093730
5.83202	1549986
5.84015	1769589
5.84827	1553249
5.85640	1149051
5.86452	759393
5.87263	528830
5.88077	383354
5.88888	313636
5.89702	280746
5.90513	294108
5.91325	363061
5.92138	516384
5.92950	708209
5.93762	832902
5.94575	785247
5.95387	613568
5.96200	433445
5.97012	308226
5.97823	263296
5.98637	228937
5.99448	214983
6.00262	189243
6.01073	175250
6.01885	160748
6.02698	152295
6.03510	150589
6.04323	143567
6.05135	140971
6.05947	135099
6.06760	131962
6.07572	127639
6.08383	126183
6.09197	122304
6.10008	129319
6.10822	121277
6.11633	123415
6.12445	120423
6.13258	122283
6.14070	121092
6.14883	125137
6.15695	121574
6.16507	133079
6.17320	140631
6.18132	150525
6.18943	170876
6.19757	190029
6.20568	210532
6.21382	215041
6.22193	195970
6.23005	172790
6.23818	152156
6.24630	147568
6.25443	154051
6.26255	152701
6.27067	154568
6.27880	155694
6.28692	156244
6.29505	160088
6.30317	159075
6.31128	156051
6.31942	171351
6.32753	178451
6.33565	179317
6.34378	174365
6.35190	182461
6.36003	200297
6.36815	199357
6.37627	202865
6.38440	195339
6.39252	199842
6.40065	191468
6.40877	198263
6.41688	197150
6.42502	201964
6.43313	201343
6.44127	206425
6.44938	209504
6.45750	206716
6.46563	221276
6.47375	220376
6.48187	223355
6.49000	209544
6.49812	229769
6.50625	235124
6.51437	174005
6.52248	161679
6.53062	150950
6.53873	142713
6.54687	151483
6.55498	149833
6.56310	143102
6.57123	144452
6.57935	147043
6.58747	136610
6.59560	133692
6.60372	132683
6.61185	134454
6.61997	128531
6.62808	129946
6.63622	131734
6.64433	130059
6.65247	122947
6.66058	121891
6.66870	122496
6.67683	123788
6.68495	119451
6.69308	123169
6.70120	121378
6.70932	123403
6.71745	133746
6.72557	146443
6.73368	177609
6.74182	224787
6.74993	250807
6.75807	273487
6.76618	254910
6.77430	225507
6.78243	178040
6.79055	149796
6.79868	132997
6.80680	119774
6.81492	119615
6.82305	114411
6.83117	110387
6.83928	112164
6.84742	116308
6.85553	147838
6.86367	209651
6.87178	357845
6.87990	585960
6.88803	844427
6.89615	1042289
6.90428	1075390
6.91240	890735
6.92052	660405
6.92865	429897
6.93677	269477
6.94490	185191
6.95302	137526
6.96113	118367
6.96927	106768
6.97738	93447
6.98550	91238
6.99363	82960
7.00175	84204
7.00988	92447
7.01800	108039
7.02612	157214
7.03425	227345
7.04237	338977
7.05050	451201
7.05862	495277
7.06673	476344
7.07487	398842
7.08298	301609
7.09112	231224
7.09923	186119
7.10735	154613
7.11548	133516
7.12360	127278
7.13172	128105
7.13985	123601
7.14797	115854
7.15610	114153
7.16422	107206
7.17233	106784
7.18047	101551
7.18858	95811
7.19672	101760
7.20483	113495
7.21295	110432
7.22108	112329
7.22920	116925
7.23733	115602
7.24545	116854
7.25357	118625
7.26170	125730
7.26982	128058
7.27793	150913
7.28607	175142
7.29418	191307
7.30232	198624
7.31043	189711
7.31855	166263
7.32668	149337
7.33480	139341
7.34293	141548
7.35105	150565
7.35917	158203
7.36730	147012
7.37542	134766
7.38353	147046
7.39167	155908
7.39978	219820
7.40792	290722
7.41603	366509
7.42415	387726
7.43228	354554
7.44040	300663
7.44853	231700
7.45665	174759
7.46477	144541
7.47290	129075
7.48102	118162
7.48915	117995
7.49727	134804
7.50538	168101
7.51352	210886
7.52163	262766
7.52975	269982
7.53788	259737
7.54600	230595
7.55413	188405
7.56225	146012
7.57037	126065
7.57850	113720
7.58662	103990
7.59475	101945
7.60287	93791
7.61098	90275
7.61912	95759
7.62723	92064
7.63535	93862
7.64348	97345
7.65160	100107
7.65973	94182
7.66785	94957
7.67597	92618
7.68410	89986
7.69222	85767
7.70035	87780
7.70847	85612
7.71658	83793
7.72472	84677
7.73283	78561
7.74097	85587
7.74908	77076
7.75720	77324
7.76533	77978
7.77345	75393
7.78157	76990
7.78970	78062
7.79782	73201
7.80595	81093
7.81407	81745
7.82218	77302
7.83032	75479
7.83843	77443
7.84657	81031
7.85468	75523
7.86280	79047
7.87093	75504
7.87905	77713
7.88718	81207
7.89530	80492
7.90342	83101
7.91155	83416
7.91967	76153
7.92778	79116
7.93592	78912
7.94403	71301
7.95217	75719
7.96028	75034
7.96840	79273
7.97653	79823
7.98465	80048
7.99278	79315
8.00090	77457
8.00902	76002
8.01715	71341
8.02527	77470
8.03338	72862
8.04152	73311
8.04963	79667
8.05777	78719
8.06588	77379
8.07400	77973
8.08213	78166
8.09025	81542
8.09838	74946
8.10650	65752
8.11462	71773
8.12275	74566
8.13087	69468
8.13900	72650
8.14712	77991
8.15523	78716
8.16337	78756
8.17148	82601
8.17960	79514
8.18773	75717
8.19585	80371
8.20398	76290
8.21210	73321
8.22022	73574
8.22835	73018
8.23647	71193
8.24460	73451
8.25272	72264
8.26083	72105
8.26897	75035
8.27708	73664
8.28522	75118
8.29333	71258
8.30145	74021
8.30958	66276
8.31770	77069
8.32582	71336
8.33395	75716
8.34207	80257
8.35020	86697
8.35832	86858
8.36643	83256
8.37457	75533
8.38268	76336
8.39082	74761
8.39893	74179
8.40705	72293
8.41518	71374
8.42330	69686
8.43142	73385
8.43955	68871
8.44767	70183
8.45580	63576
8.46392	67080
8.47203	71314
8.48017	64728
8.48828	70823
8.49642	75101
8.50453	73436
8.51265	85946
8.52078	95891
8.52890	87673
8.53703	78578
8.54515	76818
8.55327	77701
8.56140	82286
8.56952	83286
8.57763	81765
8.58577	76539
8.59388	78842
8.60202	76940
8.61013	75089
8.61825	74034
8.62638	67277
8.63450	69452
8.64263	70017
8.65075	68811
8.65887	74719
8.66700	68168
8.67512	66946
8.68323	72599
8.69137	65183
8.69948	72345
8.70762	69198
8.71573	75904
8.72385	70691
8.73198	84057
8.74010	138400
8.74823	266752
8.75635	558975
8.76447	988287
8.77260	1302810
8.78072	1358249
8.78885	1128370
8.79697	775872
8.80508	511012
8.81322	344660
8.82133	260623
8.82945	214049
8.83758	180074
8.84570	163423
8.85383	145957
8.86195	140375
8.87007	125986
8.87820	123610
8.88632	118554
8.89445	117274
8.90257	113845
8.91068	111457
8.91882	104794
8.92693	104083
8.93507	110957
8.94318	106276
8.95130	101370
8.95943	95619
8.96755	95484
8.97567	96047
8.98380	97801
8.99192	98305
9.00005	102592
9.00817	96112
9.01628	96493
9.02442	95807
9.03253	91751
9.04067	94384
9.04878	91878
9.05690	88633
9.06503	90860
9.07315	90885
9.08127	90384
9.08940	86265
9.09752	87003
9.10565	93610
9.11377	84183
9.12188	80845
9.13002	91686
9.13813	87244
9.14627	84967
9.15438	86091
9.16250	86992
9.17063	87744
9.17875	84435
9.18688	85992
9.19500	81811
9.20312	83039
9.21125	85323
9.21937	81563
9.22748	78955
9.23562	79313
9.24373	72456
9.25187	75835
9.25998	80067
9.26810	76232
9.27623	76000
9.28435	82054
9.29248	81983
9.30060	79346
9.30872	84715
9.31685	82987
9.32497	80100
9.33310	79987
9.34122	81233
9.34933	82549
9.35747	82326
9.36558	84565
9.37370	83771
9.38183	83983
9.38995	72042
9.39808	73453
9.40620	73909
9.41432	71314
9.42245	75312
9.43057	67940
9.43870	72681
9.44682	70118
9.45493	74757
9.46307	71309
9.47118	69713
9.47930	70012
9.48743	68609
9.49555	71677
9.50368	71110
9.51180	68154
9.51992	72507
9.52805	71990
9.53617	70074
9.54430	64049
9.55242	66417
9.56053	64656
9.56867	57796
9.57678	57367
9.58492	53565
9.59303	57625
9.60115	60282
9.60928	58773
9.61740	68087
9.62552	56584
9.63365	51951
9.64177	54717
9.64990	57202
9.65802	56157
9.66613	56652
9.67427	54891
9.68238	51478
9.69052	50624
9.69863	51394
9.70675	45847
9.71488	48067
9.72300	49137
9.73113	49778
9.73925	47229
9.74737	47273
9.75550	47367
9.76362	48619
9.77173	47515
9.77987	44579
9.78798	50024
9.79612	51568
9.80423	48850
9.81235	46937
9.82048	49606
9.82860	46391
9.83673	45703
9.84485	46527
9.85297	46095
9.86110	49746
9.86922	50803
9.87733	44759
9.88547	49890
9.89358	47238
9.90172	46421
9.90983	46443
9.91795	45968
9.92608	45454
9.93420	47824
9.94233	46129
9.95045	48878
9.95857	48396
9.96670	49545
9.97482	54779
9.98295	60976
9.99107	63000
9.99918	60918
10.00732	62811
10.01543	61511
10.02355	61917
10.03168	56742
10.03980	55400
10.04793	51564
10.05605	53682
10.06417	52966
10.07230	49945
10.08042	50152
10.08855	48038
10.09667	47978
10.10478	51264
10.11292	44498
10.12103	44241
10.12915	45679
10.13728	46712
10.14540	44054
10.15353	45341
10.16165	45988
10.16977	43751
10.17790	47662
10.18602	45274
10.19415	43587
10.20227	46529
10.21038	47788
10.21852	46773
10.22663	53982
10.23477	54198
10.24288	52846
10.25100	53486
10.25913	49547
10.26725	53146
10.27537	49358
10.28350	55774
10.29162	56822
10.29975	52773
10.30787	56474
10.31598	55898
10.32412	53395
10.33223	54322
10.34037	48966
10.34848	50821
10.35660	51168
10.36473	51206
10.37285	47400
10.38098	49652
10.38910	52107
10.39722	59883
10.40535	63101
10.41347	64846
10.42158	58995
10.42972	54512
10.43783	47965
10.44597	48545
10.45408	45362
10.46220	46265
10.47033	44537
10.47845	48122
10.48658	42991
10.49470	41726
10.50282	44386
10.51095	45549
10.51907	49634
10.52718	52826
10.53532	55205
10.54343	57661
10.55157	63714
10.55968	59242
10.56780	55568
10.57593	51241
10.58405	52017
10.59218	56580
10.60030	51586
10.60842	47742
10.61655	55209
10.62467	47732
10.63280	50854
10.64092	46233
10.64903	47755
10.65717	45410
10.66528	47690
10.67340	49668
10.68153	45368
10.68965	50974
10.69778	51347
10.70590	53409
10.71402	51466
10.72215	61416
10.73027	57216
10.73840	62290
10.74652	60536
10.75463	52549
10.76277	54176
10.77088	55035
10.77902	54909
10.78713	56378
10.79525	57333
10.80338	46747
10.81150	46782
10.81962	45933
10.82775	41757
10.83587	44499
10.84400	45081
10.85212	45572
10.86023	42419
10.86837	48159
10.87648	44069
10.88462	47446
10.89273	46115
10.90085	42155
10.90898	41858
10.91710	46195
10.92522	44945
10.93335	45220
10.94147	41852
10.94960	46019
10.95772	44132
10.96583	45743
10.97397	45361
10.98208	49272
10.99022	48434
10.99833	49523
11.00645	49713
11.01458	53289
11.02270	47341
11.03083	46144
11.03895	44344
11.04707	42753
11.05520	48342
11.06332	42079
11.07143	45070
11.07957	44565
11.08768	48651
11.09582	41432
11.10393	43039
11.11205	43236
11.12018	47812
11.12830	45641
11.13643	51200
11.14455	55457
11.15267	57822
11.16080	54329
11.16892	60663
11.17703	57173
11.18517	57329
11.19328	57981
11.20142	55820
11.20953	52339
11.21765	56321
11.22578	53353
11.23390	52676
11.24203	53205
11.25015	50311
11.25827	48952
11.26640	48407
11.27452	56795
11.28265	55679
11.29077	73582
11.29888	92917
11.30702	125456
11.31513	157524
11.32325	176473
11.33138	189018
11.33950	188745
11.34763	177591
11.35575	169745
11.36387	155956
11.37200	128193
11.38012	119691
11.38825	100722
11.39637	84797
11.40448	71836
11.41262	65532
11.42073	62152
11.42887	57488
11.43698	56437
11.44510	49914
11.45323	51022
11.46135	48161
11.46947	46594
11.47760	46815
11.48572	45067
11.49385	44542
11.50197	45427
11.51008	45663
11.51822	50750
11.52633	50501
11.53447	59053
11.54258	57440
11.55070	67201
11.55883	71514
11.56695	73192
11.57507	72399
11.58320	74103
11.59132	74844
11.59945	69488
11.60757	69484
11.61568	62109
11.62382	59713
11.63193	57375
11.64007	51445
11.64818	53145
11.65630	48465
11.66443	46461
11.67255	46912
11.68068	49602
11.68880	55124
11.69692	69521
11.70505	77256
11.71317	80381
11.72128	78972
11.72942	81084
11.73753	78158
11.74567	80015
11.75378	78926
11.76190	82762
11.77003	81715
11.77815	81482
11.78628	80301
11.79440	76240
11.80252	74391
11.81065	64348
11.81877	61050
11.82690	60951
11.83502	63180
11.84313	56333
11.85127	58836
11.85938	54692
11.86750	54139
11.87563	49741
11.88375	47215
11.89188	44061
11.90000	44868
11.90812	46690
11.91625	46967
11.92437	43895
11.93250	49564
11.94062	58123
11.94873	61805
11.95687	71526
11.96498	83076
11.97310	83992
11.98123	89431
11.98935	84231
11.99748	82000
12.00560	76265
12.01372	70165
12.02185	69495
12.02997	58339
12.03810	58265
12.04622	51514
12.05433	50940
12.06247	53852
12.07058	46335
12.07872	44427
12.08683	43465
12.09495	46539
12.10308	48173
12.11120	45617
12.11932	45722
12.12745	47878
12.13557	43204
12.14370	42502
12.15182	44372
12.15993	45319
12.16807	45403
12.17618	43528
12.18432	43909
12.19243	45778
12.20055	44306
12.20868	44919
12.21680	43460
12.22492	40896
12.23305	42158
12.24117	42765
12.24930	44026
12.25742	45457
12.26553	41863
12.27367	38853
12.28178	41295
12.28992	38636
12.29803	41829
12.30615	41699
12.31428	45911
12.32240	47980
12.33053	47666
12.33865	48806
12.34677	42677
12.35490	42117
12.36302	42351
12.37113	41970
12.37927	42896
12.38738	43756
12.39552	39706
12.40363	40464
12.41175	41113
12.41988	40012
12.42800	43606
12.43613	44183
12.44425	42661
12.45237	52544
12.46050	48623
12.46862	48146
12.47675	45295
12.48487	44831
12.49298	43653
12.50112	43999
12.50923	39161
12.51735	40921
12.52548	43934
12.53360	41179
12.54173	40343
12.54985	43050
12.55797	40279
12.56610	41545
12.57422	39661
12.58235	40485
12.59047	37900
12.59858	39212
12.60672	38928
12.61483	37250
12.62297	42286
12.63108	38780
12.63920	38345
12.64733	38849
12.65545	38630
12.66357	38157
12.67170	38838
12.67982	36547
12.68795	34545
12.69607	39845
12.70418	37305
12.71232	37120
12.72043	43232
12.72857	43249
12.73668	46969
12.74480	48182
12.75293	47345
12.76105	46394
12.76917	44866
12.77730	46008
12.78542	42011
12.79355	45929
12.80167	46784
12.80978	46537
12.81792	55576
12.82603	55224
12.83417	60118
12.84228	61257
12.85040	65427
12.85853	56325
12.86665	52302
12.87478	50508
12.88290	48520
12.89102	44263
12.89915	44074
12.90727	41960
12.91538	43896
12.92352	40269
12.93163	40413
12.93977	40483
12.94788	49178
12.95600	54709
12.96413	71027
12.97225	89769
12.98038	116581
12.98850	149392
12.99662	174073
13.00475	187769
13.01287	196435
13.02098	185181
13.02912	164502
13.03723	140487
13.04537	120425
13.05348	95822
13.06160	82576
13.06973	73627
13.07785	66868
13.08598	53122
13.09410	56974
13.10222	53865
13.11035	49226
13.11847	51496
13.12660	50617
13.13472	47692
13.14283	47606
13.15097	45419
13.15908	45665
13.16720	43700
13.17533	45811
13.18345	46676
13.19158	45317
13.19970	45326
13.20782	49468
13.21595	48621
13.22407	47653
13.23220	48076
13.24032	46369
13.24843	50505
13.25657	49556
13.26468	53716
13.27282	58520
13.28093	66631
13.28905	74831
13.29718	83988
13.30530	88371
13.31342	88340
13.32155	86145
13.32967	82225
13.33780	88875
13.34592	80384
13.35403	82402
13.36217	82789
13.37028	79386
13.37842	77450
13.38653	72899
13.39465	64745
13.40278	65183
13.41090	56596
13.41902	52896
13.42715	52039
13.43527	49419
13.44340	49501
13.45152	45390
13.45963	43981
13.46777	47169
13.47588	44950
13.48402	43199
13.49213	44401
13.50025	43118
13.50838	42060
13.51650	49029
13.52463	44016
13.53275	42140
13.54087	44346
13.54900	46808
13.55712	49515
13.56523	53383
13.57337	61620
13.58148	70074
13.58962	75800
13.59773	75460
13.60585	79491
13.61398	85692
13.62210	84916
13.63023	85867
13.63835	91965
13.64647	95968
13.65460	104207
13.66272	98175
13.67085	103895
13.67897	91930
13.68708	86952
13.69522	78319
13.70333	68109
13.71145	66152
13.71958	58101
13.72770	55029
13.73583	56534
13.74395	51344
13.75207	59340
13.76020	53988
13.76832	57745
13.77645	60884
13.78457	56261
13.79268	56414
13.80082	53171
13.80893	52819
13.81705	49416
13.82518	48353
13.83330	44669
13.84143	47398
13.84955	46555
13.85767	47864
13.86580	48218
13.87392	47033
13.88205	45797
13.89017	50240
13.89828	55582
13.90642	60329
13.91453	62128
13.92267	72554
13.93078	78749
13.93890	81081
13.94703	85060
13.95515	84976
13.96327	80037
13.97140	75642
13.97952	73524
13.98765	75616
13.99577	74017
14.00388	73905
14.01202	76696
14.02013	75367
14.02827	72920
14.03638	76273
14.04450	74660
14.05263	74314
14.06075	73357
14.06887	72410
14.07700	71848
14.08512	65768
14.09325	65158
14.10137	65917
14.10948	63412
14.11762	59311
14.12573	61981
14.13387	65315
14.14198	82149
14.15010	126553
14.15823	207886
14.16635	318811
14.17448	411222
14.18260	447998
14.19072	408689
14.19885	325667
14.20697	236499
14.21508	177932
14.22322	150481
14.23133	130346
14.23947	122747
14.24758	116282
14.25570	107144
14.26383	103571
14.27195	93377
14.28008	90687
14.28820	87335
14.29632	82180
14.30445	81602
14.31257	73696
14.32070	68781
14.32882	59715
14.33693	58020
14.34507	52151
14.35318	47918
14.36130	48035
14.36943	44555
14.37755	48643
14.38568	42322
14.39380	44739
14.40192	49148
14.41005	42963
14.41817	45699
14.42630	47038
14.43442	43953
14.44253	44067
14.45067	42680
14.45878	41057
14.46690	44672
14.47503	42625
14.48315	42101
14.49128	42535
14.49940	40536
14.50752	41900
14.51565	43026
14.52377	39819
14.53190	40518
14.54002	41314
14.54813	41408
14.55627	42551
14.56438	44846
14.57252	40138
14.58063	42007
14.58875	42361
14.59688	42261
14.60500	41826
14.61312	42220
14.62125	42019
14.62937	42253
14.63750	41433
14.64562	38146
14.65373	37950
14.66187	40363
14.66998	40828
14.67812	40152
14.68623	38129
14.69435	36018
14.70248	39184
14.71060	42129
14.71873	40687
14.72685	38097
14.73497	37373
14.74310	37038
14.75122	49226
14.75933	40484
14.76747	37675
14.77558	38563
14.78372	44187
14.79183	39568
14.79995	36882
14.80808	44501
14.81620	42323
14.82433	44440
14.83245	41173
14.84057	44607
14.84870	41439
14.85682	41348
14.86493	42269
14.87307	40498
14.88118	44369
14.88932	42093
14.89743	39519
14.90555	42320
14.91368	41549
14.92180	43514
14.92993	39426
14.93805	43545
14.94617	39846
14.95430	44371
14.96242	40737
14.97055	42232
14.97867	39959
14.98678	39528
14.99492	41077
15.00303	42667
15.01115	40062
15.01928	41238
15.02740	42514
15.03553	40218
15.04365	42832
15.05177	41251
15.05990	42041
15.06802	39413
15.07615	38567
15.08427	39046
15.09238	38859
15.10052	41439
15.10863	39391
15.11677	43081
15.12488	36993
15.13300	38571
15.14113	38309
15.14925	39028
15.15737	39971
15.16550	40026
15.17362	41807
15.18175	40472
15.18987	39666
15.19798	39669
15.20612	40055
15.21423	37794
15.22237	40413
15.23048	39424
15.23860	37530
15.24673	36226
15.25485	41537
15.26297	38575
15.27110	39247
15.27922	38000
15.28735	39224
15.29547	35827
15.30358	38668
15.31172	38005
15.31983	34751
15.32797	33161
15.33608	37407
15.34420	40446
15.35233	36096
15.36045	34187
15.36858	39639
15.37670	37351
15.38482	39685
15.39295	39538
15.40107	40192
15.40918	36391
15.41732	40169
15.42543	36514
15.43357	39329
15.44168	38307
15.44980	35550
15.45793	35426
15.46605	36101
15.47418	37494
15.48230	34496
15.49042	40248
15.49855	35007
15.50667	35462
15.51478	37947
15.52292	37191
15.53103	34730
15.53917	35973
15.54728	38305
15.55540	38060
15.56353	36085
15.57165	35655
15.57978	35496
15.58790	36945
15.59602	37002
15.60415	35796
15.61227	34673
15.62040	38017
15.62852	38032
15.63663	39741
15.64477	35538
15.65288	37129
15.66100	37166
15.66913	40677
15.67725	36132
15.68538	32876
15.69350	37124
15.70162	36609
15.70975	33375
15.71787	38212
15.72600	41478
15.73412	38225
15.74223	39321
15.75037	38276
15.75848	41512
15.76662	40825
15.77473	40456
15.78285	45675
15.79098	42021
15.79910	39549
15.80722	43344
15.81535	39883
15.82347	37610
15.83160	37683
15.83972	37052
15.84783	38040
15.85597	37950
15.86408	36161
15.87222	35777
15.88033	41164
15.88845	40286
15.89658	39551
15.90470	38051
15.91282	35256
15.92095	38106
15.92907	37286
15.93720	41129
15.94532	39776
15.95343	37351
15.96157	34169
15.96968	38917
15.97782	37785
15.98593	40382
15.99405	40469
16.00218	40107
16.01030	39751
16.01843	46104
16.02655	47172
16.03467	53228
16.04280	51545
16.05092	49211
16.05903	45468
16.06717	41016
16.07528	39859
16.08342	40287
16.09153	37194
16.09965	38298
16.10778	37837
16.11590	37523
16.12403	39957
16.13215	41384
16.14027	37428
16.14840	37585
16.15652	39892
16.16465	38178
16.17277	38822
16.18088	41430
16.18902	45800
16.19713	39371
16.20525	36232
16.21338	38988
16.22150	39263
16.22963	39965
16.23775	41945
16.24587	39185
16.25400	42115
16.26212	35737
16.27025	41531
16.27837	41250
16.28648	39513
16.29462	38000
16.30273	37035
16.31085	38105
16.31898	40960
16.32710	41902
16.33523	44616
16.34335	43173
16.35147	44836
16.35960	42937
16.36772	43554
16.37585	42056
16.38397	40362
16.39208	42291
16.40022	39203
16.40833	35128
16.41647	38218
16.42458	39472
16.43270	38509
16.44083	42821
16.44895	42094
16.45707	38366
16.46520	37917
16.47332	42266
16.48145	45360
16.48957	40565
16.49768	40317
16.50582	41194
16.51393	41158
16.52207	40210
16.53018	41076
16.53830	40122
16.54643	41579
16.55455	44311
16.56267	42009
16.57080	42681
16.57892	44300
16.58705	45447
16.59517	42438
16.60328	40758
16.61142	43025
16.61953	40664
16.62767	47328
16.63578	42582
16.64390	38016
16.65203	37916
16.66015	38349
16.66828	38413
16.67640	38338
16.68452	38054
16.69265	36438
16.70077	35129
16.70888	37942
16.71702	37238
16.72513	38382
16.73327	37608
16.74138	39885
16.74950	40007
16.75763	40629
16.76575	40817
16.77388	40121
16.78200	38266
16.79012	41538
16.79825	38142
16.80637	38721
16.81450	38357
16.82262	38643
16.83073	39081
16.83887	43633
16.84698	41167
16.85510	38957
16.86323	38364
16.87135	44842
16.87948	41008
16.88760	38970
16.89572	41242
16.90385	42823
16.91197	39897
16.92010	39808
16.92822	39972
16.93633	40532
16.94447	41168
16.95258	40767
16.96070	41097
16.96883	39212
16.97695	40407
16.98508	41474
16.99320	39642
17.00132	44262
17.00945	39891
17.01757	40852
17.02570	42020
17.03382	43681
17.04193	40486
17.05007	38030
17.05818	39368
17.06632	43402
17.07443	42714
17.08255	43696
17.09068	42580
17.09880	47694
17.10692	43917
17.11505	42883
17.12317	41229
17.13130	40235
17.13942	41062
17.14753	41530
17.15567	40418
17.16378	41711
17.17192	42041
17.18003	41366
17.18815	41194
17.19628	37429
17.20440	37062
17.21253	41346
17.22065	35725
17.22877	40374
17.23690	39203
17.24502	40179
17.25313	40166
17.26127	40338
17.26938	41499
17.27752	39904
17.28563	42355
17.29375	39234
17.30188	42922
17.31000	40952
17.31813	44712
17.32625	40627
17.33437	41976
17.34250	41676
17.35062	43241
17.35873	51513
17.36687	48880
17.37498	52823
17.38312	53129
17.39123	51507
17.39935	52029
17.40748	54961
17.41560	54766
17.42373	54889
17.43185	52307
17.43997	50775
17.44810	52306
17.45622	47856
17.46435	46508
17.47247	48350
17.48058	48755
17.48872	47295
17.49683	46769
17.50495	49330
17.51308	53777
17.52120	59065
17.52933	61627
17.53745	70369
17.54557	84444
17.55370	90737
17.56182	97855
17.56995	105769
17.57807	103788
17.58618	94882
17.59432	81007
17.60243	69639
17.61055	63340
17.61868	58006
17.62680	52639
17.63493	47004
17.64305	48832
17.65117	46438
17.65930	50145
17.66742	49283
17.67555	49246
17.68367	54343
17.69178	51463
17.69992	54233
17.70803	50344
17.71617	51859
17.72428	47532
17.73240	48682
17.74053	46529
17.74865	44636
17.75677	46714
17.76490	48034
17.77302	47450
17.78115	46816
17.78927	47135
17.79738	45787
17.80552	46861
17.81363	45176
17.82177	44708
17.82988	48779
17.83800	48134
17.84613	47437
17.85425	55201
17.86238	54460
17.87050	54735
17.87862	51826
17.88675	54078
17.89487	50413
17.90298	47993
17.91112	48318
17.91923	47877
17.92737	48103
17.93548	43173
17.94360	42328
17.95173	44254
17.95985	42698
17.96798	41345
17.97610	41870
17.98422	44731
17.99235	43579
18.00047	47009
18.00860	43837
18.01672	43888
18.02483	48234
18.03297	51844
18.04108	47460
18.04920	51466
18.05733	57682
18.06545	53083
18.07358	54019
18.08170	58003
18.08982	57274
18.09795	49857
18.10607	52242
18.11420	52137
18.12232	50087
18.13043	50373
18.13857	47659
18.14668	46175
18.15480	45353
18.16293	46773
18.17105	46570
18.17918	47462
18.18730	45944
18.19542	45197
18.20355	44271
18.21167	50134
18.21980	49364
18.22792	46738
18.23603	48508
18.24417	52081
18.25228	51738
18.26042	53087
18.26853	47645
18.27665	51805
18.28478	46688
18.29290	45665
18.30102	44216
18.30915	44564
18.31727	40300
18.32540	40111
18.33352	42719
18.34163	40976
18.34977	41282
18.35788	46683
18.36602	46777
18.37413	51810
18.38225	52950
18.39038	52478
18.39850	55549
18.40662	54314
18.41475	57555
18.42287	58890
18.43100	54667
18.43912	56577
18.44723	57926
18.45537	55216
18.46348	51275
18.47162	53555
18.47973	50928
18.48785	50770
18.49598	50928
18.50410	50880
18.51223	55174
18.52035	51040
18.52847	46333
18.53660	49287
18.54472	50049
18.55283	50594
18.56097	48163
18.56908	51252
18.57722	50970
18.58533	55105
18.59345	52271
18.60158	55778
18.60970	55194
18.61783	57963
18.62595	55754
18.63407	53986
18.64220	57145
18.65032	53237
18.65845	50722
18.66657	53921
18.67468	46947
18.68282	49290
18.69093	47613
18.69905	52193
18.70718	48161
18.71530	49727
18.72343	45598
18.73155	45258
18.73967	46145
18.74780	44704
18.75592	45300
18.76405	42959
18.77217	50277
18.78028	45398
18.78842	42303
18.79653	45673
18.80465	43675
18.81278	44379
18.82090	43808
18.82903	41363
18.83715	48315
18.84527	44943
18.85340	44933
18.86152	44462
18.86965	39897
18.87777	41393
18.88588	45909
18.89402	49556
18.90213	51617
18.91027	53949
18.91838	50862
18.92650	51237
18.93463	49717
18.94275	50168
18.95087	48190
18.95900	42577
18.96712	43943
18.97525	40717
18.98337	46350
18.99148	42809
18.99962	42322
19.00773	47481
19.01587	46821
19.02398	54236
19.03210	54674
19.04023	46866
19.04835	53902
19.05648	51909
19.06460	52893
19.07272	50408
19.08085	50754
19.08897	51177
19.09708	55867
19.10522	57884
19.11333	57662
19.12147	56094
19.12958	63855
19.13770	61655
19.14583	72654
19.15395	79991
19.16208	85120
19.17020	92451
19.17832	91929
19.18645	87223
19.19457	81143
19.20268	69850
19.21082	66068
19.21893	61245
19.22707	55168
19.23518	46863
19.24330	52453
19.25143	56030
19.25955	46120
19.26768	46399
19.27580	51373
19.28392	48679
19.29205	53287
19.30017	51130
19.30830	54237
19.31642	54368
19.32453	50319
19.33267	50426
19.34078	50427
19.34890	47497
19.35703	48567
19.36515	49687
19.37328	44307
19.38140	46893
19.38952	49877
19.39765	46781
19.40577	46008
19.41390	50014
19.42202	49507
19.43013	54436
19.43827	64416
19.44638	82567
19.45452	113797
19.46263	162901
19.47075	212305
19.47888	246513
19.48700	243862
19.49512	202665
19.50325	145657
19.51137	109811
19.51950	78309
19.52762	68220
19.53573	57027
19.54387	53444
19.55198	57022
19.56012	54471
19.56823	53955
19.57635	50940
19.58448	50509
19.59260	48789
19.60072	52792
19.60885	48405
19.61697	50679
19.62510	55286
19.63322	60607
19.64133	81776
19.64947	91519
19.65758	106640
19.66572	118084
19.67383	109578
19.68195	106807
19.69008	97930
19.69820	85347
19.70633	72386
19.71445	69376
19.72257	62563
19.73070	66172
19.73882	58873
19.74693	50816
19.75507	56499
19.76318	54904
19.77132	51771
19.77943	52830
19.78755	53827
19.79568	49033
19.80380	53965
19.81193	48167
19.82005	54429
19.82817	51183
19.83630	54372
19.84442	54845
19.85253	54380
19.86067	63798
19.86878	63532
19.87692	73761
19.88503	83603
19.89315	98185
19.90128	114973
19.90940	123573
19.91753	138603
19.92565	142418
19.93377	144757
19.94190	136990
19.95002	135711
19.95815	133122
19.96627	123128
19.97438	121739
19.98252	122365
19.99063	116920
19.99875	120069
20.00688	113336
20.01500	107194
20.02313	105908
20.03125	104660
20.03937	92604
20.04750	83000
20.05562	82762
20.06375	70060
20.07187	62216
20.07998	65148
20.08812	62761
20.09623	60607
20.10437	57339
20.11248	57718
20.12060	59245
20.12873	58397
20.13685	57870
20.14497	57531
20.15310	59535
20.16122	58619
20.16935	58191
20.17747	61402
20.18558	62796
20.19372	67593
20.20183	65042
20.20997	69692
20.21808	72187
20.22620	73509
20.23433	77300
20.24245	80565
20.25057	94276
20.25870	108619
20.26682	119403
20.27495	116241
20.28307	113733
20.29118	99549
20.29932	94979
20.30743	81620
20.31557	73648
20.32368	69243
20.33180	64885
20.33993	54375
20.34805	56655
20.35618	55007
20.36430	53578
20.37242	56158
20.38055	56972
20.38867	52000
20.39678	54979
20.40492	56753
20.41303	62648
20.42117	64286
20.42928	65180
20.43740	64119
20.44553	62457
20.45365	61213
20.46178	61720
20.46990	61780
20.47802	61322
20.48615	58264
20.49427	54187
20.50240	53290
20.51052	53509
20.51863	59254
20.52677	54375
20.53488	51695
20.54300	47578
20.55113	45613
20.55925	47543
20.56738	46917
20.57550	47166
20.58362	45667
20.59175	48517
20.59987	51647
20.60800	47832
20.61612	48809
20.62423	45795
20.63237	49819
20.64048	49466
20.64860	48302
20.65673	45861
20.66485	46610
20.67298	50409
20.68110	46905
20.68922	54735
20.69735	46789
20.70547	50345
20.71360	53252
20.72172	48059
20.72983	49476
20.73797	53130
20.74608	47373
20.75422	50245
20.76233	47072
20.77045	47515
20.77858	49277
20.78670	50098
20.79482	52456
20.80295	48174
20.81107	52795
20.81920	51829
20.82732	50412
20.83543	51355
20.84357	47887
20.85168	51210
20.85982	48921
20.86793	46867
20.87605	50058
20.88418	49977
20.89230	45703
20.90042	46083
20.90855	47564
20.91667	47572
20.92480	48952
20.93292	47461
20.94103	48185
20.94917	47666
20.95728	47614
20.96542	47583
20.97353	51584
20.98165	47601
20.98978	51793
20.99790	49032
21.00603	50792
21.01415	48052
21.02227	52892
21.03040	48952
21.03852	51412
21.04663	50170
21.05477	48256
21.06288	54019
21.07102	54279
21.07913	55539
21.08725	53946
21.09538	55178
21.10350	51352
21.11163	47496
21.11975	55247
21.12787	47328
21.13600	55743
21.14412	53997
21.15225	51416
21.16037	50262
21.16848	50364
21.17662	50987
21.18473	53729
21.19285	55937
21.20098	56841
21.20910	52720
21.21723	56460
21.22535	54596
21.23347	54317
21.24160	58962
21.24972	55419
21.25785	58291
21.26597	58242
21.27408	58508
21.28222	60001
21.29033	53493
21.29845	55196
21.30658	57620
21.31470	51710
21.32283	58274
21.33095	48970
21.33907	52436
21.34720	50844
21.35532	49654
21.36345	50661
21.37157	50056
21.37968	51003
21.38782	51179
21.39593	51374
21.40407	54001
21.41218	53161
21.42030	49471
21.42843	55314
21.43655	53368
21.44467	56975
21.45280	54983
21.46092	50940
21.46905	51531
21.47717	50333
21.48528	53315
21.49342	52115
21.50153	50199
21.50967	54089
21.51778	52366
21.52590	51644
21.53403	52139
21.54215	55929
21.55028	52416
21.55840	52075
21.56652	50669
21.57465	53628
21.58277	53637
21.59088	57961
21.59902	60430
21.60713	69412
21.61527	74906
21.62338	70543
21.63150	72124
21.63963	67296
21.64775	62602
21.65588	59473
21.66400	54207
21.67212	54621
21.68025	58091
21.68837	52428
21.69648	46953
21.70462	49950
21.71273	47830
21.72087	52335
21.72898	46116
21.73710	51001
21.74523	48369
21.75335	49514
21.76148	55496
21.76960	54893
21.77772	59240
21.78585	55159
21.79397	58088
21.80210	64864
21.81022	64868
21.81833	66092
21.82647	63832
21.83458	61775
21.84270	53222
21.85083	57191
21.85895	51353
21.86708	48479
21.87520	48130
21.88332	48175
21.89145	45555
21.89957	44570
21.90770	46400
21.91582	50267
21.92393	47717
21.93207	49814
21.94018	45871
21.94830	45737
21.95643	43747
21.96455	47735
21.97268	47546
21.98080	44123
21.98892	43383
21.99705	45560
22.00517	44883
22.01330	46138
22.02142	40127
22.02953	45251
22.03767	43723
22.04578	45172
22.05392	49445
22.06203	43798
22.07015	44130
22.07828	50573
22.08640	47229
22.09452	46554
22.10265	48336
22.11077	47946
22.11890	48638
22.12702	47143
22.13513	46433
22.14327	45294
22.15138	40965
22.15952	46503
22.16763	45364
22.17575	45827
22.18388	47423
22.19200	45399
22.20013	45987
22.20825	47272
22.21637	45999
22.22450	45121
22.23262	42431
22.24073	41680
22.24887	45447
22.25698	43764
22.26512	43875
22.27323	44799
22.28135	45248
22.28948	42714
22.29760	45503
22.30573	46301
22.31385	45775
22.32197	44927
22.33010	48814
22.33822	42320
22.34635	44343
22.35447	44267
22.36258	47181
22.37072	45742
22.37883	44177
22.38695	45886
22.39508	40444
22.40320	43183
22.41133	46111
22.41945	45230
22.42757	42730
22.43570	39774
22.44382	41489
22.45195	43087
22.46007	40336
22.46818	41653
22.47632	40358
22.48443	44119
22.49255	41621
22.50068	45456
22.50880	42121
22.51693	40475
22.52505	44666
22.53317	44287
22.54130	41782
22.54942	40436
22.55755	42804
22.56567	40937
22.57378	42171
22.58192	41388
22.59003	43661
22.59817	39862
22.60628	40991
22.61440	45155
22.62253	38189
22.63065	40827
22.63877	45760
22.64690	40734
22.65502	39714
22.66315	37398
22.67127	39912
22.67938	43085
22.68752	41560
22.69563	37627
22.70377	45556
22.71188	39955
22.72000	43341
22.72813	43272
22.73625	40281
22.74437	36580
22.75250	39491
22.76062	42826
22.76875	41251
22.77687	44767
22.78498	40817
22.79312	41229
22.80123	41568
22.80937	42065
22.81748	38819
22.82560	41817
22.83373	42433
22.84185	41914
22.84998	45162
22.85810	46616
22.86622	44611
22.87435	47058
22.88247	47314
22.89058	51105
22.89872	53385
22.90683	54570
22.91497	57751
22.92308	62542
22.93120	65915
22.93933	75391
22.94745	77617
22.95558	65871
22.96370	69490
22.97182	69584
22.97995	62536
22.98807	59141
22.99620	60004
23.00432	57320
23.01243	52448
23.02057	51279
23.02868	53059
23.03680	51356
23.04493	47969
23.05305	51371
23.06118	45552
23.06930	44735
23.07742	45958
23.08555	46098
23.09367	45420
23.10180	41968
23.10992	43258
23.11803	44758
23.12617	45669
23.13428	46599
23.14240	44977
23.15053	45096
23.15865	42717
23.16678	44745
23.17490	45397
23.18302	44299
23.19115	43706
23.19927	48295
23.20740	44688
23.21552	44221
23.22363	46973
23.23177	43494
23.23988	44591
23.24802	41810
23.25613	42382
23.26425	46323
23.27238	42425
23.28050	45930
23.28862	41808
23.29675	43607
23.30487	45536
23.31300	47730
23.32112	46060
23.32923	45774
23.33737	45717
23.34548	45051
23.35362	42552
23.36173	44866
23.36985	45259
23.37798	45495
23.38610	43949
23.39423	48092
23.40235	45173
23.41047	46662
23.41860	47293
23.42672	46345
23.43483	44511
23.44297	44476
23.45108	45130
23.45922	45869
23.46733	44802
23.47545	43834
23.48358	41654
23.49170	45492
23.49983	42561
23.50795	44011
23.51607	46884
23.52420	45472
23.53232	41814
23.54043	46780
23.54857	49120
23.55668	46841
23.56482	52004
23.57293	48208
23.58105	48495
23.58918	53519
23.59730	47299
23.60543	49267
23.61355	53112
23.62167	48257
23.62980	50837
23.63792	50158
23.64605	52496
23.65417	53965
23.66228	56587
23.67042	61269
23.67853	57238
23.68665	61084
23.69478	55532
23.70290	61633
23.71103	60555
23.71915	58248
23.72727	63000
23.73540	79835
23.74352	131239
23.75165	256419
23.75977	540895
23.76788	1047106
23.77602	1655149
23.78413	2135259
23.79225	2274571
23.80038	2155343
23.80850	1777463
23.81663	1348475
23.82475	998936
23.83287	733312
23.84100	575794
23.84912	464604
23.85725	378585
23.86537	324275
23.87348	283040
23.88162	250370
23.88973	224162
23.89787	207344
23.90598	188218
23.91410	173145
23.92223	159560
23.93035	151200
23.93847	144607
23.94660	135422
23.95472	130168
23.96285	129092
23.97097	121107
23.97908	119341
23.98722	115724
23.99533	105247
24.00347	107206
24.01158	101700
24.01970	98106
24.02783	99995
24.03595	93820
24.04408	90157
24.05220	88226
24.06032	89896
24.06845	88118
24.07657	84279
24.08468	86189
24.09282	85771
24.10093	87141
24.10907	82230
24.11718	86427
24.12530	84984
24.13343	78817
24.14155	79629
24.14968	74352
24.15780	77774
24.16592	83042
24.17405	84908
24.18217	83681
24.19028	96167
24.19842	94918
24.20653	88760
24.21467	79753
24.22278	83004
24.23090	72791
24.23903	71818
24.24715	69651
24.25528	68333
24.26340	67232
24.27152	66555
24.27965	64315
24.28777	64170
24.29590	62415
24.30402	62313
24.31213	60286
24.32027	63862
24.32838	64731
24.33650	75478
24.34463	97557
24.35275	127794
24.36088	153101
24.36900	166764
24.37712	158611
24.38525	128274
24.39337	97969
24.40150	80808
24.40962	68176
24.41773	60511
24.42587	63262
24.43398	60781
24.44212	59205
24.45023	59910
24.45835	63826
24.46648	67326
24.47460	66212
24.48272	68253
24.49085	70084
24.49897	64492
24.50710	64247
24.51522	61658
24.52333	57028
24.53147	58209
24.53958	55686
24.54772	56914
24.55583	52083
24.56395	56912
24.57208	52560
24.58020	55129
24.58832	51670
24.59645	55906
24.60457	56823
24.61270	53650
24.62082	54471
24.62893	56397
24.63707	51576
24.64518	52087
24.65332	56680
24.66143	51710
24.66955	55243
24.67768	54012
24.68580	49828
24.69393	52715
24.70205	49808
24.71017	51654
24.71830	49554
24.72642	50248
24.73453	49457
24.74267	47278
24.75078	49057
24.75892	47364
24.76703	51810
24.77515	50506
24.78328	49342
24.79140	51882
24.79953	51900
24.80765	47716
24.81577	54017
24.82390	52873
24.83202	52073
24.84015	50572
24.84827	50198
24.85638	51431
24.86452	46341
24.87263	47868
24.88075	49190
24.88888	49161
24.89700	50927
24.90513	49765
24.91325	47893
24.92137	51100
24.92950	45267
24.93762	48149
24.94575	46282
24.95387	44883
24.96198	46629
24.97012	45661
24.97823	46063
24.98635	47371
24.99448	44893
25.00260	45302
25.01073	47800
25.01885	47782
25.02697	42147
25.03510	46811
25.04322	43459
25.05135	43338
25.05947	44605
25.06758	44480
25.07572	47645
25.08383	46904
25.09197	45033
25.10008	47218
25.10820	47493
25.11633	45300
25.12445	44210
25.13257	45786
25.14070	50391
25.14882	50404
25.15695	50212
25.16507	48424
25.17318	47957
25.18132	46874
25.18943	48614
25.19757	47503
25.20568	48911
25.21380	43188
25.22193	43475
25.23005	44408
25.23817	41183
25.24630	46525
25.25442	46191
25.26255	47789
25.27067	48447
25.27878	44162
25.28692	47463
25.29503	53600
25.30317	55376
25.31128	62326
25.31940	66798
25.32753	56551
25.33565	57811
25.34378	53481
25.35190	53842
25.36002	49145
25.36815	49722
25.37627	46313
25.38438	46334
25.39252	42814
25.40063	40139
25.40877	45116
25.41688	46380
25.42500	45581
25.43313	49420
25.44125	47816
25.44938	44739
25.45750	44274
25.46562	46255
25.47375	41954
25.48187	46651
25.49000	41844
25.49812	42245
25.50623	43702
25.51437	42017
25.52248	41848
25.53060	40497
25.53873	42315
25.54685	41199
25.55498	44289
25.56310	41887
25.57122	44090
25.57935	39742
25.58747	39215
25.59560	39390
25.60372	40575
25.61183	38670
25.61997	41048
25.62808	40309
25.63620	38936
25.64433	38254
25.65245	40651
25.66058	37256
25.66870	44338
25.67682	38698
25.68495	39438
25.69307	39231
25.70120	40069
25.70932	40962
25.71743	39388
25.72557	38029
25.73368	38430
25.74182	38919
25.74993	40533
25.75805	39338
25.76618	39425
25.77430	39139
25.78242	36494
25.79055	40113
25.79867	39448
25.80680	35378
25.81492	38442
25.82303	39544
25.83117	41988
25.83928	39626
25.84742	39975
25.85553	36758
25.86365	40042
25.87178	35525
25.87990	35265
25.88803	38774
25.89615	35983
25.90427	38097
25.91240	36551
25.92052	37897
25.92863	37741
25.93677	43484
25.94488	37348
25.95302	38732
25.96113	37284
25.96925	38901
25.97738	36736
25.98550	35453
25.99363	35076
26.00175	40945
26.00987	36057
26.01800	35092
26.02612	35673
26.03423	38536
26.04237	39028
26.05048	37909
26.05862	37998
26.06673	36916
26.07485	41486
26.08298	35591
26.09110	36701
26.09923	38412
26.10735	40339
26.11547	42108
26.12360	46059
26.13172	48446
26.13985	48187
26.14797	49319
26.15608	53274
26.16422	50825
26.17233	51456
26.18045	47335
26.18858	45298
26.19670	44817
26.20483	40993
26.21295	46145
26.22107	44057
26.22920	44938
26.23732	41442
26.24545	37805
26.25357	38087
26.26168	35432
26.26982	36513
26.27793	37808
26.28605	36014
26.29418	38198
26.30230	37254
26.31043	36592
26.31855	39546
26.32667	41859
26.33480	36940
26.34292	36121
26.35105	37955
26.35917	37852
26.36728	40527
26.37542	40812
26.38353	36639
26.39167	38101
26.39978	41663
26.40790	38606
26.41603	44008
26.42415	42703
26.43227	38992
26.44040	38330
26.44852	38822
26.45665	39166
26.46477	38575
26.47288	41121
26.48102	37590
26.48913	37213
26.49727	38441
26.50538	39290
26.51350	37614
26.52163	36907
26.52975	33277
26.53788	39332
26.54600	36915
26.55412	39329
26.56225	39424
26.57037	36181
26.57848	37966
26.58662	36429
26.59473	38352
26.60287	37096
26.61098	38073
26.61910	37594
26.62723	38476
26.63535	37756
26.64348	36895
26.65160	39942
26.65972	41088
26.66785	34611
26.67597	35752
26.68408	38500
26.69222	42327
26.70033	38301
26.70847	42688
26.71658	42594
26.72470	39985
26.73283	40566
26.74095	40370
26.74908	42138
26.75720	42254
26.76532	39477
26.77345	38320
26.78157	41344
26.78970	39236
26.79782	41747
26.80593	40398
26.81407	42999
26.82218	44494
26.83030	43873
26.83843	36987
26.84655	42915
26.85468	44793
26.86280	40829
26.87092	37612
26.87905	40805
26.88717	41002
26.89530	39747
26.90342	40394
26.91153	44088
26.91967	37700
26.92778	39488
26.93592	43147
26.94403	49310
26.95215	64489
26.96028	91950
26.96840	154557
26.97652	246123
26.98465	360818
26.99277	515016
27.00090	657479
27.00902	737507
27.01713	747037
27.02527	674887
27.03338	553457
27.04152	446856
27.04963	343637
27.05775	276473
27.06588	239421
27.07400	193885
27.08212	155463
27.09025	141460
27.09837	125780
27.10650	110393
27.11462	105663
27.12273	100056
27.13087	101436
27.13898	92283
27.14712	83346
27.15523	76322
27.16335	79974
27.17148	76145
27.17960	72682
27.18773	71756
27.19585	74916
27.20397	69668
27.21210	69032
27.22022	67089
27.22833	68911
27.23647	64043
27.24458	61033
27.25272	62714
27.26083	54380
27.26895	56802
27.27708	59895
27.28520	56034
27.29333	55659
27.30145	54568
27.30957	51889
27.31770	53773
27.32582	51753
27.33393	50095
27.34207	52929
27.35018	53816
27.35832	54555
27.36643	52849
27.37455	50821
27.38268	52001
27.39080	49525
27.39893	46785
27.40705	49570
27.41517	50705
27.42330	49672
27.43142	51027
27.43955	48040
27.44767	50436
27.45578	52534
27.46392	48588
27.47203	50272
27.48015	48478
27.48828	47237
27.49640	46924
27.50453	52660
27.51265	43744
27.52077	48050
27.52890	51036
27.53702	49376
27.54515	44320
27.55327	44708
27.56138	46494
27.56952	48654
27.57763	48894
27.58577	47823
27.59388	46067
27.60200	45627
27.61013	48552
27.61825	43849
27.62637	47166
27.63450	41756
27.64262	45948
27.65075	43740
27.65887	44986
27.66698	45134
27.67512	41410
27.68323	44179
27.69137	45666
27.69948	45358
27.70760	43024
27.71573	45872
27.72385	49200
27.73198	53418
27.74010	53601
27.74822	58233
27.75635	55568
27.76447	56768
27.77258	46709
27.78072	46062
27.78883	45059
27.79697	47184
27.80508	40399
27.81320	40618
27.82133	43641
27.82945	44647
27.83758	47783
27.84570	44623
27.85382	46952
27.86195	44524
27.87007	47019
27.87818	45666
27.88632	42218
27.89443	41439
27.90257	41614
27.91068	41191
27.91880	40816
27.92693	43779
27.93505	38357
27.94318	39798
27.95130	43423
27.95942	42363
27.96755	46176
27.97567	50024
27.98380	50611
27.99192	48791
28.00003	47103
28.00817	48626
28.01628	48183
28.02440	44516
28.03253	42405
28.04065	42903
28.04878	42721
28.05690	45018
28.06502	44787
28.07315	51500
28.08127	54835
28.08940	69531
28.09752	82982
28.10563	96618
28.11377	107546
28.12188	106425
28.13000	100019
28.13813	82227
28.14625	72545
28.15438	60890
28.16250	58425
28.17062	53411
28.17875	52013
28.18687	46580
28.19500	48111
28.20312	46973
28.21123	44278
28.21937	45106
28.22748	44123
28.23562	42847
28.24373	46311
28.25185	50543
28.25998	62891
28.26810	77359
28.27622	100209
28.28435	138690
28.29247	184809
28.30060	231706
28.30872	277581
28.31683	309123
28.32497	323568
28.33308	329756
28.34122	329465
28.34933	317011
28.35745	293228
28.36558	274990
28.37370	231032
28.38183	207078
28.38995	185846
28.39807	167440
28.40620	148282
28.41432	135543
28.42243	122575
28.43057	112025
28.43868	104364
28.44682	98739
28.45493	95898
28.46305	90253
28.47118	86612
28.47930	84028
28.48743	75974
28.49555	76502
28.50367	76773
28.51180	71785
28.51992	72860
28.52803	71509
28.53617	67040
28.54428	70933
28.55242	64729
28.56053	70671
28.56865	66795
28.57678	61031
28.58490	61360
28.59303	62941
28.60115	60924
28.60927	58778
28.61740	58409
28.62552	61394
28.63365	66396
28.64177	67305
28.64988	67010
28.65802	72367
28.66613	72360
28.67425	74463
28.68238	68975
28.69050	67809
28.69863	67072
28.70675	67237
28.71487	72888
28.72300	86294
28.73112	97006
28.73925	99760
28.74737	94063
28.75548	82069
28.76362	74317
28.77173	63786
28.77987	57656
28.78798	55889
28.79610	54552
28.80423	53142
28.81235	51809
28.82047	52191
28.82860	54203
28.83672	50817
28.84485	49533
28.85297	52363
28.86108	48898
28.86922	51520
28.87733	51179
28.88547	50549
28.89358	51920
28.90170	52168
28.90983	48701
28.91795	50592
28.92607	46061
28.93420	48484
28.94232	48981
28.95045	50938
28.95857	55060
28.96668	51389
28.97482	52606
28.98293	53725
28.99107	54160
28.99918	51070
29.00730	50150
29.01543	50997
29.02355	52535
29.03168	49207
29.03980	48941
29.04792	49138
29.05605	49128
29.06417	46961
29.07228	44616
29.08042	54342
29.08853	49458
29.09667	44675
29.10478	46844
29.11290	44720
29.12103	46505
29.12915	47408
29.13728	46216
29.14540	49707
29.15352	52003
29.16165	48750
29.16977	46784
29.17788	49577
29.18602	47613
29.19413	48947
29.20227	49243
29.21038	48557
29.21850	51057
29.22663	55822
29.23475	60897
29.24288	56514
29.25100	52459
29.25912	56347
29.26725	59347
29.27537	57070
29.28350	51934
29.29162	52380
29.29973	48991
29.30787	51934
29.31598	49748
29.32410	51845
29.33223	51294
29.34035	49667
29.34848	47680
29.35660	47421
29.36472	45128
29.37285	44764
29.38097	44567
29.38910	45734
29.39722	47506
29.40533	47356
29.41347	49320
29.42158	45717
29.42972	47210
29.43783	47927
29.44595	45285
29.45408	47140
29.46220	48017
29.47032	47747
29.47845	47707
29.48657	51912
29.49470	50206
29.50282	57974
29.51093	56495
29.51907	54055
29.52718	52022
29.53532	52273
29.54343	52309
29.55155	51210
29.55968	52119
29.56780	50858
29.57592	56364
29.58405	64844
29.59217	76455
29.60030	73237
29.60842	74390
29.61653	68519
29.62467	59677
29.63278	56389
29.64092	53008
29.64903	52880
29.65715	47195
29.66528	44030
29.67340	46210
29.68153	44622
29.68965	47410
29.69777	47569
29.70590	46798
29.71402	44958
29.72213	45585
29.73027	48745
29.73838	47878
29.74652	47615
29.75463	45434
29.76275	44716
29.77088	45015
29.77900	45548
29.78713	45175
29.79525	43925
29.80337	46457
29.81150	42785
29.81962	45441
29.82775	44266
29.83587	47295
29.84398	43726
29.85212	49927
29.86023	48332
29.86835	50110
29.87648	52079
29.88460	57445
29.89273	66678
29.90085	74748
29.90897	93029
29.91710	105414
29.92522	112851
29.93335	132851
29.94147	145974
29.94958	160849
29.95772	178796
29.96583	187528
29.97395	194162
29.98208	190456
29.99020	180470
29.99833	168379
30.00645	158470
30.01457	147708
30.02270	139164
30.03082	125733
30.03895	116234
30.04707	105511
30.05518	109111
30.06332	102012
30.07143	97898
30.07957	84263
30.08768	84915
30.09580	83435
30.10393	77957
30.11205	82780
30.12017	75368
30.12830	70001
30.13642	74230
30.14455	70128
30.15267	69633
30.16078	68950
30.16892	63415
30.17703	64323
30.18517	61459
30.19328	64281
30.20140	62238
30.20953	57610
30.21765	58486
30.22578	55532
30.23390	58957
30.24202	57363
30.25015	54498
30.25827	58297
30.26638	61192
30.27452	53084
30.28263	54012
30.29077	54166
30.29888	53552
30.30700	55711
30.31513	53393
30.32325	52109
30.33138	50942
30.33950	53079
30.34762	51968
30.35575	51331
30.36387	48366
30.37198	53830
30.38012	55146
30.38823	54445
30.39637	54293
30.40448	53781
30.41260	52928
30.42073	51619
30.42885	49212
30.43698	50921
30.44510	54900
30.45322	51332
30.46135	54906
30.46947	49171
30.47760	52901
30.48572	49774
30.49383	51710
30.50197	53405
30.51008	52182
30.51820	47328
30.52633	51692
30.53445	51193
30.54258	51913
30.55070	50377
30.55882	49369
30.56695	49492
30.57507	47944
30.58320	47591
30.59132	48491
30.59943	48357
30.60757	50508
30.61568	49217
30.62380	53729
30.63193	51196
30.64005	50477
30.64818	46134
30.65630	49297
30.66442	48736
30.67255	52371
30.68067	50347
30.68880	43974
30.69692	46595
30.70503	51673
30.71317	46620
30.72128	52553
30.72942	47943
30.73753	51661
30.74565	49741
30.75378	50262
30.76190	48109
30.77002	49952
30.77815	47776
30.78627	45913
30.79440	50798
30.80252	49988
30.81063	52613
30.81877	48308
30.82688	53525
30.83502	49854
30.84313	49265
30.85125	50057
30.85938	50154
30.86750	51135
30.87563	47051
30.88375	46984
30.89187	44801
30.90000	54336
30.90812	48557
30.91623	47985
30.92437	47078
30.93248	48288
30.94062	50579
30.94873	47154
30.95685	46704
30.96498	48144
30.97310	43915
30.98123	47960
30.98935	46552
30.99747	48966
31.00560	53393
31.01372	48535
31.02183	46070
31.02997	50072
31.03808	48420
31.04622	51140
31.05433	49276
31.06245	51191
31.07058	51575
31.07870	50788
31.08683	55179
31.09495	58787
31.10307	58288
31.11120	56830
31.11932	51385
31.12745	53129
31.13557	50919
31.14368	50501
31.15182	51136
31.15993	53641
31.16805	59578
31.17618	68820
31.18430	88097
31.19243	108194
31.20055	123275
31.20867	137436
31.21680	143789
31.22492	140954
31.23305	125826
31.24117	101827
31.24928	78669
31.25742	68170
31.26553	58936
31.27367	55560
31.28178	54125
31.28990	55559
31.29803	49339
31.30615	53320
31.31427	46814
31.32240	47679
31.33052	53663
31.33865	49224
31.34677	51847
31.35488	52735
31.36302	55220
31.37113	54096
31.37927	51512
31.38738	52860
31.39550	52636
31.40363	51424
31.41175	54064
31.41987	51580
31.42800	52247
31.43612	50424
31.44425	53584
31.45237	52567
31.46048	47971
31.46862	48871
31.47673	53040
31.48487	45938
31.49298	48694
31.50110	49789
31.50923	47848
31.51735	46473
31.52548	49487
31.53360	50800
31.54172	53986
31.54985	57624
31.55797	53396
31.56608	50863
31.57422	49018
31.58233	52794
31.59047	50520
31.59858	52001
31.60670	48868
31.61483	50277
31.62295	50382
31.63108	46578
31.63920	50185
31.64732	50312
31.65545	53451
31.66357	59574
31.67168	61285
31.67982	63911
31.68793	71474
31.69607	76802
31.70418	71323
31.71230	64501
31.72043	70032
31.72855	60598
31.73668	55794
31.74480	50401
31.75292	51274
31.76105	52433
31.76917	51897
31.77730	51128
31.78542	52187
31.79353	55910
31.80167	52722
31.80978	54858
31.81790	57762
31.82603	55836
31.83415	61323
31.84228	63411
31.85040	68149
31.85852	75974
31.86665	86601
31.87477	94010
31.88290	104713
31.89102	116887
31.89913	117529
31.90727	118102
31.91538	124054
31.92352	121097
31.93163	118841
31.93975	116725
31.94788	113045
31.95600	106631
31.96412	100481
31.97225	94024
31.98037	91943
31.98850	92563
31.99662	85513
32.00473	81075
32.01287	81926
32.02098	82660
32.02912	76387
32.03723	82067
32.04535	76617
32.05348	79336
32.06160	75157
32.06973	65614
32.07785	63474
32.08597	66186
32.09410	63920
32.10222	61609
32.11033	63347
32.11847	63465
32.12658	59283
32.13472	63023
32.14283	60905
32.15095	58460
32.15908	60813
32.16720	60560
32.17533	59910
32.18345	60159
32.19157	54842
32.19970	56679
32.20782	57407
32.21593	58548
32.22407	59591
32.23218	56099
32.24032	58662
32.24843	58104
32.25655	54590
32.26468	56189
32.27280	55755
32.28093	62093
32.28905	56727
32.29717	54903
32.30530	58582
32.31342	53859
32.32155	65276
32.32967	59088
32.33778	58731
32.34592	60243
32.35403	56787
32.36215	59523
32.37028	57624
32.37840	64068
32.38653	60627
32.39465	58487
32.40277	55920
32.41090	53611
32.41902	60236
32.42715	60991
32.43527	58034
32.44338	53053
32.45152	57288
32.45963	55783
32.46775	56641
32.47588	58267
32.48400	56099
32.49213	51512
32.50025	60368
32.50837	55805
32.51650	52083
32.52462	58359
32.53275	53647
32.54087	55592
32.54898	58257
32.55712	57105
32.56523	54034
32.57337	58012
32.58148	58251
32.58960	61859
32.59773	67637
32.60585	69714
32.61397	73394
32.62210	84569
32.63022	89031
32.63835	84220
32.64647	72961
32.65458	67865
32.66272	62232
32.67083	60918
32.67897	60752
32.68708	61014
32.69520	64296
32.70333	63130
32.71145	62508
32.71958	61894
32.72770	63482
32.73582	62413
32.74395	60430
32.75207	62860
32.76018	57915
32.76832	57485
32.77643	57891
32.78457	58243
32.79268	53226
32.80080	55049
32.80893	51154
32.81705	53455
32.82518	55685
32.83330	55854
32.84142	54035
32.84955	60892
32.85767	51183
32.86578	54286
32.87392	54839
32.88203	59631
32.89017	61265
32.89828	56183
32.90640	63664
32.91453	56847
32.92265	56610
32.93078	56284
32.93890	56690
32.94702	54885
32.95515	57273
32.96327	56750
32.97140	57346
32.97952	56791
32.98763	56680
32.99577	55942
33.00388	54829
33.01200	54393
33.02013	59077
33.02825	57204
33.03638	54100
33.04450	58679
33.05262	54376
33.06075	57785
33.06887	56100
33.07700	61064
33.08512	61558
33.09323	64492
33.10137	65102
33.10948	77780
33.11762	80662
33.12573	77751
33.13385	73102
33.14198	69938
33.15010	66252
33.15822	67141
33.16635	64223
33.17447	60433
33.18260	56493
33.19072	61186
33.19883	59392
33.20697	56220
33.21508	59384
33.22322	58884
33.23133	56898
33.23945	56345
33.24758	58215
33.25570	57785
33.26382	59407
33.27195	54844
33.28007	54791
33.28820	56119
33.29632	56956
33.30443	59823
33.31257	58837
33.32068	56771
33.32882	57202
33.33693	58614
33.34505	59180
33.35318	62808
33.36130	56219
33.36943	58087
33.37755	60888
33.38567	61212
33.39380	58420
33.40192	60013
33.41003	59430
33.41817	60029
33.42628	58248
33.43442	55536
33.44253	61255
33.45065	60761
33.45878	60430
33.46690	65266
33.47503	57054
33.48315	54881
33.49127	58811
33.49940	65043
33.50752	58516
33.51563	61550
33.52377	58522
33.53188	59278
33.54002	61814
33.54813	58751
33.55625	55524
33.56438	57831
33.57250	57288
33.58063	59349
33.58875	62111
33.59687	58094
33.60500	56731
33.61312	61576
33.62125	61974
33.62937	56509
33.63748	57314
33.64562	61118
33.65373	60557
33.66185	57097
33.66998	56775
33.67810	59611
33.68623	58489
33.69435	61401
33.70247	59437
33.71060	58048
33.71872	59703
33.72685	55293
33.73497	62105
33.74308	61903
33.75122	59250
33.75933	56958
33.76747	57630
33.77558	62223
33.78370	59552
33.79183	68097
33.79995	62316
33.80807	60301
33.81620	62343
33.82432	64435
33.83245	65475
33.84057	67937
33.84868	65893
33.85682	67007
33.86493	67016
33.87307	75611
33.88118	70090
33.88930	71421
33.89743	76055
33.90555	76316
33.91367	74094
33.92180	78445
33.92992	78057
33.93805	80129
33.94617	83492
33.95428	82225
33.96242	84993
33.97053	83680
33.97867	85028
33.98678	86604
33.99490	84511
34.00303	80876
34.01115	84205
34.01928	80036
34.02740	79856
34.03552	77376
34.04365	76516
34.05177	77533
34.05988	73199
34.06802	78672
34.07613	75437
34.08427	73805
34.09238	77814
34.10050	70256
34.10863	75599
34.11675	73700
34.12488	73836
34.13300	70405
34.14112	72813
34.14925	69141
34.15737	70323
34.16550	67780
34.17362	70109
34.18173	67463
34.18987	65424
34.19798	64049
34.20610	70157
34.21423	64560
34.22235	66756
34.23048	67676
34.23860	70072
34.24672	68867
34.25485	65239
34.26297	72216
34.27110	65401
34.27922	64115
34.28733	70426
34.29547	66612
34.30358	70775
34.31170	66240
34.31983	70072
34.32795	62792
34.33608	69569
34.34420	71955
34.35232	67047
34.36045	70876
34.36857	68373
34.37670	67297
34.38482	65887
34.39293	70699
34.40107	63973
34.40918	66514
34.41732	67887
34.42543	68171
34.43355	64340
34.44168	68604
34.44980	71697
34.45792	78247
34.46605	86571
34.47417	95387
34.48230	113344
34.49042	119424
34.49853	134535
34.50667	141209
34.51478	137360
34.52292	139457
34.53103	132774
34.53915	126675
34.54728	112508
34.55540	108074
34.56352	105740
34.57165	96778
34.57977	93827
34.58790	92033
34.59602	88588
34.60413	85143
34.61227	85200
34.62038	85122
34.62852	82077
34.63663	84065
34.64475	85735
34.65288	83133
34.66100	82962
34.66913	87504
34.67725	85367
34.68537	76980
34.69350	80909
34.70162	83444
34.70973	80265
34.71787	81342
34.72598	80153
34.73412	80641
34.74223	82919
34.75035	80049
34.75848	83790
34.76660	85172
34.77473	86650
34.78285	84650
34.79097	83684
34.79910	78577
34.80722	81065
34.81535	80084
34.82347	80728
34.83158	81971
34.83972	81523
34.84783	72881
34.85595	77427
34.86408	76480
34.87220	80297
34.88033	80872
34.88845	89466
34.89657	85781
34.90470	77158
34.91282	82065
34.92095	80582
34.92907	83652
34.93718	82266
34.94532	83763
34.95343	77052
34.96155	75735
34.96968	80750
34.97780	77161
34.98593	76647
34.99405	80284
35.00217	73636
35.01030	77929
35.01842	77142
35.02655	75117
35.03467	73102
35.04278	77293
35.05092	76603
35.05903	79355
35.06717	76054
35.07528	71118
35.08340	74288
35.09153	81031
35.09965	75400
35.10777	77730
35.11590	76799
35.12402	79373
35.13215	77674
35.14027	81083
35.14838	77290
35.15652	73598
35.16463	79480
35.17277	72714
35.18088	72941
35.18900	74475
35.19713	74258
35.20525	80337
35.21338	81249
35.22150	77932
35.22962	78305
35.23775	75825
35.24587	81952
35.25398	81891
35.26212	76256
35.27023	79527
35.27837	82677
35.28648	84281
35.29460	80550
35.30273	81898
35.31085	84213
35.31898	74612
35.32710	74932
35.33522	77492
35.34335	82165
35.35147	74347
35.35958	75196
35.36772	75470
35.37583	82083
35.38397	79862
35.39208	77736
35.40020	80325
35.40833	83297
35.41645	74961
35.42458	79720
35.43270	79554
35.44082	81392
35.44895	87065
35.45707	86724
35.46520	86467
35.47332	84369
35.48143	82610
35.48957	84441
35.49768	84876
35.50580	79548
35.51393	79159
35.52205	79664
35.53018	84073
35.53830	78026
35.54642	82043
35.55455	83606
35.56267	80608
35.57080	88055
35.57892	84094
35.58703	85941
35.59517	83898
35.60328	82845
35.61142	84664
35.61953	84118
35.62765	86055
35.63578	85651
35.64390	84857
35.65202	84399
35.66015	85166
35.66827	84277
35.67640	85352
35.68452	83150
35.69263	84563
35.70077	84724
35.70888	83184
35.71702	81728
35.72513	83616
35.73325	80661
35.74138	85009
35.74950	76814
35.75762	82258
35.76575	85111
35.77387	85543
35.78200	85753
35.79012	79326
35.79823	84311
35.80637	83816
35.81448	80974
35.82262	83517
35.83073	77503
35.83885	82084
35.84698	79620
35.85510	87047
35.86323	82025
35.87135	77937
35.87947	79678
35.88760	78937
35.89572	85652
35.90383	82932
35.91197	83663
35.92008	82269
35.92822	83200
35.93633	83272
35.94445	86545
35.95258	82097
35.96070	81967
35.96883	86555
35.97695	83285
35.98507	87514
35.99320	90545
36.00132	92793
36.00943	94361
36.01757	92031
36.02568	93031
36.03382	94465
36.04193	89498
36.05005	92819
36.05818	94991
36.06630	91231
36.07443	91596
36.08255	92029
36.09067	84290
36.09880	87183
36.10692	84207
36.11505	80149
36.12317	84589
36.13128	87312
36.13942	86679
36.14753	88125
36.15565	90043
36.16378	90394
36.17190	89458
36.18003	76219
36.18815	84346
36.19627	82691
36.20440	88985
36.21252	87511
36.22065	90264
36.22877	88885
36.23688	92189
36.24502	95753
36.25313	104913
36.26127	110364
36.26938	118907
36.27750	117267
36.28563	114575
36.29375	112225
36.30187	97979
36.31000	95777
36.31812	90123
36.32625	90241
36.33437	90603
36.34248	87474
36.35062	93426
36.35873	92717
36.36687	86681
36.37498	95775
36.38310	98345
36.39123	88485
36.39935	96195
36.40747	91092
36.41560	94212
36.42372	95619
36.43185	90553
36.43997	92474
36.44808	87108
36.45622	91131
36.46433	92614
36.47247	91762
36.48058	87586
36.48870	87631
36.49683	98610
36.50495	89191
36.51308	90875
36.52120	90829
36.52932	90986
36.53745	90911
36.54557	93152
36.55368	93238
36.56182	91673
36.56993	87292
36.57807	83294
36.58618	90399
36.59430	94332
36.60243	97582
36.61055	95589
36.61868	96324
36.62680	92230
36.63492	95221
36.64305	90884
36.65117	98865
36.65930	100583
36.66742	90600
36.67553	93280
36.68367	98003
36.69178	93966
36.69990	92703
36.70803	95554
36.71615	94867
36.72428	95687
36.73240	93415
36.74052	95073
36.74865	97545
36.75677	97319
36.76490	95662
36.77302	95625
36.78113	89688
36.78927	93240
36.79738	96567
36.80550	97269
36.81363	96854
36.82175	96911
36.82988	95178
36.83800	92845
36.84612	94643
36.85425	97648
36.86237	94757
36.87050	91450
36.87862	95851
36.88673	96311
36.89487	94476
36.90298	98542
36.91112	95916
36.91923	98750
36.92735	103000
36.93548	104324
36.94360	97286
36.95172	98764
36.95985	98781
36.96797	102824
36.97610	101122
36.98422	97556
36.99233	105923
37.00047	110490
37.00858	121803
37.01672	130412
37.02483	135123
37.03295	137681
37.04108	133410
37.04920	127621
37.05732	120375
37.06545	110218
37.07357	110086
37.08170	102685
37.08982	102240
37.09793	109844
37.10607	102065
37.11418	111734
37.12232	105470
37.13043	102212
37.13855	104506
37.14668	105412
37.15480	103858
37.16293	103737
37.17105	106672
37.17917	105972
37.18730	104434
37.19542	104313
37.20353	105508
37.21167	107437
37.21978	105268
37.22792	101607
37.23603	109633
37.24415	110351
37.25228	108814
37.26040	112473
37.26853	117576
37.27665	127641
37.28477	138799
37.29290	148301
37.30102	165158
37.30915	162757
37.31727	167852
37.32538	165823
37.33352	154333
37.34163	149379
37.34975	148557
37.35788	141295
37.36600	139947
37.37413	127701
37.38225	127405
37.39037	124181
37.39850	130123
37.40662	123388
37.41475	124405
37.42287	122721
37.43098	124070
37.43912	125278
37.44723	124261
37.45537	126521
37.46348	117159
37.47160	119772
37.47973	115383
37.48785	120582
