Z:\data\JTB-E02\BACandBLUE\JTB-E02-191-06.D Wed Dec 12 10:11:39 2018
Start of data points
2.09532	51178
2.10343	52051
2.11155	53414
2.11968	55348
2.12780	52758
2.13592	59847
2.14405	60189
2.15217	66336
2.16030	58930
2.16842	67652
2.17653	69750
2.18467	67386
2.19278	67116
2.20092	61275
2.20903	62606
2.21715	64971
2.22528	64778
2.23340	57348
2.24152	58540
2.24965	54358
2.25777	60521
2.26590	278960
2.27402	1591134
2.28213	2657351
2.29027	2020608
2.29838	946952
2.30652	566142
2.31463	409514
2.32275	360942
2.33088	312867
2.33900	285662
2.34713	247752
2.35525	222016
2.36337	206354
2.37150	192013
2.37962	177404
2.38773	171929
2.39587	165762
2.40398	159612
2.41212	177801
2.42023	182211
2.42835	226542
2.43648	201352
2.44460	169892
2.45273	174159
2.46085	153798
2.46897	146209
2.47710	139382
2.48522	129351
2.49333	121263
2.50147	123199
2.50958	115013
2.51772	113987
2.52583	111858
2.53395	109522
2.54208	108639
2.55020	115150
2.55833	127265
2.56645	136030
2.57457	130223
2.58270	114639
2.59082	105852
2.59895	106682
2.60707	104183
2.61518	113525
2.62332	120508
2.63143	113873
2.63955	113272
2.64768	107613
2.65580	97946
2.66393	97124
2.67205	96051
2.68017	98978
2.68830	97116
2.69642	92506
2.70455	95253
2.71267	97872
2.72078	94926
2.72892	91073
2.73703	85167
2.74517	97795
2.75328	88828
2.76140	87215
2.76953	81921
2.77765	87682
2.78577	88151
2.79390	88443
2.80202	90986
2.81015	85417
2.81827	90340
2.82638	90388
2.83452	92461
2.84263	86524
2.85077	89191
2.85888	88235
2.86700	89897
2.87513	84338
2.88325	88779
2.89137	83018
2.89950	85636
2.90762	84593
2.91575	82495
2.92387	83795
2.93198	87193
2.94012	84646
2.94823	79097
2.95637	79805
2.96448	81711
2.97260	82899
2.98073	82666
2.98885	80768
2.99698	78468
3.00510	74555
3.01322	84611
3.02135	83660
3.02947	79354
3.03758	73722
3.04572	82292
3.05383	79883
3.06197	79078
3.07008	82517
3.07820	83347
3.08633	77546
3.09445	79061
3.10258	81018
3.11070	85087
3.11882	100511
3.12695	90507
3.13507	94862
3.14320	92867
3.15132	87060
3.15943	82585
3.16757	81119
3.17568	78335
3.18380	79103
3.19193	79754
3.20005	83532
3.20818	82841
3.21630	74325
3.22442	82836
3.23255	84047
3.24067	77937
3.24880	82639
3.25692	76040
3.26503	74883
3.27317	78958
3.28128	82162
3.28940	130895
3.29753	405249
3.30565	1410277
3.31378	3006804
3.32190	4063121
3.33002	3818034
3.33815	2927660
3.34627	2187417
3.35440	1745911
3.36252	1415937
3.37063	1201018
3.37877	1055725
3.38688	935919
3.39502	856964
3.40313	761477
3.41125	699914
3.41938	648915
3.42750	594288
3.43562	560508
3.44375	524561
3.45187	486211
3.46000	474407
3.46812	451319
3.47623	430624
3.48437	413844
3.49248	409164
3.50062	390459
3.50873	371903
3.51685	358548
3.52498	349422
3.53310	335787
3.54123	327054
3.54935	322848
3.55747	312046
3.56560	300873
3.57372	292682
3.58183	279189
3.58997	281983
3.59808	275230
3.60622	273867
3.61433	257925
3.62245	259289
3.63058	258825
3.63870	256182
3.64683	246583
3.65495	236491
3.66307	237141
3.67120	229070
3.67932	229085
3.68743	234375
3.69557	235734
3.70368	244196
3.71182	243036
3.71993	238048
3.72805	232655
3.73618	227864
3.74430	219370
3.75243	227738
3.76055	225275
3.76867	215658
3.77680	217303
3.78492	219260
3.79305	207608
3.80117	211177
3.80928	212073
3.81742	210061
3.82553	213720
3.83365	208131
3.84178	207292
3.84990	205136
3.85803	198799
3.86615	202641
3.87427	199387
3.88240	191226
3.89052	194270
3.89865	192799
3.90677	191868
3.91488	191968
3.92302	187132
3.93113	179678
3.93925	185792
3.94738	177308
3.95550	179408
3.96363	181411
3.97175	180395
3.97987	183629
3.98800	180015
3.99612	181628
4.00425	172742
4.01237	176060
4.02048	175339
4.02862	176987
4.03673	169501
4.04487	173058
4.05298	172107
4.06110	178959
4.06923	168182
4.07735	170361
4.08547	166678
4.09360	170952
4.10172	168161
4.10985	169102
4.11797	168188
4.12608	165508
4.13422	167057
4.14233	172942
4.15047	175473
4.15858	190989
4.16670	189148
4.17483	172929
4.18295	167780
4.19108	161611
4.19920	158462
4.20732	163223
4.21545	157722
4.22357	170156
4.23168	199363
4.23982	237981
4.24793	259224
4.25607	245778
4.26418	223185
4.27230	191539
4.28043	186887
4.28855	179278
4.29668	175424
4.30480	171369
4.31292	169393
4.32105	164265
4.32917	163758
4.33728	169831
4.34542	168322
4.35353	171069
4.36167	167174
4.36978	162858
4.37790	160604
4.38603	164113
4.39415	160665
4.40228	153782
4.41040	159788
4.41852	159307
4.42665	159006
4.43477	149344
4.44290	151250
4.45102	156939
4.45913	149064
4.46727	146553
4.47538	153804
4.48350	153114
4.49163	148813
4.49975	149157
4.50788	150692
4.51600	149777
4.52412	142306
4.53225	145166
4.54037	142859
4.54850	146050
4.55662	143832
4.56473	133924
4.57287	142795
4.58098	140369
4.58912	146574
4.59723	140836
4.60535	145257
4.61348	136505
4.62160	138471
4.62972	136315
4.63785	141023
4.64597	143018
4.65410	138300
4.66222	137513
4.67033	142790
4.67847	142002
4.68658	140710
4.69472	142605
4.70283	139847
4.71095	134387
4.71908	141445
4.72720	135076
4.73532	143031
4.74345	135162
4.75157	133993
4.75970	137372
4.76782	135490
4.77593	131725
4.78407	131311
4.79218	142225
4.80032	133392
4.80843	130866
4.81655	134364
4.82468	133397
4.83280	135385
4.84093	137168
4.84905	140379
4.85717	130916
4.86530	126893
4.87342	129618
4.88153	130878
4.88967	132119
4.89778	130213
4.90592	130362
4.91403	129790
4.92215	134531
4.93028	140058
4.93840	143872
4.94653	206679
4.95465	377241
4.96277	757662
4.97090	1296240
4.97902	1636961
4.98713	1655670
4.99527	1398418
5.00338	1103039
5.01152	856151
5.01963	732654
5.02775	614035
5.03588	552776
5.04400	502508
5.05213	464876
5.06025	446005
5.06837	413665
5.07650	397734
5.08462	375030
5.09275	372564
5.10087	349390
5.10898	339464
5.11712	328151
5.12523	323626
5.13335	308385
5.14148	303768
5.14960	291623
5.15773	286437
5.16585	292548
5.17397	284294
5.18210	272029
5.19022	264619
5.19835	272441
5.20647	253015
5.21458	255936
5.22272	257723
5.23083	253639
5.23897	260850
5.24708	263260
5.25520	271685
5.26333	267372
5.27145	249172
5.27957	239283
5.28770	226552
5.29582	230195
5.30395	215269
5.31207	209125
5.32018	213491
5.32832	215267
5.33643	205209
5.34457	203455
5.35268	202656
5.36080	204473
5.36893	199707
5.37705	198404
5.38517	196942
5.39330	190037
5.40142	195184
5.40955	199145
5.41767	191795
5.42578	193836
5.43392	192133
5.44203	187926
5.45017	192007
5.45828	182855
5.46640	188356
5.47453	188102
5.48265	186169
5.49078	194726
5.49890	177446
5.50702	180434
5.51515	180888
5.52327	171716
5.53138	176338
5.53952	177706
5.54763	180344
5.55577	178573
5.56388	176738
5.57200	166657
5.58013	171071
5.58825	173006
5.59638	163223
5.60450	186184
5.61262	181932
5.62075	179029
5.62887	180601
5.63700	194164
5.64512	187978
5.65323	188243
5.66137	175624
5.66948	178459
5.67760	175758
5.68573	188541
5.69385	194996
5.70198	196286
5.71010	202717
5.71822	197454
5.72635	182778
5.73447	182037
5.74260	172081
5.75072	171941
5.75883	169712
5.76697	158972
5.77508	156972
5.78320	162031
5.79133	160718
5.79945	161901
5.80758	150467
5.81570	157134
5.82382	162090
5.83195	161570
5.84007	157546
5.84820	158280
5.85632	153911
5.86443	156692
5.87257	155203
5.88068	154627
5.88882	158080
5.89693	151606
5.90505	150004
5.91318	144660
5.92130	130824
5.92942	119951
5.93755	121134
5.94567	119186
5.95380	118928
5.96192	123264
5.97003	125242
5.97817	129101
5.98628	141498
5.99442	140232
6.00253	141467
6.01065	136785
6.01878	128268
6.02690	125460
6.03502	124040
6.04315	115920
6.05127	116185
6.05940	116784
6.06752	114255
6.07563	121685
6.08377	116560
6.09188	115213
6.10002	117362
6.10813	117821
6.11625	111059
6.12438	121282
6.13250	121981
6.14063	121770
6.14875	119417
6.15687	118202
6.16500	124307
6.17312	122851
6.18123	121588
6.18937	123944
6.19748	132859
6.20562	123446
6.21373	130835
6.22185	128493
6.22998	124737
6.23810	132088
6.24623	131327
6.25435	132885
6.26247	129794
6.27060	135518
6.27872	136393
6.28685	147462
6.29497	132012
6.30308	138095
6.31122	152452
6.31933	151512
6.32745	149985
6.33558	151445
6.34370	151629
6.35183	159686
6.35995	159279
6.36807	131676
6.37620	128600
6.38432	123665
6.39245	120127
6.40057	119558
6.40868	119962
6.41682	115748
6.42493	117631
6.43307	120367
6.44118	112641
6.44930	114111
6.45743	108934
6.46555	111543
6.47367	114877
6.48180	109470
6.48992	110943
6.49805	110835
6.50617	107271
6.51428	111755
6.52242	110640
6.53053	104920
6.53867	108291
6.54678	111382
6.55490	108122
6.56303	104391
6.57115	106279
6.57927	100734
6.58740	107015
6.59552	99661
6.60365	97673
6.61177	101217
6.61988	99845
6.62802	103292
6.63613	104732
6.64427	101995
6.65238	100931
6.66050	102921
6.66863	101193
6.67675	96112
6.68488	97955
6.69300	98104
6.70112	104916
6.70925	93559
6.71737	94394
6.72548	94817
6.73362	96465
6.74173	96849
6.74987	95962
6.75798	98922
6.76610	99215
6.77423	93712
6.78235	93609
6.79048	95866
6.79860	92947
6.80672	94743
6.81485	92528
6.82297	94013
6.83108	95642
6.83922	91833
6.84733	90871
6.85547	94854
6.86358	87969
6.87170	78366
6.87983	71874
6.88795	66846
6.89608	66391
6.90420	68212
6.91232	66742
6.92045	66132
6.92857	69658
6.93670	63419
6.94482	66857
6.95293	66675
6.96107	64520
6.96918	64667
6.97730	62640
6.98543	64065
6.99355	62671
7.00168	64359
7.00980	66322
7.01792	69433
7.02605	65551
7.03417	66227
7.04230	65354
7.05042	63425
7.05853	65216
7.06667	63709
7.07478	60224
7.08292	61576
7.09103	66611
7.09915	67234
7.10728	58242
7.11540	60214
7.12352	63635
7.13165	59516
7.13977	66218
7.14790	65168
7.15602	69711
7.16413	62045
7.17227	63359
7.18038	64655
7.18852	62070
7.19663	63955
7.20475	57966
7.21288	61396
7.22100	59340
7.22912	60408
7.23725	60300
7.24537	61092
7.25350	62020
7.26162	63582
7.26973	57748
7.27787	62167
7.28598	61157
7.29412	64669
7.30223	62805
7.31035	57197
7.31848	64799
7.32660	58776
7.33473	58927
7.34285	60441
7.35097	59910
7.35910	68242
7.36722	66157
7.37533	59897
7.38347	57734
7.39158	59320
7.39972	59871
7.40783	55042
7.41595	65604
7.42408	61588
7.43220	60891
7.44033	56461
7.44845	60680
7.45657	59261
7.46470	59995
7.47282	58490
7.48095	64515
7.48907	64137
7.49718	64876
7.50532	65404
7.51343	61317
7.52155	60508
7.52968	61552
7.53780	62433
7.54593	63612
7.55405	62973
7.56217	58567
7.57030	65211
7.57842	60741
7.58655	58615
7.59467	56632
7.60278	60969
7.61092	57242
7.61903	60890
7.62715	59369
7.63528	65683
7.64340	61166
7.65153	65747
7.65965	61171
7.66777	65221
7.67590	60080
7.68402	63883
7.69215	59459
7.70027	55929
7.70838	60588
7.71652	62837
7.72463	61049
7.73277	59307
7.74088	52071
7.74900	56879
7.75713	63169
7.76525	59619
7.77337	56064
7.78150	59172
7.78962	59618
7.79775	59287
7.80587	55410
7.81398	55343
7.82212	54822
7.83023	59798
7.83837	60703
7.84648	56586
7.85460	55603
7.86273	56268
7.87085	53295
7.87897	53611
7.88710	51475
7.89522	51333
7.90335	50183
7.91147	52870
7.91958	55168
7.92772	55263
7.93583	49383
7.94397	49828
7.95208	50229
7.96020	45893
7.96833	54071
7.97645	50738
7.98458	49732
7.99270	47787
8.00082	48382
8.00895	55882
8.01707	57591
8.02518	53389
8.03332	52051
8.04143	52519
8.04957	52433
8.05768	50260
8.06580	49107
8.07393	48555
8.08205	49498
8.09018	52473
8.09830	50431
8.10642	46782
8.11455	48459
8.12267	49146
8.13080	52939
8.13892	52811
8.14703	46108
8.15517	46854
8.16328	53327
8.17140	50997
8.17953	54721
8.18765	55008
8.19578	55537
8.20390	59528
8.21202	55943
8.22015	55760
8.22827	51302
8.23640	55071
8.24452	49313
8.25263	50817
8.26077	49666
8.26888	47494
8.27700	48625
8.28513	47390
8.29325	52069
8.30138	47665
8.30950	50994
8.31762	50209
8.32575	51335
8.33387	48705
8.34200	47211
8.35012	46774
8.35823	54931
8.36637	55837
8.37448	62224
8.38262	61855
8.39073	58856
8.39885	58446
8.40698	57930
8.41510	57817
8.42322	55454
8.43135	53083
8.43947	50911
8.44760	48744
8.45572	50032
8.46383	46013
8.47197	45641
8.48008	50359
8.48822	49978
8.49633	48208
8.50445	47613
8.51258	49211
8.52070	50402
8.52883	46060
8.53695	47337
8.54507	48609
8.55320	48083
8.56132	45871
8.56943	49446
8.57757	46845
8.58568	47565
8.59382	49026
8.60193	47259
8.61005	50422
8.61818	48570
8.62630	48003
8.63443	43925
8.64255	44720
8.65067	47024
8.65880	46293
8.66692	46956
8.67503	43910
8.68317	41451
8.69128	43259
8.69942	41937
8.70753	43296
8.71565	40349
8.72378	46834
8.73190	45700
8.74003	43281
8.74815	44976
8.75627	48150
8.76440	46456
8.77252	44658
8.78065	50477
8.78877	70966
8.79688	119229
8.80502	218217
8.81313	327604
8.82125	433867
8.82938	475278
8.83750	440424
8.84563	364452
8.85375	293597
8.86187	249064
8.87000	217469
8.87812	186387
8.88625	178340
8.89437	158086
8.90248	157324
8.91062	148473
8.91873	138260
8.92687	139754
8.93498	133138
8.94310	132438
8.95123	122104
8.95935	122930
8.96747	111426
8.97560	115634
8.98372	115621
8.99185	120775
8.99997	107074
9.00808	112068
9.01622	117075
9.02433	111798
9.03247	107439
9.04058	106160
9.04870	113227
9.05683	105246
9.06495	109074
9.07307	104699
9.08120	105782
9.08932	104111
9.09745	103159
9.10557	104455
9.11368	104955
9.12182	92508
9.12993	99771
9.13807	100275
9.14618	93860
9.15430	104897
9.16243	101200
9.17055	95981
9.17868	100362
9.18680	101100
9.19492	91633
9.20305	99379
9.21117	97358
9.21928	99282
9.22742	93859
9.23553	89929
9.24367	94862
9.25178	94713
9.25990	92895
9.26803	95475
9.27615	86629
9.28428	90627
9.29240	88706
9.30052	93282
9.30865	84637
9.31677	80266
9.32488	86036
9.33302	80003
9.34113	86701
9.34927	81086
9.35738	76544
9.36550	79224
9.37363	79501
9.38175	84241
9.38988	79351
9.39800	75320
9.40612	75549
9.41425	70045
9.42237	74162
9.43050	74950
9.43862	78817
9.44673	76096
9.45487	74690
9.46298	73026
9.47110	73205
9.47923	74791
9.48735	80029
9.49548	77542
9.50360	73148
9.51172	73826
9.51985	73323
9.52797	70029
9.53610	73066
9.54422	77763
9.55233	71330
9.56047	79212
9.56858	70617
9.57672	68366
9.58483	66469
9.59295	60142
9.60108	58116
9.60920	58095
9.61732	52185
9.62545	52852
9.63357	53183
9.64170	53761
9.64982	54808
9.65793	51473
9.66607	48483
9.67418	48173
9.68232	56322
9.69043	52295
9.69855	49088
9.70668	52569
9.71480	49788
9.72292	48178
9.73105	50303
9.73917	48594
9.74730	48480
9.75542	51522
9.76353	50019
9.77167	48093
9.77978	46917
9.78792	51197
9.79603	48410
9.80415	46278
9.81228	49681
9.82040	51213
9.82853	49768
9.83665	51683
9.84477	51829
9.85290	51884
9.86102	53588
9.86913	52185
9.87727	53049
9.88538	49875
9.89352	48573
9.90163	48570
9.90975	46697
9.91788	46644
9.92600	45964
9.93413	42575
9.94225	43467
9.95037	46705
9.95850	44815
9.96662	46228
9.97475	43754
9.98287	47136
9.99098	49177
9.99912	50965
10.00723	50573
10.01535	59794
10.02348	62134
10.03160	56374
10.03973	63108
10.04785	71088
10.05597	74233
10.06410	74120
10.07222	70716
10.08035	76276
10.08847	69628
10.09658	65376
10.10472	64476
10.11283	66132
10.12095	65941
10.12908	63595
10.13720	65939
10.14533	60660
10.15345	69665
10.16157	63788
10.16970	57814
10.17782	64538
10.18595	67281
10.19407	62113
10.20218	61970
10.21032	64158
10.21843	61892
10.22657	62784
10.23468	61007
10.24280	69550
10.25093	70263
10.25905	67690
10.26717	68344
10.27530	66547
10.28342	72702
10.29155	72976
10.29967	75982
10.30778	79950
10.31592	92236
10.32403	108722
10.33217	105733
10.34028	107741
10.34840	101338
10.35653	97134
10.36465	96861
10.37277	90790
10.38090	88307
10.38902	83307
10.39715	81846
10.40527	85175
10.41338	80845
10.42152	76359
10.42963	81581
10.43777	81147
10.44588	77162
10.45400	77462
10.46213	77415
10.47025	75880
10.47838	71487
10.48650	72614
10.49462	70730
10.50275	68702
10.51087	72015
10.51898	73679
10.52712	69801
10.53523	72446
10.54337	68907
10.55148	67124
10.55960	65423
10.56773	66004
10.57585	72137
10.58398	69912
10.59210	71565
10.60022	68386
10.60835	73370
10.61647	72414
10.62460	69310
10.63272	71154
10.64083	70027
10.64897	66235
10.65708	62966
10.66520	64128
10.67333	65879
10.68145	63075
10.68958	67445
10.69770	67663
10.70582	67752
10.71395	69784
10.72207	68731
10.73020	67671
10.73832	71759
10.74643	66005
10.75457	68466
10.76268	66687
10.77080	65893
10.77893	65758
10.78705	67346
10.79518	66400
10.80330	69301
10.81142	69379
10.81955	65977
10.82767	63483
10.83580	62795
10.84392	60079
10.85203	60762
10.86017	57773
10.86828	59726
10.87642	57634
10.88453	60586
10.89265	63849
10.90078	53928
10.90890	57172
10.91702	57756
10.92515	61794
10.93327	57406
10.94140	57378
10.94952	57911
10.95763	61429
10.96577	57820
10.97388	58281
10.98202	58581
10.99013	58803
10.99825	56755
11.00638	54916
11.01450	56495
11.02263	57392
11.03075	49939
11.03887	54028
11.04700	54837
11.05512	54179
11.06323	54493
11.07137	50036
11.07948	54419
11.08762	52132
11.09573	50905
11.10385	51210
11.11198	47923
11.12010	51760
11.12823	52506
11.13635	54082
11.14447	48397
11.15260	48777
11.16072	48077
11.16883	47039
11.17697	49981
11.18508	46659
11.19322	53420
11.20133	51687
11.20945	59753
11.21758	58077
11.22570	55985
11.23383	60086
11.24195	57498
11.25007	55275
11.25820	54529
11.26632	49662
11.27445	47925
11.28257	48165
11.29068	43093
11.29882	45075
11.30693	45472
11.31505	45168
11.32318	46851
11.33130	47138
11.33943	44072
11.34755	48265
11.35567	51770
11.36380	46619
11.37192	55785
11.38005	52511
11.38817	49297
11.39628	52943
11.40442	51742
11.41253	51612
11.42065	50982
11.42878	51979
11.43690	48792
11.44503	50479
11.45315	49885
11.46127	43364
11.46940	50516
11.47752	46260
11.48565	41931
11.49377	44074
11.50188	49681
11.51002	42101
11.51813	43923
11.52627	46785
11.53438	51027
11.54250	44207
11.55063	47311
11.55875	44644
11.56687	47683
11.57500	47639
11.58312	50216
11.59125	43791
11.59937	47916
11.60748	44368
11.61562	45219
11.62373	47760
11.63187	46096
11.63998	46431
11.64810	45081
11.65623	42792
11.66435	45511
11.67248	45489
11.68060	48452
11.68872	47666
11.69685	46656
11.70497	45589
11.71308	45697
11.72122	46736
11.72933	50654
11.73747	51476
11.74558	55017
11.75370	52105
11.76183	52763
11.76995	49382
11.77808	47108
11.78620	46432
11.79432	51969
11.80245	50566
11.81057	54690
11.81870	50467
11.82682	47426
11.83493	50293
11.84307	46039
11.85118	46189
11.85930	50315
11.86743	46770
11.87555	47591
11.88368	48589
11.89180	51151
11.89992	48435
11.90805	48213
11.91617	45692
11.92430	43278
11.93242	44022
11.94053	46809
11.94867	44732
11.95678	44076
11.96490	43824
11.97303	46528
11.98115	47056
11.98928	44772
11.99740	46791
12.00552	45268
12.01365	45299
12.02177	48165
12.02990	43929
12.03802	42588
12.04613	44824
12.05427	45164
12.06238	40466
12.07052	40734
12.07863	41666
12.08675	43705
12.09488	43539
12.10300	41289
12.11112	39932
12.11925	42439
12.12737	43310
12.13550	38744
12.14362	41568
12.15173	47194
12.15987	45921
12.16798	54932
12.17612	58259
12.18423	58799
12.19235	64185
12.20048	61143
12.20860	63992
12.21672	68792
12.22485	67664
12.23297	73816
12.24110	62579
12.24922	65157
12.25733	63695
12.26547	64351
12.27358	61736
12.28172	64896
12.28983	63202
12.29795	62378
12.30608	66345
12.31420	64532
12.32233	62193
12.33045	64380
12.33857	61101
12.34670	67023
12.35482	61262
12.36293	62172
12.37107	63855
12.37918	57860
12.38732	59552
12.39543	62711
12.40355	61231
12.41168	61566
12.41980	62746
12.42793	66510
12.43605	63866
12.44417	62468
12.45230	60338
12.46042	62580
12.46855	69765
12.47667	70066
12.48478	70755
12.49292	71832
12.50103	63759
12.50915	60680
12.51728	59734
12.52540	61207
12.53353	54300
12.54165	57051
12.54977	53134
12.55790	56776
12.56602	57547
12.57415	57622
12.58227	56536
12.59038	57414
12.59852	54728
12.60663	58563
12.61475	56253
12.62288	54861
12.63100	56983
12.63913	58352
12.64725	54950
12.65537	59232
12.66350	56041
12.67162	55598
12.67975	49520
12.68787	56211
12.69598	56270
12.70412	50736
12.71223	56636
12.72037	53946
12.72848	52319
12.73660	57415
12.74473	55787
12.75285	59570
12.76097	59844
12.76910	60493
12.77722	62584
12.78535	57454
12.79347	54960
12.80158	56494
12.80972	51234
12.81783	51186
12.82597	50394
12.83408	45590
12.84220	44397
12.85033	41947
12.85845	46413
12.86658	41407
12.87470	36723
12.88282	39085
12.89095	39906
12.89907	39657
12.90718	44083
12.91532	40070
12.92343	45443
12.93157	36174
12.93968	41668
12.94780	41134
12.95593	36817
12.96405	40620
12.97218	39673
12.98030	40182
12.98842	38185
12.99655	40070
13.00467	40118
13.01278	39233
13.02092	37790
13.02903	39586
13.03717	44887
13.04528	41877
13.05340	38844
13.06153	39862
13.06965	39184
13.07778	38359
13.08590	37375
13.09402	37840
13.10215	39863
13.11027	37458
13.11840	41914
13.12652	37962
13.13463	37487
13.14277	41533
13.15088	40795
13.15900	40002
13.16713	43735
13.17525	35676
13.18338	38567
13.19150	42092
13.19962	40636
13.20775	42590
13.21587	41323
13.22400	43525
13.23212	42073
13.24023	41525
13.24837	40340
13.25648	44703
13.26460	43084
13.27273	41163
13.28085	41721
13.28898	46051
13.29710	44785
13.30522	37063
13.31335	39386
13.32147	44984
13.32960	41706
13.33772	37087
13.34583	38342
13.35397	42292
13.36208	40191
13.37022	39081
13.37833	39796
13.38645	40518
13.39458	36981
13.40270	46676
13.41082	40453
13.41895	37113
13.42707	43055
13.43520	38028
13.44332	35142
13.45143	36582
13.45957	39526
13.46768	40894
13.47582	37588
13.48393	40931
13.49205	37095
13.50018	37724
13.50830	36707
13.51643	37470
13.52455	39857
13.53267	39552
13.54080	40588
13.54892	35498
13.55703	35812
13.56517	38567
13.57328	39198
13.58142	42901
13.58953	38849
13.59765	38540
13.60578	37356
13.61390	34586
13.62203	35015
13.63015	35379
13.63827	41231
13.64640	36098
13.65452	32302
13.66263	36151
13.67077	36419
13.67888	39262
13.68702	34294
13.69513	35421
13.70325	32589
13.71138	35360
13.71950	33199
13.72763	34941
13.73575	36637
13.74387	36428
13.75200	36028
13.76012	31185
13.76825	34540
13.77637	35157
13.78448	32317
13.79262	40387
13.80073	41691
13.80885	37251
13.81698	34976
13.82510	36504
13.83323	38326
13.84135	41047
13.84947	40384
13.85760	40033
13.86572	42061
13.87385	40975
13.88197	41040
13.89008	39395
13.89822	39983
13.90633	41283
13.91447	36540
13.92258	43648
13.93070	37651
13.93883	44432
13.94695	41251
13.95507	39660
13.96320	41504
13.97132	40201
13.97945	42081
13.98757	40555
13.99568	43636
14.00382	40808
14.01193	32837
14.02007	37557
14.02818	40912
14.03630	37043
14.04443	42062
14.05255	42508
14.06067	40559
14.06880	42765
14.07692	39650
14.08505	46671
14.09317	41581
14.10128	38616
14.10942	41020
14.11753	46825
14.12567	43583
14.13378	39880
14.14190	38454
14.15003	39976
14.15815	39213
14.16628	42406
14.17440	39877
14.18252	47100
14.19065	44802
14.19877	51763
14.20688	67821
14.21502	100267
14.22313	130517
14.23127	169036
14.23938	179760
14.24750	178482
14.25563	166146
14.26375	139786
14.27188	128016
14.28000	123719
14.28812	119308
14.29625	115486
14.30437	108910
14.31250	100210
14.32062	98377
14.32873	92751
14.33687	91212
14.34498	82421
14.35310	80655
14.36123	77325
14.36935	73670
14.37748	64403
14.38560	65761
14.39372	65351
14.40185	56554
14.40997	51713
14.41810	47718
14.42622	49051
14.43433	52019
14.44247	50295
14.45058	49714
14.45870	49620
14.46683	44714
14.47495	48497
14.48308	48705
14.49120	48466
14.49932	43897
14.50745	44440
14.51557	41902
14.52370	46109
14.53182	45954
14.53993	44156
14.54807	46650
14.55618	45654
14.56432	43090
14.57243	42370
14.58055	40612
14.58868	49698
14.59680	42253
14.60492	48165
14.61305	44246
14.62117	42768
14.62930	46445
14.63742	41086
14.64553	42156
14.65367	35696
14.66178	37011
14.66992	38105
14.67803	39223
14.68615	36671
14.69428	36874
14.70240	38356
14.71052	39958
14.71865	36356
14.72677	39505
14.73490	37375
14.74302	38698
14.75113	37954
14.75927	41726
14.76738	38984
14.77552	41902
14.78363	38421
14.79175	39868
14.79988	40386
14.80800	37874
14.81613	47854
14.82425	63371
14.83237	82910
14.84050	115891
14.84862	146902
14.85673	177176
14.86487	193883
14.87298	204902
14.88112	202371
14.88923	200808
14.89735	197160
14.90548	190146
14.91360	187061
14.92173	182002
14.92985	175580
14.93797	169036
14.94610	167513
14.95422	162044
14.96235	162438
14.97047	154653
14.97858	156733
14.98672	151571
14.99483	149150
15.00295	146183
15.01108	143296
15.01920	140618
15.02733	141084
15.03545	142878
15.04357	137430
15.05170	131442
15.05982	127525
15.06795	131080
15.07607	126796
15.08418	123289
15.09232	121525
15.10043	119320
15.10855	122065
15.11668	121375
15.12480	111831
15.13293	112624
15.14105	111269
15.14917	101396
15.15730	103070
15.16542	94985
15.17355	77799
15.18167	70437
15.18978	64667
15.19792	60165
15.20603	58375
15.21417	59326
15.22228	54031
15.23040	54717
15.23853	53292
15.24665	54141
15.25477	51884
15.26290	52021
15.27102	48997
15.27915	51611
15.28727	50566
15.29538	50045
15.30352	47839
15.31163	48257
15.31977	46921
15.32788	47921
15.33600	43398
15.34413	47266
15.35225	45169
15.36038	45236
15.36850	46462
15.37662	44058
15.38475	44209
15.39287	43202
15.40098	44783
15.40912	44093
15.41723	46307
15.42537	45556
15.43348	43421
15.44160	45617
15.44973	45363
15.45785	44702
15.46598	44849
15.47410	44048
15.48222	40356
15.49035	44678
15.49847	46216
15.50658	45598
15.51472	44010
15.52283	50134
15.53097	47803
15.53908	44822
15.54720	42084
15.55533	44321
15.56345	42225
15.57158	42434
15.57970	38420
15.58782	39734
15.59595	38908
15.60407	42945
15.61220	42147
15.62032	44259
15.62843	45590
15.63657	40190
15.64468	39906
15.65280	39844
15.66093	38104
15.66905	38880
15.67718	37022
15.68530	39182
15.69342	46739
15.70155	36577
15.70967	39391
15.71780	39775
15.72592	37537
15.73403	36537
15.74217	40184
15.75028	41568
15.75840	35361
15.76653	36545
15.77465	37345
15.78278	37637
15.79090	41126
15.79902	53054
15.80715	52662
15.81527	50544
15.82340	53300
15.83152	50482
15.83963	54514
15.84777	56042
15.85588	50608
15.86402	49799
15.87213	48972
15.88025	45168
15.88838	48486
15.89650	46620
15.90462	48190
15.91275	47389
15.92087	48307
15.92900	44701
15.93712	45122
15.94523	47426
15.95337	45469
15.96148	45550
15.96962	47611
15.97773	47393
15.98585	45824
15.99398	44484
16.00210	46846
16.01023	43992
16.01835	47306
16.02647	51128
16.03460	49514
16.04272	57225
16.05083	50864
16.05897	55903
16.06708	55914
16.07522	48412
16.08333	54055
16.09145	42753
16.09958	41090
16.10770	42342
16.11583	41893
16.12395	40396
16.13207	38973
16.14020	42905
16.14832	39868
16.15645	41887
16.16457	40154
16.17268	42164
16.18082	41993
16.18893	44844
16.19705	36777
16.20518	38861
16.21330	40618
16.22143	40328
16.22955	40141
16.23767	42563
16.24580	38437
16.25392	38880
16.26205	41419
16.27017	42989
16.27828	43048
16.28642	38490
16.29453	39872
16.30265	38616
16.31078	41237
16.31890	36407
16.32703	37342
16.33515	44103
16.34327	43643
16.35140	38277
16.35952	41608
16.36765	38737
16.37577	38830
16.38388	41827
16.39202	36013
16.40013	37730
16.40827	41345
16.41638	41659
16.42450	36995
16.43263	42230
16.44075	37917
16.44887	38359
16.45700	40755
16.46512	36478
16.47325	45812
16.48137	45474
16.48948	51944
16.49762	58005
16.50573	66051
16.51387	68619
16.52198	74333
16.53010	72932
16.53823	71924
16.54635	71876
16.55447	70407
16.56260	69752
16.57072	70147
16.57885	67253
16.58697	63168
16.59508	64611
16.60322	65464
16.61133	64190
16.61947	59858
16.62758	59510
16.63570	60633
16.64383	56372
16.65195	56355
16.66008	58711
16.66820	55837
16.67632	53203
16.68445	51547
16.69257	51759
16.70068	54120
16.70882	50390
16.71693	49030
16.72507	48129
16.73318	44711
16.74130	44909
16.74943	43262
16.75755	43085
16.76568	42535
16.77380	39593
16.78192	44357
16.79005	40270
16.79817	42772
16.80630	39237
16.81442	39232
16.82253	41305
16.83067	40106
16.83878	40479
16.84690	35326
16.85503	35035
16.86315	40313
16.87128	39509
16.87940	38339
16.88752	39830
16.89565	38672
16.90377	40724
16.91190	37253
16.92002	40943
16.92813	39298
16.93627	41778
16.94438	36936
16.95250	39589
16.96063	43481
16.96875	40989
16.97688	41456
16.98500	38442
16.99312	40803
17.00125	35827
17.00937	35117
17.01750	37184
17.02562	36699
17.03373	36732
17.04187	39922
17.04998	33188
17.05812	35281
17.06623	35232
17.07435	35859
17.08248	35893
17.09060	32525
17.09872	38670
17.10685	36061
17.11497	37684
17.12310	36268
17.13122	36881
17.13933	37181
17.14747	40099
17.15558	42473
17.16372	35979
17.17183	36258
17.17995	36356
17.18808	37914
17.19620	40266
17.20433	33254
17.21245	37991
17.22057	41370
17.22870	41092
17.23682	40435
17.24493	35807
17.25307	34515
17.26118	37953
17.26932	42550
17.27743	37839
17.28555	41280
17.29368	36752
17.30180	36277
17.30993	35391
17.31805	38539
17.32617	41795
17.33430	39456
17.34242	39980
17.35053	44408
17.35867	51775
17.36678	56147
17.37492	67866
17.38303	70671
17.39115	71938
17.39928	78686
17.40740	77290
17.41553	72068
17.42365	72397
17.43177	65158
17.43990	72086
17.44802	71406
17.45615	70155
17.46427	64073
17.47238	63342
17.48052	60532
17.48863	60506
17.49675	61456
17.50488	62899
17.51300	64549
17.52113	62312
17.52925	58338
17.53737	59490
17.54550	63249
17.55362	59545
17.56175	56182
17.56987	59620
17.57798	59473
17.58612	56861
17.59423	51439
17.60235	51298
17.61048	51532
17.61860	51948
17.62673	53512
17.63485	50036
17.64297	48145
17.65110	48739
17.65922	49954
17.66735	49180
17.67547	48957
17.68358	52004
17.69172	50965
17.69983	51811
17.70797	50927
17.71608	53785
17.72420	48789
17.73233	49256
17.74045	50229
17.74857	47186
17.75670	48761
17.76482	47446
17.77295	45817
17.78107	46637
17.78918	47284
17.79732	48433
17.80543	46784
17.81357	42982
17.82168	43105
17.82980	43888
17.83793	45426
17.84605	45330
17.85418	45265
17.86230	39931
17.87042	43997
17.87855	45212
17.88667	44848
17.89478	40622
17.90292	43724
17.91103	39866
17.91917	45839
17.92728	42058
17.93540	40369
17.94353	37516
17.95165	37105
17.95978	39536
17.96790	43821
17.97602	44300
17.98415	39900
17.99227	38853
18.00038	40328
18.00852	40319
18.01663	38837
18.02477	39713
18.03288	41123
18.04100	46107
18.04913	36799
18.05725	44283
18.06538	39509
18.07350	52383
18.08162	59686
18.08975	95919
18.09787	143680
18.10600	204578
18.11412	272870
18.12223	314803
18.13037	353326
18.13848	354867
18.14660	345469
18.15473	328287
18.16285	330771
18.17098	307505
18.17910	297188
18.18722	278358
18.19535	269672
18.20347	265982
18.21160	260328
18.21972	244753
18.22783	231256
18.23597	229510
18.24408	219160
18.25222	212044
18.26033	202598
18.26845	201664
18.27658	183939
18.28470	171183
18.29282	140832
18.30095	121317
18.30907	98041
18.31720	77747
18.32532	70060
18.33343	71990
18.34157	63705
18.34968	66607
18.35782	63267
18.36593	64223
18.37405	62103
18.38218	56801
18.39030	58992
18.39842	56443
18.40655	59541
18.41467	56412
18.42280	53256
18.43092	49964
18.43903	52275
18.44717	57621
18.45528	55598
18.46342	55606
18.47153	55441
18.47965	56200
18.48778	56821
18.49590	58643
18.50403	58581
18.51215	58181
18.52027	54467
18.52840	50713
18.53652	47281
18.54463	43625
18.55277	42408
18.56088	45120
18.56902	45544
18.57713	39271
18.58525	37606
18.59338	38182
18.60150	39853
18.60963	44651
18.61775	42827
18.62587	41925
18.63400	46239
18.64212	44667
18.65025	40926
18.65837	39462
18.66648	37071
18.67462	36736
18.68273	40982
18.69085	40420
18.69898	35311
18.70710	40109
18.71523	37416
18.72335	38687
18.73147	35668
18.73960	36806
18.74772	34441
18.75585	40317
18.76397	36142
18.77208	40141
18.78022	41226
18.78833	43025
18.79645	40528
18.80458	34366
18.81270	35368
18.82083	44628
18.82895	41970
18.83707	38460
18.84520	40023
18.85332	40827
18.86145	37714
18.86957	41578
18.87768	41358
18.88582	40928
18.89393	42634
18.90207	40812
18.91018	42851
18.91830	42183
18.92643	40866
18.93455	41375
18.94267	43703
18.95080	44116
18.95892	43578
18.96705	43419
18.97517	42085
18.98328	37701
18.99142	42243
18.99953	40516
19.00767	39849
19.01578	39367
19.02390	45593
19.03203	39588
19.04015	39856
19.04827	41540
19.05640	40313
19.06452	41260
19.07265	40586
19.08077	36906
19.08888	39204
19.09702	39974
19.10513	39772
19.11327	43220
19.12138	42358
19.12950	45913
19.13763	48158
19.14575	44564
19.15388	45355
19.16200	46261
19.17012	40017
19.17825	40117
19.18637	37545
19.19448	37192
19.20262	42420
19.21073	39847
19.21887	41905
19.22698	38025
19.23510	41416
19.24323	41073
19.25135	38453
19.25948	41364
19.26760	38968
19.27572	41877
19.28385	41037
19.29197	45696
19.30010	46012
19.30822	48866
19.31633	51823
19.32447	51880
19.33258	54465
19.34070	49335
19.34883	46931
19.35695	40202
19.36508	48471
19.37320	45083
19.38132	48491
19.38945	47994
19.39757	54798
19.40570	54244
19.41382	57847
19.42193	53055
19.43007	60304
19.43818	57735
19.44630	54125
19.45443	56911
19.46255	51228
19.47068	51981
19.47880	54661
19.48692	52076
19.49505	49069
19.50317	57377
19.51130	63637
19.51942	81313
19.52753	95832
19.53567	112286
19.54378	119608
19.55192	115752
19.56003	104632
19.56815	81938
19.57628	71604
19.58440	61938
19.59252	54615
19.60065	50778
19.60877	45986
19.61690	45006
19.62502	40039
19.63313	44745
19.64127	52375
19.64938	61667
19.65752	81514
19.66563	123490
19.67375	171514
19.68188	221710
19.69000	271406
19.69813	270914
19.70625	252078
19.71437	209908
19.72250	167584
19.73062	129445
19.73873	109394
19.74687	98352
19.75498	88325
19.76312	79842
19.77123	68561
19.77935	63774
19.78748	60186
19.79560	54698
19.80373	50174
19.81185	51137
19.81997	51089
19.82810	54977
19.83622	49647
19.84433	46831
19.85247	47589
19.86058	50080
19.86872	49701
19.87683	45982
19.88495	47943
19.89308	51705
19.90120	64572
19.90933	79348
19.91745	88695
19.92557	103767
19.93370	118761
19.94182	119847
19.94995	117024
19.95807	118605
19.96618	111533
19.97432	115341
19.98243	103085
19.99055	101048
19.99868	97064
20.00680	99574
20.01493	97947
20.02305	86954
20.03117	93134
20.03930	85335
20.04742	85201
20.05555	80470
20.06367	73968
20.07178	64891
20.07992	58524
20.08803	56639
20.09615	51439
20.10428	53837
20.11240	51511
20.12053	52696
20.12865	56290
20.13677	54173
20.14490	51536
20.15302	54435
20.16115	45821
20.16927	52842
20.17738	53781
20.18552	52283
20.19363	55632
20.20177	54207
20.20988	58087
20.21800	56651
20.22613	58949
20.23425	58692
20.24237	56153
20.25050	60613
20.25862	64366
20.26675	71240
20.27487	88866
20.28298	118170
20.29112	156632
20.29923	191989
20.30737	210253
20.31548	219542
20.32360	214873
20.33173	164163
20.33985	145301
20.34798	108106
20.35610	90061
20.36422	78206
20.37235	70605
20.38047	59920
20.38858	61369
20.39672	53252
20.40483	52201
20.41297	50514
20.42108	48442
20.42920	56960
20.43733	60652
20.44545	65035
20.45358	78269
20.46170	87442
20.46982	97658
20.47795	89738
20.48607	84563
20.49418	81487
20.50232	71536
20.51043	63544
20.51857	54079
20.52668	57821
20.53480	49970
20.54293	47253
20.55105	49673
20.55918	44224
20.56730	46349
20.57542	43778
20.58355	42693
20.59167	40344
20.59980	43197
20.60792	44994
20.61603	39599
20.62417	42085
20.63228	44920
20.64040	38704
20.64853	36196
20.65665	42248
20.66478	46086
20.67290	40943
20.68102	44041
20.68915	45771
20.69727	44227
20.70540	42847
20.71352	42822
20.72163	41269
20.72977	45624
20.73788	45053
20.74602	40725
20.75413	43915
20.76225	41486
20.77038	44085
20.77850	43225
20.78662	41784
20.79475	43026
20.80287	40817
20.81100	50344
20.81912	46170
20.82723	47707
20.83537	49314
20.84348	53398
20.85162	54093
20.85973	58041
20.86785	59365
20.87598	55650
20.88410	56759
20.89222	50062
20.90035	47589
20.90847	47792
20.91660	47278
20.92472	45105
20.93283	45086
20.94097	43714
20.94908	47272
20.95722	44751
20.96533	42033
20.97345	46194
20.98158	45394
20.98970	44531
20.99783	43372
21.00595	40618
21.01407	38376
21.02220	38504
21.03032	41761
21.03843	37102
21.04657	44408
21.05468	39164
21.06282	38573
21.07093	41969
21.07905	45159
21.08718	37893
21.09530	41411
21.10343	38585
21.11155	44941
21.11967	42354
21.12780	41456
21.13592	42111
21.14403	44145
21.15217	43757
21.16028	45851
21.16842	47358
21.17653	50718
21.18465	59619
21.19278	61928
21.20090	67437
21.20903	65353
21.21715	62688
21.22527	66251
21.23340	55981
21.24152	55268
21.24965	58139
21.25777	53622
21.26588	51194
21.27402	51217
21.28213	49622
21.29025	48292
21.29838	49674
21.30650	47621
21.31463	44512
21.32275	45353
21.33087	48612
21.33900	44657
21.34712	44267
21.35525	41166
21.36337	39614
21.37148	41819
21.37962	46821
21.38773	40376
21.39587	37423
21.40398	38192
21.41210	44182
21.42023	46185
21.42835	52486
21.43647	51931
21.44460	56711
21.45272	57972
21.46085	61522
21.46897	59682
21.47708	63045
21.48522	60877
21.49333	57978
21.50147	64050
21.50958	56656
21.51770	55603
21.52583	56839
21.53395	54889
21.54208	54557
21.55020	50205
21.55832	54260
21.56645	48134
21.57457	53463
21.58268	51956
21.59082	49069
21.59893	60323
21.60707	59387
21.61518	59048
21.62330	62339
21.63143	65107
21.63955	70743
21.64768	86250
21.65580	102765
21.66392	113904
21.67205	117040
21.68017	119547
21.68828	102163
21.69642	96792
21.70453	86754
21.71267	72384
21.72078	65687
21.72890	63770
21.73703	61345
21.74515	58608
21.75328	60960
21.76140	56762
21.76952	62338
21.77765	56917
21.78577	56199
21.79390	57462
21.80202	53035
21.81013	51004
21.81827	55699
21.82638	61553
21.83450	61091
21.84263	72390
21.85075	83566
21.85888	90684
21.86700	107713
21.87512	106856
21.88325	94648
21.89137	87047
21.89950	74784
21.90762	63957
21.91573	57970
21.92387	56009
21.93198	51207
21.94010	53887
21.94823	48519
21.95635	57524
21.96448	53141
21.97260	48140
21.98072	53245
21.98885	46067
21.99697	50488
22.00510	54653
22.01322	53362
22.02133	50929
22.02947	44885
22.03758	46334
22.04572	49299
22.05383	46227
22.06195	48395
22.07008	47968
22.07820	44499
22.08632	49197
22.09445	48021
22.10257	51366
22.11070	48661
22.11882	50518
22.12693	52458
22.13507	55741
22.14318	48220
22.15132	48021
22.15943	49361
22.16755	46090
22.17568	50366
22.18380	49580
22.19193	50098
22.20005	51163
22.20817	49692
22.21630	45551
22.22442	52749
22.23253	53906
22.24067	55001
22.24878	59086
22.25692	64078
22.26503	61459
22.27315	59475
22.28128	54530
22.28940	53311
22.29753	51693
22.30565	49666
22.31377	50289
22.32190	53124
22.33002	49616
22.33813	50348
22.34627	45757
22.35438	46557
22.36252	50717
22.37063	47956
22.37875	45645
22.38688	45421
22.39500	47720
22.40313	46412
22.41125	48948
22.41937	51812
22.42750	51292
22.43562	61838
22.44375	53868
22.45187	57807
22.45998	62573
22.46812	61628
22.47623	54411
22.48435	56684
22.49248	57668
22.50060	54026
22.50873	57615
22.51685	53703
22.52497	52282
22.53310	52447
22.54122	54735
22.54935	57246
22.55747	55278
22.56558	56929
22.57372	57045
22.58183	61047
22.58997	53473
22.59808	53947
22.60620	50986
22.61433	48749
22.62245	45930
22.63057	48680
22.63870	41510
22.64682	44661
22.65495	50973
22.66307	44863
22.67118	42368
22.67932	44765
22.68743	42741
22.69557	48652
22.70368	49254
22.71180	53722
22.71993	53121
22.72805	56819
22.73617	58467
22.74430	56597
22.75242	56846
22.76055	61951
22.76867	63714
22.77678	55635
22.78492	55876
22.79303	55148
22.80117	58979
22.80928	53898
22.81740	61179
22.82553	61130
22.83365	64115
22.84178	66369
22.84990	69835
22.85802	70971
22.86615	71935
22.87427	77783
22.88238	76985
22.89052	67117
22.89863	73796
22.90677	70568
22.91488	73780
22.92300	72628
22.93113	83578
22.93925	82792
22.94738	91438
22.95550	93789
22.96362	92936
22.97175	91041
22.97987	85160
22.98798	87090
22.99612	71428
23.00423	67342
23.01237	66365
23.02048	54835
23.02860	59658
23.03673	55382
23.04485	54157
23.05298	48036
23.06110	46688
23.06922	47386
23.07735	49318
23.08547	44524
23.09360	46731
23.10172	46928
23.10983	43328
23.11797	42206
23.12608	40636
23.13420	44134
23.14233	45494
23.15045	41563
23.15858	39078
23.16670	42765
23.17482	40623
23.18295	42281
23.19107	36791
23.19920	40247
23.20732	40903
23.21543	45046
23.22357	42355
23.23168	37149
23.23982	41305
23.24793	39223
23.25605	41323
23.26418	44506
23.27230	45148
23.28042	39356
23.28855	40279
23.29667	41702
23.30480	44448
23.31292	45582
23.32103	39608
23.32917	44661
23.33728	41838
23.34542	44055
23.35353	40827
23.36165	45776
23.36978	43370
23.37790	42367
23.38602	45943
23.39415	48528
23.40227	48353
23.41040	48128
23.41852	50882
23.42663	46862
23.43477	45643
23.44288	47647
23.45102	46976
23.45913	44155
23.46725	43432
23.47538	41270
23.48350	43028
23.49163	40339
23.49975	42512
23.50787	42162
23.51600	39716
23.52412	36681
23.53223	42033
23.54037	37399
23.54848	37545
23.55662	37007
23.56473	37281
23.57285	39540
23.58098	45317
23.58910	44408
23.59723	45239
23.60535	46301
23.61347	45086
23.62160	43385
23.62972	45565
23.63785	46981
23.64597	43813
23.65408	43635
23.66222	45389
23.67033	44834
23.67845	49222
23.68658	50968
23.69470	55152
23.70283	55953
23.71095	52288
23.71907	50771
23.72720	50543
23.73532	49195
23.74345	55225
23.75157	56888
23.75968	93330
23.76782	199566
23.77593	483620
23.78405	1045359
23.79218	1863138
23.80030	2645388
23.80843	3095934
23.81655	3139687
23.82467	2647274
23.83280	2077477
23.84092	1514589
23.84905	1030326
23.85717	764948
23.86528	562298
23.87342	452943
23.88153	377131
23.88967	322105
23.89778	273912
23.90590	250861
23.91403	227383
23.92215	202339
23.93027	192455
23.93840	183180
23.94652	171623
23.95465	168265
23.96277	161328
23.97088	142296
23.97902	143634
23.98713	133141
23.99527	124752
24.00338	124404
24.01150	120868
24.01963	125236
24.02775	117243
24.03587	110780
24.04400	105115
24.05212	108978
24.06025	104732
24.06837	96071
24.07648	96562
24.08462	96156
24.09273	96080
24.10087	96142
24.10898	90824
24.11710	81618
24.12523	88853
24.13335	82412
24.14148	89601
24.14960	95499
24.15772	91777
24.16585	100403
24.17397	104512
24.18208	99751
24.19022	101184
24.19833	102609
24.20647	97904
24.21458	100723
24.22270	101166
24.23083	99857
24.23895	103396
24.24708	108369
24.25520	110006
24.26332	106443
24.27145	102658
24.27957	87112
24.28770	84920
24.29582	73002
24.30393	77427
24.31207	73542
24.32018	68719
24.32830	71637
24.33643	69975
24.34455	72558
24.35268	69534
24.36080	68225
24.36892	64739
24.37705	59212
24.38517	62693
24.39330	63379
24.40142	67783
24.40953	75932
24.41767	87653
24.42578	102906
24.43390	104154
24.44203	107352
24.45015	90867
24.45828	79939
24.46640	72451
24.47452	67307
24.48265	65709
24.49077	64687
24.49890	70375
24.50702	69513
24.51513	69971
24.52327	74526
24.53138	85780
24.53952	86986
24.54763	88141
24.55575	90512
24.56388	91319
24.57200	82004
24.58012	81532
24.58825	79770
24.59637	77146
24.60450	79491
24.61262	80594
24.62073	72809
24.62887	72495
24.63698	73636
24.64512	75923
24.65323	73626
24.66135	74435
24.66948	80927
24.67760	81489
24.68573	86662
24.69385	78062
24.70197	76716
24.71010	73348
24.71822	72107
24.72633	60879
24.73447	62136
24.74258	61631
24.75072	57424
24.75883	58063
24.76695	57415
24.77508	60926
24.78320	52277
24.79133	61125
24.79945	56211
24.80757	54848
24.81570	59158
24.82382	51600
24.83193	54619
24.84007	56409
24.84818	59528
24.85632	60021
24.86443	61193
24.87255	65536
24.88068	65246
24.88880	75788
24.89693	75109
24.90505	77095
24.91317	85393
24.92130	78914
24.92942	79445
24.93755	73339
24.94567	67350
24.95378	66571
24.96192	63421
24.97003	53925
24.97815	56797
24.98628	59056
24.99440	51096
25.00253	49820
25.01065	54333
25.01877	48195
25.02690	49722
25.03502	52607
25.04315	50428
25.05127	48765
25.05938	46841
25.06752	47294
25.07563	50832
25.08377	49611
25.09188	49246
25.10000	50038
25.10813	52321
25.11625	56741
25.12437	69607
25.13250	94434
25.14062	148252
25.14875	206376
25.15687	306160
25.16498	412664
25.17312	482413
25.18123	496875
25.18937	458728
25.19748	380121
25.20560	280832
25.21373	213812
25.22185	156438
25.22997	121813
25.23810	100191
25.24622	87668
25.25435	76478
25.26247	73807
25.27058	70972
25.27872	74240
25.28683	74649
25.29497	74608
25.30308	68528
25.31120	69490
25.31933	74136
25.32745	71334
25.33558	78529
25.34370	72088
25.35182	68005
25.35995	64013
25.36807	66290
25.37618	53505
25.38432	58611
25.39243	52976
25.40057	46883
25.40868	48155
25.41680	51310
25.42493	54437
25.43305	52173
25.44118	54087
25.44930	49050
25.45742	51610
25.46555	55361
25.47367	45788
25.48178	49983
25.48992	56926
25.49803	59284
25.50617	58114
25.51428	60743
25.52240	63621
25.53053	59346
25.53865	60705
25.54678	55418
25.55490	53395
25.56302	50805
25.57115	49068
25.57927	54536
25.58740	52707
25.59552	54121
25.60363	49042
25.61177	53937
25.61988	52772
25.62800	51337
25.63613	49375
25.64425	44113
25.65238	50193
25.66050	45872
25.66862	45088
25.67675	51776
25.68487	46731
25.69300	48881
25.70112	45777
25.70923	50061
25.71737	48236
25.72548	52337
25.73362	52637
25.74173	51709
25.74985	50661
25.75798	49925
25.76610	50218
25.77422	47867
25.78235	49062
25.79047	51413
25.79860	49169
25.80672	46964
25.81483	52508
25.82297	49808
25.83108	50476
25.83922	52558
25.84733	49679
25.85545	52222
25.86358	50277
25.87170	46964
25.87982	49711
25.88795	44439
25.89607	46755
25.90420	49343
25.91232	45057
25.92043	44246
25.92857	50351
25.93668	44074
25.94482	51161
25.95293	47582
25.96105	46710
25.96918	48814
25.97730	45939
25.98543	49871
25.99355	47507
26.00167	49275
26.00980	48118
26.01792	42010
26.02603	45393
26.03417	47671
26.04228	44072
26.05042	36888
26.05853	43539
26.06665	40253
26.07478	46050
26.08290	42970
26.09103	48366
26.09915	52802
26.10727	50423
26.11540	53008
26.12352	53784
26.13165	56544
26.13977	55549
26.14788	66264
26.15602	66514
26.16413	63923
26.17225	67146
26.18038	68389
26.18850	62362
26.19663	63678
26.20475	59765
26.21287	59314
26.22100	57601
26.22912	53265
26.23725	48351
26.24537	48456
26.25348	48563
26.26162	43467
26.26973	47002
26.27785	48126
26.28598	48851
26.29410	50334
26.30223	46449
26.31035	48973
26.31847	44889
26.32660	45608
26.33472	45794
26.34285	45827
26.35097	53367
26.35908	46107
26.36722	51784
26.37533	60466
26.38347	69299
26.39158	87574
26.39970	107429
26.40783	137787
26.41595	171828
26.42407	194931
26.43220	189783
26.44032	197207
26.44845	169483
26.45657	137040
26.46468	111000
26.47282	91912
26.48093	75324
26.48907	67529
26.49718	66590
26.50530	56795
26.51343	53750
26.52155	50354
26.52967	46624
26.53780	43740
26.54592	44529
26.55405	42955
26.56217	42337
26.57028	41090
26.57842	42723
26.58653	46044
26.59467	44192
26.60278	49958
26.61090	44078
26.61903	43166
26.62715	43041
26.63528	46340
26.64340	44156
26.65152	44825
26.65965	45076
26.66777	45353
26.67588	47795
26.68402	44832
26.69213	45695
26.70027	38298
26.70838	39655
26.71650	42064
26.72463	40115
26.73275	44858
26.74088	44119
26.74900	41351
26.75712	43549
26.76525	45160
26.77337	42809
26.78150	45357
26.78962	50071
26.79773	41447
26.80587	41721
26.81398	46182
26.82210	45216
26.83023	46739
26.83835	43680
26.84648	48022
26.85460	44534
26.86272	47532
26.87085	49414
26.87897	47830
26.88710	52930
26.89522	50235
26.90333	50071
26.91147	42762
26.91958	49422
26.92772	43618
26.93583	44112
26.94395	42553
26.95208	43100
26.96020	45619
26.96832	47940
26.97645	58491
26.98457	87300
26.99270	151781
27.00082	292715
27.00893	532659
27.01707	915170
27.02518	1329008
27.03332	1694415
27.04143	1826139
27.04955	1689214
27.05768	1377784
27.06580	1055086
27.07392	770127
27.08205	579799
27.09017	446819
27.09830	358490
27.10642	290668
27.11453	262619
27.12267	228079
27.13078	202785
27.13892	183021
27.14703	172002
27.15515	170250
27.16328	160497
27.17140	152962
27.17953	143154
27.18765	136267
27.19577	141695
27.20390	146702
27.21202	149521
27.22013	157968
27.22827	157798
27.23638	149665
27.24452	134959
27.25263	131706
27.26075	121508
27.26888	118087
27.27700	105097
27.28513	100356
27.29325	93441
27.30137	91005
27.30950	83967
27.31762	88472
27.32573	85811
27.33387	88757
27.34198	87728
27.35012	84732
27.35823	82264
27.36635	85846
27.37448	83900
27.38260	78771
27.39073	82695
27.39885	76622
27.40697	77483
27.41510	75402
27.42322	79606
27.43135	70400
27.43947	69080
27.44758	69289
27.45572	71676
27.46383	69581
27.47195	72775
27.48008	69682
27.48820	69715
27.49633	64236
27.50445	70636
27.51257	68578
27.52070	68160
27.52882	62042
27.53695	69956
27.54507	68007
27.55318	67183
27.56132	69744
27.56943	67537
27.57757	67649
27.58568	68073
27.59380	69972
27.60193	66512
27.61005	62064
27.61817	65680
27.62630	62874
27.63442	66080
27.64255	66056
27.65067	63395
27.65878	63477
27.66692	64120
27.67503	59420
27.68317	62263
27.69128	63342
27.69940	61123
27.70753	61936
27.71565	62356
27.72377	61691
27.73190	60450
27.74002	61623
27.74815	58661
27.75627	61292
27.76438	55209
27.77252	54326
27.78063	60341
27.78877	58206
27.79688	56281
27.80500	59560
27.81313	66737
27.82125	59051
27.82938	53295
27.83750	56424
27.84562	58686
27.85375	60686
27.86187	60278
27.86998	57572
27.87812	59031
27.88623	64501
27.89437	58716
27.90248	63884
27.91060	58287
27.91873	54898
27.92685	52172
27.93498	60048
27.94310	56589
27.95122	57403
27.95935	55292
27.96747	58341
27.97560	60691
27.98372	60618
27.99183	54029
27.99997	55335
28.00808	60238
28.01620	60864
28.02433	57668
28.03245	64742
28.04058	61602
28.04870	66087
28.05682	77093
28.06495	72648
28.07307	79946
28.08120	79985
28.08932	75444
28.09743	74216
28.10557	69243
28.11368	60934
28.12180	61975
28.12993	61203
28.13805	57391
28.14618	55768
28.15430	58705
28.16242	61350
28.17055	57400
28.17867	55520
28.18680	57869
28.19492	51025
28.20303	51984
28.21117	53995
28.21928	56299
28.22742	64760
28.23553	63526
28.24365	68944
28.25178	63237
28.25990	66071
28.26802	62537
28.27615	55050
28.28427	61365
28.29240	64181
28.30052	59892
28.30863	64104
28.31677	74285
28.32488	102687
28.33302	151513
28.34113	203948
28.34925	275365
28.35738	352897
28.36550	418299
28.37362	481600
28.38175	502475
28.38987	565806
28.39800	555573
28.40612	544546
28.41423	492035
28.42237	451007
28.43048	409697
28.43862	348869
28.44673	311635
28.45485	280429
28.46298	250594
28.47110	227987
28.47923	200809
28.48735	188252
28.49547	172114
28.50360	155550
28.51172	152204
28.51983	145526
28.52797	130040
28.53608	122820
28.54422	128782
28.55233	124376
28.56045	113704
28.56858	107511
28.57670	104060
28.58483	99539
28.59295	104986
28.60107	92211
28.60920	96037
28.61732	94748
28.62545	93416
28.63357	89434
28.64168	92201
28.64982	91711
28.65793	91944
28.66605	93584
28.67418	100587
28.68230	98916
28.69043	99314
28.69855	95478
28.70667	90887
28.71480	85956
28.72292	86510
28.73105	83745
28.73917	77967
28.74728	76818
28.75542	69796
28.76353	72463
28.77165	73604
28.77978	75187
28.78790	81246
28.79603	89860
28.80415	89936
28.81227	86227
28.82040	88324
28.82852	84231
28.83665	78305
28.84477	74726
28.85288	70498
28.86102	70257
28.86913	70096
28.87727	64307
28.88538	69492
28.89350	68845
28.90163	77155
28.90975	66591
28.91787	73262
28.92600	71187
28.93412	68710
28.94225	71324
28.95037	74491
28.95848	72165
28.96662	72223
28.97473	68242
28.98287	69827
28.99098	71117
28.99910	65483
29.00723	64358
29.01535	69478
29.02348	62684
29.03160	65953
29.03972	63204
29.04785	69609
29.05597	69583
29.06408	61877
29.07222	68236
29.08033	61198
29.08847	64880
29.09658	64789
29.10470	61310
29.11283	57758
29.12095	57841
29.12908	59756
29.13720	59874
29.14532	58322
29.15345	62483
29.16157	59210
29.16968	59980
29.17782	65551
29.18593	64881
29.19407	64570
29.20218	60078
29.21030	59675
29.21843	65744
29.22655	64050
29.23468	68889
29.24280	71854
29.25092	70940
29.25905	66471
29.26717	68760
29.27530	64343
29.28342	68872
29.29153	66168
29.29967	63569
29.30778	62665
29.31590	57751
29.32403	61211
29.33215	57825
29.34028	61321
29.34840	61664
29.35652	59501
29.36465	62112
29.37277	61926
29.38090	63658
29.38902	56698
29.39713	62773
29.40527	57462
29.41338	59617
29.42152	56339
29.42963	54758
29.43775	56337
29.44588	59181
29.45400	60253
29.46212	60472
29.47025	58593
29.47837	59537
29.48650	60083
29.49462	56191
29.50273	61524
29.51087	67421
29.51898	70590
29.52712	68295
29.53523	70119
29.54335	70598
29.55148	64428
29.55960	63353
29.56772	61585
29.57585	58877
29.58397	55565
29.59210	51720
29.60022	54073
29.60833	53742
29.61647	59796
29.62458	57080
29.63272	58979
29.64083	50644
29.64895	56172
29.65708	57279
29.66520	57978
29.67333	53162
29.68145	52051
29.68957	48070
29.69770	57914
29.70582	54342
29.71393	54251
29.72207	50081
29.73018	57172
29.73832	58226
29.74643	53599
29.75455	54684
29.76268	48931
29.77080	53394
29.77893	53883
29.78705	49999
29.79517	50398
29.80330	52931
29.81142	52920
29.81953	56004
29.82767	52951
29.83578	49791
29.84392	48749
29.85203	52182
29.86015	47288
29.86828	51106
29.87640	55518
29.88453	50006
29.89265	49595
29.90077	58297
29.90890	61092
29.91702	63006
29.92515	65500
29.93327	63305
29.94138	68229
29.94952	62616
29.95763	67786
29.96575	70812
29.97388	82226
29.98200	98895
29.99013	106909
29.99825	127450
30.00637	155010
30.01450	166399
30.02262	195149
30.03075	213581
30.03887	220392
30.04698	239047
30.05512	248305
30.06323	243460
30.07137	243363
30.07948	236121
30.08760	223483
30.09573	203920
30.10385	199664
30.11197	178489
30.12010	168798
30.12822	161331
30.13635	149203
30.14447	139900
30.15258	136034
30.16072	129380
30.16883	124533
30.17697	106953
30.18508	110321
30.19320	105089
30.20133	97814
30.20945	96412
30.21757	94541
30.22570	93276
30.23382	86704
30.24195	92134
30.25007	84352
30.25818	79040
30.26632	75323
30.27443	78067
30.28257	80714
30.29068	74309
30.29880	72776
30.30693	74353
30.31505	70373
30.32318	67376
30.33130	68552
30.33942	66678
30.34755	68944
30.35567	65590
30.36378	67500
30.37192	64783
30.38003	71059
30.38817	59800
30.39628	65261
30.40440	59637
30.41253	60384
30.42065	61065
30.42878	62560
30.43690	62204
30.44502	58000
30.45315	64377
30.46127	60109
30.46940	61894
30.47752	62952
30.48563	61082
30.49377	61021
30.50188	57100
30.51000	63377
30.51813	60041
30.52625	62593
30.53438	58669
30.54250	59907
30.55062	55716
30.55875	61056
30.56687	52156
30.57500	59602
30.58312	55487
30.59123	61251
30.59937	58655
30.60748	60298
30.61560	58395
30.62373	56155
30.63185	56984
30.63998	58528
30.64810	54142
30.65622	62608
30.66435	56532
30.67247	57341
30.68060	58934
30.68872	55873
30.69683	57741
30.70497	55242
30.71308	59717
30.72122	53929
30.72933	55352
30.73745	55269
30.74558	61729
30.75370	56269
30.76182	56765
30.76995	62394
30.77807	60120
30.78620	50298
30.79432	57922
30.80243	67953
30.81057	69780
30.81868	81650
30.82682	81960
30.83493	88163
30.84305	86979
30.85118	81160
30.85930	72891
30.86742	65434
30.87555	60737
30.88367	58952
30.89180	59828
30.89992	58527
30.90803	55891
30.91617	54145
30.92428	55967
30.93242	57204
30.94053	56091
30.94865	53857
30.95678	56631
30.96490	51059
30.97303	54855
30.98115	58832
30.98927	56201
30.99740	59710
31.00552	55297
31.01363	51157
31.02177	58838
31.02988	53405
31.03802	55373
31.04613	50343
31.05425	56050
31.06238	56576
31.07050	55482
31.07863	55322
31.08675	52476
31.09487	58889
31.10300	62882
31.11112	68652
31.11925	64698
31.12737	72654
31.13548	73809
31.14362	69211
31.15173	67139
31.15985	62521
31.16798	58398
31.17610	64118
31.18423	61034
31.19235	69550
31.20047	77557
31.20860	92611
31.21672	116894
31.22485	150639
31.23297	184882
31.24108	190250
31.24922	194024
31.25733	175660
31.26545	148424
31.27358	117914
31.28170	91033
31.28983	71101
31.29795	66477
31.30607	63090
31.31420	61127
31.32232	59630
31.33045	55343
31.33857	55466
31.34668	59149
31.35482	61361
31.36293	53500
31.37107	59621
31.37918	56283
31.38730	54265
31.39543	56610
31.40355	57137
31.41167	52209
31.41980	54222
31.42792	54673
31.43605	55036
31.44417	55882
31.45228	54391
31.46042	56211
31.46853	55452
31.47667	57777
31.48478	55171
31.49290	56350
31.50103	54825
31.50915	53769
31.51728	52790
31.52540	55217
31.53352	56033
31.54165	60556
31.54977	55439
31.55788	58159
31.56602	56542
31.57413	56553
31.58227	62612
31.59038	57718
31.59850	55790
31.60663	52702
31.61475	53099
31.62288	51421
31.63100	57501
31.63912	50315
31.64725	51410
31.65537	53909
31.66348	59718
31.67162	58254
31.67973	59042
31.68787	58867
31.69598	59718
31.70410	57034
31.71223	58518
31.72035	52458
31.72848	54847
31.73660	55335
31.74472	54283
31.75285	52603
31.76097	55647
31.76910	50998
31.77722	51548
31.78533	52643
31.79347	55490
31.80158	54229
31.80970	55409
31.81783	59444
31.82595	60860
31.83408	61239
31.84220	60334
31.85032	60054
31.85845	61997
31.86657	58529
31.87470	61495
31.88282	61690
31.89093	59640
31.89907	61892
31.90718	61605
31.91530	69003
31.92343	67566
31.93155	68130
31.93968	78390
31.94780	86279
31.95592	95534
31.96405	111052
31.97217	130644
31.98030	133779
31.98842	139244
31.99653	144268
32.00467	139763
32.01278	144791
32.02092	141515
32.02903	149961
32.03715	132885
32.04528	128928
32.05340	122534
32.06152	108257
32.06965	108452
32.07777	97777
32.08590	97095
32.09402	94819
32.10213	90033
32.11027	88655
32.11838	88382
32.12652	84183
32.13463	77644
32.14275	77355
32.15088	76351
32.15900	79775
32.16713	76189
32.17525	75099
32.18337	72303
32.19150	68350
32.19962	63636
32.20773	64678
32.21587	65312
32.22398	64103
32.23212	65130
32.24023	64851
32.24835	60699
32.25648	62388
32.26460	63949
32.27273	62147
32.28085	64254
32.28897	63671
32.29710	59768
32.30522	60069
32.31335	62248
32.32147	57397
32.32958	55791
32.33772	63711
32.34583	58188
32.35395	67225
32.36208	68649
32.37020	65154
32.37833	64835
32.38645	68070
32.39457	63627
32.40270	66916
32.41082	59589
32.41895	59216
32.42707	64241
32.43518	55947
32.44332	57273
32.45143	56194
32.45955	55281
32.46768	66208
32.47580	56132
32.48393	57112
32.49205	57372
32.50017	58997
32.50830	58633
32.51642	54966
32.52455	55683
32.53267	54167
32.54078	56513
32.54892	59299
32.55703	58546
32.56517	58846
32.57328	62132
32.58140	61604
32.58953	54874
32.59765	61296
32.60577	56941
32.61390	57031
32.62202	58187
32.63015	59597
32.63827	56200
32.64638	60967
32.65452	57199
32.66263	56959
32.67077	60827
32.67888	61573
32.68700	65395
32.69513	75274
32.70325	78822
32.71137	77747
32.71950	74133
32.72762	76811
32.73575	71368
32.74387	66046
32.75198	63256
32.76012	60892
32.76823	57707
32.77637	63605
32.78448	58017
32.79260	55980
32.80073	57871
32.80885	53199
32.81698	56463
32.82510	61913
32.83322	57054
32.84135	61074
32.84947	55232
32.85758	56447
32.86572	56266
32.87383	60580
32.88197	58166
32.89008	59156
32.89820	60956
32.90633	64084
32.91445	59399
32.92258	62062
32.93070	65166
32.93882	59585
32.94695	62243
32.95507	62384
32.96320	57018
32.97132	52790
32.97943	62658
32.98757	58890
32.99568	58963
33.00380	61694
33.01193	71037
33.02005	72252
33.02818	76035
33.03630	76805
33.04442	66504
33.05255	67644
33.06067	61275
33.06880	54110
33.07692	61115
33.08503	64324
33.09317	59634
33.10128	62501
33.10940	69318
33.11753	75651
33.12565	73203
33.13378	81524
33.14190	79374
33.15002	77020
33.15815	72411
33.16627	70134
33.17440	63534
33.18252	62387
33.19063	63396
33.19877	62326
33.20688	55667
33.21502	55365
33.22313	63358
33.23125	59969
33.23938	63451
33.24750	70383
33.25562	67243
33.26375	62024
33.27187	58369
33.28000	60063
33.28812	59064
33.29623	62810
33.30437	55912
33.31248	60370
33.32062	61488
33.32873	55826
33.33685	59832
33.34498	55937
33.35310	55524
33.36123	57306
33.36935	61092
33.37747	66066
33.38560	58642
33.39372	56965
33.40183	62239
33.40997	55339
33.41808	58261
33.42622	54643
33.43433	55556
33.44245	57836
33.45058	58612
33.45870	53513
33.46683	51875
33.47495	56660
33.48307	58119
33.49120	61736
33.49932	56513
33.50743	54983
33.51557	60671
33.52368	60816
33.53182	62558
33.53993	59999
33.54805	65450
33.55618	60302
33.56430	65694
33.57243	63069
33.58055	67862
33.58867	65418
33.59680	64214
33.60492	60419
33.61305	60728
33.62117	57913
33.62928	55147
33.63742	54314
33.64553	57657
33.65365	57485
33.66178	60804
33.66990	65776
33.67803	57318
33.68615	62479
33.69427	59989
33.70240	57699
33.71052	54336
33.71865	58324
33.72677	63419
33.73488	56361
33.74302	55802
33.75113	58188
33.75925	60278
33.76738	56208
33.77550	55205
33.78363	57300
33.79175	53818
33.79987	61963
33.80800	56519
33.81612	53839
33.82425	62259
33.83237	56842
33.84048	53010
33.84862	57634
33.85673	57571
33.86487	62344
33.87298	59086
33.88110	55380
33.88923	58574
33.89735	62407
33.90547	62507
33.91360	58974
33.92172	65425
33.92985	60982
33.93797	57009
33.94608	59574
33.95422	67957
33.96233	58273
33.97047	60712
33.97858	58333
33.98670	58867
33.99483	57486
34.00295	61048
34.01108	58964
34.01920	56592
34.02732	56543
34.03545	55333
34.04357	55555
34.05168	57815
34.05982	54495
34.06793	58608
34.07607	54407
34.08418	55608
34.09230	56631
34.10043	53345
34.10855	57428
34.11668	59236
34.12480	59636
34.13292	59803
34.14105	61161
34.14917	53640
34.15728	54715
34.16542	57781
34.17353	58361
34.18167	55649
34.18978	61710
34.19790	55018
34.20603	60505
34.21415	55470
34.22228	59079
34.23040	64767
34.23852	56397
34.24665	55808
34.25477	63529
34.26290	56116
34.27102	57345
34.27913	56865
34.28727	55102
34.29538	56549
34.30350	59321
34.31163	55698
34.31975	54827
34.32788	58378
34.33600	54132
34.34412	55333
34.35225	53732
34.36037	63532
34.36850	57714
34.37662	59380
34.38473	61063
34.39287	54260
34.40098	58722
34.40912	57342
34.41723	57805
34.42535	50931
34.43348	59436
34.44160	54696
34.44972	60540
34.45785	58732
34.46597	57364
34.47410	55745
34.48222	60969
34.49033	59276
34.49847	56666
34.50658	62939
34.51472	57391
34.52283	61993
34.53095	61758
34.53908	67419
34.54720	71205
34.55532	79384
34.56345	92682
34.57157	111038
34.57970	110793
34.58782	123189
34.59593	117287
34.60407	119843
34.61218	111076
34.62032	105603
34.62843	95153
34.63655	86086
34.64468	85331
34.65280	85648
34.66093	80911
34.66905	78056
34.67717	75347
34.68530	74581
34.69342	72394
34.70153	68310
34.70967	70444
34.71778	74497
34.72592	67465
34.73403	70462
34.74215	71777
34.75028	68423
34.75840	72558
34.76653	68252
34.77465	72824
34.78277	66675
34.79090	66112
34.79902	65804
34.80715	68530
34.81527	66691
34.82338	64944
34.83152	63037
34.83963	65574
34.84775	68586
34.85588	66710
34.86400	67516
34.87213	66014
34.88025	67156
34.88837	63890
34.89650	65203
34.90462	65795
34.91275	63741
34.92087	62744
34.92898	60656
34.93712	70765
34.94523	67747
34.95335	66203
34.96148	73578
34.96960	70519
34.97773	67753
34.98585	69977
34.99397	71622
35.00210	70878
35.01022	68969
35.01835	65815
35.02647	67995
35.03458	60910
35.04272	63304
35.05083	64807
35.05897	62501
35.06708	66577
35.07520	71110
35.08333	69500
35.09145	63387
35.09957	62858
35.10770	64084
35.11582	63841
35.12395	63891
35.13207	72250
35.14018	64002
35.14832	64438
35.15643	63982
35.16457	68772
35.17268	68935
35.18080	75249
35.18893	73765
35.19705	76410
35.20517	70559
35.21330	65858
35.22142	64875
35.22955	63251
35.23767	62799
35.24578	67777
35.25392	68611
35.26203	65205
35.27017	63770
35.27828	68294
35.28640	69416
35.29453	68363
35.30265	64804
35.31078	65446
35.31890	67773
35.32702	65435
35.33515	68787
35.34327	61971
35.35138	62283
35.35952	59542
35.36763	63472
35.37577	63260
35.38388	65191
35.39200	63361
35.40013	61287
35.40825	63179
35.41638	73253
35.42450	70477
35.43262	71340
35.44075	75592
35.44887	74576
35.45700	75927
35.46512	73079
35.47323	76889
35.48137	70927
35.48948	75589
35.49760	74214
35.50573	70527
35.51385	67180
35.52198	67637
35.53010	70958
35.53822	69304
35.54635	65864
35.55447	71386
35.56260	69343
35.57072	67537
35.57883	75343
35.58697	68653
35.59508	65172
35.60320	68219
35.61133	67778
35.61945	64636
35.62758	63953
35.63570	67645
35.64382	65085
35.65195	61543
35.66007	66862
35.66820	61547
35.67632	65879
35.68443	66125
35.69257	65048
35.70068	65655
35.70882	70403
35.71693	74534
35.72505	72066
35.73318	74092
35.74130	71702
35.74942	69066
35.75755	70642
35.76567	76453
35.77380	78041
35.78192	78371
35.79003	81965
35.79817	80553
35.80628	84476
35.81442	76286
35.82253	73541
35.83065	65202
35.83878	69317
35.84690	70492
35.85503	64367
35.86315	68215
35.87127	66859
35.87940	66158
35.88752	66386
35.89563	65691
35.90377	67521
35.91188	65371
35.92002	65588
35.92813	60204
35.93625	66356
35.94438	69316
35.95250	63741
35.96063	65089
35.96875	67448
35.97687	66429
35.98500	65740
35.99312	67490
36.00123	67478
36.00937	68003
36.01748	69976
36.02562	74206
36.03373	75888
36.04185	76719
36.04998	77885
36.05810	79817
36.06623	75155
36.07435	70214
36.08247	68725
36.09060	65547
36.09872	65407
36.10685	69669
36.11497	68498
36.12308	64226
36.13122	68445
36.13933	77765
36.14745	69834
36.15558	74900
36.16370	73519
36.17183	77641
36.17995	76490
36.18807	80600
36.19620	75248
36.20432	74485
36.21245	72832
36.22057	71007
36.22868	71316
36.23682	70927
36.24493	70549
36.25305	68089
36.26118	67485
36.26930	75618
36.27743	66636
36.28555	70712
36.29367	68892
36.30180	67804
36.30992	68584
36.31805	68650
36.32617	71472
36.33428	75341
36.34242	88705
36.35053	84340
36.35867	88075
36.36678	84383
36.37490	84569
36.38303	82475
36.39115	86476
36.39927	89745
36.40740	86723
36.41552	93275
36.42365	96019
36.43177	98891
36.43988	102523
36.44802	98385
36.45613	96481
36.46427	98115
36.47238	101284
36.48050	108809
36.48863	96352
36.49675	99440
36.50488	102816
36.51300	100468
36.52112	100034
36.52925	95843
36.53737	95420
36.54548	91249
36.55362	91966
36.56173	89636
36.56987	87289
36.57798	82674
36.58610	81602
36.59423	79959
36.60235	81847
36.61048	82019
36.61860	78011
36.62672	74204
36.63485	74531
36.64297	74001
36.65108	74036
36.65922	75373
36.66733	74053
36.67547	77038
36.68358	77068
36.69170	71296
36.69983	78581
36.70795	76998
36.71608	77772
36.72420	81982
36.73232	79377
36.74045	82482
36.74857	81755
36.75670	79297
36.76482	79267
36.77293	81942
36.78107	76344
36.78918	75105
36.79730	74542
36.80543	75341
36.81355	76909
36.82168	73887
36.82980	70408
36.83792	72809
36.84605	69656
36.85417	68380
36.86230	74510
36.87042	70999
36.87853	70481
36.88667	72322
36.89478	75728
36.90292	74940
36.91103	75260
36.91915	72614
36.92728	72807
36.93540	76812
36.94352	75796
36.95165	82573
36.95977	73736
36.96790	77489
36.97602	76395
36.98413	82002
36.99227	88666
37.00038	79454
37.00852	78808
37.01663	80375
37.02475	79794
37.03288	76106
37.04100	74680
37.04912	75909
37.05725	77508
37.06537	74078
37.07350	80922
37.08162	84290
37.08973	84025
37.09787	87555
37.10598	84561
37.11412	87896
37.12223	89233
37.13035	81551
37.13848	82648
37.14660	79107
37.15473	77312
37.16285	73114
37.17097	74590
37.17910	76249
37.18722	76224
37.19533	75681
37.20347	83099
37.21158	71162
37.21972	76357
37.22783	77583
37.23595	81471
37.24408	82187
37.25220	80192
37.26033	82786
37.26845	82383
37.27657	84606
37.28470	83222
37.29282	78317
37.30093	80154
37.30907	77680
37.31718	81294
37.32532	80597
37.33343	86891
37.34155	80742
37.34968	76330
37.35780	86449
37.36593	92883
37.37405	101474
37.38217	104481
37.39030	116617
37.39842	117146
37.40655	112713
37.41467	113041
37.42278	112657
37.43092	105339
37.43903	100800
37.44715	102211
37.45528	100911
37.46340	102972
37.47153	96987
37.47965	93328
37.48777	92893
