Z:\data\JTB-E02\BACandBLUE\JTB-E02-204-16.D Sat Mar 09 15:01:57 2019
Start of data points
2.09520	58802
2.10333	67551
2.11145	69242
2.11957	68744
2.12770	67070
2.13582	70210
2.14395	68495
2.15207	64051
2.16018	68470
2.16832	68448
2.17643	62432
2.18457	62646
2.19268	59841
2.20080	59047
2.20893	59011
2.21705	61096
2.22517	55840
2.23330	57891
2.24142	55127
2.24955	55879
2.25767	61308
2.26578	140216
2.27392	702058
2.28203	1144644
2.29017	731889
2.29828	396312
2.30640	303074
2.31453	242535
2.32265	225969
2.33077	199478
2.33890	190328
2.34702	173976
2.35515	165026
2.36327	145843
2.37138	146145
2.37952	140478
2.38763	133333
2.39577	128212
2.40388	128495
2.41200	119996
2.42013	122584
2.42825	121833
2.43638	117409
2.44450	112757
2.45262	120426
2.46075	110897
2.46887	108968
2.47698	102208
2.48512	102550
2.49323	109398
2.50137	107529
2.50948	105036
2.51760	104144
2.52573	104135
2.53385	101236
2.54198	98479
2.55010	118774
2.55822	204985
2.56635	312448
2.57447	259223
2.58260	195856
2.59072	168706
2.59883	182249
2.60697	422912
2.61508	883517
2.62320	792668
2.63133	467405
2.63945	326217
2.64758	257290
2.65570	208770
2.66382	178632
2.67195	162899
2.68007	150922
2.68820	138625
2.69632	136987
2.70443	127554
2.71257	123570
2.72068	116866
2.72880	113810
2.73693	106533
2.74505	111929
2.75318	109466
2.76130	103084
2.76942	112610
2.77755	304463
2.78567	1002342
2.79380	1387655
2.80192	870944
2.81003	527579
2.81817	411907
2.82628	364515
2.83442	308557
2.84253	263521
2.85065	230005
2.85878	210460
2.86690	190415
2.87502	183985
2.88315	165045
2.89127	159818
2.89940	153053
2.90752	145238
2.91563	130963
2.92377	132101
2.93188	123748
2.94002	121642
2.94813	116420
2.95625	116516
2.96438	128871
2.97250	127707
2.98063	116329
2.98875	120073
2.99687	127144
3.00500	130805
3.01312	130093
3.02123	125440
3.02937	107611
3.03748	105075
3.04562	106961
3.05373	100577
3.06185	106076
3.06998	113144
3.07810	209851
3.08623	979824
3.09435	2806951
3.10247	4564177
3.11060	6025639
3.11872	5883466
3.12683	3984283
3.13497	2636416
3.14308	1958071
3.15122	1548573
3.15933	1288478
3.16745	1070781
3.17558	944661
3.18370	995509
3.19183	1534761
3.19995	2003967
3.20807	1708787
3.21620	1229147
3.22432	986577
3.23245	829802
3.24057	721831
3.24868	613883
3.25682	557645
3.26493	494389
3.27305	452661
3.28118	431261
3.28930	593076
3.29743	1518118
3.30555	3658430
3.31367	5544305
3.32180	5307140
3.32992	3713000
3.33805	2343731
3.34617	1634637
3.35428	1249194
3.36242	1030006
3.37053	881490
3.37865	770765
3.38678	687977
3.39490	628394
3.40303	568251
3.41115	537690
3.41927	485181
3.42740	478785
3.43552	437922
3.44365	425018
3.45177	405254
3.45988	385679
3.46802	383451
3.47613	400581
3.48427	384476
3.49238	367484
3.50050	344203
3.50863	325543
3.51675	309570
3.52487	296804
3.53300	299114
3.54112	315484
3.54925	310806
3.55737	288446
3.56548	266451
3.57362	271260
3.58173	263384
3.58987	265366
3.59798	250921
3.60610	226648
3.61423	242307
3.62235	231735
3.63048	241721
3.63860	249637
3.64672	243936
3.65485	270886
3.66297	923196
3.67108	4724760
3.67922	1.26298E+07
3.68733	1.659189E+07
3.69547	1.269849E+07
3.70358	7510931
3.71170	4916301
3.71983	3806014
3.72795	3109289
3.73608	2667313
3.74420	2335042
3.75232	2082172
3.76045	1864193
3.76857	1697813
3.77668	1547916
3.78482	1415967
3.79293	1346628
3.80107	1461197
3.80918	2228243
3.81730	3625645
3.82543	4066861
3.83355	3172960
3.84168	2290782
3.84980	1801798
3.85792	1539710
3.86605	1372456
3.87417	1240664
3.88230	1163597
3.89042	1078621
3.89853	996659
3.90667	954776
3.91478	920618
3.92290	1017639
3.93103	1125991
3.93915	1164326
3.94728	1247893
3.95540	2138748
3.96352	4226262
3.97165	5937524
3.97977	5275366
3.98790	3562546
3.99602	2991587
4.00413	5686709
4.01227	1.218895E+07
4.02038	1.724509E+07
4.02852	1.503683E+07
4.03663	9067765
4.04475	5046623
4.05288	3276108
4.06100	2440334
4.06912	1923531
4.07725	1623087
4.08537	1377639
4.09350	1225894
4.10162	1083924
4.10973	993711
4.11787	900502
4.12598	834118
4.13412	798041
4.14223	778147
4.15035	763285
4.15848	746360
4.16660	724715
4.17472	716198
4.18285	711098
4.19097	653502
4.19910	604620
4.20722	717440
4.21533	1763533
4.22347	5430488
4.23158	1.179111E+07
4.23972	1.663126E+07
4.24783	1.69328E+07
4.25595	1.271413E+07
4.26408	8132109
4.27220	5448573
4.28033	3989036
4.28845	3028047
4.29657	2401047
4.30470	1946123
4.31282	1624627
4.32093	1385830
4.32907	1203325
4.33718	1064658
4.34532	952826
4.35343	895225
4.36155	879961
4.36968	889480
4.37780	860664
4.38593	771698
4.39405	661033
4.40217	604075
4.41030	567155
4.41842	533464
4.42653	520508
4.43467	485163
4.44278	451620
4.45092	445341
4.45903	431384
4.46715	422177
4.47528	405689
4.48340	387518
4.49153	385081
4.49965	378516
4.50777	366816
4.51590	357580
4.52402	351906
4.53215	347416
4.54027	352041
4.54838	358895
4.55652	349863
4.56463	354892
4.57275	329510
4.58088	318934
4.58900	300692
4.59713	296239
4.60525	293853
4.61337	286815
4.62150	320163
4.62962	405868
4.63775	629742
4.64587	831736
4.65398	820186
4.66212	652179
4.67023	505876
4.67837	418970
4.68648	387693
4.69460	358329
4.70273	325832
4.71085	303101
4.71897	297412
4.72710	301509
4.73522	292404
4.74335	283693
4.75147	270537
4.75958	260099
4.76772	253158
4.77583	249514
4.78397	319415
4.79208	719831
4.80020	1882758
4.80833	3442199
4.81645	4038613
4.82458	3197447
4.83270	2139780
4.84082	1537522
4.84895	1279663
4.85707	1096453
4.86518	972892
4.87332	825109
4.88143	722188
4.88957	648387
4.89768	594599
4.90580	557062
4.91393	527720
4.92205	489606
4.93018	480028
4.93830	512754
4.94642	668806
4.95455	1090326
4.96267	1753676
4.97078	2204818
4.97892	2199596
4.98703	1770500
4.99517	1324626
5.00328	1000103
5.01140	790244
5.01953	691784
5.02765	679726
5.03578	724327
5.04390	835612
5.05202	825393
5.06015	752967
5.06827	654117
5.07640	590199
5.08452	526936
5.09263	501250
5.10077	469204
5.10888	444200
5.11700	422756
5.12513	409690
5.13325	390220
5.14138	398485
5.14950	391455
5.15762	441572
5.16575	520587
5.17387	575330
5.18200	555878
5.19012	499335
5.19823	470124
5.20637	492285
5.21448	518514
5.22260	505482
5.23073	465731
5.23885	449673
5.24698	411513
5.25510	373405
5.26322	347446
5.27135	319836
5.27947	297064
5.28760	276761
5.29572	265805
5.30383	269151
5.31197	264366
5.32008	262549
5.32822	277507
5.33633	307993
5.34445	345873
5.35258	348276
5.36070	331069
5.36882	284908
5.37695	271946
5.38507	259819
5.39320	276636
5.40132	286136
5.40943	300551
5.41757	282668
5.42568	257966
5.43382	248924
5.44193	242531
5.45005	257132
5.45818	258374
5.46630	265311
5.47443	244878
5.48255	223371
5.49067	217414
5.49880	217750
5.50692	201785
5.51503	218099
5.52317	233963
5.53128	230219
5.53942	230679
5.54753	228290
5.55565	242466
5.56378	337267
5.57190	463797
5.58003	577446
5.58815	590266
5.59627	478833
5.60440	378802
5.61252	309563
5.62063	263714
5.62877	244779
5.63688	237507
5.64502	232033
5.65313	233100
5.66125	228158
5.66938	215692
5.67750	216179
5.68563	256934
5.69375	303677
5.70187	334509
5.71000	322947
5.71812	289780
5.72625	252692
5.73437	234481
5.74248	207789
5.75062	197877
5.75873	190943
5.76685	182441
5.77498	182299
5.78310	176538
5.79123	166349
5.79935	172034
5.80747	166751
5.81560	172889
5.82372	176322
5.83185	169535
5.83997	166122
5.84808	163893
5.85622	169352
5.86433	165033
5.87247	171269
5.88058	160806
5.88870	160915
5.89683	158181
5.90495	151548
5.91307	152563
5.92120	160565
5.92932	164899
5.93745	160312
5.94557	158862
5.95368	167981
5.96182	194266
5.96993	237002
5.97807	295640
5.98618	378821
5.99430	422753
6.00243	428523
6.01055	364629
6.01867	284479
6.02680	235424
6.03492	203816
6.04305	185535
6.05117	169939
6.05928	156364
6.06742	147005
6.07553	145051
6.08367	137488
6.09178	139689
6.09990	147233
6.10803	163743
6.11615	184721
6.12428	213504
6.13240	278519
6.14052	413573
6.14865	571960
6.15677	628385
6.16488	530803
6.17302	395620
6.18113	288635
6.18927	245720
6.19738	229084
6.20550	217849
6.21363	209132
6.22175	202618
6.22988	197687
6.23800	195841
6.24612	185700
6.25425	186697
6.26237	202388
6.27048	210352
6.27862	204545
6.28673	192631
6.29487	183300
6.30298	176809
6.31110	186429
6.31923	184527
6.32735	207266
6.33548	249117
6.34360	282708
6.35172	306791
6.35985	270298
6.36797	235076
6.37610	210753
6.38422	198972
6.39233	194555
6.40047	193436
6.40858	190687
6.41670	191048
6.42483	187693
6.43295	187676
6.44108	189369
6.44920	188257
6.45732	194692
6.46545	192487
6.47357	190379
6.48170	199523
6.48982	195521
6.49793	200635
6.50607	200788
6.51418	196581
6.52232	212371
6.53043	204864
6.53855	200406
6.54668	203142
6.55480	208881
6.56292	221217
6.57105	278811
6.57917	352625
6.58730	412945
6.59542	419074
6.60353	369898
6.61167	304922
6.61978	259203
6.62792	229019
6.63603	222295
6.64415	260058
6.65228	404470
6.66040	922184
6.66852	1833905
6.67665	2647517
6.68477	2610905
6.69290	1920311
6.70102	1170912
6.70913	750885
6.71727	557342
6.72538	465249
6.73352	421731
6.74163	372981
6.74975	327724
6.75788	298588
6.76600	276036
6.77413	252066
6.78225	238574
6.79037	223556
6.79850	204855
6.80662	206709
6.81473	191321
6.82287	182966
6.83098	179383
6.83912	185008
6.84723	186322
6.85535	191432
6.86348	201562
6.87160	188374
6.87973	171113
6.88785	157739
6.89597	145355
6.90410	135885
6.91222	123913
6.92035	120728
6.92847	117418
6.93658	117320
6.94472	116754
6.95283	115135
6.96095	126640
6.96908	139085
6.97720	168650
6.98533	208778
6.99345	209182
7.00157	178445
7.00970	150846
7.01782	134734
7.02595	136216
7.03407	130762
7.04218	127662
7.05032	126280
7.05843	136531
7.06655	141582
7.07468	149832
7.08280	145650
7.09093	133829
7.09905	117039
7.10717	114023
7.11530	114741
7.12342	112479
7.13155	106826
7.13967	106268
7.14778	131410
7.15592	174197
7.16403	224017
7.17217	254323
7.18028	235601
7.18840	201240
7.19653	164338
7.20465	172779
7.21277	307808
7.22090	764126
7.22902	1588638
7.23715	2520199
7.24527	2882354
7.25338	2346067
7.26152	1499487
7.26963	876012
7.27777	537709
7.28588	343892
7.29400	219381
7.30213	163612
7.31025	132482
7.31838	128526
7.32650	128877
7.33462	131631
7.34275	129877
7.35087	122666
7.35898	116754
7.36712	109361
7.37523	104666
7.38337	107165
7.39148	105661
7.39960	109247
7.40773	105590
7.41585	104819
7.42398	99941
7.43210	95996
7.44022	103465
7.44835	107897
7.45647	104286
7.46458	104163
7.47272	101751
7.48083	97943
7.48897	96675
7.49708	93993
7.50520	90246
7.51333	98086
7.52145	125537
7.52958	210924
7.53770	376316
7.54582	641408
7.55395	947664
7.56207	1167023
7.57020	1213594
7.57832	1102849
7.58643	855896
7.59457	583703
7.60268	399154
7.61080	264927
7.61893	209504
7.62705	158105
7.63518	139407
7.64330	130836
7.65142	112757
7.65955	102328
7.66767	99545
7.67580	96001
7.68392	91507
7.69203	84856
7.70017	91706
7.70828	88390
7.71640	90718
7.72453	90278
7.73265	84521
7.74078	92889
7.74890	86701
7.75702	84478
7.76515	89707
7.77327	90843
7.78140	95312
7.78952	103168
7.79763	108111
7.80577	119896
7.81388	124503
7.82202	132321
7.83013	126890
7.83825	110133
7.84638	96785
7.85450	96176
7.86262	102148
7.87075	99537
7.87887	118781
7.88700	138445
7.89512	154345
7.90323	149215
7.91137	130562
7.91948	125717
7.92762	144907
7.93573	214732
7.94385	329813
7.95198	409748
7.96010	420642
7.96823	363639
7.97635	258830
7.98447	183740
7.99260	138186
8.00072	109539
8.00883	92128
8.01697	88169
8.02508	87374
8.03322	79493
8.04133	84852
8.04945	80284
8.05758	81536
8.06570	82208
8.07383	77035
8.08195	75264
8.09007	75748
8.09820	71242
8.10632	69032
8.11443	69969
8.12257	71688
8.13068	76016
8.13882	81417
8.14693	102730
8.15505	113053
8.16318	124547
8.17130	118708
8.17943	102499
8.18755	91995
8.19567	81555
8.20380	78543
8.21192	77531
8.22005	72849
8.22817	74804
8.23628	73011
8.24442	75013
8.25253	70535
8.26065	69231
8.26878	65429
8.27690	67601
8.28503	60688
8.29315	69062
8.30127	65403
8.30940	69373
8.31752	73194
8.32565	81029
8.33377	76950
8.34188	79650
8.35002	71050
8.35813	74389
8.36627	71804
8.37438	66122
8.38250	67279
8.39063	72033
8.39875	78401
8.40687	74362
8.41500	65089
8.42312	62257
8.43125	61154
8.43937	59742
8.44748	61897
8.45562	59804
8.46373	64280
8.47187	67880
8.47998	66037
8.48810	57728
8.49623	60202
8.50435	63277
8.51247	72548
8.52060	100079
8.52872	196009
8.53685	463335
8.54497	917943
8.55308	1412827
8.56122	1550937
8.56933	1296656
8.57747	845521
8.58558	470560
8.59370	266090
8.60183	176314
8.60995	142184
8.61808	134508
8.62620	126152
8.63432	116373
8.64245	112479
8.65057	104787
8.65868	91002
8.66682	90955
8.67493	84425
8.68307	86377
8.69118	88916
8.69930	84727
8.70743	90047
8.71555	83477
8.72368	80783
8.73180	80106
8.73992	74560
8.74805	72691
8.75617	74695
8.76428	84137
8.77242	110213
8.78053	171371
8.78867	257846
8.79678	332738
8.80490	373394
8.81303	335173
8.82115	253169
8.82928	205856
8.83740	163970
8.84552	141331
8.85365	136158
8.86177	132548
8.86990	131324
8.87802	127957
8.88613	114727
8.89427	117903
8.90238	109506
8.91050	104523
8.91863	110470
8.92675	115007
8.93488	122500
8.94300	135971
8.95112	155271
8.95925	169997
8.96737	153066
8.97550	146814
8.98362	134982
8.99173	139339
8.99987	135077
9.00798	130126
9.01612	124861
9.02423	107099
9.03235	96802
9.04048	84586
9.04860	91329
9.05672	83587
9.06485	83862
9.07297	85779
9.08110	90121
9.08922	90425
9.09733	95529
9.10547	118032
9.11358	139244
9.12172	156350
9.12983	167730
9.13795	152314
9.14608	127108
9.15420	113654
9.16232	97516
9.17045	93493
9.17857	89880
9.18670	79928
9.19482	77353
9.20293	75390
9.21107	78571
9.21918	76525
9.22732	79939
9.23543	79833
9.24355	81153
9.25168	86766
9.25980	86231
9.26793	82694
9.27605	80869
9.28417	82418
9.29230	74390
9.30042	71380
9.30853	76737
9.31667	71004
9.32478	69242
9.33292	72320
9.34103	71536
9.34915	69354
9.35728	69570
9.36540	71857
9.37353	74524
9.38165	71668
9.38977	67801
9.39790	69430
9.40602	73767
9.41415	92954
9.42227	103307
9.43038	122532
9.43852	140634
9.44663	157721
9.45475	149657
9.46288	135339
9.47100	111410
9.47913	99515
9.48725	86057
9.49537	83085
9.50350	79465
9.51162	78406
9.51975	97198
9.52787	115700
9.53598	125053
9.54412	118017
9.55223	101892
9.56035	97739
9.56848	90649
9.57660	93616
9.58473	110449
9.59285	123137
9.60097	128619
9.60910	123362
9.61722	109410
9.62535	87476
9.63347	70161
9.64158	65588
9.64972	63335
9.65783	59507
9.66597	55525
9.67408	59311
9.68220	57220
9.69033	55232
9.69845	54218
9.70657	52327
9.71470	51030
9.72282	52147
9.73095	50879
9.73907	53697
9.74718	52452
9.75532	48694
9.76343	51101
9.77157	50486
9.77968	47531
9.78780	56185
9.79593	47956
9.80405	48105
9.81217	50122
9.82030	45826
9.82842	47249
9.83655	46782
9.84467	50579
9.85278	49393
9.86092	49214
9.86903	51818
9.87717	52745
9.88528	49032
9.89340	48790
9.90153	53410
9.90965	46802
9.91778	49517
9.92590	49302
9.93402	60603
9.94215	71667
9.95027	90186
9.95838	103004
9.96652	115543
9.97463	103665
9.98277	94017
9.99088	81857
9.99900	74460
10.00713	65333
10.01525	68297
10.02338	63511
10.03150	65654
10.03962	59940
10.04775	57494
10.05587	53192
10.06400	56705
10.07212	54698
10.08023	56460
10.08837	59441
10.09648	58171
10.10460	61275
10.11273	66591
10.12085	63397
10.12898	58791
10.13710	56135
10.14522	51581
10.15335	50271
10.16147	50917
10.16960	46524
10.17772	48046
10.18583	50648
10.19397	48147
10.20208	47865
10.21022	48685
10.21833	53089
10.22645	49099
10.23458	52101
10.24270	62105
10.25082	68742
10.25895	84355
10.26707	159820
10.27520	390064
10.28332	957758
10.29143	2013162
10.29957	3544952
10.30768	5324005
10.31582	7791351
10.32393	1.15538E+07
10.33205	1.743174E+07
10.34018	2.468363E+07
10.34830	2.984545E+07
10.35642	3.020212E+07
10.36455	2.429664E+07
10.37267	1.439649E+07
10.38080	6963407
10.38892	3286545
10.39703	1874513
10.40517	1301710
10.41328	955206
10.42142	749561
10.42953	623134
10.43765	547248
10.44578	488937
10.45390	466684
10.46203	436499
10.47015	420512
10.47827	380514
10.48640	358952
10.49452	328501
10.50263	298484
10.51077	288957
10.51888	276233
10.52702	264947
10.53513	271661
10.54325	284014
10.55138	272080
10.55950	270542
10.56763	248589
10.57575	231821
10.58387	210730
10.59200	192316
10.60012	186192
10.60823	179084
10.61637	168365
10.62448	160810
10.63262	159389
10.64073	147731
10.64885	140220
10.65698	146454
10.66510	142472
10.67323	138461
10.68135	141286
10.68947	135406
10.69760	136251
10.70572	135748
10.71385	131042
10.72197	130407
10.73008	128199
10.73822	128702
10.74633	119814
10.75445	117524
10.76258	114145
10.77070	115858
10.77883	110756
10.78695	109287
10.79507	106642
10.80320	102346
10.81132	106077
10.81945	107913
10.82757	112334
10.83568	113604
10.84382	107720
10.85193	95034
10.86007	88772
10.86818	87396
10.87630	82561
10.88443	82537
10.89255	82108
10.90067	82236
10.90880	84230
10.91692	80293
10.92505	80962
10.93317	71334
10.94128	75061
10.94942	74283
10.95753	75481
10.96567	80399
10.97378	72387
10.98190	76049
10.99003	76579
10.99815	74674
11.00627	75466
11.01440	72854
11.02252	79176
11.03065	75023
11.03877	76072
11.04688	64163
11.05502	67172
11.06313	64375
11.07127	70005
11.07938	69912
11.08750	72671
11.09563	73167
11.10375	70371
11.11188	72555
11.12000	66892
11.12812	64869
11.13625	59206
11.14437	55684
11.15248	64558
11.16062	52482
11.16873	57484
11.17687	52242
11.18498	56779
11.19310	56356
11.20123	57813
11.20935	54931
11.21748	58157
11.22560	50932
11.23372	49432
11.24185	45609
11.24997	48247
11.25810	43133
11.26622	49031
11.27433	45599
11.28247	44730
11.29058	53436
11.29870	54419
11.30683	73096
11.31495	131760
11.32308	241398
11.33120	414867
11.33932	631715
11.34745	800964
11.35557	852607
11.36370	767994
11.37182	567190
11.37993	381015
11.38807	257402
11.39618	190885
11.40430	154391
11.41243	148493
11.42055	136836
11.42868	130218
11.43680	124852
11.44492	114141
11.45305	103706
11.46117	96300
11.46930	99604
11.47742	103224
11.48553	117777
11.49367	149245
11.50178	183366
11.50992	207342
11.51803	204904
11.52615	188399
11.53428	156705
11.54240	144847
11.55052	143939
11.55865	140302
11.56677	130056
11.57490	118230
11.58302	98949
11.59113	97112
11.59927	103260
11.60738	120606
11.61552	153413
11.62363	190767
11.63175	208213
11.63988	189588
11.64800	157672
11.65612	118105
11.66425	98865
11.67237	86385
11.68050	74967
11.68862	75378
11.69673	70590
11.70487	76410
11.71298	76926
11.72112	72462
11.72923	68465
11.73735	68680
11.74548	66544
11.75360	63162
11.76173	58094
11.76985	62039
11.77797	59049
11.78610	54752
11.79422	56019
11.80233	52379
11.81047	61306
11.81858	51890
11.82672	57178
11.83483	51561
11.84295	51083
11.85108	55823
11.85920	58474
11.86733	52513
11.87545	51325
11.88357	52998
11.89170	49696
11.89982	49667
11.90795	50968
11.91607	57299
11.92418	52490
11.93232	56391
11.94043	56986
11.94855	59629
11.95668	60189
11.96480	52374
11.97293	47463
11.98105	49382
11.98917	48838
11.99730	57077
12.00542	77207
12.01355	84144
12.02167	96854
12.02978	89934
12.03792	82580
12.04603	72483
12.05415	64726
12.06228	54156
12.07040	56623
12.07853	55001
12.08665	54042
12.09477	63204
12.10290	57286
12.11102	74233
12.11915	102308
12.12727	137006
12.13538	171252
12.14352	205430
12.15163	181434
12.15977	154940
12.16788	117455
12.17600	80522
12.18413	69744
12.19225	65545
12.20037	59177
12.20850	59731
12.21662	63966
12.22475	59022
12.23287	57027
12.24098	65116
12.24912	57479
12.25723	61209
12.26537	59862
12.27348	56325
12.28160	58703
12.28973	48796
12.29785	53289
12.30598	52231
12.31410	48367
12.32222	55118
12.33035	54171
12.33847	47508
12.34658	54294
12.35472	49110
12.36283	44700
12.37097	44319
12.37908	53006
12.38720	49784
12.39533	51466
12.40345	52089
12.41158	58878
12.41970	65895
12.42782	79845
12.43595	88368
12.44407	93934
12.45218	90484
12.46032	74874
12.46843	69237
12.47657	69828
12.48468	69627
12.49280	57465
12.50093	58715
12.50905	53460
12.51718	48536
12.52530	53167
12.53342	55467
12.54155	79222
12.54967	131682
12.55780	228332
12.56592	342682
12.57403	449997
12.58217	454339
12.59028	381561
12.59840	267286
12.60653	173063
12.61465	125659
12.62278	96996
12.63090	78678
12.63902	74044
12.64715	65141
12.65527	63701
12.66340	61891
12.67152	57655
12.67963	57767
12.68777	58829
12.69588	50484
12.70400	53439
12.71213	53514
12.72025	60225
12.72838	65461
12.73650	68554
12.74462	72760
12.75275	76390
12.76087	70091
12.76900	65035
12.77712	56215
12.78523	59969
12.79337	52103
12.80148	46203
12.80962	46170
12.81773	44709
12.82585	48137
12.83398	43949
12.84210	44421
12.85022	38409
12.85835	41006
12.86647	40075
12.87460	39598
12.88272	40658
12.89083	42563
12.89897	42169
12.90708	38488
12.91522	37145
12.92333	37906
12.93145	39180
12.93958	39228
12.94770	35119
12.95583	36377
12.96395	38033
12.97207	42367
12.98020	42294
12.98832	47902
12.99643	50123
13.00457	54115
13.01268	45379
13.02082	43502
13.02893	40016
13.03705	45665
13.04518	39774
13.05330	38002
13.06143	42216
13.06955	40356
13.07767	40455
13.08580	40331
13.09392	40233
13.10203	43390
13.11017	38483
13.11828	39480
13.12642	34917
13.13453	40022
13.14265	35653
13.15078	35971
13.15890	40119
13.16703	38880
13.17515	38653
13.18327	42065
13.19140	44494
13.19952	51006
13.20765	44946
13.21577	49677
13.22388	54339
13.23202	54623
13.24013	49937
13.24825	48046
13.25638	47557
13.26450	42082
13.27263	42651
13.28075	41069
13.28887	39869
13.29700	40622
13.30512	34024
13.31325	35439
13.32137	35139
13.32948	36516
13.33762	42351
13.34573	35770
13.35387	38687
13.36198	34416
13.37010	34053
13.37823	34034
13.38635	33061
13.39447	36059
13.40260	32040
13.41072	32879
13.41885	33736
13.42697	32825
13.43508	34394
13.44322	37095
13.45133	33648
13.45947	34732
13.46758	34490
13.47570	33244
13.48383	37602
13.49195	37895
13.50007	40097
13.50820	34899
13.51632	36971
13.52445	37074
13.53257	40574
13.54068	41753
13.54882	40936
13.55693	38966
13.56507	42433
13.57318	41522
13.58130	45485
13.58943	46979
13.59755	46284
13.60568	51571
13.61380	52402
13.62192	56215
13.63005	62352
13.63817	57893
13.64628	57671
13.65442	48288
13.66253	41647
13.67067	40851
13.67878	36197
13.68690	37808
13.69503	34789
13.70315	33760
13.71128	33460
13.71940	37895
13.72752	36628
13.73565	41318
13.74377	47328
13.75190	52946
13.76002	67763
13.76813	94710
13.77627	149125
13.78438	185559
13.79250	236897
13.80063	254037
13.80875	249917
13.81688	255210
13.82500	270113
13.83312	293360
13.84125	301428
13.84937	300012
13.85750	267880
13.86562	230696
13.87373	174027
13.88187	143921
13.88998	116900
13.89810	99622
13.90623	85922
13.91435	72991
13.92248	71375
13.93060	72309
13.93872	62442
13.94685	60246
13.95497	66205
13.96310	74089
13.97122	106901
13.97933	146471
13.98747	174314
13.99558	192651
14.00372	194489
14.01183	156520
14.01995	125341
14.02808	112573
14.03620	79331
14.04432	73914
14.05245	79471
14.06057	67820
14.06870	72268
14.07682	62255
14.08493	63677
14.09307	62392
14.10118	58408
14.10932	57360
14.11743	55004
14.12555	49514
14.13368	55665
14.14180	52913
14.14992	53497
14.15805	54697
14.16617	57469
14.17430	61402
14.18242	65224
14.19053	63427
14.19867	67689
14.20678	80779
14.21492	103734
14.22303	106695
14.23115	131055
14.23928	143284
14.24740	136145
14.25553	141451
14.26365	147861
14.27177	147208
14.27990	129377
14.28802	108216
14.29613	97585
14.30427	87305
14.31238	79098
14.32052	74417
14.32863	82271
14.33675	74886
14.34488	66372
14.35300	72535
14.36113	62521
14.36925	63804
14.37737	55176
14.38550	54276
14.39362	51022
14.40175	50792
14.40987	54221
14.41798	59667
14.42612	65342
14.43423	70772
14.44235	69713
14.45048	67368
14.45860	63836
14.46673	55139
14.47485	55153
14.48297	58942
14.49110	57181
14.49922	48865
14.50735	46891
14.51547	49146
14.52358	51133
14.53172	51511
14.53983	49797
14.54795	46313
14.55608	44020
14.56420	43584
14.57233	42392
14.58045	41781
14.58857	42501
14.59670	44447
14.60482	40279
14.61295	39942
14.62107	45385
14.62918	37238
14.63732	40133
14.64543	36446
14.65357	35622
14.66168	37785
14.66980	35491
14.67793	32744
14.68605	35582
14.69417	37443
14.70230	37851
14.71042	40943
14.71855	35928
14.72667	40443
14.73478	43839
14.74292	37575
14.75103	42833
14.75917	39514
14.76728	44170
14.77540	41698
14.78353	49916
14.79165	68492
14.79978	136268
14.80790	349488
14.81602	904556
14.82415	2005423
14.83227	3470921
14.84038	4838031
14.84852	5290239
14.85663	4611075
14.86477	3297967
14.87288	2067252
14.88100	1239113
14.88913	757962
14.89725	535602
14.90538	418910
14.91350	354086
14.92162	296712
14.92975	274078
14.93787	242461
14.94598	233782
14.95412	227305
14.96223	198215
14.97037	182679
14.97848	173733
14.98660	164549
14.99473	159891
15.00285	155136
15.01098	144057
15.01910	137779
15.02722	133561
15.03535	127268
15.04347	122980
15.05160	115705
15.05972	110594
15.06783	107867
15.07597	105800
15.08408	96868
15.09220	95154
15.10033	91474
15.10845	89221
15.11658	88362
15.12470	93643
15.13282	95102
15.14095	102085
15.14907	115283
15.15720	114464
15.16532	117800
15.17343	93658
15.18157	88360
15.18968	69350
15.19780	63260
15.20593	58982
15.21405	54296
15.22218	54644
15.23030	56299
15.23842	61251
15.24655	50785
15.25467	48262
15.26280	49901
15.27092	48446
15.27903	47777
15.28717	45966
15.29528	42382
15.30342	43622
15.31153	46054
15.31965	43305
15.32778	43974
15.33590	43791
15.34402	42465
15.35215	42607
15.36027	41542
15.36840	39096
15.37652	43723
15.38463	45795
15.39277	43708
15.40088	43412
15.40902	44097
15.41713	45872
15.42525	43852
15.43338	42343
15.44150	43512
15.44963	37904
15.45775	39906
15.46587	45348
15.47400	52750
15.48212	66478
15.49023	86704
15.49837	109106
15.50648	132868
15.51462	138858
15.52273	144504
15.53085	130662
15.53898	124792
15.54710	132446
15.55523	116162
15.56335	115017
15.57147	108069
15.57960	85129
15.58772	73384
15.59585	62105
15.60397	53838
15.61208	50067
15.62022	46157
15.62833	43680
15.63645	45670
15.64458	45076
15.65270	48126
15.66083	45362
15.66895	41274
15.67707	40719
15.68520	40697
15.69332	44373
15.70145	40946
15.70957	37419
15.71768	37928
15.72582	38530
15.73393	43306
15.74205	40677
15.75018	43002
15.75830	51985
15.76643	73773
15.77455	121413
15.78267	196191
15.79080	292945
15.79892	365119
15.80705	371549
15.81517	321266
15.82328	240206
15.83142	180787
15.83953	122465
15.84767	92925
15.85578	84087
15.86390	72129
15.87203	76280
15.88015	67545
15.88827	69259
15.89640	64985
15.90452	61550
15.91265	66752
15.92077	59333
15.92888	60173
15.93702	62091
15.94513	54208
15.95327	54311
15.96138	64535
15.96950	64089
15.97763	72623
15.98575	78543
15.99387	79232
16.00200	81111
16.01012	84367
16.01825	80882
16.02637	85554
16.03448	98486
16.04262	81245
16.05073	81662
16.05887	75104
16.06698	63744
16.07510	60546
16.08323	54755
16.09135	48082
16.09948	50532
16.10760	48069
16.11572	51231
16.12385	45563
16.13197	52302
16.14008	59625
16.14822	56166
16.15633	54821
16.16447	54860
16.17258	59495
16.18070	49941
16.18883	52803
16.19695	50348
16.20508	44354
16.21320	46413
16.22132	46554
16.22945	48596
16.23757	50094
16.24570	46956
16.25382	44861
16.26193	44145
16.27007	45731
16.27818	46947
16.28630	43765
16.29443	47573
16.30255	50254
16.31068	49970
16.31880	47370
16.32692	50744
16.33505	48669
16.34317	53933
16.35130	50473
16.35942	57461
16.36753	67861
16.37567	83156
16.38378	95798
16.39190	88130
16.40003	92923
16.40815	81261
16.41628	66823
16.42440	57634
16.43252	60271
16.44065	57213
16.44877	61217
16.45690	96830
16.46502	188865
16.47313	385662
16.48127	608695
16.48938	874788
16.49752	996422
16.50563	906836
16.51375	658964
16.52188	429400
16.53000	275568
16.53812	185569
16.54625	131866
16.55437	112552
16.56250	100269
16.57062	90141
16.57873	88920
16.58687	90215
16.59498	85742
16.60312	86693
16.61123	92647
16.61935	101107
16.62748	93218
16.63560	87102
16.64373	82383
16.65185	80392
16.65997	72732
16.66810	69866
16.67622	64087
16.68433	61477
16.69247	64520
16.70058	57327
16.70872	54029
16.71683	53242
16.72495	52710
16.73308	51125
16.74120	45470
16.74933	52654
16.75745	52479
16.76557	54076
16.77370	61586
16.78182	61771
16.78993	57624
16.79807	54365
16.80618	48251
16.81432	47467
16.82243	50847
16.83055	41565
16.83868	39451
16.84680	39847
16.85493	40128
16.86305	42321
16.87117	39426
16.87930	41404
16.88742	36280
16.89555	39667
16.90367	36588
16.91178	36660
16.91992	42763
16.92803	40136
16.93615	41540
16.94428	40163
16.95240	39343
16.96053	37561
16.96865	38428
16.97677	41088
16.98490	35275
16.99302	39387
17.00115	38336
17.00927	34477
17.01738	40515
17.02552	40925
17.03363	42112
17.04175	39548
17.04988	42655
17.05800	47616
17.06613	44304
17.07425	50415
17.08237	48609
17.09050	48933
17.09862	45078
17.10675	44082
17.11487	45835
17.12298	47836
17.13112	46589
17.13923	49349
17.14737	47905
17.15548	48342
17.16360	44798
17.17173	43028
17.17985	46049
17.18797	39107
17.19610	40407
17.20422	41146
17.21235	37489
17.22047	39871
17.22858	36716
17.23672	36882
17.24483	38968
17.25297	42328
17.26108	41465
17.26920	40178
17.27733	42730
17.28545	40186
17.29358	37521
17.30170	40315
17.30982	43267
17.31795	43850
17.32607	38969
17.33418	46499
17.34232	52124
17.35043	55538
17.35857	59613
17.36668	57253
17.37480	56207
17.38293	53361
17.39105	51464
17.39918	50935
17.40730	54633
17.41542	53556
17.42355	52821
17.43167	51600
17.43978	52862
17.44792	50704
17.45603	53049
17.46417	49411
17.47228	48497
17.48040	44248
17.48853	45908
17.49665	44914
17.50478	41236
17.51290	44847
17.52102	47758
17.52915	42855
17.53727	43361
17.54540	40951
17.55352	45928
17.56163	49714
17.56977	64851
17.57788	97342
17.58600	148929
17.59413	258021
17.60225	380976
17.61038	513913
17.61850	618010
17.62662	588165
17.63475	511071
17.64287	395023
17.65100	317836
17.65912	293026
17.66723	291529
17.67537	299165
17.68348	296683
17.69162	275218
17.69973	237998
17.70785	190327
17.71598	155458
17.72410	123173
17.73222	107103
17.74035	88003
17.74847	91277
17.75660	86381
17.76472	79144
17.77283	73406
17.78097	72154
17.78908	66288
17.79722	62118
17.80533	65718
17.81345	64835
17.82158	66220
17.82970	64885
17.83782	65971
17.84595	71421
17.85407	77992
17.86220	80568
17.87032	85914
17.87843	87104
17.88657	88843
17.89468	85676
17.90282	71074
17.91093	58190
17.91905	55975
17.92718	49962
17.93530	52241
17.94343	50789
17.95155	47592
17.95967	46742
17.96780	43653
17.97592	48087
17.98403	45861
17.99217	45106
18.00028	42569
18.00842	45829
18.01653	51574
18.02465	59731
18.03278	66875
18.04090	80586
18.04903	91237
18.05715	101840
18.06527	92576
18.07340	92818
18.08152	103914
18.08963	125887
18.09777	146229
18.10588	168997
18.11402	177119
18.12213	161573
18.13025	152671
18.13838	123081
18.14650	117675
18.15463	105481
18.16275	95920
18.17087	87361
18.17900	83858
18.18712	88184
18.19525	84171
18.20337	77374
18.21148	68877
18.21962	70883
18.22773	65408
18.23585	59382
18.24398	59179
18.25210	55493
18.26023	53672
18.26835	50297
18.27647	56606
18.28460	51684
18.29272	45854
18.30085	48362
18.30897	45775
18.31708	44351
18.32522	49866
18.33333	41845
18.34147	49075
18.34958	39862
18.35770	38929
18.36583	39032
18.37395	41973
18.38207	42962
18.39020	43039
18.39832	40245
18.40645	39207
18.41457	41962
18.42268	40255
18.43082	47190
18.43893	56876
18.44707	59413
18.45518	76174
18.46330	94060
18.47143	126607
18.47955	165596
18.48767	200126
18.49580	210519
18.50392	203402
18.51205	178513
18.52017	134197
18.52828	102203
18.53642	80981
18.54453	73318
18.55267	62412
18.56078	59363
18.56890	52299
18.57703	51802
18.58515	49774
18.59328	45632
18.60140	55566
18.60952	53071
18.61765	57166
18.62577	58431
18.63388	59512
18.64202	60034
18.65013	62179
18.65827	49830
18.66638	52484
18.67450	50933
18.68263	44381
18.69075	46614
18.69888	44013
18.70700	43686
18.71512	47109
18.72325	45393
18.73137	42933
18.73950	41444
18.74762	43482
18.75573	41527
18.76387	39399
18.77198	41016
18.78010	35835
18.78823	42384
18.79635	45516
18.80448	52664
18.81260	74366
18.82072	122507
18.82885	149418
18.83697	168385
18.84510	178045
18.85322	184227
18.86133	190327
18.86947	191834
18.87758	199328
18.88570	199152
18.89383	202111
18.90195	198146
18.91008	200643
18.91820	201725
18.92632	212447
18.93445	208777
18.94257	220844
18.95070	219573
18.95882	211446
18.96693	219874
18.97507	226084
18.98318	228271
18.99132	215823
18.99943	209641
19.00755	211557
19.01568	205183
19.02380	195901
19.03192	192575
19.04005	203489
19.04817	203778
19.05630	193367
19.06442	195430
19.07253	189828
19.08067	189452
19.08878	209158
19.09692	220622
19.10503	230118
19.11315	240945
19.12128	255930
19.12940	240117
19.13753	231463
19.14565	212193
19.15377	210853
19.16190	197873
19.17002	201182
19.17813	216543
19.18627	205067
19.19438	210969
19.20252	204002
19.21063	202422
19.21875	197684
19.22688	194264
19.23500	188987
19.24313	176199
19.25125	176329
19.25937	178573
19.26750	181726
19.27562	184020
19.28373	181810
19.29187	185625
19.29998	189717
19.30812	188401
19.31623	192053
19.32435	189796
19.33248	182341
19.34060	179867
19.34873	182069
19.35685	182496
19.36497	194842
19.37310	208281
19.38122	241521
19.38935	241716
19.39747	233062
19.40558	214463
19.41372	190086
19.42183	179547
19.42995	177766
19.43808	169365
19.44620	162189
19.45433	155839
19.46245	146001
19.47057	163079
19.47870	155794
19.48682	150999
19.49495	156989
19.50307	162406
19.51118	171392
19.51932	188719
19.52743	207389
19.53555	208786
19.54368	209544
19.55180	195219
19.55993	180320
19.56805	169772
19.57617	154820
19.58430	152428
19.59242	145641
19.60055	141312
19.60867	131569
19.61678	139622
19.62492	136517
19.63303	135337
19.64117	137749
19.64928	153572
19.65740	192245
19.66553	249373
19.67365	307025
19.68177	354673
19.68990	391198
19.69802	376547
19.70615	334143
19.71427	305408
19.72238	251016
19.73052	232236
19.73863	210230
19.74677	200191
19.75488	178539
19.76300	164601
19.77113	151884
19.77925	149823
19.78738	159039
19.79550	160797
19.80362	171591
19.81175	176497
19.81987	174411
19.82798	171499
19.83612	161994
19.84423	154407
19.85237	139840
19.86048	142493
19.86860	173938
19.87673	261797
19.88485	440444
19.89298	720858
19.90110	1033687
19.90922	1364334
19.91735	1479319
19.92547	1435437
19.93358	1264800
19.94172	1135473
19.94983	947518
19.95797	831100
19.96608	760873
19.97420	727052
19.98233	682504
19.99045	645495
19.99858	616649
20.00670	588400
20.01482	567574
20.02295	523762
20.03107	521061
20.03920	482199
20.04732	451954
20.05543	408272
20.06357	351693
20.07168	287898
20.07980	255205
20.08793	239657
20.09605	214699
20.10418	207231
20.11230	196239
20.12042	182494
20.12855	179266
20.13667	166599
20.14480	166895
20.15292	169721
20.16103	178321
20.16917	194721
20.17728	229319
20.18542	256836
20.19353	265915
20.20165	282099
20.20978	277410
20.21790	269139
20.22602	245408
20.23415	215702
20.24227	196178
20.25040	204439
20.25852	216689
20.26663	253275
20.27477	307050
20.28288	378815
20.29102	426519
20.29913	448136
20.30725	425553
20.31538	380957
20.32350	327666
20.33162	259998
20.33975	217109
20.34787	187943
20.35600	153675
20.36412	139259
20.37223	132506
20.38037	117084
20.38848	109999
20.39662	106161
20.40473	104585
20.41285	103687
20.42098	96601
20.42910	101929
20.43723	104903
20.44535	118309
20.45347	125038
20.46160	134648
20.46972	127114
20.47783	128001
20.48597	121231
20.49408	118028
20.50222	103773
20.51033	99508
20.51845	95545
20.52658	89095
20.53470	89441
20.54283	91130
20.55095	88280
20.55907	87379
20.56720	86250
20.57532	87198
20.58343	86474
20.59157	80983
20.59968	83035
20.60782	82868
20.61593	83289
20.62405	80910
20.63218	77478
20.64030	76644
20.64843	83793
20.65655	77789
20.66467	75610
20.67280	81667
20.68092	77903
20.68905	78505
20.69717	74035
20.70528	75452
20.71342	77930
20.72153	73002
20.72965	74186
20.73778	78537
20.74590	69868
20.75403	72664
20.76215	75099
20.77027	86491
20.77840	80321
20.78652	87878
20.79465	109179
20.80277	139114
20.81088	194928
20.81902	270042
20.82713	319929
20.83527	334185
20.84338	301845
20.85150	251735
20.85963	184172
20.86775	135720
20.87587	112145
20.88400	98683
20.89212	89141
20.90025	89274
20.90837	81072
20.91648	82415
20.92462	83144
20.93273	79541
20.94087	79845
20.94898	79412
20.95710	79750
20.96523	76344
20.97335	76307
20.98148	75630
20.98960	69335
20.99772	67332
21.00585	70590
21.01397	67163
21.02208	68396
21.03022	75597
21.03833	73280
21.04647	74399
21.05458	74242
21.06270	70932
21.07083	70366
21.07895	74947
21.08708	73281
21.09520	70105
21.10332	64414
21.11145	64051
21.11957	65344
21.12768	68732
21.13582	73309
21.14393	80747
21.15207	96504
21.16018	110577
21.16830	133490
21.17643	134726
21.18455	141501
21.19268	124830
21.20080	107461
21.20892	99194
21.21705	89612
21.22517	76634
21.23330	83777
21.24142	76381
21.24953	72048
21.25767	67504
21.26578	70304
21.27390	74473
21.28203	70372
21.29015	67749
21.29828	66198
21.30640	69319
21.31452	68453
21.32265	67730
21.33077	63593
21.33890	70525
21.34702	63009
21.35513	60551
21.36327	62930
21.37138	61454
21.37950	64368
21.38763	64930
21.39575	62216
21.40388	69985
21.41200	69264
21.42012	76994
21.42825	79879
21.43637	81802
21.44450	76405
21.45262	77662
21.46073	71624
21.46887	68095
21.47698	65050
21.48512	66675
21.49323	68402
21.50135	63454
21.50948	63203
21.51760	62497
21.52572	67243
21.53385	59461
21.54197	67584
21.55010	62359
21.55822	62027
21.56633	63519
21.57447	60543
21.58258	70367
21.59072	66262
21.59883	75283
21.60695	75499
21.61508	77584
21.62320	74552
21.63133	76356
21.63945	81218
21.64757	81225
21.65570	82796
21.66382	91448
21.67193	103047
21.68007	101361
21.68818	94335
21.69632	96032
21.70443	85911
21.71255	77263
21.72068	70298
21.72880	63559
21.73693	68991
21.74505	56916
21.75317	58692
21.76130	60016
21.76942	54083
21.77753	52331
21.78567	56391
21.79378	55740
21.80192	56458
21.81003	53127
21.81815	54926
21.82628	56324
21.83440	59502
21.84253	63640
21.85065	68675
21.85877	77888
21.86690	86982
21.87502	88583
21.88315	73740
21.89127	66353
21.89938	62537
21.90752	59814
21.91563	62683
21.92375	57482
21.93188	52873
21.94000	50189
21.94813	52585
21.95625	54200
21.96437	43639
21.97250	46202
21.98062	48575
21.98875	45374
21.99687	42279
22.00498	44811
22.01312	40799
22.02123	45060
22.02937	43484
22.03748	44527
22.04560	47063
22.05373	51671
22.06185	47209
22.06997	52715
22.07810	45892
22.08622	50547
22.09435	44618
22.10247	47274
22.11058	44497
22.11872	43776
22.12683	40401
22.13497	45541
22.14308	45818
22.15120	43400
22.15933	47012
22.16745	42642
22.17557	43329
22.18370	42894
22.19182	42312
22.19995	44855
22.20807	43949
22.21618	43518
22.22432	44466
22.23243	51641
22.24057	47573
22.24868	47002
22.25680	48198
22.26493	46318
22.27305	52422
22.28118	49656
22.28930	51272
22.29742	58172
22.30555	64546
22.31367	84963
22.32178	119196
22.32992	168681
22.33803	218307
22.34617	234041
22.35428	249621
22.36240	225482
22.37053	184768
22.37865	146191
22.38678	128480
22.39490	113906
22.40302	130250
22.41115	148297
22.41927	175840
22.42738	183114
22.43552	183106
22.44363	179423
22.45177	157668
22.45988	145042
22.46800	132897
22.47613	119283
22.48425	119293
22.49238	115293
22.50050	114364
22.50862	125703
22.51675	129555
22.52487	128458
22.53300	119266
22.54112	119580
22.54923	107173
22.55737	110423
22.56548	104058
22.57360	106887
22.58173	101014
22.58985	100106
22.59798	92804
22.60610	91364
22.61422	87340
22.62235	92236
22.63047	85811
22.63860	88345
22.64672	93770
22.65483	90523
22.66297	85534
22.67108	95616
22.67922	90904
22.68733	101229
22.69545	107062
22.70358	108337
22.71170	112555
22.71982	118484
22.72795	110443
22.73607	112602
22.74420	109691
22.75232	102894
22.76043	91978
22.76857	98567
22.77668	91898
22.78482	93523
22.79293	97984
22.80105	103566
22.80918	111840
22.81730	122758
22.82542	123543
22.83355	117286
22.84167	114100
22.84980	102016
22.85792	92772
22.86603	81370
22.87417	78899
22.88228	82262
22.89042	87924
22.89853	95725
22.90665	97532
22.91478	109375
22.92290	118655
22.93103	129681
22.93915	136489
22.94727	147636
22.95540	139325
22.96352	120842
22.97163	105806
22.97977	96758
22.98788	97559
22.99602	82171
23.00413	73535
23.01225	66949
23.02038	66817
23.02850	60247
23.03663	59250
23.04475	59153
23.05287	53031
23.06100	57318
23.06912	56900
23.07725	60140
23.08537	57795
23.09348	59175
23.10162	52828
23.10973	57888
23.11785	55666
23.12598	67128
23.13410	83252
23.14223	86562
23.15035	98052
23.15847	101228
23.16660	110847
23.17472	107388
23.18285	112199
23.19097	110085
23.19908	112898
23.20722	112014
23.21533	118023
23.22345	122813
23.23158	122465
23.23970	127054
23.24783	135224
23.25595	144323
23.26407	161114
23.27220	160747
23.28032	185503
23.28845	160615
23.29657	156945
23.30468	143111
23.31282	133576
23.32093	127510
23.32907	132515
23.33718	135589
23.34530	144746
23.35343	151690
23.36155	179842
23.36967	209480
23.37780	223207
23.38592	265388
23.39405	292973
23.40217	313976
23.41028	339156
23.41842	354386
23.42653	364743
23.43467	387499
23.44278	356618
23.45090	361130
23.45903	349792
23.46715	321862
23.47528	324258
23.48340	297106
23.49152	275501
23.49965	270386
23.50777	241005
23.51588	232355
23.52402	227244
23.53213	214026
23.54027	202890
23.54838	188093
23.55650	182435
23.56463	184906
23.57275	186148
23.58088	188194
23.58900	197968
23.59712	217013
23.60525	230535
23.61337	253203
23.62148	253873
23.62962	238025
23.63773	259052
23.64587	310169
23.65398	440105
23.66210	599301
23.67023	776523
23.67835	882673
23.68648	901172
23.69460	755367
23.70272	615139
23.71085	465291
23.71897	348228
23.72710	284560
23.73522	239504
23.74333	198900
23.75147	179208
23.75958	179786
23.76770	233368
23.77583	344599
23.78395	613272
23.79208	994846
23.80020	1364260
23.80832	1593145
23.81645	1655679
23.82457	1478690
23.83270	1219149
23.84082	941614
23.84893	741547
23.85707	572655
23.86518	471921
23.87330	398666
23.88143	351480
23.88955	314808
23.89768	291536
23.90580	268864
23.91392	256230
23.92205	243806
23.93017	231210
23.93830	228627
23.94642	211926
23.95453	194458
23.96267	181420
23.97078	176623
23.97892	164751
23.98703	157438
23.99515	149008
24.00328	161468
24.01140	167374
24.01952	205061
24.02765	236186
24.03577	317531
24.04390	391291
24.05202	418468
24.06013	377514
24.06827	309577
24.07638	247660
24.08452	203638
24.09263	164165
24.10075	144584
24.10888	134333
24.11700	126120
24.12513	121602
24.13325	116994
24.14137	118913
24.14950	120052
24.15762	124800
24.16573	129206
24.17387	121430
24.18198	134557
24.19012	120081
24.19823	117907
24.20635	123605
24.21448	121246
24.22260	113416
24.23073	115518
24.23885	110151
24.24697	111256
24.25510	104831
24.26322	100582
24.27133	95896
24.27947	97688
24.28758	88547
24.29572	84888
24.30383	90592
24.31195	91091
24.32008	81012
24.32820	81296
24.33633	86820
24.34445	80999
24.35257	78903
24.36070	76051
24.36882	70062
24.37695	71980
24.38507	71812
24.39318	73533
24.40132	78482
24.40943	90210
24.41755	98864
24.42568	103889
24.43380	95141
24.44193	86243
24.45005	81717
24.45817	72090
24.46630	63767
24.47442	67009
24.48255	65480
24.49067	64519
24.49878	66036
24.50692	69055
24.51503	68742
24.52317	79162
24.53128	82212
24.53940	90554
24.54753	97197
24.55565	94774
24.56377	100242
24.57190	105390
24.58002	93662
24.58815	86445
24.59627	84793
24.60438	74949
24.61252	75172
24.62063	68640
24.62877	68104
24.63688	66913
24.64500	65287
24.65313	64969
24.66125	63384
24.66937	61504
24.67750	62476
24.68562	64609
24.69375	57890
24.70187	55720
24.70998	59354
24.71812	52791
24.72623	56044
24.73437	55768
24.74248	64607
24.75060	58151
24.75873	55847
24.76685	58750
24.77498	53725
24.78310	65109
24.79122	61545
24.79935	70226
24.80747	69618
24.81558	81187
24.82372	90457
24.83183	122934
24.83997	147923
24.84808	171937
24.85620	203729
24.86433	246901
24.87245	302532
24.88058	382242
24.88870	487562
24.89682	575558
24.90495	626961
24.91307	615188
24.92118	557796
24.92932	457786
24.93743	368709
24.94557	288877
24.95368	249897
24.96180	234636
24.96993	221980
24.97805	201744
24.98618	209593
24.99430	206219
25.00242	211300
25.01055	204996
25.01867	210191
25.02680	206992
25.03492	200068
25.04303	199340
25.05117	198845
25.05928	197022
25.06740	199009
25.07553	206423
25.08365	188380
25.09178	204309
25.09990	211780
25.10802	243219
25.11615	351894
25.12427	586302
25.13240	1051335
25.14052	1707103
25.14863	2377395
25.15677	2791560
25.16488	2904775
25.17302	2526022
25.18113	1873255
25.18925	1273912
25.19738	827508
25.20550	543668
25.21362	372092
25.22175	292681
25.22987	256120
25.23800	241495
25.24612	229776
25.25423	255527
25.26237	256487
25.27048	288650
25.27862	301922
25.28673	314923
25.29485	298196
25.30298	271984
25.31110	237485
25.31922	219076
25.32735	209680
25.33547	191144
25.34360	176656
25.35172	183044
25.35983	164785
25.36797	148490
25.37608	137554
25.38422	110507
25.39233	96852
25.40045	89216
25.40858	85007
25.41670	79155
25.42483	75914
25.43295	78046
25.44107	70690
25.44920	67353
25.45732	72325
25.46543	73308
25.47357	68610
25.48168	69436
25.48982	69888
25.49793	72613
25.50605	70134
25.51418	66715
25.52230	65889
25.53043	70317
25.53855	61796
25.54667	66296
25.55480	59608
25.56292	57282
25.57105	62836
25.57917	57535
25.58728	59029
25.59542	61080
25.60353	64751
25.61165	70379
25.61978	61812
25.62790	64859
25.63603	66017
25.64415	72947
25.65227	79166
25.66040	87432
25.66852	84652
25.67665	85049
25.68477	72474
25.69288	68268
25.70102	65324
25.70913	60269
25.71725	59859
25.72538	57555
25.73350	54744
25.74163	59349
25.74975	61771
25.75787	66268
25.76600	73783
25.77412	102183
25.78225	142714
25.79037	192576
25.79848	229085
25.80662	255775
25.81473	273226
25.82287	277132
25.83098	289681
25.83910	284155
25.84723	295767
25.85535	292244
25.86347	291706
25.87160	284607
25.87972	288172
25.88785	284987
25.89597	278848
25.90408	281737
25.91222	278650
25.92033	273063
25.92847	284755
25.93658	274537
25.94470	275743
25.95283	284788
25.96095	271302
25.96907	269976
25.97720	275377
25.98532	269409
25.99345	265840
26.00157	262315
26.00968	249393
26.01782	259582
26.02593	244080
26.03407	238036
26.04218	256293
26.05030	234992
26.05843	248342
26.06655	242270
26.07468	238356
26.08280	230939
26.09092	244702
26.09905	234053
26.10717	238292
26.11528	240489
26.12342	227842
26.13153	227087
26.13967	219722
26.14778	238891
26.15590	235570
26.16403	236252
26.17215	239652
26.18028	230642
26.18840	226206
26.19652	224020
26.20465	217303
26.21277	208577
26.22090	218414
26.22902	209651
26.23713	205725
26.24527	202478
26.25338	205514
26.26150	198398
26.26963	208130
26.27775	201769
26.28588	192253
26.29400	191333
26.30212	189964
26.31025	180114
26.31837	185317
26.32650	186905
26.33462	188515
26.34273	179799
26.35087	175990
26.35898	174757
26.36712	188443
26.37523	196148
26.38335	219488
26.39148	234740
26.39960	259300
26.40772	262012
26.41585	262427
26.42397	253285
26.43210	233862
26.44022	221078
26.44833	207243
26.45647	185553
26.46458	172117
26.47272	170333
26.48083	166096
26.48895	163465
26.49708	162361
26.50520	161936
26.51332	160227
26.52145	146557
26.52957	148245
26.53770	147325
26.54582	144208
26.55393	138359
26.56207	149446
26.57018	142101
26.57832	138455
26.58643	138014
26.59455	127453
26.60268	137870
26.61080	135870
26.61893	132568
26.62705	129830
26.63517	129321
26.64330	129712
26.65142	134677
26.65953	128812
26.66767	128194
26.67578	140385
26.68392	135559
26.69203	127217
26.70015	130976
26.70828	122821
26.71640	117165
26.72453	117199
26.73265	113912
26.74077	121795
26.74890	113309
26.75702	109493
26.76513	113204
26.77327	111090
26.78138	107135
26.78952	101557
26.79763	109375
26.80575	113010
26.81388	112066
26.82200	108803
26.83013	106368
26.83825	105193
26.84637	110072
26.85450	103136
26.86262	94812
26.87075	95559
26.87887	99019
26.88698	94187
26.89512	91475
26.90323	88663
26.91135	90290
26.91948	85233
26.92760	92234
26.93573	84607
26.94385	88706
26.95197	84994
26.96010	84845
26.96822	92795
26.97635	86985
26.98447	93663
26.99258	115154
27.00072	141823
27.00883	192064
27.01697	252531
27.02508	305150
27.03320	374927
27.04133	387131
27.04945	393052
27.05757	360921
27.06570	309074
27.07382	255349
27.08195	219297
27.09007	195899
27.09818	168491
27.10632	147747
27.11443	146838
27.12257	144138
27.13068	136211
27.13880	135521
27.14693	125759
27.15505	122559
27.16317	123556
27.17130	116717
27.17942	122366
27.18755	133812
27.19567	133266
27.20378	139595
27.21192	131294
27.22003	120409
27.22817	107607
27.23628	106471
27.24440	109599
27.25253	99670
27.26065	89231
27.26878	92393
27.27690	87457
27.28502	82230
27.29315	82201
27.30127	83960
27.30938	78887
27.31752	78430
27.32563	86633
27.33377	76204
27.34188	79132
27.35000	70939
27.35813	71501
27.36625	79214
27.37438	76175
27.38250	76603
27.39062	76713
27.39875	76682
27.40687	71162
27.41500	77182
27.42312	68696
27.43123	71514
27.43937	67227
27.44748	70308
27.45560	65224
27.46373	76100
27.47185	69470
27.47998	65637
27.48810	64686
27.49622	66620
27.50435	66455
27.51247	67477
27.52060	68496
27.52872	68614
27.53683	73409
27.54497	70718
27.55308	71626
27.56120	68303
27.56933	68102
27.57745	71410
27.58558	71258
27.59370	73647
27.60182	80987
27.60995	100528
27.61807	95217
27.62620	85905
27.63432	73065
27.64243	72856
27.65057	70125
27.65868	65397
27.66682	55600
27.67493	57385
27.68305	64892
27.69118	58961
27.69930	63777
27.70742	63445
27.71555	63387
27.72367	61205
27.73180	58788
27.73992	56814
27.74803	57126
27.75617	54250
27.76428	55256
27.77242	55135
27.78053	54341
27.78865	57294
27.79678	56231
27.80490	56424
27.81302	63057
27.82115	60977
27.82927	63649
27.83740	61934
27.84552	67191
27.85363	64755
27.86177	62503
27.86988	65472
27.87802	59727
27.88613	58353
27.89425	54142
27.90238	55940
27.91050	52945
27.91863	49797
27.92675	51057
27.93487	53272
27.94300	55830
27.95112	49446
27.95923	48685
27.96737	46027
27.97548	50808
27.98362	44473
27.99173	51325
27.99985	48679
28.00798	55603
28.01610	57325
28.02423	60102
28.03235	56272
28.04047	60682
28.04860	62687
28.05672	65343
28.06485	69913
28.07297	67969
28.08108	62992
28.08922	60190
28.09733	53738
28.10545	54353
28.11358	53637
28.12170	49021
28.12983	47176
28.13795	49192
28.14607	53277
28.15420	47404
28.16232	49416
28.17045	55635
28.17857	45927
28.18668	49579
28.19482	51243
28.20293	56609
28.21105	65835
28.21918	76110
28.22730	80554
28.23543	83629
28.24355	89409
28.25167	81580
28.25980	71071
28.26792	64932
28.27605	63266
28.28417	53785
28.29228	54405
28.30042	50094
28.30853	52625
28.31667	55478
28.32478	57785
28.33290	62445
28.34103	64115
28.34915	66496
28.35727	66249
28.36540	68434
28.37352	76453
28.38165	80555
28.38977	81053
28.39788	86379
28.40602	89803
28.41413	87423
28.42227	91096
28.43038	83965
28.43850	81071
28.44663	80664
28.45475	77602
28.46288	68313
28.47100	71465
28.47912	68216
28.48725	64679
28.49537	67645
28.50348	62929
28.51162	69196
28.51973	65420
28.52787	64693
28.53598	66351
28.54410	66377
28.55223	61216
28.56035	58339
28.56848	65525
28.57660	53558
28.58472	53962
28.59285	51850
28.60097	49761
28.60908	56415
28.61722	53457
28.62533	58454
28.63347	54818
28.64158	53824
28.64970	62113
28.65783	66437
28.66595	60175
28.67408	65857
28.68220	59744
28.69032	57871
28.69845	58017
28.70657	52664
28.71470	55196
28.72282	53828
28.73093	49440
28.73907	51931
28.74718	49268
28.75530	49993
28.76343	46958
28.77155	49465
28.77968	61825
28.78780	61320
28.79592	68399
28.80405	59685
28.81217	60764
28.82030	67708
28.82842	63854
28.83653	62983
28.84467	58360
28.85278	53744
28.86092	60638
28.86903	54950
28.87715	54559
28.88528	58455
28.89340	57579
28.90152	64633
28.90965	68175
28.91777	65574
28.92590	71090
28.93402	65251
28.94213	62523
28.95027	61399
28.95838	62011
28.96652	63371
28.97463	66838
28.98275	69351
28.99088	68328
28.99900	55741
29.00712	52725
29.01525	51325
29.02337	47559
29.03150	52921
29.03962	50681
29.04773	52149
29.05587	51639
29.06398	52690
29.07212	47558
29.08023	50141
29.08835	52705
29.09648	52296
29.10460	51966
29.11273	57074
29.12085	50070
29.12897	56305
29.13710	50161
29.14522	49267
29.15333	50714
29.16147	51514
29.16958	49315
29.17772	49657
29.18583	57953
29.19395	58626
29.20208	78682
29.21020	88545
29.21833	91268
29.22645	106808
29.23457	100632
29.24270	101424
29.25082	81489
29.25893	71511
29.26707	62511
29.27518	68419
29.28332	57712
29.29143	54527
29.29955	57624
29.30768	47071
29.31580	47259
29.32393	44350
29.33205	43664
29.34017	46392
29.34830	52000
29.35642	44025
29.36455	44076
29.37267	48987
29.38078	44873
29.38892	45360
29.39703	52891
29.40515	57755
29.41328	52535
29.42140	63460
29.42953	64923
29.43765	67961
29.44577	67759
29.45390	63992
29.46202	59109
29.47015	54177
29.47827	49127
29.48638	50306
29.49452	50834
29.50263	50491
29.51077	51512
29.51888	54694
29.52700	52540
29.53513	52271
29.54325	50296
29.55137	50092
29.55950	47865
29.56762	51687
29.57575	50116
29.58387	45845
29.59198	48892
29.60012	47084
29.60823	47774
29.61637	52127
29.62448	52029
29.63260	46844
29.64073	44112
29.64885	49091
29.65697	45282
29.66510	47307
29.67322	44265
29.68135	50487
29.68947	48580
29.69758	49300
29.70572	46422
29.71383	53428
29.72197	51623
29.73008	50819
29.73820	46392
29.74633	47870
29.75445	44114
29.76258	43374
29.77070	54835
29.77882	47360
29.78695	42149
29.79507	43042
29.80318	40768
29.81132	42278
29.81943	43431
29.82757	41019
29.83568	39732
29.84380	41701
29.85193	48704
29.86005	54553
29.86818	79972
29.87630	151603
29.88442	288414
29.89255	508857
29.90067	846559
29.90880	1131423
29.91692	1218246
29.92503	1077666
29.93317	792555
29.94128	483038
29.94940	285413
29.95753	167097
29.96565	104730
29.97378	80394
29.98190	77884
29.99002	72142
29.99815	67449
30.00627	71459
30.01440	72283
30.02252	76632
30.03063	77455
30.03877	74468
30.04688	78001
30.05500	75457
30.06313	68427
30.07125	73948
30.07938	67700
30.08750	71684
30.09562	77615
30.10375	69795
30.11187	70120
30.12000	68811
30.12812	69129
30.13623	66536
30.14437	61767
30.15248	66079
30.16062	60881
30.16873	63753
30.17685	62166
30.18498	64245
30.19310	64078
30.20122	60642
30.20935	60362
30.21747	61304
30.22560	66199
30.23372	61285
30.24183	57799
30.24997	55508
30.25808	55346
30.26622	54283
30.27433	49706
30.28245	55098
30.29058	49378
30.29870	52619
30.30682	53032
30.31495	53261
30.32307	51090
30.33120	47348
30.33932	54984
30.34743	51044
30.35557	49152
30.36368	53401
30.37182	49915
30.37993	50498
30.38805	50807
30.39618	43823
30.40430	50027
30.41243	46980
30.42055	51229
30.42867	44693
30.43680	47785
30.44492	45883
30.45303	43852
30.46117	50434
30.46928	46300
30.47742	44217
30.48553	44630
30.49365	46287
30.50178	48390
30.50990	45675
30.51803	58660
30.52615	49186
30.53427	52137
30.54240	54564
30.55052	52620
30.55865	50912
30.56677	51779
30.57488	49790
30.58302	51927
30.59113	48764
30.59925	48414
30.60738	53488
30.61550	51618
30.62363	55001
30.63175	51164
30.63987	51339
30.64800	49520
30.65612	53983
30.66425	49928
30.67237	47317
30.68048	49489
30.68862	48197
30.69673	50601
30.70487	51740
30.71298	52853
30.72110	50736
30.72923	52151
30.73735	54234
30.74547	51657
30.75360	52967
30.76172	54986
30.76985	48896
30.77797	55159
30.78608	66767
30.79422	83168
30.80233	113864
30.81047	150505
30.81858	181468
30.82670	194159
30.83483	171244
30.84295	139691
30.85107	104623
30.85920	85944
30.86732	69517
30.87545	58680
30.88357	63046
30.89168	52948
30.89982	53967
30.90793	49721
30.91607	53311
30.92418	54861
30.93230	53888
30.94043	54759
30.94855	54415
30.95668	50039
30.96480	59541
30.97292	55165
30.98105	51855
30.98917	52976
30.99728	49941
31.00542	48299
31.01353	51777
31.02167	52591
31.02978	55646
31.03790	53939
31.04603	55632
31.05415	63075
31.06228	55978
31.07040	56559
31.07852	67754
31.08665	79060
31.09477	98849
31.10288	139821
31.11102	177255
31.11913	200230
31.12727	208112
31.13538	186870
31.14350	156050
31.15163	108511
31.15975	78100
31.16788	70856
31.17600	66636
31.18412	59144
31.19225	63204
31.20037	73241
31.20850	75088
31.21662	100489
31.22473	113782
31.23287	120504
31.24098	126031
31.24910	116777
31.25723	101368
31.26535	81330
31.27348	62234
31.28160	56630
31.28972	54734
31.29785	48887
31.30597	49893
31.31410	52115
31.32222	47590
31.33033	48266
31.33847	48504
31.34658	54241
31.35472	51579
31.36283	52112
31.37095	56334
31.37908	57754
31.38720	65682
31.39532	71786
31.40345	74607
31.41157	75724
31.41970	68956
31.42782	67508
31.43593	68797
31.44407	66500
31.45218	70609
31.46032	68298
31.46843	70172
31.47655	68557
31.48468	68891
31.49280	65058
31.50092	71726
31.50905	70001
31.51717	68596
31.52530	72020
31.53342	70964
31.54153	72939
31.54967	73691
31.55778	75883
31.56592	71281
31.57403	70399
31.58215	70743
31.59028	68905
31.59840	82105
31.60653	69267
31.61465	71608
31.62277	71974
31.63090	73611
31.63902	70015
31.64713	72131
31.65527	68763
31.66338	69936
31.67152	74546
31.67963	71203
31.68775	78343
31.69588	74493
31.70400	67854
31.71213	72108
31.72025	73610
31.72837	65483
31.73650	68891
31.74462	67130
31.75275	68823
31.76087	64262
31.76898	64089
31.77712	63254
31.78523	65705
31.79335	68220
31.80148	74135
31.80960	66836
31.81773	64201
31.82585	70000
31.83397	66715
31.84210	67535
31.85022	66436
31.85835	65520
31.86647	68464
31.87458	73819
31.88272	73331
31.89083	74643
31.89895	73877
31.90708	78857
31.91520	78324
31.92333	77296
31.93145	75529
31.93957	76455
31.94770	78014
31.95582	75712
31.96395	79866
31.97207	84476
31.98018	80606
31.98832	75268
31.99643	79546
32.00457	78065
32.01268	85587
32.02080	77155
32.02893	77665
32.03705	77448
32.04517	75930
32.05330	71608
32.06142	73897
32.06955	69284
32.07767	67538
32.08578	64652
32.09392	66362
32.10203	60390
32.11017	61934
32.11828	62443
32.12640	61626
32.13453	58490
32.14265	56681
32.15077	59023
32.15890	56246
32.16702	57561
32.17515	58912
32.18327	52599
32.19138	55550
32.19952	54399
32.20763	53031
32.21577	53840
32.22388	50264
32.23200	52208
32.24013	53833
32.24825	54695
32.25638	50510
32.26450	53041
32.27262	59418
32.28075	60801
32.28887	58575
32.29698	61099
32.30512	54899
32.31323	56933
32.32137	53167
32.32948	56301
32.33760	56569
32.34573	60839
32.35385	56161
32.36198	61720
32.37010	54158
32.37822	54654
32.38635	51479
32.39447	50986
32.40260	51248
32.41072	46293
32.41883	50726
32.42697	47505
32.43508	50688
32.44320	55034
32.45133	46753
32.45945	45947
32.46758	49459
32.47570	46022
32.48382	48397
32.49195	48710
32.50007	49441
32.50820	47663
32.51632	47364
32.52443	52283
32.53257	47009
32.54068	48399
32.54880	44921
32.55693	46782
32.56505	52330
32.57318	47212
32.58130	47035
32.58942	45457
32.59755	44448
32.60567	44787
32.61380	44530
32.62192	43471
32.63003	44593
32.63817	48960
32.64628	45787
32.65442	44858
32.66253	46967
32.67065	52048
32.67878	54104
32.68690	61387
32.69502	59114
32.70315	61126
32.71127	51755
32.71940	52621
32.72752	50904
32.73563	51695
32.74377	48934
32.75188	52661
32.76002	52943
32.76813	49025
32.77625	42958
32.78438	46648
32.79250	47131
32.80063	48751
32.80875	44352
32.81687	49738
32.82500	45489
32.83312	44350
32.84123	42631
32.84937	42340
32.85748	44480
32.86562	48744
32.87373	41738
32.88185	41891
32.88998	44670
32.89810	43430
32.90623	46750
32.91435	44301
32.92247	49491
32.93060	48952
32.93872	46236
32.94683	43963
32.95497	44762
32.96308	45646
32.97122	49722
32.97933	51086
32.98745	52690
32.99558	56794
33.00370	64788
33.01183	70047
33.01995	69921
33.02807	73793
33.03620	58853
33.04432	58006
33.05245	52550
33.06057	52584
33.06868	57796
33.07682	62584
33.08493	63047
33.09305	70681
33.10118	80613
33.10930	93669
33.11743	110668
33.12555	130731
33.13367	132763
33.14180	117388
33.14992	111795
33.15805	88156
33.16617	67715
33.17428	59910
33.18242	55204
33.19053	51565
33.19865	51110
33.20678	49695
33.21490	56648
33.22303	55480
33.23115	52199
33.23927	52356
33.24740	50560
33.25552	48777
33.26365	50063
33.27177	49063
33.27988	49447
33.28802	44683
33.29613	47612
33.30427	45637
33.31238	47791
33.32050	50968
33.32863	50902
33.33675	49110
33.34487	53057
33.35300	56424
33.36112	52661
33.36925	51227
33.37737	51989
33.38548	51853
33.39362	53297
33.40173	50119
33.40987	45856
33.41798	47387
33.42610	50114
33.43423	45468
33.44235	42883
33.45048	42611
33.45860	46276
33.46672	43669
33.47485	44209
33.48297	43573
33.49108	46268
33.49922	47685
33.50733	44232
33.51547	42881
33.52358	51504
33.53170	47286
33.53983	45297
33.54795	52464
33.55608	51268
33.56420	52321
33.57232	54715
33.58045	53772
33.58857	55016
33.59668	51175
33.60482	47179
33.61293	48341
33.62107	44925
33.62918	45128
33.63730	42980
33.64543	49094
33.65355	46477
33.66168	54093
33.66980	59788
33.67792	50830
33.68605	48412
33.69417	43901
33.70230	49082
33.71042	48458
33.71853	43735
33.72667	42218
33.73478	48705
33.74290	44205
33.75103	45772
33.75915	46726
33.76728	47069
33.77540	46466
33.78352	49633
33.79165	45538
33.79977	46232
33.80790	54104
33.81602	41378
33.82413	43950
33.83227	41654
33.84038	45247
33.84852	47380
33.85663	45863
33.86475	48555
33.87288	48914
33.88100	49135
33.88912	47885
33.89725	50745
33.90537	50980
33.91350	48662
33.92162	47903
33.92973	44788
33.93787	47110
33.94598	48294
33.95412	50620
33.96223	42656
33.97035	43736
33.97848	47721
33.98660	42861
33.99472	45054
34.00285	45708
34.01097	45365
34.01910	47366
34.02722	47723
34.03533	46209
34.04347	46166
34.05158	49830
34.05972	45763
34.06783	47787
34.07595	46102
34.08408	47588
34.09220	48437
34.10033	46017
34.10845	44992
34.11657	49525
34.12470	44936
34.13282	44712
34.14093	43651
34.14907	49702
34.15718	49223
34.16532	45148
34.17343	46783
34.18155	43784
34.18968	50920
34.19780	42662
34.20593	44758
34.21405	40788
34.22217	48387
34.23030	45656
34.23842	42431
34.24655	45026
34.25467	43638
34.26278	46841
34.27092	44239
34.27903	42924
34.28715	46033
34.29528	44195
34.30340	43622
34.31153	44351
34.31965	41819
34.32777	39239
34.33590	45966
34.34402	46620
34.35215	49898
34.36027	43896
34.36838	51202
34.37652	45980
34.38463	45678
34.39275	44462
34.40088	45112
34.40900	47701
34.41713	46761
34.42525	48444
34.43337	44127
34.44150	43506
34.44962	46221
34.45775	48503
34.46587	45587
34.47398	50156
34.48212	43319
34.49023	45505
34.49837	47788
34.50648	48776
34.51460	51151
34.52273	50191
34.53085	52692
34.53897	50020
34.54710	49016
34.55522	53206
34.56335	57826
34.57147	55904
34.57958	60503
34.58772	61056
34.59583	59127
34.60397	54348
34.61208	56203
34.62020	60597
34.62833	52116
34.63645	48415
34.64457	49464
34.65270	48342
34.66082	49361
34.66895	46785
34.67707	47682
34.68518	52455
34.69332	47427
34.70143	48622
34.70957	50525
34.71768	52375
34.72580	49487
34.73393	46339
34.74205	44741
34.75018	51663
34.75830	53431
34.76642	50023
34.77455	52600
34.78267	51219
34.79078	50048
34.79892	51461
34.80703	46562
34.81517	48470
34.82328	48570
34.83140	47622
34.83953	45350
34.84765	46289
34.85578	46964
34.86390	47899
34.87202	53106
34.88015	49425
34.88827	50461
34.89640	48248
34.90452	43636
34.91263	50317
34.92077	48400
34.92888	48422
34.93700	54482
34.94513	61231
34.95325	85081
34.96138	124492
34.96950	193974
34.97762	280894
34.98575	373499
34.99387	414466
35.00200	368698
35.01012	266160
35.01823	181851
35.02637	116931
35.03448	88513
35.04260	68092
35.05073	61685
35.05885	61789
35.06698	61755
35.07510	57521
35.08322	58900
35.09135	56521
35.09947	61154
35.10760	63767
35.11572	53728
35.12383	54751
35.13197	51707
35.14008	58380
35.14822	56073
35.15633	59691
35.16445	54887
35.17258	57767
35.18070	56130
35.18882	53849
35.19695	49469
35.20507	51957
35.21320	50908
35.22132	52106
35.22943	52399
35.23757	47419
35.24568	52148
35.25382	55250
35.26193	48986
35.27005	53866
35.27818	53460
35.28630	56178
35.29443	57401
35.30255	53301
35.31067	51564
35.31880	54876
35.32692	51167
35.33503	50156
35.34317	49673
35.35128	51271
35.35942	50194
35.36753	51096
35.37565	51499
35.38378	47577
35.39190	52202
35.40003	48940
35.40815	48603
35.41627	51097
35.42440	47373
35.43252	47868
35.44063	51242
35.44877	54645
35.45688	55636
35.46502	51534
35.47313	55012
35.48125	54718
35.48938	52944
35.49750	54629
35.50563	55438
35.51375	53001
35.52187	56558
35.53000	55559
35.53812	47896
35.54625	53001
35.55437	50665
35.56248	45882
35.57062	50542
35.57873	53966
35.58685	54265
35.59498	51990
35.60310	49520
35.61123	49069
35.61935	51476
35.62747	50465
35.63560	50282
35.64372	57702
35.65185	50874
35.65997	50606
35.66808	48410
35.67622	51989
35.68433	48513
35.69245	48975
35.70058	53660
35.70870	52037
35.71683	50463
35.72495	55331
35.73307	56821
35.74120	53229
35.74932	56867
35.75745	54545
35.76557	58788
35.77368	63546
35.78182	70778
35.78993	58746
35.79807	58875
35.80618	59814
35.81430	52377
35.82243	51767
35.83055	51470
35.83867	50887
35.84680	51461
35.85492	50581
35.86305	52854
35.87117	53187
35.87928	46527
35.88742	53756
35.89553	48933
35.90367	51369
35.91178	53073
35.91990	53632
35.92803	53001
35.93615	58249
35.94428	50944
35.95240	48631
35.96052	47016
35.96865	50574
35.97677	51914
35.98488	49701
35.99302	51105
36.00113	53442
36.00927	55045
36.01738	53198
36.02550	54579
36.03363	56764
36.04175	56554
36.04988	52630
36.05800	54732
36.06612	55406
36.07425	54010
36.08237	51335
36.09050	53438
36.09862	52951
36.10673	59128
36.11487	51230
36.12298	54890
36.13110	54826
36.13923	53132
36.14735	53854
36.15548	59403
36.16360	58831
36.17172	57744
36.17985	53385
36.18797	53516
36.19610	53701
36.20422	46564
36.21233	50166
36.22047	54218
36.22858	49851
36.23670	48844
36.24483	52061
36.25295	52808
36.26108	48780
36.26920	50504
36.27732	54691
36.28545	47167
36.29357	49705
36.30170	53205
36.30982	55437
36.31793	59102
36.32607	61521
36.33418	58148
36.34232	60800
36.35043	61196
36.35855	57758
36.36668	52109
36.37480	54652
36.38292	48827
36.39105	52291
36.39917	51981
36.40730	55435
36.41542	54043
36.42353	57875
36.43167	58336
36.43978	54017
36.44792	55580
36.45603	57194
36.46415	55501
36.47228	50266
36.48040	52588
36.48852	57546
36.49665	53013
36.50477	54209
36.51290	50002
36.52102	52925
36.52913	51439
36.53727	50409
36.54538	50008
36.55352	48915
36.56163	49508
36.56975	48109
36.57788	49918
36.58600	53314
36.59413	50736
36.60225	47170
36.61037	52633
36.61850	53932
36.62662	51314
36.63473	55413
36.64287	53640
36.65098	50939
36.65912	51465
36.66723	53150
36.67535	54938
36.68348	60490
36.69160	57046
36.69973	58399
36.70785	54787
36.71597	51697
36.72410	54416
36.73222	52193
36.74035	55643
36.74847	52801
36.75658	56574
36.76472	51891
36.77283	52654
36.78095	50230
36.78908	52263
36.79720	55753
36.80533	52978
36.81345	52536
36.82157	55386
36.82970	57588
36.83782	53296
36.84595	58013
36.85407	60274
36.86218	63760
36.87032	67328
36.87843	65327
36.88655	64324
36.89468	62718
36.90280	67457
36.91093	70957
36.91905	65144
36.92717	67335
36.93530	70314
36.94342	71904
36.95155	78977
36.95967	84183
36.96778	86356
36.97592	85263
36.98403	92125
36.99217	92575
37.00028	90862
37.00840	79120
37.01653	76663
37.02465	72177
37.03277	73775
37.04090	69520
37.04902	74695
37.05715	71503
37.06527	70805
37.07338	66246
37.08152	77038
37.08963	72557
37.09777	70126
37.10588	70153
37.11400	72369
37.12213	69897
37.13025	74560
37.13838	68968
37.14650	74080
37.15462	71933
37.16275	71714
37.17087	69030
37.17898	75704
37.18712	71408
37.19523	67120
37.20337	67345
37.21148	70080
37.21960	68690
37.22773	70942
37.23585	69604
37.24398	71085
37.25210	63887
37.26022	66456
37.26835	66117
37.27647	68130
37.28458	67919
37.29272	62758
37.30083	66294
37.30897	67011
37.31708	66272
37.32520	68002
37.33333	65734
37.34145	65935
37.34958	70322
37.35770	70378
37.36582	67839
37.37395	74107
37.38207	72521
37.39020	68256
37.39832	69831
37.40643	69142
37.41457	75417
37.42268	72590
37.43080	70861
37.43893	68686
37.44705	72186
37.45518	68226
37.46330	66350
37.47142	64527
37.47955	72008
37.48767	68708
