C:\MassHunter\GCMS\1\data\JTB-E18\BURNOFFS\JTB-E18-06.D Thu Aug 22 11:16:07 2019
Start of data points
2.09522	122568
2.10333	122649
2.11145	122988
2.11958	124332
2.12770	121447
2.13583	116691
2.14395	106487
2.15207	99788
2.16020	92279
2.16832	83597
2.17645	84004
2.18457	73673
2.19268	76198
2.20082	73662
2.20893	73627
2.21705	69054
2.22518	64307
2.23330	69312
2.24143	67999
2.24955	66862
2.25767	62177
2.26580	63128
2.27392	64051
2.28205	62125
2.29017	60962
2.29828	62895
2.30642	59538
2.31453	59545
2.32267	62755
2.33078	62144
2.33890	58912
2.34703	62247
2.35515	55583
2.36327	57588
2.37140	56068
2.37952	56586
2.38765	57808
2.39577	57518
2.40388	62077
2.41202	58223
2.42013	57138
2.42827	61054
2.43638	53940
2.44450	58178
2.45263	60931
2.46075	53053
2.46887	55957
2.47700	53756
2.48512	56608
2.49325	54314
2.50137	54038
2.50948	61504
2.51762	55181
2.52573	54674
2.53387	53219
2.54198	54079
2.55010	53190
2.55823	52902
2.56635	53437
2.57448	58326
2.58260	59935
2.59072	54638
2.59885	55415
2.60697	53370
2.61508	52151
2.62322	56638
2.63133	58795
2.63947	52140
2.64758	53993
2.65570	51952
2.66383	51421
2.67195	54543
2.68008	54764
2.68820	55740
2.69632	52688
2.70445	55411
2.71257	53421
2.72068	52498
2.72882	52375
2.73693	47528
2.74507	54461
2.75318	51291
2.76130	51457
2.76943	51464
2.77755	51532
2.78568	54557
2.79380	46023
2.80192	51439
2.81005	50087
2.81817	52389
2.82630	56326
2.83442	53604
2.84253	51255
2.85067	56385
2.85878	50724
2.86690	51265
2.87503	49794
2.88315	56551
2.89128	50540
2.89940	48996
2.90752	50989
2.91565	54630
2.92377	50941
2.93190	52005
2.94002	48345
2.94813	49601
2.95627	49424
2.96438	51133
2.97252	54046
2.98063	50253
2.98875	51670
2.99688	50042
3.00500	49709
3.01312	50220
3.02125	53345
3.02937	48129
3.03750	48525
3.04562	52468
3.05373	47284
3.06187	49701
3.06998	49322
3.07812	49887
3.08623	49723
3.09435	51040
3.10248	52124
3.11060	51229
3.11872	45592
3.12685	48349
3.13497	49015
3.14310	48569
3.15122	49768
3.15933	47967
3.16747	50765
3.17558	50481
3.18372	46476
3.19183	48113
3.19995	50053
3.20808	50892
3.21620	52692
3.22433	47907
3.23245	49312
3.24057	47875
3.24870	50840
3.25682	50094
3.26493	52031
3.27307	52228
3.28118	53162
3.28932	50485
3.29743	53811
3.30555	50471
3.31368	50742
3.32180	54023
3.32993	52177
3.33805	50880
3.34617	55374
3.35430	53435
3.36242	51606
3.37055	52783
3.37867	53425
3.38678	52964
3.39492	56322
3.40303	49827
3.41115	51167
3.41928	58400
3.42740	48658
3.43553	51605
3.44365	48603
3.45177	52214
3.45990	49554
3.46802	52388
3.47615	53995
3.48427	51177
3.49238	50299
3.50052	53609
3.50863	52920
3.51675	51709
3.52488	50244
3.53300	49575
3.54113	54456
3.54925	51946
3.55737	51318
3.56550	51982
3.57362	49608
3.58175	49492
3.58987	51992
3.59798	52032
3.60612	51089
3.61423	51147
3.62237	53111
3.63048	49963
3.63860	50656
3.64673	52880
3.65485	50660
3.66297	51817
3.67110	51172
3.67922	51438
3.68735	51482
3.69547	53536
3.70358	53842
3.71172	53299
3.71983	54219
3.72797	55946
3.73608	52705
3.74420	52105
3.75233	51512
3.76045	54507
3.76857	53059
3.77670	51967
3.78482	48986
3.79295	49265
3.80107	51395
3.80918	49526
3.81732	48599
3.82543	56105
3.83357	51022
3.84168	51128
3.84980	51765
3.85793	52911
3.86605	49605
3.87418	54900
3.88230	53934
3.89042	52790
3.89855	51213
3.90667	54592
3.91478	50300
3.92292	49175
3.93103	52529
3.93917	59629
3.94728	50892
3.95540	53113
3.96353	51377
3.97165	54302
3.97978	50902
3.98790	52666
3.99602	51911
4.00415	54558
4.01227	53846
4.02040	51991
4.02852	51016
4.03663	51060
4.04477	46248
4.05288	50351
4.06100	49336
4.06913	51101
4.07725	52864
4.08538	50198
4.09350	50297
4.10162	55308
4.10975	54719
4.11787	50825
4.12600	51407
4.13412	51932
4.14223	53405
4.15037	57022
4.15848	51740
4.16660	50376
4.17473	51189
4.18285	48615
4.19098	53506
4.19910	51183
4.20722	53132
4.21535	49546
4.22347	53526
4.23160	49332
4.23972	50274
4.24783	52313
4.25597	52309
4.26408	51770
4.27222	51753
4.28033	50417
4.28845	52399
4.29658	54524
4.30470	60455
4.31282	48584
4.32095	51115
4.32907	52322
4.33720	52378
4.34532	51742
4.35343	50494
4.36157	51786
4.36968	49684
4.37782	51299
4.38593	52847
4.39405	50041
4.40218	49326
4.41030	51540
4.41843	49611
4.42655	52621
4.43467	52208
4.44280	48117
4.45092	50811
4.45903	51092
4.46717	54919
4.47528	53915
4.48342	48808
4.49153	54843
4.49965	53172
4.50778	53281
4.51590	55031
4.52403	52351
4.53215	49151
4.54027	49424
4.54840	53628
4.55652	51433
4.56463	51867
4.57277	49778
4.58088	52244
4.58902	52202
4.59713	51611
4.60525	53990
4.61338	48116
4.62150	50087
4.62963	48789
4.63775	50700
4.64587	50804
4.65400	50749
4.66212	52941
4.67025	49379
4.67837	49265
4.68648	49366
4.69462	52570
4.70273	52695
4.71085	50199
4.71898	55141
4.72710	54725
4.73523	48334
4.74335	52616
4.75147	51829
4.75960	54141
4.76772	52241
4.77585	51363
4.78397	52698
4.79208	51697
4.80022	54491
4.80833	51517
4.81645	49078
4.82458	51230
4.83270	56133
4.84083	50814
4.84895	51437
4.85707	48946
4.86520	52415
4.87332	58579
4.88145	49923
4.88957	53159
4.89768	49815
4.90582	57165
4.91393	47084
4.92207	56383
4.93018	53661
4.93830	51223
4.94643	52560
4.95455	55469
4.96267	53084
4.97080	51929
4.97892	47290
4.98705	53984
4.99517	56575
5.00328	49495
5.01142	54274
5.01953	53747
5.02767	55037
5.03578	52216
5.04390	50362
5.05203	52554
5.06015	51433
5.06828	51478
5.07640	55199
5.08452	48362
5.09265	51007
5.10077	52700
5.10888	56314
5.11702	50927
5.12513	58586
5.13327	53453
5.14138	52614
5.14950	53534
5.15763	55882
5.16575	52029
5.17388	51713
5.18200	55875
5.19012	52325
5.19825	51437
5.20637	56397
5.21450	52502
5.22262	54477
5.23073	52771
5.23887	55719
5.24698	55385
5.25510	54312
5.26323	54478
5.27135	48550
5.27948	56464
5.28760	50611
5.29572	50695
5.30385	51857
5.31197	49024
5.32010	51608
5.32822	52170
5.33633	51251
5.34447	51645
5.35258	50022
5.36070	50998
5.36883	50257
5.37695	49206
5.38508	51896
5.39320	49978
5.40132	52984
5.40945	49728
5.41757	49256
5.42570	55204
5.43382	52221
5.44193	49958
5.45007	47168
5.45818	48608
5.46632	49797
5.47443	47571
5.48255	48691
5.49068	51144
5.49880	50720
5.50692	50493
5.51505	46992
5.52317	48377
5.53130	49324
5.53942	52221
5.54753	48498
5.55567	48581
5.56378	49843
5.57192	49965
5.58003	48569
5.58815	53046
5.59628	49094
5.60440	52088
5.61252	52779
5.62065	48317
5.62877	49434
5.63690	47539
5.64502	55254
5.65313	47804
5.66127	47337
5.66938	48605
5.67752	49743
5.68563	48667
5.69375	49103
5.70188	51935
5.71000	48374
5.71813	51895
5.72625	51058
5.73437	47861
5.74250	54146
5.75062	48011
5.75873	50683
5.76687	53606
5.77498	50560
5.78312	51579
5.79123	49254
5.79935	49428
5.80748	50966
5.81560	51870
5.82373	49628
5.83185	48896
5.83997	50749
5.84810	48969
5.85622	52751
5.86435	50272
5.87247	48421
5.88058	45718
5.88872	49907
5.89683	46183
5.90495	46674
5.91308	48349
5.92120	43419
5.92933	40033
5.93745	40563
5.94557	41448
5.95370	39674
5.96182	38270
5.96995	45081
5.97807	39683
5.98618	41995
5.99432	43488
6.00243	40970
6.01055	40071
6.01868	40997
6.02680	42020
6.03493	41542
6.04305	42371
6.05117	41579
6.05930	39201
6.06742	38886
6.07555	42339
6.08367	43852
6.09178	40810
6.09992	41046
6.10803	41050
6.11617	39575
6.12428	40183
6.13240	39705
6.14053	41300
6.14865	41553
6.15677	39690
6.16490	41263
6.17302	39004
6.18115	40970
6.18927	41233
6.19738	44195
6.20552	38662
6.21363	41489
6.22177	40212
6.22988	43386
6.23800	42004
6.24613	42181
6.25425	42443
6.26238	43528
6.27050	39836
6.27862	40360
6.28675	40373
6.29487	38183
6.30298	39599
6.31112	43343
6.31923	38939
6.32737	41146
6.33548	43016
6.34360	40653
6.35173	40071
6.35985	40510
6.36798	40629
6.37610	38333
6.38422	41560
6.39235	40805
6.40047	42551
6.40858	46846
6.41672	40441
6.42483	36661
6.43297	41840
6.44108	40643
6.44920	38557
6.45733	40367
6.46545	40993
6.47358	38272
6.48170	39195
6.48982	41933
6.49795	34632
6.50607	39277
6.51420	40105
6.52232	37367
6.53043	38787
6.53857	38996
6.54668	38928
6.55480	40512
6.56293	38238
6.57105	35302
6.57918	38468
6.58730	39989
6.59542	39243
6.60355	40029
6.61167	41114
6.61980	41741
6.62792	39683
6.63603	40399
6.64417	42324
6.65228	39964
6.66040	38610
6.66853	39327
6.67665	38115
6.68478	39467
6.69290	38326
6.70102	39539
6.70915	40393
6.71727	41132
6.72540	40937
6.73352	39182
6.74163	36632
6.74977	38196
6.75788	41317
6.76602	40697
6.77413	40498
6.78225	39860
6.79038	45087
6.79850	36830
6.80662	34874
6.81475	36078
6.82287	36955
6.83100	37086
6.83912	36860
6.84723	35612
6.85537	35945
6.86348	33756
6.87162	34835
6.87973	39513
6.88785	33002
6.89598	34522
6.90410	37064
6.91223	34727
6.92035	34848
6.92847	32552
6.93660	33356
6.94472	33721
6.95283	34822
6.96097	36271
6.96908	32180
6.97722	36041
6.98533	36241
6.99345	34682
7.00158	33781
7.00970	31653
7.01783	31956
7.02595	32601
7.03407	36986
7.04220	39283
7.05032	32798
7.05843	35410
7.06657	36023
7.07468	32506
7.08282	34788
7.09093	34083
7.09905	31519
7.10718	32188
7.11530	32997
7.12343	32230
7.13155	31591
7.13967	35677
7.14780	34715
7.15592	31419
7.16405	32198
7.17217	34988
7.18028	32838
7.18842	31903
7.19653	32552
7.20465	34708
7.21278	34502
7.22090	32397
7.22903	31436
7.23715	30765
7.24527	30901
7.25340	33751
7.26152	32314
7.26965	30322
7.27777	31934
7.28588	30900
7.29402	31657
7.30213	34457
7.31027	31180
7.31838	32034
7.32650	35481
7.33463	31282
7.34275	32012
7.35087	32379
7.35900	35605
7.36712	34517
7.37525	30941
7.38337	31609
7.39148	32348
7.39962	35306
7.40773	35076
7.41587	35371
7.42398	33848
7.43210	35502
7.44023	33090
7.44835	35405
7.45647	34082
7.46460	30515
7.47272	33462
7.48085	33921
7.48897	32202
7.49708	29131
7.50522	33150
7.51333	31329
7.52147	32622
7.52958	30883
7.53770	32706
7.54583	30813
7.55395	32346
7.56208	33957
7.57020	35056
7.57832	30285
7.58645	32502
7.59457	30208
7.60268	31408
7.61082	34344
7.61893	32871
7.62707	31737
7.63518	33777
7.64330	31533
7.65143	31370
7.65955	31741
7.66768	31757
7.67580	33154
7.68392	32885
7.69205	29550
7.70017	33161
7.70828	36730
7.71642	33182
7.72453	33007
7.73267	32321
7.74078	32229
7.74890	33023
7.75703	36001
7.76515	30602
7.77328	32089
7.78140	30120
7.78952	31979
7.79765	33189
7.80577	32607
7.81390	30553
7.82202	33843
7.83013	32391
7.83827	31033
7.84638	28992
7.85450	32364
7.86263	32193
7.87075	31396
7.87888	32571
7.88700	29693
7.89512	31540
7.90325	31026
7.91137	33294
7.91950	31642
7.92762	32668
7.93573	30995
7.94387	30069
7.95198	30786
7.96012	36749
7.96823	33511
7.97635	34344
7.98448	29745
7.99260	28306
8.00072	31707
8.00885	32583
8.01697	30105
8.02510	32836
8.03322	32391
8.04133	32324
8.04947	29407
8.05758	32163
8.06572	32092
8.07383	32029
8.08195	35161
8.09008	27229
8.09820	30596
8.10632	29702
8.11445	29748
8.12257	34313
8.13070	31395
8.13882	31053
8.14693	31628
8.15507	32897
8.16318	30042
8.17132	28673
8.17943	31968
8.18755	28383
8.19568	29713
8.20380	31090
8.21193	32753
8.22005	29882
8.22817	30913
8.23630	31044
8.24442	31570
8.25253	30707
8.26067	29622
8.26878	31894
8.27692	31877
8.28503	31561
8.29315	32742
8.30128	30836
8.30940	31093
8.31753	29209
8.32565	29862
8.33377	27980
8.34190	28348
8.35002	30717
8.35815	30204
8.36627	30782
8.37438	33287
8.38252	31258
8.39063	33210
8.39875	30615
8.40688	30758
8.41500	31557
8.42313	32548
8.43125	32973
8.43937	29847
8.44750	33211
8.45562	29763
8.46375	30859
8.47187	29075
8.47998	28364
8.48812	31846
8.49623	28702
8.50435	30379
8.51248	33877
8.52060	32706
8.52873	30377
8.53685	29921
8.54497	30199
8.55310	34009
8.56122	29235
8.56935	33355
8.57747	31143
8.58558	33027
8.59372	33678
8.60183	31231
8.60997	31825
8.61808	29317
8.62620	29135
8.63433	31466
8.64245	31253
8.65057	34174
8.65870	29662
8.66682	29169
8.67495	28706
8.68307	29406
8.69118	30633
8.69932	28487
8.70743	30646
8.71557	30383
8.72368	33859
8.73180	28998
8.73993	28555
8.74805	31011
8.75618	31694
8.76430	29698
8.77242	30230
8.78055	31053
8.78867	29743
8.79678	28593
8.80492	31401
8.81303	29588
8.82117	31620
8.82928	30186
8.83740	31497
8.84553	32453
8.85365	29661
8.86178	31575
8.86990	30261
8.87802	31072
8.88615	31420
8.89427	34166
8.90238	33213
8.91052	30535
8.91863	33481
8.92677	32239
8.93488	34649
8.94300	31902
8.95113	30458
8.95925	32966
8.96738	31391
8.97550	33084
8.98362	32549
8.99175	29476
8.99987	30271
9.00800	30372
9.01612	32911
9.02423	33201
9.03237	32537
9.04048	30337
9.04860	31577
9.05673	36125
9.06485	34309
9.07298	33581
9.08110	35236
9.08922	33241
9.09735	31136
9.10547	29528
9.11360	31409
9.12172	36463
9.12983	31628
9.13797	31355
9.14608	30914
9.15420	31661
9.16233	31994
9.17045	33721
9.17858	32852
9.18670	32529
9.19482	32118
9.20295	32354
9.21107	33658
9.21920	33291
9.22732	32409
9.23543	35264
9.24357	34275
9.25168	32633
9.25982	30488
9.26793	32090
9.27605	33640
9.28418	34066
9.29230	31891
9.30042	31277
9.30855	33457
9.31667	32913
9.32480	32284
9.33292	31370
9.34103	31235
9.34917	31279
9.35728	33695
9.36542	33028
9.37353	30482
9.38165	31349
9.38978	33485
9.39790	30995
9.40603	30793
9.41415	30772
9.42227	29768
9.43040	30322
9.43852	34253
9.44663	32490
9.45477	30286
9.46288	33304
9.47102	31036
9.47913	29191
9.48725	33782
9.49538	30664
9.50350	32792
9.51163	31537
9.51975	28884
9.52787	30456
9.53600	31557
9.54412	32085
9.55223	30511
9.56037	30180
9.56848	30594
9.57662	32137
9.58473	29646
9.59285	31147
9.60098	30695
9.60910	28841
9.61723	28708
9.62535	29258
9.63347	27248
9.64160	28610
9.64972	28425
9.65785	26529
9.66597	32256
9.67408	29324
9.68222	28572
9.69033	27445
9.69845	28371
9.70658	31431
9.71470	29891
9.72283	27199
9.73095	26252
9.73907	28643
9.74720	28922
9.75532	28741
9.76345	25548
9.77157	27590
9.77968	31618
9.78782	28342
9.79593	25805
9.80407	27695
9.81218	31122
9.82030	29385
9.82843	31417
9.83655	32471
9.84467	28564
9.85280	28185
9.86092	27175
9.86905	30231
9.87717	29210
9.88528	28406
9.89342	28595
9.90153	30071
9.90967	27691
9.91778	30965
9.92590	29627
9.93403	30432
9.94215	28052
9.95027	26132
9.95840	27606
9.96652	27691
9.97465	29374
9.98277	31872
9.99088	29997
9.99902	28640
10.00713	30593
10.01527	30285
10.02338	27443
10.03150	30440
10.03963	27400
10.04775	31062
10.05588	29536
10.06400	32221
10.07212	27934
10.08025	28197
10.08837	25897
10.09648	26720
10.10462	30369
10.11273	27938
10.12087	29831
10.12898	26338
10.13710	34968
10.14523	32927
10.15335	29335
10.16148	31216
10.16960	28297
10.17772	27418
10.18585	25774
10.19397	30930
10.20208	27951
10.21022	29305
10.21833	30430
10.22647	30323
10.23458	28720
10.24270	29790
10.25083	26148
10.25895	25023
10.26708	28194
10.27520	31028
10.28332	28659
10.29145	27707
10.29957	26562
10.30770	30524
10.31582	28575
10.32393	28652
10.33207	28072
10.34018	29676
10.34830	27242
10.35643	25906
10.36455	31703
10.37268	23893
10.38080	30545
10.38892	26637
10.39705	27671
10.40517	27302
10.41330	28922
10.42142	27550
10.42953	27338
10.43767	28675
10.44578	26857
10.45392	26936
10.46203	28360
10.47015	25896
10.47828	29444
10.48640	27807
10.49452	28548
10.50265	31610
10.51077	31346
10.51890	25520
10.52702	30088
10.53513	28326
10.54327	26184
10.55138	29741
10.55952	29590
10.56763	27701
10.57575	25042
10.58388	28585
10.59200	29317
10.60013	27838
10.60825	29177
10.61637	28895
10.62450	26319
10.63262	32680
10.64073	29009
10.64887	29666
10.65698	28128
10.66512	26536
10.67323	27946
10.68135	28727
10.68948	27378
10.69760	27487
10.70573	27214
10.71385	27912
10.72197	27354
10.73010	26709
10.73822	29346
10.74633	30854
10.75447	29600
10.76258	27470
10.77072	26974
10.77883	25169
10.78695	28509
10.79508	28261
10.80320	27546
10.81133	28010
10.81945	25162
10.82757	27289
10.83570	30192
10.84382	28110
10.85195	28908
10.86007	27635
10.86818	27852
10.87632	26573
10.88443	30556
10.89255	29127
10.90068	27479
10.90880	25737
10.91693	28726
10.92505	26489
10.93317	27811
10.94130	26474
10.94942	28064
10.95755	28846
10.96567	27749
10.97378	27834
10.98192	25635
10.99003	27386
10.99815	25682
11.00628	29481
11.01440	25600
11.02253	28016
11.03065	27989
11.03877	27849
11.04690	31247
11.05502	28545
11.06315	24703
11.07127	25815
11.07938	28392
11.08752	26623
11.09563	27121
11.10377	25685
11.11188	27348
11.12000	30634
11.12813	31077
11.13625	29922
11.14437	28821
11.15250	27220
11.16062	25220
11.16875	25724
11.17687	25869
11.18498	26702
11.19312	25360
11.20123	27262
11.20937	25372
11.21748	28039
11.22560	30781
11.23373	29036
11.24185	26432
11.24998	26320
11.25810	30058
11.26622	28475
11.27435	27643
11.28247	27741
11.29058	33746
11.29872	25662
11.30683	25512
11.31497	26961
11.32308	27439
11.33120	29122
11.33933	27340
11.34745	29613
11.35558	28454
11.36370	28406
11.37182	26894
11.37995	27978
11.38807	27514
11.39618	30549
11.40432	27257
11.41243	27791
11.42057	28753
11.42868	31627
11.43680	23875
11.44493	28416
11.45305	28714
11.46118	30365
11.46930	24705
11.47742	30460
11.48555	26096
11.49367	29554
11.50180	28980
11.50992	28736
11.51803	29898
11.52617	26266
11.53428	29764
11.54240	26507
11.55053	24717
11.55865	28771
11.56678	28630
11.57490	27361
11.58302	28139
11.59115	26962
11.59927	27264
11.60740	27842
11.61552	27979
11.62363	28780
11.63177	27407
11.63988	28267
11.64802	27204
11.65613	25077
11.66425	24220
11.67238	25852
11.68050	25560
11.68862	28418
11.69675	27113
11.70487	26893
11.71300	24490
11.72112	28102
11.72923	29152
11.73737	25808
11.74548	27886
11.75362	25845
11.76173	29675
11.76985	26826
11.77798	27265
11.78610	27445
11.79422	25509
11.80235	28856
11.81047	27159
11.81860	25830
11.82672	27200
11.83483	27513
11.84297	28427
11.85108	29244
11.85922	29437
11.86733	27380
11.87545	26452
11.88358	26524
11.89170	28441
11.89983	28015
11.90795	26710
11.91607	30662
11.92420	26821
11.93232	29028
11.94043	28381
11.94857	27443
11.95668	27414
11.96482	25584
11.97293	25021
11.98105	27013
11.98918	25872
11.99730	25427
12.00543	26830
12.01355	28896
12.02167	26515
12.02980	25552
12.03792	27606
12.04603	24505
12.05417	26242
12.06228	28710
12.07042	26004
12.07853	26399
12.08665	27821
12.09478	26563
12.10290	26095
12.11103	24323
12.11915	26593
12.12727	24990
12.13540	27813
12.14352	25950
12.15165	25754
12.15977	27221
12.16788	28452
12.17602	25977
12.18413	27643
12.19225	27846
12.20038	27159
12.20850	26316
12.21663	25320
12.22475	29098
12.23287	27389
12.24100	28372
12.24912	28652
12.25725	28459
12.26537	27531
12.27348	28159
12.28162	28612
12.28973	27814
12.29787	26687
12.30598	24108
12.31410	26261
12.32223	27157
12.33035	28494
12.33847	26008
12.34660	28571
12.35472	27198
12.36285	26106
12.37097	26421
12.37908	28505
12.38722	29338
12.39533	25757
12.40347	26730
12.41158	27348
12.41970	27777
12.42783	24478
12.43595	27349
12.44407	30024
12.45220	28060
12.46032	25028
12.46845	30701
12.47657	27621
12.48468	29655
12.49282	28142
12.50093	26312
12.50907	27557
12.51718	28334
12.52530	27053
12.53343	30801
12.54155	26521
12.54968	28016
12.55780	24870
12.56592	27850
12.57405	28598
12.58217	28642
12.59028	24647
12.59842	28228
12.60653	25493
12.61467	25362
12.62278	26228
12.63090	30490
12.63903	25819
12.64715	27371
12.65528	30238
12.66340	29475
12.67152	27567
12.67965	29558
12.68777	25564
12.69590	28441
12.70402	29829
12.71213	29311
12.72027	28457
12.72838	27159
12.73650	28363
12.74463	28179
12.75275	30039
12.76088	27816
12.76900	27493
12.77712	28572
12.78525	25942
12.79337	28709
12.80150	25913
12.80962	26970
12.81773	25335
12.82587	26687
12.83398	26971
12.84210	26159
12.85023	26133
12.85835	24605
12.86648	31330
12.87460	28737
12.88272	24967
12.89085	28782
12.89897	23963
12.90710	25631
12.91522	25612
12.92333	26896
12.93147	30280
12.93958	27986
12.94772	26969
12.95583	28036
12.96395	27212
12.97208	29654
12.98020	28690
12.98832	27505
12.99645	24894
13.00457	31016
13.01270	30306
13.02082	26151
13.02893	26399
13.03707	28611
13.04518	26290
13.05332	28748
13.06143	27703
13.06955	25177
13.07768	28721
13.08580	27906
13.09392	29189
13.10205	25887
13.11017	29291
13.11830	30725
13.12642	26817
13.13453	26581
13.14267	30924
13.15078	28019
13.15892	27424
13.16703	31882
13.17515	22822
13.18328	28475
13.19140	26926
13.19953	29718
13.20765	25878
13.21577	27763
13.22390	29880
13.23202	27414
13.24013	27847
13.24827	30218
13.25638	28154
13.26452	28217
13.27263	26667
13.28075	26272
13.28888	26995
13.29700	26443
13.30513	28043
13.31325	26362
13.32137	28679
13.32950	29486
13.33762	27136
13.34575	26391
13.35387	29516
13.36198	30053
13.37012	27845
13.37823	26545
13.38635	30290
13.39448	25904
13.40260	26884
13.41073	28132
13.41885	30256
13.42697	26279
13.43510	27620
13.44322	30157
13.45135	26882
13.45947	27663
13.46758	27822
13.47572	25979
13.48383	24725
13.49195	29304
13.50008	26591
13.50820	25975
13.51633	27071
13.52445	29016
13.53257	28836
13.54070	27682
13.54882	29368
13.55695	25771
13.56507	31888
13.57318	26088
13.58132	27771
13.58943	26334
13.59757	26663
13.60568	30115
13.61380	28989
13.62193	26240
13.63005	26993
13.63817	28930
13.64630	31030
13.65442	27661
13.66255	29843
13.67067	25634
13.67878	28661
13.68692	28867
13.69503	30189
13.70317	28617
13.71128	25852
13.71940	26203
13.72753	29080
13.73565	28431
13.74378	28584
13.75190	26301
13.76002	23584
13.76815	32079
13.77627	25285
13.78438	29477
13.79252	29267
13.80063	27877
13.80877	26915
13.81688	27215
13.82500	28947
13.83313	27024
13.84125	25523
13.84938	28905
13.85750	31004
13.86562	28783
13.87375	27292
13.88187	25791
13.88998	28049
13.89812	29417
13.90623	27761
13.91437	27997
13.92248	27116
13.93060	27030
13.93873	24964
13.94685	28437
13.95498	31386
13.96310	24160
13.97122	23645
13.97935	28054
13.98747	29166
13.99560	25618
14.00372	27494
14.01183	26859
14.01997	27781
14.02808	25535
14.03620	26756
14.04433	26687
14.05245	29819
14.06058	29020
14.06870	27993
14.07682	28177
14.08495	29241
14.09307	29730
14.10120	27417
14.10932	29554
14.11743	29964
14.12557	28943
14.13368	26312
14.14182	30282
14.14993	27764
14.15805	27681
14.16618	27913
14.17430	28508
14.18242	29310
14.19055	26496
14.19867	27589
14.20680	32231
14.21492	30820
14.22303	29415
14.23117	27117
14.23928	27697
14.24742	32278
14.25553	30475
14.26365	29845
14.27178	32525
14.27990	32260
14.28802	33038
14.29615	28071
14.30427	30628
14.31240	29856
14.32052	30067
14.32863	30200
14.33677	28557
14.34488	26629
14.35302	29509
14.36113	28670
14.36925	27109
14.37738	28180
14.38550	28374
14.39363	31048
14.40175	29670
14.40987	29772
14.41800	27007
14.42612	25535
14.43423	28050
14.44237	28217
14.45048	22453
14.45862	26183
14.46673	31617
14.47485	29110
14.48298	29079
14.49110	28192
14.49923	28111
14.50735	28586
14.51547	26350
14.52360	26451
14.53172	27430
14.53983	27128
14.54797	26674
14.55608	27619
14.56422	28014
14.57233	26840
14.58045	28056
14.58858	30608
14.59670	26784
14.60483	26537
14.61295	27471
14.62107	29859
14.62920	27509
14.63732	27278
14.64545	29508
14.65357	26736
14.66168	28977
14.66982	29340
14.67793	26012
14.68605	26510
14.69418	27402
14.70230	27383
14.71043	28675
14.71855	26286
14.72667	30230
14.73480	27428
14.74292	28071
14.75105	28459
14.75917	28612
14.76728	29175
14.77542	26108
14.78353	25759
14.79167	27133
14.79978	30604
14.80790	27684
14.81603	29295
14.82415	26896
14.83227	26860
14.84040	27895
14.84852	30058
14.85665	27747
14.86477	26570
14.87288	28450
14.88102	28230
14.88913	29722
14.89727	27903
14.90538	29101
14.91350	27244
14.92163	32102
14.92975	31011
14.93787	25158
14.94600	28410
14.95412	28215
14.96225	27913
14.97037	30745
14.97848	27006
14.98662	26313
14.99473	33052
15.00287	30358
15.01098	28249
15.01910	28240
15.02723	26350
15.03535	29524
15.04348	27986
15.05160	29684
15.05972	26752
15.06785	27079
15.07597	27282
15.08408	30517
15.09222	25449
15.10033	29914
15.10847	26915
15.11658	29094
15.12470	28238
15.13283	30759
15.14095	28872
15.14908	27221
15.15720	26923
15.16532	26963
15.17345	27370
15.18157	28630
15.18970	26536
15.19782	24010
15.20593	29935
15.21407	31817
15.22218	26965
15.23030	26680
15.23843	28497
15.24655	26843
15.25468	28398
15.26280	26004
15.27092	27257
15.27905	29516
15.28717	27298
15.29530	29948
15.30342	32340
15.31153	28446
15.31967	29071
15.32778	28543
15.33590	32018
15.34403	29328
15.35215	26731
15.36028	29804
15.36840	26757
15.37652	26342
15.38465	29869
15.39277	32294
15.40090	29730
15.40902	32167
15.41713	32027
15.42527	25137
15.43338	25998
15.44152	25915
15.44963	28315
15.45775	28427
15.46588	31138
15.47400	28148
15.48212	27562
15.49025	29608
15.49837	30914
15.50650	27744
15.51462	28071
15.52273	29421
15.53087	28850
15.53898	26187
15.54712	27043
15.55523	30650
15.56335	28895
15.57148	30502
15.57960	28883
15.58772	27706
15.59585	29407
15.60397	32107
15.61210	28691
15.62022	28783
15.62833	28458
15.63647	28697
15.64458	30789
15.65272	26401
15.66083	26598
15.66895	29104
15.67708	30440
15.68520	28924
15.69333	26012
15.70145	26303
15.70957	27847
15.71770	28017
15.72582	28857
15.73393	28183
15.74207	28049
15.75018	27064
15.75832	27428
15.76643	28718
15.77455	30233
15.78268	27171
15.79080	30507
15.79893	26499
15.80705	28220
15.81517	26985
15.82330	26308
15.83142	29299
15.83955	28908
15.84767	27777
15.85578	28947
15.86392	30461
15.87203	28529
15.88015	30102
15.88828	29601
15.89640	29223
15.90453	29333
15.91265	28195
15.92077	30313
15.92890	25075
15.93702	32673
15.94515	28821
15.95327	26432
15.96138	28775
15.96952	31457
15.97763	29246
15.98577	27300
15.99388	29416
16.00200	29769
16.01013	28093
16.01825	28951
16.02637	29916
16.03450	28531
16.04262	29414
16.05075	31603
16.05887	26926
16.06698	28738
16.07512	29026
16.08323	28715
16.09137	30954
16.09948	27413
16.10760	26744
16.11573	27372
16.12385	27226
16.13197	28213
16.14010	29355
16.14822	29101
16.15635	28737
16.16447	27717
16.17258	31233
16.18072	27296
16.18883	27811
16.19697	29709
16.20508	26886
16.21320	28531
16.22133	28505
16.22945	27743
16.23758	29734
16.24570	28674
16.25382	30229
16.26195	31735
16.27007	30432
16.27818	28140
16.28632	27603
16.29443	29889
16.30257	31825
16.31068	26794
16.31880	33021
16.32693	30993
16.33505	29245
16.34318	28959
16.35130	32643
16.35942	27597
16.36755	33234
16.37567	34220
16.38378	28632
16.39192	33028
16.40003	29884
16.40817	28678
16.41628	31609
16.42440	27039
16.43253	30392
16.44065	31794
16.44878	32341
16.45690	27829
16.46502	29791
16.47315	27421
16.48127	29840
16.48940	29197
16.49752	27436
16.50563	24578
16.51377	28632
16.52188	27456
16.53000	31722
16.53813	27438
16.54625	27926
16.55438	31210
16.56250	30012
16.57062	29473
16.57875	28258
16.58687	26831
16.59500	29064
16.60312	28183
16.61123	32215
16.61937	28272
16.62748	32620
16.63562	30807
16.64373	31556
16.65185	24843
16.65998	28966
16.66810	27737
16.67622	28772
16.68435	28390
16.69247	29726
16.70060	27646
16.70872	28321
16.71683	29830
16.72497	31191
16.73308	28267
16.74122	29782
16.74933	30371
16.75745	27702
16.76558	29984
16.77370	30873
16.78182	31189
16.78995	29586
16.79807	30925
16.80620	29818
16.81432	28616
16.82243	28755
16.83057	30422
16.83868	28486
16.84682	28968
16.85493	30061
16.86305	31735
16.87118	29671
16.87930	31033
16.88743	31056
16.89555	27738
16.90367	32771
16.91180	30751
16.91992	32806
16.92803	27543
16.93617	28408
16.94428	26891
16.95242	26388
16.96053	31608
16.96865	32780
16.97678	29616
16.98490	29813
16.99303	29543
17.00115	28006
17.00927	26636
17.01740	27637
17.02552	30042
17.03365	28999
17.04177	27506
17.04988	27059
17.05802	27137
17.06613	31381
17.07425	28703
17.08238	29942
17.09050	28346
17.09863	32601
17.10675	29899
17.11487	28939
17.12300	33235
17.13112	28393
17.13925	30773
17.14737	30228
17.15548	31507
17.16362	28619
17.17173	28462
17.17985	25483
17.18798	30014
17.19610	32767
17.20423	29321
17.21235	29662
17.22047	31199
17.22860	33162
17.23672	34575
17.24485	29877
17.25297	32054
17.26108	30754
17.26922	29561
17.27733	30007
17.28547	32314
17.29358	29864
17.30170	31423
17.30983	30925
17.31795	30854
17.32607	29210
17.33420	29719
17.34232	26220
17.35045	28805
17.35857	28069
17.36668	30096
17.37482	28752
17.38293	33854
17.39107	30787
17.39918	33245
17.40730	29503
17.41543	30770
17.42355	30604
17.43167	29118
17.43980	29775
17.44792	31780
17.45605	30224
17.46417	33605
17.47228	27913
17.48042	28384
17.48853	28049
17.49667	29773
17.50478	31166
17.51290	30971
17.52103	30483
17.52915	30835
17.53728	31709
17.54540	32681
17.55352	29545
17.56165	31712
17.56977	32200
17.57788	31950
17.58602	32197
17.59413	28631
17.60227	31024
17.61038	28789
17.61850	32913
17.62663	27811
17.63475	27756
17.64288	30049
17.65100	28000
17.65912	30917
17.66725	29151
17.67537	29053
17.68350	29144
17.69162	28020
17.69973	31694
17.70787	32677
17.71598	30285
17.72410	30995
17.73223	33405
17.74035	32711
17.74848	33272
17.75660	30144
17.76472	32810
17.77285	29914
17.78097	29659
17.78910	31713
17.79722	30074
17.80533	29430
17.81347	32582
17.82158	30040
17.82970	30445
17.83783	31066
17.84595	28906
17.85408	28857
17.86220	29321
17.87032	30196
17.87845	28731
17.88657	28522
17.89470	27549
17.90282	31904
17.91093	31724
17.91907	30016
17.92718	34102
17.93532	30011
17.94343	29567
17.95155	31620
17.95968	29521
17.96780	30841
17.97592	30731
17.98405	32266
17.99217	31299
18.00030	33929
18.00842	30446
18.01653	31942
18.02467	32482
18.03278	31008
18.04092	29719
18.04903	30171
18.05715	27973
18.06528	32175
18.07340	30229
18.08153	26309
18.08965	28409
18.09777	30221
18.10590	29172
18.11402	29425
18.12213	27881
18.13027	31473
18.13838	33313
18.14652	34427
18.15463	35275
18.16275	31713
18.17088	26747
18.17900	30366
18.18713	28428
18.19525	30845
18.20337	29370
18.21150	31289
18.21962	31236
18.22773	28308
18.23587	30432
18.24398	28798
18.25212	30840
18.26023	28235
18.26835	29222
18.27648	30034
18.28460	31957
18.29273	30447
18.30085	32206
18.30897	29887
18.31710	28672
18.32522	28681
18.33335	33222
18.34147	29397
18.34958	29832
18.35772	30504
18.36583	32092
18.37395	29341
18.38208	27480
18.39020	27351
18.39833	29155
18.40645	29289
18.41457	28352
18.42270	29021
18.43082	33025
18.43895	29248
18.44707	31679
18.45518	29757
18.46332	30880
18.47143	27729
18.47957	29623
18.48768	27359
18.49580	29375
18.50393	33652
18.51205	29920
18.52017	28505
18.52830	29181
18.53642	30669
18.54455	31217
18.55267	32384
18.56078	32970
18.56892	31450
18.57703	27382
18.58517	29673
18.59328	27661
18.60140	28598
18.60953	31363
18.61765	33109
18.62577	35012
18.63390	31917
18.64202	35098
18.65015	32155
18.65827	31530
18.66638	32341
18.67452	30470
18.68263	27704
18.69077	30583
18.69888	28265
18.70700	31567
18.71513	30024
18.72325	30768
18.73138	31761
18.73950	29775
18.74762	30905
18.75575	33282
18.76387	28006
18.77198	31138
18.78012	32182
18.78823	32547
18.79637	32683
18.80448	30284
18.81260	31030
18.82073	31198
18.82885	30750
18.83698	34828
18.84510	31496
18.85322	30690
18.86135	30436
18.86947	31196
18.87758	30851
18.88572	30285
18.89383	31483
18.90197	29892
18.91008	32170
18.91820	30786
18.92633	30665
18.93445	30216
18.94258	30397
18.95070	32477
18.95882	34789
18.96695	29175
18.97507	31107
18.98320	34006
18.99132	29833
18.99943	32141
19.00757	31033
19.01568	31752
19.02380	28973
19.03193	28366
19.04005	30948
19.04818	30905
19.05630	29177
19.06442	33517
19.07255	29979
19.08067	29015
19.08880	25566
19.09692	30658
19.10503	30058
19.11317	30911
19.12128	32839
19.12942	27775
19.13753	32076
19.14565	33462
19.15378	29872
19.16190	31673
19.17002	31635
19.17815	31499
19.18627	32569
19.19440	33180
19.20252	35414
19.21063	31241
19.21877	29145
19.22688	29677
19.23502	31113
19.24313	32641
19.25125	29755
19.25938	32921
19.26750	31121
19.27562	30809
19.28375	28834
19.29187	30786
19.30000	32574
19.30812	30344
19.31623	34687
19.32437	34604
19.33248	32051
19.34062	34443
19.34873	32852
19.35685	30267
19.36498	30232
19.37310	30815
19.38123	34074
19.38935	32543
19.39747	34146
19.40560	32457
19.41372	31404
19.42183	28811
19.42997	33011
19.43808	29306
19.44622	30602
19.45433	33566
19.46245	31606
19.47058	32499
19.47870	31319
19.48683	30886
19.49495	34704
19.50307	34204
19.51120	30971
19.51932	32333
19.52745	30713
19.53557	29753
19.54368	29796
19.55182	31037
19.55993	31974
19.56805	34009
19.57618	31058
19.58430	31256
19.59243	29374
19.60055	32570
19.60867	31207
19.61680	31748
19.62492	31368
19.63305	29645
19.64117	32982
19.64928	33433
19.65742	30719
19.66553	31833
19.67365	31460
19.68178	32259
19.68990	33412
19.69803	32934
19.70615	32804
19.71427	33504
19.72240	29789
19.73052	31061
19.73865	30920
19.74677	34140
19.75488	31799
19.76302	32109
19.77113	27940
19.77927	34297
19.78738	30778
19.79550	34572
19.80363	31573
19.81175	33169
19.81987	30193
19.82800	31210
19.83612	31919
19.84425	30490
19.85237	32165
19.86048	33480
19.86862	32959
19.87673	29310
19.88487	31863
19.89298	32621
19.90110	30961
19.90923	34287
19.91735	29970
19.92547	30288
19.93360	33859
19.94172	30023
19.94985	31505
19.95797	32292
19.96608	33540
19.97422	29676
19.98233	33519
19.99047	32425
19.99858	31909
20.00670	36039
20.01483	29158
20.02295	32039
20.03108	29394
20.03920	33103
20.04732	30375
20.05545	31222
20.06357	34514
20.07168	30444
20.07982	33080
20.08793	31874
20.09607	35147
20.10418	30345
20.11230	31721
20.12043	31640
20.12855	28375
20.13668	32313
20.14480	31878
20.15292	33577
20.16105	34755
20.16917	30975
20.17730	30713
20.18542	31232
20.19353	30106
20.20167	33167
20.20978	32943
20.21790	31090
20.22603	33291
20.23415	31862
20.24228	31669
20.25040	29652
20.25852	32598
20.26665	31516
20.27477	33913
20.28290	35535
20.29102	34244
20.29913	33125
20.30727	35682
20.31538	32153
20.32350	33338
20.33163	31880
20.33975	32159
20.34788	29520
20.35600	32310
20.36412	31268
20.37225	33072
20.38037	30086
20.38850	32394
20.39662	31542
20.40473	28667
20.41287	33355
20.42098	32116
20.42912	33799
20.43723	30911
20.44535	35401
20.45348	28373
20.46160	34290
20.46972	34366
20.47785	33066
20.48597	31758
20.49410	32091
20.50222	30787
20.51033	30584
20.51847	31739
20.52658	30438
20.53472	35082
20.54283	31754
20.55095	30175
20.55908	27853
20.56720	32342
20.57533	31603
20.58345	30567
20.59157	30666
20.59970	29450
20.60782	29722
20.61593	33764
20.62407	33542
20.63218	30943
20.64032	29933
20.64843	28660
20.65655	31697
20.66468	32038
20.67280	28824
20.68093	29796
20.68905	32926
20.69717	30883
20.70530	33293
20.71342	31098
20.72153	33235
20.72967	33758
20.73778	33804
20.74592	30481
20.75403	31353
20.76215	32152
20.77028	30958
20.77840	29138
20.78653	29730
20.79465	29525
20.80277	33221
20.81090	30060
20.81902	33747
20.82715	29241
20.83527	31708
20.84338	33587
20.85152	29406
20.85963	32171
20.86775	29811
20.87588	35966
20.88400	31779
20.89213	30704
20.90025	32652
20.90837	29637
20.91650	31572
20.92462	30735
20.93275	34801
20.94087	36180
20.94898	33028
20.95712	35750
20.96523	35155
20.97335	33045
20.98148	30495
20.98960	34277
20.99773	31363
21.00585	31365
21.01397	34806
21.02210	30860
21.03022	33904
21.03835	31284
21.04647	30435
21.05458	35163
21.06272	33734
21.07083	30375
21.07897	33201
21.08708	30406
21.09520	30815
21.10333	33383
21.11145	32507
21.11957	33226
21.12770	30689
21.13582	32426
21.14395	33055
21.15207	28550
21.16018	29430
21.16832	31331
21.17643	30874
21.18457	32804
21.19268	32085
21.20080	30293
21.20893	31357
21.21705	32081
21.22518	32656
21.23330	32519
21.24142	33313
21.24955	36242
21.25767	32956
21.26578	32201
21.27392	29237
21.28203	31480
21.29017	33938
21.29828	31674
21.30640	30262
21.31453	31301
21.32265	30737
21.33078	33842
21.33890	31128
21.34702	32081
21.35515	31502
21.36327	31214
21.37140	32390
21.37952	32798
21.38763	32548
21.39577	30051
21.40388	37252
21.41200	32341
21.42013	30864
21.42825	31135
21.43638	32163
21.44450	31535
21.45262	30602
21.46075	29546
21.46887	31329
21.47700	31409
21.48512	30981
21.49323	33495
21.50137	30908
21.50948	30382
21.51760	33949
21.52573	33090
21.53385	31066
21.54198	31724
21.55010	32459
21.55822	31780
21.56635	33851
21.57447	32265
21.58260	32908
21.59072	31138
21.59883	30778
21.60697	32453
21.61508	34138
21.62322	30410
21.63133	31787
21.63945	30068
21.64758	33865
21.65570	32253
21.66382	32765
21.67195	32642
21.68007	32341
21.68820	34014
21.69632	30928
21.70443	31756
21.71257	33568
21.72068	35124
21.72882	34418
21.73693	30823
21.74505	32573
21.75318	32757
21.76130	32729
21.76942	28846
21.77755	34149
21.78567	30582
21.79380	32211
21.80192	34669
21.81003	33969
21.81817	34323
21.82628	32449
21.83442	34079
21.84253	34431
21.85065	32313
21.85878	31065
21.86690	33678
21.87503	32446
21.88315	32351
21.89127	31120
21.89940	38291
21.90752	34070
21.91563	33077
21.92377	35171
21.93188	33362
21.94002	32729
21.94813	34319
21.95625	28876
21.96438	33222
21.97250	31313
21.98063	35747
21.98875	31347
21.99687	33231
22.00500	33836
22.01312	33577
22.02125	33244
22.02937	29554
22.03748	32721
22.04562	33988
22.05373	32776
22.06185	34331
22.06998	35867
22.07810	34476
22.08623	30275
22.09435	34486
22.10247	33019
22.11060	31336
22.11872	33080
22.12685	30719
22.13497	36976
22.14308	31626
22.15122	32631
22.15933	30696
22.16745	30938
22.17558	31558
22.18370	32172
22.19183	33933
22.19995	31904
22.20807	33480
22.21620	33538
22.22432	32855
22.23245	32267
22.24057	32424
22.24868	31389
22.25682	33727
22.26493	32936
22.27307	33075
22.28118	34501
22.28930	33529
22.29743	30486
22.30555	32899
22.31367	33821
22.32180	33309
22.32992	31561
22.33805	33101
22.34617	34078
22.35428	33331
22.36242	32790
22.37053	33365
22.37867	34331
22.38678	33402
22.39490	34484
22.40303	30865
22.41115	35630
22.41928	31681
22.42740	34178
22.43552	32861
22.44365	33293
22.45177	33975
22.45988	31073
22.46802	32847
22.47613	35364
22.48427	35010
22.49238	31444
22.50050	30932
22.50863	33389
22.51675	31781
22.52488	32811
22.53300	31436
22.54112	30047
22.54925	32279
22.55737	35059
22.56548	33135
22.57362	32646
22.58173	31134
22.58987	33661
22.59798	34440
22.60610	33728
22.61423	33538
22.62235	34407
22.63048	34761
22.63860	32637
22.64672	31196
22.65485	33504
22.66297	33228
22.67110	35525
22.67922	30650
22.68733	32366
22.69547	30537
22.70358	33035
22.71170	30795
22.71983	32033
22.72795	31799
22.73608	34453
22.74420	32308
22.75232	33658
22.76045	36328
22.76857	31581
22.77670	34946
22.78482	34206
22.79293	30514
22.80107	31069
22.80918	35993
22.81730	35174
22.82543	33688
22.83355	33221
22.84168	32044
22.84980	38376
22.85792	31824
22.86605	33752
22.87417	32803
22.88230	30867
22.89042	33751
22.89853	29784
22.90667	31892
22.91478	36046
22.92292	33933
22.93103	32653
22.93915	33000
22.94728	32609
22.95540	34191
22.96352	33709
22.97165	32692
22.97977	35055
22.98790	33890
22.99602	34457
23.00413	32650
23.01227	30406
23.02038	33677
23.02852	33960
23.03663	31812
23.04475	32691
23.05288	33559
23.06100	34285
23.06913	35068
23.07725	35373
23.08537	34033
23.09350	34347
23.10162	34960
23.10973	35216
23.11787	32608
23.12598	31129
23.13412	32702
23.14223	34671
23.15035	33815
23.15848	35496
23.16660	34343
23.17473	36091
23.18285	33071
23.19097	33050
23.19910	35884
23.20722	34745
23.21533	34194
23.22347	36461
23.23158	36167
23.23972	37664
23.24783	32674
23.25595	32149
23.26408	34985
23.27220	39733
23.28033	34849
23.28845	34622
23.29657	33257
23.30470	32767
23.31282	37684
23.32095	33706
23.32907	33980
23.33718	34668
23.34532	33967
23.35343	36658
23.36155	35383
23.36968	37645
23.37780	35113
23.38593	34862
23.39405	36076
23.40217	35026
23.41030	33324
23.41842	37151
23.42655	36776
23.43467	38203
23.44278	38117
23.45092	37270
23.45903	34937
23.46717	33643
23.47528	35933
23.48340	36877
23.49153	36214
23.49965	33191
23.50777	36440
23.51590	37944
23.52402	36294
23.53215	32760
23.54027	38893
23.54838	36866
23.55652	36689
23.56463	36381
23.57277	41662
23.58088	37468
23.58900	36544
23.59713	37311
23.60525	36336
23.61337	38661
23.62150	37523
23.62962	40800
23.63775	40401
23.64587	38648
23.65398	40194
23.66212	39064
23.67023	39757
23.67837	45095
23.68648	44252
23.69460	40765
23.70273	42319
23.71085	41915
23.71898	42866
23.72710	42238
23.73522	39502
23.74335	44290
23.75147	41485
23.75958	38763
23.76772	42497
23.77583	45058
23.78397	44574
23.79208	40719
23.80020	41371
23.80833	40323
23.81645	39634
23.82458	42912
23.83270	41681
23.84082	39161
23.84895	35661
23.85707	35788
23.86520	37609
23.87332	34546
23.88143	40068
23.88957	36997
23.89768	32266
23.90580	34351
23.91393	36279
23.92205	34788
23.93018	39827
23.93830	34032
23.94642	32840
23.95455	36032
23.96267	36480
23.97080	37864
23.97892	35172
23.98703	34932
23.99517	34838
24.00328	36508
24.01140	34575
24.01953	37503
24.02765	37270
24.03578	34374
24.04390	34311
24.05202	34541
24.06015	33626
24.06827	32008
24.07640	33860
24.08452	34826
24.09263	34221
24.10077	31891
24.10888	34797
24.11702	34081
24.12513	35995
24.13325	34005
24.14138	33145
24.14950	35269
24.15762	28655
24.16575	32018
24.17387	39173
24.18200	35479
24.19012	33033
24.19823	35536
24.20637	31065
24.21448	33295
24.22262	36476
24.23073	34061
24.23885	32548
24.24698	32997
24.25510	34239
24.26322	31449
24.27135	32692
24.27947	32209
24.28760	31806
24.29572	31756
24.30383	33526
24.31197	36867
24.32008	34717
24.32822	33141
24.33633	31491
24.34445	32826
24.35258	40753
24.36070	34745
24.36883	34305
24.37695	33040
24.38507	33659
24.39320	34164
24.40132	33352
24.40943	32622
24.41757	33342
24.42568	34660
24.43382	32734
24.44193	33925
24.45005	34062
24.45818	32058
24.46630	31992
24.47443	31635
24.48255	34308
24.49067	33742
24.49880	32099
24.50692	31881
24.51505	33226
24.52317	30034
24.53128	34349
24.53942	31564
24.54753	31742
24.55565	34550
24.56378	32925
24.57190	33867
24.58003	30656
24.58815	32507
24.59627	30924
24.60440	33307
24.61252	32775
24.62065	30615
24.62877	34037
24.63688	33947
24.64502	32093
24.65313	31780
24.66125	32196
24.66938	34624
24.67750	32802
24.68563	35077
24.69375	30696
24.70187	29984
24.71000	35916
24.71812	31301
24.72625	29919
24.73437	31730
24.74248	33028
24.75062	31369
24.75873	31045
24.76687	29983
24.77498	30464
24.78310	34879
24.79123	30682
24.79935	32756
24.80747	32250
24.81560	32033
24.82372	30251
24.83185	33698
24.83997	31731
24.84808	31898
24.85622	34944
24.86433	31282
24.87247	33564
24.88058	33603
24.88870	33117
24.89683	30490
24.90495	32737
24.91308	34797
24.92120	31909
24.92932	30596
24.93745	30987
24.94557	31232
24.95368	29553
24.96182	34034
24.96993	27550
24.97807	30949
24.98618	29867
24.99430	31798
25.00243	34763
25.01055	34064
25.01868	31829
25.02680	30130
25.03492	31055
25.04305	27995
25.05117	32398
25.05928	31539
25.06742	29627
25.07553	31729
25.08367	28721
25.09178	33442
25.09990	31940
25.10803	32038
25.11615	30599
25.12428	31301
25.13240	30003
25.14052	29191
25.14865	33527
25.15677	28772
25.16490	31593
25.17302	31992
25.18113	32898
25.18927	32138
25.19738	30749
25.20550	33253
25.21363	32391
25.22175	36612
25.22988	29146
25.23800	34548
25.24612	29712
25.25425	29946
25.26237	30019
25.27050	33027
25.27862	31772
25.28673	32268
25.29487	30597
25.30298	32868
25.31110	30312
25.31923	27301
25.32735	31932
25.33548	33262
25.34360	32095
25.35172	30482
25.35985	29438
25.36797	28988
25.37610	30524
25.38422	30007
25.39233	28893
25.40047	30779
25.40858	28409
25.41672	29580
25.42483	30793
25.43295	30327
25.44108	28632
25.44920	29722
25.45732	32823
25.46545	31290
25.47357	30024
25.48170	29844
25.48982	32188
25.49793	30159
25.50607	31046
25.51418	32304
25.52232	28713
25.53043	31069
25.53855	31443
25.54668	31853
25.55480	31628
25.56293	30519
25.57105	31993
25.57917	30924
25.58730	32122
25.59542	33568
25.60353	33276
25.61167	30653
25.61978	33719
25.62792	36522
25.63603	33911
25.64415	32069
25.65228	30151
25.66040	27743
25.66853	33020
25.67665	34310
25.68477	31264
25.69290	31555
25.70102	30358
25.70913	33488
25.71727	32190
25.72538	32692
25.73352	31017
25.74163	29209
25.74975	32603
25.75788	34042
25.76600	28027
25.77413	30456
25.78225	31097
25.79037	30340
25.79850	29274
25.80662	29451
25.81475	29855
25.82287	30158
25.83098	31089
25.83912	31255
25.84723	31581
25.85535	28567
25.86348	26224
25.87160	28548
25.87973	31197
25.88785	29544
25.89597	30769
25.90410	30025
25.91222	30350
25.92035	33982
25.92847	32968
25.93658	35206
25.94472	28919
25.95283	29839
25.96097	33692
25.96908	31262
25.97720	31826
25.98533	33041
25.99345	29021
26.00157	30065
26.00970	31657
26.01782	30416
26.02595	33071
26.03407	30591
26.04218	29364
26.05032	29327
26.05843	31248
26.06657	29511
26.07468	27762
26.08280	35121
26.09093	33600
26.09905	33701
26.10717	31264
26.11530	31148
26.12342	35607
26.13155	28823
26.13967	31471
26.14778	30445
26.15592	31733
26.16403	33397
26.17217	29473
26.18028	31586
26.18840	33130
26.19653	31795
26.20465	31801
26.21278	31633
26.22090	29431
26.22902	30766
26.23715	28808
26.24527	31156
26.25338	33218
26.26152	28445
26.26963	30974
26.27777	31217
26.28588	31186
26.29400	37367
26.30213	32707
26.31025	31395
26.31838	30051
26.32650	32067
26.33462	32376
26.34275	30423
26.35087	30776
26.35898	28868
26.36712	32389
26.37523	34396
26.38337	32100
26.39148	32757
26.39960	33098
26.40773	32237
26.41585	30729
26.42398	31779
26.43210	29938
26.44022	29980
26.44835	28582
26.45647	31829
26.46460	31119
26.47272	29599
26.48083	32961
26.48897	30130
26.49708	31010
26.50520	31493
26.51333	29308
26.52145	32936
26.52958	34698
26.53770	32599
26.54582	30655
26.55395	35396
26.56207	33350
26.57020	30804
26.57832	31016
26.58643	31884
26.59457	30826
26.60268	32353
26.61082	32951
26.61893	32310
26.62705	29681
26.63518	32141
26.64330	32089
26.65142	32910
26.65955	31310
26.66767	32728
26.67580	30123
26.68392	32682
26.69203	37303
26.70017	32364
26.70828	34468
26.71642	30143
26.72453	33144
26.73265	32571
26.74078	31580
26.74890	31162
26.75703	30884
26.76515	34812
26.77327	36393
26.78140	33756
26.78952	31258
26.79763	34006
26.80577	29745
26.81388	32533
26.82202	33367
26.83013	30805
26.83825	33111
26.84638	33414
26.85450	31774
26.86263	32911
26.87075	38510
26.87887	33643
26.88700	32218
26.89512	32198
26.90323	32898
26.91137	33805
26.91948	33753
26.92762	32729
26.93573	33495
26.94385	31431
26.95198	34607
26.96010	35300
26.96823	37463
26.97635	32049
26.98447	34351
26.99260	35999
27.00072	35924
27.00885	33674
27.01697	34962
27.02508	37642
27.03322	33207
27.04133	34396
27.04945	33060
27.05758	37639
27.06570	33594
27.07383	35652
27.08195	37185
27.09007	35270
27.09820	34883
27.10632	37199
27.11445	33554
27.12257	36006
27.13068	33084
27.13882	34214
27.14693	34779
27.15505	35284
27.16318	33398
27.17130	31424
27.17943	36055
27.18755	34090
27.19567	32463
27.20380	35187
27.21192	34422
27.22005	30999
27.22817	33190
27.23628	35550
27.24442	33533
27.25253	34435
27.26067	34780
27.26878	32968
27.27690	34388
27.28503	33688
27.29315	32866
27.30127	35495
27.30940	37973
27.31752	36669
27.32565	38447
27.33377	38411
27.34188	34402
27.35002	33989
27.35813	34050
27.36627	35788
27.37438	35468
27.38250	33995
27.39063	35544
27.39875	36103
27.40688	31795
27.41500	33731
27.42312	34963
27.43125	34207
27.43937	36083
27.44748	38070
27.45562	33556
27.46373	32208
27.47187	34338
27.47998	32003
27.48810	37018
27.49623	35855
27.50435	32058
27.51248	34010
27.52060	37090
27.52872	31982
27.53685	32218
27.54497	36106
27.55308	34137
27.56122	35642
27.56933	33618
27.57747	35778
27.58558	31451
27.59370	39099
27.60183	31694
27.60995	33385
27.61808	34003
27.62620	35555
27.63432	36757
27.64245	37353
27.65057	35324
27.65870	40175
27.66682	35170
27.67493	35014
27.68307	34609
27.69118	36637
27.69930	35958
27.70743	37473
27.71555	37763
27.72368	34146
27.73180	34740
27.73992	35019
27.74805	35177
27.75617	37666
27.76430	35029
27.77242	38014
27.78053	32830
27.78867	36046
27.79678	36934
27.80492	35136
27.81303	40913
27.82115	38880
27.82928	34957
27.83740	34814
27.84552	34231
27.85365	31241
27.86177	36999
27.86990	39117
27.87802	36957
27.88613	35458
27.89427	35379
27.90238	33190
27.91052	33918
27.91863	34809
27.92675	35567
27.93488	34022
27.94300	35829
27.95112	39349
27.95925	37087
27.96737	34896
27.97550	37748
27.98362	36861
27.99173	38652
27.99987	35440
28.00798	34978
28.01612	35017
28.02423	34430
28.03235	36303
28.04048	37538
28.04860	36890
28.05673	39631
28.06485	36795
28.07297	33854
28.08110	39802
28.08922	39781
28.09733	37056
28.10547	38762
28.11358	37085
28.12172	36624
28.12983	36099
28.13795	36691
28.14608	33873
28.15420	35245
28.16233	36956
28.17045	35368
28.17857	33581
28.18670	36345
28.19482	34300
28.20293	37563
28.21107	37316
28.21918	42156
28.22732	34732
28.23543	37990
28.24355	39574
28.25168	38398
28.25980	39563
28.26793	33139
28.27605	37959
28.28417	36384
28.29230	37105
28.30042	38594
28.30855	37049
28.31667	35091
28.32478	38226
28.33292	38292
28.34103	37224
28.34915	39431
28.35728	35286
28.36540	38226
28.37353	40375
28.38165	39737
28.38977	37823
28.39790	40168
28.40602	37691
28.41415	39894
28.42227	36190
28.43038	35548
28.43852	38209
28.44663	35626
28.45477	37082
28.46288	37884
28.47100	39602
28.47913	39361
28.48725	38379
28.49537	41406
28.50350	38773
28.51162	35610
28.51975	39042
28.52787	36168
28.53598	41034
28.54412	38121
28.55223	36984
28.56037	36174
28.56848	40505
28.57660	38965
28.58473	38988
28.59285	36600
28.60097	36401
28.60910	38542
28.61722	38565
28.62535	36614
28.63347	40283
28.64158	40326
28.64972	40592
28.65783	36906
28.66597	39162
28.67408	36902
28.68220	34035
28.69033	39467
28.69845	39774
28.70658	41076
28.71470	39599
28.72282	38053
28.73095	38863
28.73907	38927
28.74718	38214
28.75532	42250
28.76343	41841
28.77157	38787
28.77968	35252
28.78780	37155
28.79593	35203
28.80405	39238
28.81218	43955
28.82030	38570
28.82842	40282
28.83655	37338
28.84467	40816
28.85280	43854
28.86092	40451
28.86903	43880
28.87717	37219
28.88528	40007
28.89340	38007
28.90153	41158
28.90965	36720
28.91778	41003
28.92590	40322
28.93402	40417
28.94215	41536
28.95027	39316
28.95840	43721
28.96652	41455
28.97463	43060
28.98277	42598
28.99088	40094
28.99900	42071
29.00713	42105
29.01525	40738
29.02338	37860
29.03150	39107
29.03962	39516
29.04775	40471
29.05587	41937
29.06400	40659
29.07212	41096
29.08023	39894
29.08837	40307
29.09648	46403
29.10462	43522
29.11273	38573
29.12085	40974
29.12898	41106
29.13710	38838
29.14522	42254
29.15335	41988
29.16147	41530
29.16960	39768
29.17772	38693
29.18583	42021
29.19397	40173
29.20208	41991
29.21022	43118
29.21833	41419
29.22645	42525
29.23458	40804
29.24270	41735
29.25083	38029
29.25895	40944
29.26707	40162
29.27520	38182
29.28332	45298
29.29143	44455
29.29957	41444
29.30768	40618
29.31582	41032
29.32393	39934
29.33205	42926
29.34018	40725
29.34830	41521
29.35643	38814
29.36455	42848
29.37267	43957
29.38080	37834
29.38892	40634
29.39703	39579
29.40517	40562
29.41328	44014
29.42142	43193
29.42953	37893
29.43765	42063
29.44578	40061
29.45390	44508
29.46203	42826
29.47015	42808
29.47827	40323
29.48640	41708
29.49452	42903
29.50265	42429
29.51077	42346
29.51888	44818
29.52702	41483
29.53513	44131
29.54325	42723
29.55138	39676
29.55950	41979
29.56763	43030
29.57575	38512
29.58387	41509
29.59200	43624
29.60012	43256
29.60825	43225
29.61637	44210
29.62448	43986
29.63262	41367
29.64073	40651
29.64885	41855
29.65698	45916
29.66510	43704
29.67323	45836
29.68135	42157
29.68947	42379
29.69760	43989
29.70572	45649
29.71385	43158
29.72197	42297
29.73008	39756
29.73822	46173
29.74633	46001
29.75447	43577
29.76258	43063
29.77070	40720
29.77883	49205
29.78695	41510
29.79507	46546
29.80320	47256
29.81132	40554
29.81945	46371
29.82757	42618
29.83568	43016
29.84382	39293
29.85193	44071
29.86007	43350
29.86818	44477
29.87630	41728
29.88443	42051
29.89255	45858
29.90068	43541
29.90880	43401
29.91692	42873
29.92505	43653
29.93317	45983
29.94128	47281
29.94942	45634
29.95753	47122
29.96567	46801
29.97378	51271
29.98190	45245
29.99003	47515
29.99815	41743
30.00628	47880
30.01440	44870
30.02252	48055
30.03065	45363
30.03877	48143
30.04688	43228
30.05502	44638
30.06313	41287
30.07127	48058
30.07938	48129
30.08750	44531
30.09563	45368
30.10375	45394
30.11188	46267
30.12000	43890
30.12812	46066
30.13625	45455
30.14437	41810
30.15250	47342
30.16062	48159
30.16873	46638
30.17687	47610
30.18498	50368
30.19310	46012
30.20123	44668
30.20935	47625
30.21748	45758
30.22560	48179
30.23372	46835
30.24185	43750
30.24997	45768
30.25810	41503
30.26622	44643
30.27433	45088
30.28247	47396
30.29058	46129
30.29872	44918
30.30683	47207
30.31495	47427
30.32308	46175
30.33120	44663
30.33932	46051
30.34745	45901
30.35557	46898
30.36370	48682
30.37182	43111
30.37993	46579
30.38807	49502
30.39618	44905
30.40432	45288
30.41243	48944
30.42055	48688
30.42868	47338
30.43680	50225
30.44492	48916
30.45305	48926
30.46117	46024
30.46930	48948
30.47742	50967
30.48553	46955
30.49367	48837
30.50178	45399
30.50992	45406
30.51803	48600
30.52615	47793
30.53428	46425
30.54240	50658
30.55053	44926
30.55865	46367
30.56677	50002
30.57490	49145
30.58302	52220
30.59113	52530
30.59927	51606
30.60738	46731
30.61552	51734
30.62363	48188
30.63175	48445
30.63988	48238
30.64800	48558
30.65613	54828
30.66425	46092
30.67237	53493
30.68050	49794
30.68862	47264
30.69673	44738
30.70487	47624
30.71298	47433
30.72112	51413
30.72923	50755
30.73735	49393
30.74548	50138
30.75360	50306
30.76173	50299
30.76985	47025
30.77797	50728
30.78610	50226
30.79422	45006
30.80235	48770
30.81047	50177
30.81858	51282
30.82672	49649
30.83483	49314
30.84295	46297
30.85108	48993
30.85920	51059
30.86733	50540
30.87545	52954
30.88357	50675
30.89170	49247
30.89982	55696
30.90795	46145
30.91607	51387
30.92418	48291
30.93232	48965
30.94043	48599
30.94857	48117
30.95668	49055
30.96480	49386
30.97293	48084
30.98105	53223
30.98917	48434
30.99730	48274
31.00542	50685
31.01355	54332
31.02167	55350
31.02978	50292
31.03792	51212
31.04603	52933
31.05417	49641
31.06228	49375
31.07040	51139
31.07853	51209
31.08665	49133
31.09477	55321
31.10290	49627
31.11102	50480
31.11915	51410
31.12727	55623
31.13538	50150
31.14352	51948
31.15163	49602
31.15977	50537
31.16788	58071
31.17600	53899
31.18413	49792
31.19225	53233
31.20038	49889
31.20850	50303
31.21662	57390
31.22475	52376
31.23287	52931
31.24098	55060
31.24912	50087
31.25723	52979
31.26537	52033
31.27348	51188
31.28160	52531
31.28973	49165
31.29785	50536
31.30598	52089
31.31410	51840
31.32222	52571
31.33035	49896
31.33847	56957
31.34660	55056
31.35472	50164
31.36283	53772
31.37097	51149
31.37908	52600
31.38720	54818
31.39533	57009
31.40345	52758
31.41158	57693
31.41970	54292
31.42782	54697
31.43595	54792
31.44407	53354
31.45220	56691
31.46032	53128
31.46843	56184
31.47657	52235
31.48468	53699
31.49280	53242
31.50093	55038
31.50905	53321
31.51718	53083
31.52530	52763
31.53342	55793
31.54155	52182
31.54967	56806
31.55780	55842
31.56592	54521
31.57403	55538
31.58217	54929
31.59028	57209
31.59842	54514
31.60653	58459
31.61465	58065
31.62278	54047
31.63090	55236
31.63902	58484
31.64715	54399
31.65527	54359
31.66340	55175
31.67152	54406
31.67963	53589
31.68777	51613
31.69588	55145
31.70402	56047
31.71213	53205
31.72025	54588
31.72838	55306
31.73650	53793
31.74462	57296
31.75275	54291
31.76087	57619
31.76900	55446
31.77712	53713
31.78523	56852
31.79337	55699
31.80148	56662
31.80962	55318
31.81773	60155
31.82585	54128
31.83398	59335
31.84210	55819
31.85023	54310
31.85835	56354
31.86647	56140
31.87460	53554
31.88272	53912
31.89083	56630
31.89897	56024
31.90708	56259
31.91522	59691
31.92333	61371
31.93145	55263
31.93958	54984
31.94770	58127
31.95583	56816
31.96395	57393
31.97207	59733
31.98020	57666
31.98832	57997
31.99645	55250
32.00457	56084
32.01268	58446
32.02082	58461
32.02893	59055
32.03705	58130
32.04518	61420
32.05330	61777
32.06143	61072
32.06955	59440
32.07767	60111
32.08580	57826
32.09392	57001
32.10205	58134
32.11017	61690
32.11828	60054
32.12642	59135
32.13453	58422
32.14267	59484
32.15078	57034
32.15890	60076
32.16703	57573
32.17515	58225
32.18327	61813
32.19140	56608
32.19952	60228
32.20765	61053
32.21577	63676
32.22388	59015
32.23202	60106
32.24013	58329
32.24827	60036
32.25638	57781
32.26450	55747
32.27263	59021
32.28075	58713
32.28887	59990
32.29700	61112
32.30512	60947
32.31325	61597
32.32137	60655
32.32948	64586
32.33762	61705
32.34573	61036
32.35387	61761
32.36198	64877
32.37010	65816
32.37823	62174
32.38635	62471
32.39448	61882
32.40260	58178
32.41072	61883
32.41885	63508
32.42697	63971
32.43508	64381
32.44322	63937
32.45133	64861
32.45947	63000
32.46758	61930
32.47570	62620
32.48383	62107
32.49195	64502
32.50008	62585
32.50820	65558
32.51632	66068
32.52445	65543
32.53257	66566
32.54068	64948
32.54882	64787
32.55693	65013
32.56507	64746
32.57318	64878
32.58130	66654
32.58943	63653
32.59755	65755
32.60568	62891
32.61380	67595
32.62192	70152
32.63005	66236
32.63817	65772
32.64630	65369
32.65442	65716
32.66253	67138
32.67067	61935
32.67878	60200
32.68690	65493
32.69503	66137
32.70315	65598
32.71128	67171
32.71940	62044
32.72752	65622
32.73565	67927
32.74377	64407
32.75190	62769
32.76002	66254
32.76813	70403
32.77627	66862
32.78438	66871
32.79252	66550
32.80063	67942
32.80875	64815
32.81688	69529
32.82500	64978
32.83312	62601
32.84125	72436
32.84937	69391
32.85750	73452
32.86562	69417
32.87373	70322
32.88187	72872
32.88998	69731
32.89812	66945
32.90623	70765
32.91435	69463
32.92248	72526
32.93060	70424
32.93872	69600
32.94685	71144
32.95497	72387
32.96310	70353
32.97122	71760
32.97933	71217
32.98747	69037
32.99558	71832
33.00372	69582
33.01183	73669
33.01995	71632
33.02808	70140
33.03620	64909
33.04433	72132
33.05245	73096
33.06057	73005
33.06870	75644
33.07682	74618
33.08493	66770
33.09307	71901
33.10118	73275
33.10932	75882
33.11743	73058
33.12555	67701
33.13368	75844
33.14180	76109
33.14993	74079
33.15805	71199
33.16617	71827
33.17430	75816
33.18242	74147
33.19055	74593
33.19867	73651
33.20678	77148
33.21492	74493
33.22303	75521
33.23115	73105
33.23928	70263
33.24740	73844
33.25553	78492
33.26365	69672
33.27177	73222
33.27990	75679
33.28802	74869
33.29615	74938
33.30427	73945
33.31238	78678
33.32052	77399
33.32863	72817
33.33675	71877
33.34488	75733
33.35300	75732
33.36113	75635
33.36925	77232
33.37737	77976
33.38550	76579
33.39362	77320
33.40175	75673
33.40987	74550
33.41798	77993
33.42612	73912
33.43423	76345
33.44237	80349
33.45048	76569
33.45860	80223
33.46673	77158
33.47485	75041
33.48297	78548
33.49110	76051
33.49922	78070
33.50735	75533
33.51547	77864
33.52358	79865
33.53172	81339
33.53983	79010
33.54797	74503
33.55608	74701
33.56420	77255
33.57233	76602
33.58045	81088
33.58857	74964
33.59670	73220
33.60482	75115
33.61295	76479
33.62107	76556
33.62918	79450
33.63732	76436
33.64543	79555
33.65357	77929
33.66168	76038
33.66980	78643
33.67793	80181
33.68605	76827
33.69418	85331
33.70230	78849
33.71042	79523
33.71855	79217
33.72667	82360
33.73478	81854
33.74292	77007
33.75103	77916
33.75917	78420
33.76728	76970
33.77540	80288
33.78353	81110
33.79165	79767
33.79978	82384
33.80790	82202
33.81602	84497
33.82415	80303
33.83227	80955
33.84040	84793
33.84852	83287
33.85663	81934
33.86477	78935
33.87288	88071
33.88100	83547
33.88913	83033
33.89725	83875
33.90538	82440
33.91350	83288
33.92162	85117
33.92975	82969
33.93787	84196
33.94600	84831
33.95412	83408
33.96223	84417
33.97037	85060
33.97848	82338
33.98660	82375
33.99473	87140
34.00285	85861
34.01098	85494
34.01910	85331
34.02722	86353
34.03535	92897
34.04347	82661
34.05160	85659
34.05972	89469
34.06783	87134
34.07597	87659
34.08408	85154
34.09222	84076
34.10033	85513
34.10845	91903
34.11658	87877
34.12470	88871
34.13282	91298
34.14095	90571
34.14907	89389
34.15720	89164
34.16532	91203
34.17343	92165
34.18157	88134
34.18968	86228
34.19782	87797
34.20593	88563
34.21405	89668
34.22218	92357
34.23030	94743
34.23843	94584
34.24655	89395
34.25467	93519
34.26280	92831
34.27092	91704
34.27903	93783
34.28717	92079
34.29528	92452
34.30342	91809
34.31153	89643
34.31965	90258
34.32778	92242
34.33590	90432
34.34403	92473
34.35215	93998
34.36027	90895
34.36840	86128
34.37652	97247
34.38463	93383
34.39277	91705
34.40088	96023
34.40902	98412
34.41713	98836
34.42525	91829
34.43338	93707
34.44150	94428
34.44963	93931
34.45775	91960
34.46587	89231
34.47400	94976
34.48212	94720
34.49025	96351
34.49837	89216
34.50648	95296
34.51462	97584
34.52273	92535
34.53085	99944
34.53898	102901
34.54710	97170
34.55523	93311
34.56335	101163
34.57147	100519
34.57960	96378
34.58772	100907
34.59585	94720
34.60397	100667
34.61208	93015
34.62022	95389
34.62833	100456
34.63645	96123
34.64458	95681
34.65270	99825
34.66083	102023
34.66895	102733
34.67707	103079
34.68520	101924
34.69332	103507
34.70145	104026
34.70957	98461
34.71768	99130
34.72582	98705
34.73393	100260
34.74207	99132
34.75018	97427
34.75830	101587
34.76643	102829
34.77455	100575
34.78267	101012
34.79080	104238
34.79892	103492
34.80705	101939
34.81517	105964
34.82328	105063
34.83142	107654
34.83953	105613
34.84767	110666
34.85578	106336
34.86390	99062
34.87203	110088
34.88015	105897
34.88828	107988
34.89640	108503
34.90452	109281
34.91265	106483
34.92077	108370
34.92888	105363
34.93702	110732
34.94513	109377
34.95327	105961
34.96138	112384
34.96950	107919
34.97763	107983
34.98575	108454
34.99388	109718
35.00200	108000
35.01012	113550
35.01825	105036
35.02637	110064
35.03448	108172
35.04262	106401
35.05073	112759
35.05887	108323
35.06698	108064
35.07510	108564
35.08323	109602
35.09135	117114
35.09948	108296
35.10760	110583
35.11572	108577
35.12385	115660
35.13197	103868
35.14010	111566
35.14822	117187
35.15633	110920
35.16447	111957
35.17258	109858
35.18070	109065
35.18883	114972
35.19695	112252
35.20508	112863
35.21320	111194
35.22132	111187
35.22945	117180
35.23757	119469
35.24570	119165
35.25382	117991
35.26193	113171
35.27007	119707
35.27818	118133
35.28632	111031
35.29443	118704
35.30255	114612
35.31068	116897
35.31880	115832
35.32692	114015
35.33505	110146
35.34317	116285
35.35130	116300
35.35942	121828
35.36753	116253
35.37567	116602
35.38378	119449
35.39192	116460
35.40003	124007
35.40815	119361
35.41628	116279
35.42440	119113
35.43252	118818
35.44065	117426
35.44877	121495
35.45690	117509
35.46502	113874
35.47313	117663
35.48127	115582
35.48938	114535
35.49752	124745
35.50563	116892
35.51375	123284
35.52188	123282
35.53000	122322
35.53813	124701
35.54625	125197
35.55437	123962
35.56250	123031
35.57062	122104
35.57873	124141
35.58687	122212
35.59498	127520
35.60312	122244
35.61123	119076
35.61935	120344
35.62748	122243
35.63560	119368
35.64373	124055
35.65185	123374
35.65997	124621
35.66810	127900
35.67622	123371
35.68435	121911
35.69247	119211
35.70058	129825
35.70872	124620
35.71683	124082
35.72495	126948
35.73308	122156
35.74120	123984
35.74933	119912
35.75745	130290
35.76557	119487
35.77370	126950
35.78182	128021
35.78995	127163
35.79807	128005
35.80618	125733
35.81432	126214
35.82243	128245
35.83055	124935
35.83868	125699
35.84680	124690
35.85493	122576
35.86305	129659
35.87117	131636
35.87930	123153
35.88742	129071
35.89555	128846
35.90367	131177
35.91178	134440
35.91992	127239
35.92803	137134
35.93617	128863
35.94428	132080
35.95240	135297
35.96053	131291
35.96865	136715
35.97677	131664
35.98490	132837
35.99302	133819
36.00115	140972
36.00927	137415
36.01738	135382
36.02552	140451
36.03363	132997
36.04177	138581
36.04988	136959
36.05800	134297
36.06613	145402
36.07425	138842
36.08237	138822
36.09050	137164
36.09862	137822
36.10675	141131
36.11487	141514
36.12298	142817
36.13112	150341
36.13923	148567
36.14737	141955
36.15548	149099
36.16360	144104
36.17173	142989
36.17985	150190
36.18798	148829
36.19610	141238
36.20422	144956
36.21235	152687
36.22047	151911
36.22858	151262
36.23672	151928
36.24483	146863
36.25297	148892
36.26108	151399
36.26920	150151
36.27733	146965
36.28545	144488
36.29358	150346
36.30170	143977
36.30982	151597
36.31795	151852
36.32607	149167
36.33420	152928
36.34232	153180
36.35043	152675
36.35857	153231
36.36668	155687
36.37480	151794
36.38293	157744
36.39105	148277
36.39918	157041
36.40730	158142
36.41542	149781
36.42355	150321
36.43167	150570
36.43980	154429
36.44792	160655
36.45603	153455
36.46417	156572
36.47228	155531
36.48040	153631
36.48853	155451
36.49665	158601
36.50478	160345
36.51290	155548
36.52102	149652
36.52915	155573
36.53727	157385
36.54540	157633
36.55352	155145
36.56163	156676
36.56977	156505
36.57788	161090
36.58602	161222
36.59413	159325
36.60225	160463
36.61038	160110
36.61850	155384
36.62662	161816
36.63475	163291
36.64287	158060
36.65100	157131
36.65912	160651
36.66723	155757
36.67537	157955
36.68348	156077
36.69162	162505
36.69973	161770
36.70785	165170
36.71598	160641
36.72410	159232
36.73223	152456
36.74035	158310
36.74847	164890
36.75660	162982
36.76472	168726
36.77283	167463
36.78097	161170
36.78908	160913
36.79722	155568
36.80533	163374
36.81345	170982
36.82158	158873
36.82970	161434
36.83783	166016
36.84595	174331
36.85407	166103
36.86220	166214
36.87032	172147
36.87843	164032
36.88657	169408
36.89468	169013
36.90282	165739
36.91093	166996
36.91905	172145
36.92718	167438
36.93530	172301
36.94343	168145
36.95155	168497
36.95967	171804
36.96780	172864
36.97592	167573
36.98405	173606
36.99217	168686
37.00028	168574
37.00842	168456
37.01653	170573
37.02465	178348
37.03278	174110
37.04090	180092
37.04903	170334
37.05715	179710
37.06527	182770
37.07340	181960
37.08152	190386
37.08965	182315
37.09777	186523
37.10588	183841
37.11402	186328
37.12213	189522
37.13025	180859
37.13838	188068
37.14650	183184
37.15463	188037
37.16275	186532
37.17087	186358
37.17900	186886
37.18712	184661
37.19525	187772
37.20337	186245
37.21148	195234
37.21962	187177
37.22773	186437
37.23587	199284
37.24398	188287
37.25210	184988
37.26023	190906
37.26835	195454
37.27647	183792
37.28460	189904
37.29272	190298
37.30085	187682
37.30897	187867
37.31708	192270
37.32522	192748
37.33333	190654
37.34147	187965
37.34958	193618
37.35770	193991
37.36583	193041
37.37395	190937
37.38208	190221
37.39020	190113
37.39832	198391
37.40645	194927
37.41457	195380
37.42268	196608
37.43082	195768
37.43893	201225
37.44707	204886
37.45518	194738
37.46330	204855
37.47143	204188
37.47955	207419
37.48768	209772
