C:\MassHunter\GCMS\1\data\JTB-E02\BACandBLUE\JTB-E18-011-11.D Tue Jun 18 13:31:37 2019
Start of data points
2.09517	81129
2.10328	76779
2.11140	86834
2.11953	78450
2.12765	83853
2.13577	77630
2.14390	78291
2.15202	74322
2.16015	76404
2.16827	72560
2.17638	74893
2.18452	74875
2.19263	70959
2.20077	68467
2.20888	68145
2.21700	68845
2.22513	66482
2.23325	66793
2.24138	71025
2.24950	73304
2.25762	68680
2.26575	71962
2.27387	286266
2.28198	1795814
2.29012	2222317
2.29823	912780
2.30637	496819
2.31448	387280
2.32260	351198
2.33073	296210
2.33885	261739
2.34698	254333
2.35510	218883
2.36322	215546
2.37135	192832
2.37947	187314
2.38760	183508
2.39572	168056
2.40383	164607
2.41197	166576
2.42008	164197
2.42820	188244
2.43633	178689
2.44445	155674
2.45258	153205
2.46070	150973
2.46882	142690
2.47695	135913
2.48507	137113
2.49320	150556
2.50132	177307
2.50943	155911
2.51757	140542
2.52568	136645
2.53380	137622
2.54193	129619
2.55005	126891
2.55818	173535
2.56630	325359
2.57442	335627
2.58255	230790
2.59067	189405
2.59880	170608
2.60692	223159
2.61503	583197
2.62317	759108
2.63128	477189
2.63942	307772
2.64753	242606
2.65565	207046
2.66378	187905
2.67190	172258
2.68002	164713
2.68815	159330
2.69627	145902
2.70440	143636
2.71252	141925
2.72063	142376
2.72877	133166
2.73688	130484
2.74502	131661
2.75313	131259
2.76125	125981
2.76938	128907
2.77750	144809
2.78563	405818
2.79375	926078
2.80187	769836
2.81000	445798
2.81812	339855
2.82623	324487
2.83437	296318
2.84248	257028
2.85062	223061
2.85873	199936
2.86685	186713
2.87498	176577
2.88310	163286
2.89123	155254
2.89935	147190
2.90747	145192
2.91560	141636
2.92372	139671
2.93183	139843
2.93997	134141
2.94808	127338
2.95622	126660
2.96433	126556
2.97245	128445
2.98058	130652
2.98870	129144
2.99683	130180
3.00495	142221
3.01307	143917
3.02120	136051
3.02932	130531
3.03745	125941
3.04557	122225
3.05368	115657
3.06182	121303
3.06993	127874
3.07805	134074
3.08618	294073
3.09430	1059354
3.10243	2130347
3.11055	3436761
3.11867	4309989
3.12680	3118300
3.13492	1850949
3.14305	1345392
3.15117	1090709
3.15928	871751
3.16742	739506
3.17553	695284
3.18365	673658
3.19178	904406
3.19990	1475647
3.20803	1476294
3.21615	1022648
3.22427	785628
3.23240	661790
3.24052	571054
3.24865	502320
3.25677	446930
3.26488	410098
3.27302	373847
3.28113	364802
3.28927	440120
3.29738	1183853
3.30550	3703444
3.31363	7127449
3.32175	8207684
3.32987	6577821
3.33800	4542608
3.34612	3335723
3.35425	2637517
3.36237	2136585
3.37048	1823390
3.37862	1606189
3.38673	1405817
3.39487	1252408
3.40298	1155500
3.41110	1067183
3.41923	1008108
3.42735	928386
3.43548	893773
3.44360	869454
3.45172	816945
3.45985	788852
3.46797	761506
3.47608	779682
3.48422	767906
3.49233	740790
3.50047	695872
3.50858	657645
3.51670	626183
3.52483	628181
3.53295	626454
3.54108	633627
3.54920	628018
3.55732	591256
3.56545	575888
3.57357	556670
3.58168	582671
3.58982	567989
3.59793	547587
3.60607	527216
3.61418	523871
3.62230	519897
3.63043	539645
3.63855	549080
3.64668	569725
3.65480	548660
3.66292	696920
3.67105	2274368
3.67917	7671395
3.68730	1.292043E+07
3.69542	1.128003E+07
3.70353	6763318
3.71167	4236718
3.71978	3241669
3.72790	2656091
3.73603	2321909
3.74415	2080372
3.75228	1880263
3.76040	1729438
3.76852	1588917
3.77665	1464400
3.78477	1377969
3.79290	1304449
3.80102	1264033
3.80913	1494744
3.81727	2113753
3.82538	2554527
3.83352	2196815
3.84163	1649125
3.84975	1385662
3.85788	1244714
3.86600	1142351
3.87412	1084069
3.88225	1008332
3.89037	988466
3.89850	920121
3.90662	887327
3.91473	867593
3.92287	929203
3.93098	1042631
3.93912	1097436
3.94723	1091485
3.95535	1518873
3.96348	3067853
3.97160	4840837
3.97972	4894260
3.98785	3419074
3.99597	2553173
4.00410	4534219
4.01222	1.15067E+07
4.02033	1.902511E+07
4.02847	1.890476E+07
4.03658	1.217894E+07
4.04472	6427527
4.05283	3895453
4.06095	2782789
4.06908	2225676
4.07720	1854249
4.08533	1579179
4.09345	1403195
4.10157	1274524
4.10970	1155214
4.11782	1079666
4.12593	1022837
4.13407	988585
4.14218	968092
4.15032	1032906
4.15843	1055526
4.16655	976364
4.17468	895599
4.18280	849508
4.19093	812837
4.19905	750201
4.20717	812110
4.21530	1540626
4.22342	4662864
4.23153	1.063624E+07
4.23967	1.534753E+07
4.24778	1.509318E+07
4.25592	1.042286E+07
4.26403	6182456
4.27215	4232160
4.28028	3208913
4.28840	2496574
4.29653	2065122
4.30465	1739648
4.31277	1532096
4.32090	1377546
4.32902	1250284
4.33715	1166982
4.34527	1092435
4.35338	1053352
4.36152	1052103
4.36963	1099785
4.37775	1090745
4.38588	1000481
4.39400	917198
4.40213	846361
4.41025	782003
4.41837	764011
4.42650	743114
4.43462	714831
4.44275	686664
4.45087	669446
4.45898	658885
4.46712	644883
4.47523	623948
4.48337	606273
4.49148	592936
4.49960	590500
4.50773	563166
4.51585	561444
4.52397	543313
4.53210	550598
4.54022	531874
4.54835	543553
4.55647	550575
4.56458	524302
4.57272	519773
4.58083	494537
4.58897	485844
4.59708	482912
4.60520	474371
4.61333	479755
4.62145	481088
4.62958	564336
4.63770	733868
4.64582	939158
4.65395	996193
4.66207	841918
4.67018	689936
4.67832	596147
4.68643	564349
4.69457	540823
4.70268	513023
4.71080	482573
4.71893	459832
4.72705	451365
4.73518	445352
4.74330	439751
4.75142	412855
4.75955	418656
4.76767	396864
4.77578	398165
4.78392	409550
4.79203	440600
4.80017	584583
4.80828	835955
4.81640	951242
4.82453	844283
4.83265	679701
4.84078	601787
4.84890	581280
4.85702	583145
4.86515	555036
4.87327	506503
4.88140	465670
4.88952	445823
4.89763	431868
4.90577	416176
4.91388	409658
4.92200	409562
4.93013	411139
4.93825	526100
4.94638	952414
4.95450	1854160
4.96262	3107782
4.97075	3852210
4.97887	3761395
4.98700	3001624
4.99512	2290251
5.00323	1714226
5.01137	1407054
5.01948	1241670
5.02760	1108250
5.03573	1106015
5.04385	1121686
5.05198	1122733
5.06010	1027852
5.06822	928136
5.07635	833230
5.08447	805697
5.09260	754968
5.10072	728251
5.10883	704164
5.11697	673653
5.12508	663463
5.13322	649891
5.14133	635996
5.14945	641593
5.15758	675225
5.16570	748217
5.17382	785161
5.18195	778908
5.19007	719657
5.19820	706108
5.20632	708252
5.21443	750131
5.22257	744675
5.23068	688297
5.23882	663707
5.24693	646618
5.25505	623358
5.26318	580339
5.27130	522797
5.27942	516428
5.28755	505661
5.29567	494111
5.30380	481764
5.31192	466480
5.32003	465965
5.32817	481606
5.33628	499829
5.34442	514271
5.35253	513241
5.36065	498276
5.36878	485002
5.37690	466849
5.38503	478703
5.39315	485454
5.40127	527430
5.40940	525892
5.41752	513161
5.42563	473329
5.43377	454767
5.44188	448615
5.45002	448936
5.45813	463412
5.46625	483081
5.47438	468541
5.48250	442142
5.49063	421262
5.49875	405484
5.50687	403699
5.51500	405029
5.52312	402152
5.53125	396822
5.53937	398138
5.54748	408271
5.55562	424520
5.56373	507183
5.57185	645024
5.57998	775770
5.58810	770260
5.59623	671451
5.60435	557925
5.61247	469181
5.62060	437455
5.62872	416759
5.63685	420362
5.64497	417078
5.65308	414505
5.66122	398369
5.66933	396486
5.67747	390648
5.68558	419184
5.69370	439137
5.70183	448644
5.70995	439310
5.71807	423583
5.72620	393907
5.73432	374463
5.74245	368228
5.75057	369136
5.75868	360660
5.76682	351311
5.77493	348004
5.78307	331864
5.79118	336504
5.79930	344965
5.80743	327695
5.81555	343524
5.82367	336818
5.83180	336689
5.83992	342421
5.84805	341977
5.85617	340517
5.86428	330198
5.87242	341112
5.88053	331505
5.88867	330852
5.89678	328094
5.90490	308616
5.91303	284848
5.92115	261963
5.92928	247231
5.93740	259853
5.94552	254123
5.95365	255722
5.96177	278840
5.96988	310401
5.97802	349516
5.98613	405613
5.99427	442743
6.00238	435539
6.01050	384320
6.01863	325133
6.02675	290669
6.03488	274668
6.04300	263121
6.05112	242597
6.05925	240912
6.06737	225763
6.07548	229362
6.08362	230046
6.09173	221984
6.09987	234950
6.10798	230040
6.11610	259349
6.12423	280039
6.13235	319056
6.14048	439527
6.14860	563521
6.15672	602958
6.16485	523803
6.17297	417353
6.18110	352968
6.18922	308284
6.19733	292087
6.20547	286165
6.21358	283473
6.22170	277191
6.22983	261621
6.23795	259728
6.24608	268926
6.25420	263583
6.26232	290221
6.27045	296730
6.27857	290289
6.28670	271706
6.29482	260762
6.30293	240884
6.31107	244934
6.31918	263644
6.32732	269642
6.33543	297271
6.34355	334257
6.35168	325223
6.35980	316955
6.36792	278700
6.37605	267754
6.38417	260723
6.39230	265458
6.40042	255702
6.40853	247771
6.41667	249537
6.42478	243105
6.43292	252378
6.44103	248560
6.44915	250679
6.45728	246653
6.46540	242449
6.47352	248317
6.48165	248991
6.48977	244426
6.49790	251297
6.50602	247913
6.51413	247388
6.52227	245897
6.53038	252199
6.53852	252186
6.54663	246544
6.55475	254895
6.56288	286324
6.57100	359662
6.57913	482070
6.58725	577805
6.59537	579086
6.60350	488237
6.61162	379995
6.61973	317190
6.62787	301409
6.63598	300258
6.64412	303338
6.65223	414190
6.66035	768106
6.66848	1386663
6.67660	1932346
6.68473	1915623
6.69285	1355223
6.70097	862638
6.70910	561244
6.71722	451222
6.72535	399234
6.73347	366205
6.74158	346673
6.74972	326575
6.75783	325259
6.76595	291188
6.77408	273079
6.78220	255341
6.79033	252861
6.79845	238637
6.80657	232351
6.81470	225963
6.82282	224030
6.83095	217062
6.83907	219091
6.84718	226349
6.85532	230086
6.86343	238619
6.87155	227312
6.87968	198081
6.88780	175389
6.89593	147882
6.90405	139467
6.91217	130206
6.92030	127236
6.92842	123709
6.93655	122306
6.94467	117342
6.95278	116071
6.96092	125721
6.96903	135228
6.97717	163439
6.98528	164268
6.99340	165273
7.00153	152022
7.00965	136076
7.01777	120782
7.02590	120304
7.03402	127926
7.04215	138687
7.05027	153346
7.05838	169405
7.06652	185507
7.07463	195390
7.08277	177937
7.09088	156875
7.09900	143110
7.10713	131532
7.11525	121541
7.12337	107387
7.13150	120357
7.13962	132262
7.14775	175924
7.15587	265266
7.16398	370960
7.17212	418288
7.18023	386422
7.18837	300458
7.19648	227547
7.20460	193831
7.21273	233239
7.22085	469091
7.22898	995746
7.23710	1732507
7.24522	2116852
7.25335	1955637
7.26147	1300967
7.26958	790781
7.27772	517879
7.28583	386924
7.29397	294191
7.30208	220444
7.31020	172544
7.31833	165724
7.32645	159282
7.33458	155079
7.34270	162881
7.35082	148582
7.35895	140245
7.36707	134940
7.37520	132014
7.38332	131759
7.39143	130987
7.39957	138179
7.40768	135731
7.41580	126527
7.42393	120982
7.43205	121204
7.44018	118238
7.44830	121583
7.45642	128892
7.46455	113599
7.47267	127898
7.48080	123148
7.48892	118860
7.49703	109184
7.50517	113112
7.51328	148721
7.52140	241827
7.52953	459399
7.53765	848862
7.54578	1411199
7.55390	1989253
7.56202	2322455
7.57015	2240767
7.57827	1885353
7.58640	1378526
7.59452	897740
7.60263	572673
7.61077	395000
7.61888	286688
7.62702	230641
7.63513	199771
7.64325	178314
7.65138	159452
7.65950	146283
7.66762	142157
7.67575	125893
7.68387	125960
7.69200	119564
7.70012	117783
7.70823	118198
7.71637	119912
7.72448	116150
7.73262	117734
7.74073	114636
7.74885	112296
7.75698	105830
7.76510	116245
7.77323	123628
7.78135	131919
7.78947	143663
7.79760	154863
7.80572	167159
7.81383	171875
7.82197	164000
7.83008	153864
7.83822	141629
7.84633	136382
7.85445	132804
7.86258	136472
7.87070	149059
7.87883	170055
7.88695	189505
7.89507	189745
7.90320	177148
7.91132	160175
7.91943	140362
7.92757	136828
7.93568	142527
7.94382	170079
7.95193	189560
7.96005	176181
7.96818	160658
7.97630	143660
7.98443	127857
7.99255	107327
8.00067	101000
8.00880	95907
8.01692	96237
8.02505	92181
8.03317	98583
8.04128	89555
8.04942	88861
8.05753	94819
8.06565	94866
8.07378	94728
8.08190	94176
8.09003	89402
8.09815	89494
8.10627	89692
8.11440	90880
8.12252	95297
8.13065	103105
8.13877	115814
8.14688	140875
8.15502	148450
8.16313	148925
8.17127	136247
8.17938	120086
8.18750	105160
8.19563	104275
8.20375	91920
8.21187	96605
8.22000	99837
8.22812	103340
8.23625	98897
8.24437	99986
8.25248	91672
8.26062	89154
8.26873	86374
8.27687	88366
8.28498	84084
8.29310	84153
8.30123	88195
8.30935	97153
8.31747	107156
8.32560	100895
8.33372	102195
8.34185	104035
8.34997	93189
8.35808	93193
8.36622	89619
8.37433	93560
8.38247	100842
8.39058	104517
8.39870	96744
8.40683	91816
8.41495	85055
8.42308	84803
8.43120	83285
8.43932	76873
8.44745	79358
8.45557	81474
8.46368	84970
8.47182	84665
8.47993	82158
8.48807	75215
8.49618	84050
8.50430	78434
8.51243	84132
8.52055	93878
8.52868	127550
8.53680	198510
8.54492	332325
8.55305	464454
8.56117	500071
8.56928	436841
8.57742	309759
8.58553	212238
8.59367	168357
8.60178	159546
8.60990	160477
8.61803	157359
8.62615	136479
8.63428	128087
8.64240	111487
8.65052	104363
8.65865	95054
8.66677	92593
8.67490	96700
8.68302	92547
8.69113	89739
8.69927	103256
8.70738	103703
8.71550	104940
8.72363	98942
8.73175	96047
8.73988	91991
8.74800	102516
8.75612	164549
8.76425	316609
8.77237	626149
8.78050	1022376
8.78862	1356990
8.79673	1362142
8.80487	1152716
8.81298	822007
8.82112	546161
8.82923	406815
8.83735	331583
8.84548	301238
8.85360	304407
8.86172	314361
8.86985	309575
8.87797	294269
8.88610	281586
8.89422	271256
8.90233	257740
8.91047	255069
8.91858	252215
8.92672	243357
8.93483	255205
8.94295	261584
8.95108	272428
8.95920	276074
8.96732	267319
8.97545	266509
8.98357	263405
8.99170	253706
8.99982	256289
9.00793	234756
9.01607	223691
9.02418	208267
9.03232	202651
9.04043	198507
9.04855	181330
9.05668	184497
9.06480	182166
9.07293	183083
9.08105	179473
9.08917	188837
9.09730	201173
9.10542	222263
9.11353	252093
9.12167	263351
9.12978	272090
9.13792	252066
9.14603	226946
9.15415	196698
9.16228	180286
9.17040	174211
9.17853	166993
9.18665	159904
9.19477	157774
9.20290	163649
9.21102	152363
9.21915	153252
9.22727	157099
9.23538	153162
9.24352	154633
9.25163	158624
9.25975	151016
9.26788	155192
9.27600	152970
9.28413	145836
9.29225	142014
9.30037	146275
9.30850	140377
9.31662	145971
9.32475	135893
9.33287	137999
9.34098	138614
9.34912	133714
9.35723	127691
9.36535	130588
9.37348	125155
9.38160	125530
9.38973	130528
9.39785	132655
9.40597	145333
9.41410	168264
9.42222	202703
9.43035	243183
9.43847	279062
9.44658	293057
9.45472	278587
9.46283	238137
9.47097	191633
9.47908	158729
9.48720	148137
9.49533	137808
9.50345	140046
9.51157	162157
9.51970	185473
9.52782	200605
9.53595	211115
9.54407	192867
9.55218	167313
9.56032	146571
9.56843	130390
9.57657	108410
9.58468	101304
9.59280	99736
9.60093	94601
9.60905	86036
9.61717	80526
9.62530	81236
9.63342	76615
9.64155	80359
9.64967	75229
9.65778	76105
9.66592	82543
9.67403	78718
9.68217	78954
9.69028	73806
9.69840	74703
9.70653	68992
9.71465	69722
9.72278	66351
9.73090	71678
9.73902	64429
9.74715	70527
9.75527	65352
9.76338	72397
9.77152	64611
9.77963	61144
9.78777	62275
9.79588	66542
9.80400	66700
9.81213	68680
9.82025	67895
9.82838	62456
9.83650	66163
9.84462	69644
9.85275	64373
9.86087	73463
9.86900	70294
9.87712	77797
9.88523	80830
9.89337	77828
9.90148	71066
9.90960	71512
9.91773	71040
9.92585	80894
9.93398	104475
9.94210	143950
9.95022	193808
9.95835	233509
9.96647	246303
9.97460	224731
9.98272	190720
9.99083	152693
9.99897	130789
10.00708	114566
10.01522	116396
10.02333	104076
10.03145	102904
10.03958	97281
10.04770	86625
10.05582	84364
10.06395	88157
10.07207	81024
10.08020	85562
10.08832	83611
10.09643	90599
10.10457	89894
10.11268	86228
10.12082	80515
10.12893	81258
10.13705	77778
10.14518	79490
10.15330	79498
10.16142	73561
10.16955	73902
10.17767	76845
10.18580	66592
10.19392	71221
10.20203	72041
10.21017	72559
10.21828	75788
10.22642	77125
10.23453	87132
10.24265	100754
10.25078	104959
10.25890	124407
10.26703	204574
10.27515	424275
10.28327	913554
10.29140	1730448
10.29952	2717099
10.30763	3778709
10.31577	5266069
10.32388	7440581
10.33202	1.015078E+07
10.34013	1.230742E+07
10.34825	1.240249E+07
10.35638	1.028094E+07
10.36450	7860483
10.37263	5917063
10.38075	4618878
10.38887	3506808
10.39700	2403029
10.40512	1619180
10.41323	1078796
10.42137	783611
10.42948	647070
10.43762	582060
10.44573	556754
10.45385	545504
10.46198	531826
10.47010	501518
10.47823	466518
10.48635	437190
10.49447	398226
10.50260	365375
10.51072	352916
10.51885	334724
10.52697	316607
10.53508	297200
10.54322	292437
10.55133	277295
10.55945	270899
10.56758	259445
10.57570	249045
10.58383	238314
10.59195	232749
10.60007	226592
10.60820	221603
10.61632	215856
10.62445	205433
10.63257	192953
10.64068	181331
10.64882	177639
10.65693	183450
10.66507	173752
10.67318	179236
10.68130	172626
10.68943	176474
10.69755	177308
10.70567	183196
10.71380	180230
10.72192	175441
10.73005	164356
10.73817	157857
10.74628	153594
10.75442	153096
10.76253	149193
10.77067	144352
10.77878	140387
10.78690	140811
10.79503	142745
10.80315	149863
10.81127	149046
10.81940	156277
10.82752	154893
10.83565	148496
10.84377	133177
10.85188	128368
10.86002	123829
10.86813	117145
10.87627	119105
10.88438	119094
10.89250	114185
10.90063	111404
10.90875	106663
10.91688	107518
10.92500	105728
10.93312	96900
10.94125	109203
10.94937	107608
10.95748	99822
10.96562	101237
10.97373	111625
10.98187	110393
10.98998	113184
10.99810	111758
11.00623	125257
11.01435	118913
11.02248	119636
11.03060	108034
11.03872	104295
11.04685	101591
11.05497	96221
11.06310	101816
11.07122	102527
11.07933	107663
11.08747	108889
11.09558	115421
11.10370	119678
11.11183	115653
11.11995	117427
11.12808	101269
11.13620	94193
11.14432	90653
11.15245	93929
11.16057	95410
11.16870	97539
11.17682	104054
11.18493	98857
11.19307	100966
11.20118	109362
11.20930	96296
11.21743	89864
11.22555	87964
11.23368	81809
11.24180	79418
11.24992	71095
11.25805	70674
11.26617	68726
11.27430	69603
11.28242	70226
11.29053	87402
11.29867	108110
11.30678	199564
11.31492	384676
11.32303	753073
11.33115	1314624
11.33928	1831519
11.34740	2124903
11.35552	2062264
11.36365	1647592
11.37177	1155093
11.37990	745474
11.38802	488528
11.39613	374761
11.40427	313425
11.41238	292024
11.42052	276432
11.42863	262774
11.43675	235316
11.44488	213716
11.45300	196927
11.46112	180319
11.46925	172214
11.47737	162802
11.48550	178520
11.49362	181458
11.50173	197438
11.50987	207910
11.51798	194988
11.52612	179997
11.53423	156804
11.54235	146607
11.55048	145106
11.55860	136942
11.56673	139082
11.57485	133917
11.58297	130350
11.59110	137311
11.59922	132302
11.60733	161943
11.61547	183590
11.62358	204047
11.63172	212495
11.63983	182947
11.64795	161793
11.65608	142934
11.66420	118625
11.67233	116783
11.68045	120029
11.68857	132495
11.69670	140794
11.70482	146380
11.71295	152749
11.72107	147429
11.72918	128620
11.73732	119255
11.74543	110393
11.75355	103286
11.76168	93666
11.76980	98792
11.77793	95388
11.78605	89022
11.79417	85601
11.80230	82543
11.81042	78336
11.81855	80128
11.82667	81552
11.83478	83683
11.84292	79600
11.85103	79975
11.85915	77854
11.86728	72114
11.87540	77408
11.88353	75021
11.89165	70982
11.89977	71999
11.90790	68801
11.91602	76128
11.92415	80481
11.93227	90952
11.94038	87333
11.94852	88307
11.95663	80996
11.96477	80380
11.97288	95935
11.98100	140406
11.98913	255158
11.99725	465357
12.00537	731906
12.01350	950295
12.02162	964872
12.02975	852382
12.03787	606921
12.04598	422034
12.05412	287729
12.06223	215150
12.07037	182490
12.07848	160976
12.08660	160497
12.09473	167753
12.10285	181563
12.11098	218482
12.11910	283953
12.12722	371369
12.13535	424763
12.14347	444795
12.15158	404402
12.15972	312136
12.16783	236505
12.17597	175729
12.18408	143316
12.19220	131825
12.20033	128118
12.20845	126970
12.21658	120717
12.22470	119957
12.23282	121517
12.24095	114506
12.24907	112170
12.25718	117433
12.26532	109221
12.27343	115019
12.28157	107114
12.28968	102257
12.29780	102876
12.30593	97433
12.31405	89270
12.32218	92357
12.33030	89831
12.33842	90042
12.34655	86650
12.35467	86660
12.36280	83541
12.37092	83423
12.37903	86561
12.38717	95773
12.39528	104513
12.40340	128151
12.41153	143582
12.41965	168206
12.42778	186708
12.43590	196270
12.44402	184821
12.45215	165462
12.46027	151800
12.46840	136208
12.47652	116322
12.48463	113652
12.49277	107341
12.50088	100140
12.50900	97136
12.51713	98392
12.52525	100387
12.53338	125144
12.54150	184113
12.54962	307413
12.55775	526151
12.56587	731580
12.57400	834049
12.58212	751581
12.59023	572214
12.59837	386284
12.60648	253322
12.61462	186681
12.62273	156422
12.63085	141590
12.63898	123387
12.64710	118977
12.65522	109720
12.66335	107351
12.67147	94781
12.67960	97109
12.68772	93358
12.69583	93781
12.70397	87075
12.71208	88728
12.72022	94253
12.72833	91777
12.73645	98606
12.74458	97446
12.75270	91639
12.76083	86086
12.76895	77766
12.77707	76801
12.78520	76353
12.79332	73814
12.80143	68227
12.80957	72872
12.81768	70879
12.82582	66139
12.83393	67886
12.84205	67110
12.85018	64687
12.85830	63348
12.86643	65966
12.87455	63260
12.88267	60203
12.89080	64572
12.89892	62991
12.90703	63309
12.91517	62792
12.92328	61361
12.93142	68407
12.93953	62113
12.94765	69450
12.95578	88343
12.96390	136245
12.97203	221948
12.98015	343654
12.98827	421985
12.99640	414160
13.00452	334580
13.01265	244892
13.02077	162669
13.02888	124286
13.03702	106743
13.04513	87745
13.05325	85915
13.06138	85152
13.06950	79791
13.07763	86158
13.08575	80185
13.09387	76500
13.10200	74775
13.11012	73254
13.11825	71317
13.12637	68736
13.13448	69250
13.14262	67506
13.15073	65547
13.15887	66283
13.16698	71404
13.17510	73369
13.18323	72084
13.19135	73730
13.19947	73283
13.20760	78251
13.21572	86762
13.22385	84030
13.23197	80477
13.24008	83708
13.24822	73704
13.25633	74123
13.26447	66406
13.27258	66554
13.28070	72185
13.28883	68155
13.29695	68231
13.30507	63977
13.31320	60363
13.32132	66369
13.32945	62776
13.33757	63289
13.34568	60288
13.35382	62603
13.36193	60100
13.37007	57365
13.37818	58683
13.38630	59199
13.39443	53852
13.40255	58870
13.41068	56531
13.41880	54937
13.42692	58046
13.43505	59343
13.44317	56485
13.45128	58505
13.45942	65038
13.46753	65249
13.47567	63438
13.48378	69696
13.49190	65376
13.50003	65187
13.50815	59484
13.51628	58702
13.52440	57582
13.53252	63888
13.54065	61731
13.54877	62620
13.55690	60457
13.56502	61657
13.57313	66836
13.58127	70614
13.58938	70100
13.59750	68660
13.60563	76890
13.61375	73563
13.62188	76041
13.63000	82516
13.63812	76335
13.64625	69503
13.65437	65259
13.66250	64113
13.67062	61258
13.67873	60259
13.68687	56891
13.69498	59615
13.70310	52821
13.71123	51628
13.71935	56458
13.72748	65485
13.73560	92816
13.74372	192863
13.75185	447674
13.75997	976807
13.76810	1796204
13.77622	2593905
13.78433	3094696
13.79247	2946914
13.80058	2356110
13.80872	1666945
13.81683	1171230
13.82495	931259
13.83308	837854
13.84120	784966
13.84932	719584
13.85745	625867
13.86557	539306
13.87370	427580
13.88182	353312
13.88993	295875
13.89807	268642
13.90618	253025
13.91432	229449
13.92243	206674
13.93055	196671
13.93868	186819
13.94680	192223
13.95492	203055
13.96305	223206
13.97117	258702
13.97930	295017
13.98742	317969
13.99553	323962
14.00367	284756
14.01178	240611
14.01992	208583
14.02803	184125
14.03615	170322
14.04428	156151
14.05240	151949
14.06053	144908
14.06865	153652
14.07677	151182
14.08490	140803
14.09302	137049
14.10113	140890
14.10927	147407
14.11738	147154
14.12552	139603
14.13363	158775
14.14175	192950
14.14988	212032
14.15800	237094
14.16613	243957
14.17425	244085
14.18237	254101
14.19050	301804
14.19862	389949
14.20675	475670
14.21487	535717
14.22298	533526
14.23112	508007
14.23923	439368
14.24735	399958
14.25548	355371
14.26360	333453
14.27173	290973
14.27985	261460
14.28797	242241
14.29610	223278
14.30422	210592
14.31235	186569
14.32047	177696
14.32858	173201
14.33672	169054
14.34483	163765
14.35295	150545
14.36108	130751
14.36920	122132
14.37733	108731
14.38545	93892
14.39357	98499
14.40170	97776
14.40982	98097
14.41795	111305
14.42607	102814
14.43418	101032
14.44232	102160
14.45043	96225
14.45857	98977
14.46668	104044
14.47480	105692
14.48293	107739
14.49105	103400
14.49917	100177
14.50730	107721
14.51542	111956
14.52355	117094
14.53167	114099
14.53978	114652
14.54792	111187
14.55603	99338
14.56417	87379
14.57228	85845
14.58040	81183
14.58853	78355
14.59665	72602
14.60478	71890
14.61290	77749
14.62102	71930
14.62915	73877
14.63727	73105
14.64538	70177
14.65352	65163
14.66163	68111
14.66977	69032
14.67788	65565
14.68600	72883
14.69413	63451
14.70225	66929
14.71038	64569
14.71850	71539
14.72662	72589
14.73475	82432
14.74287	80908
14.75098	83990
14.75912	85891
14.76723	86686
14.77537	85209
14.78348	98134
14.79160	140795
14.79973	304194
14.80785	755610
14.81598	1691816
14.82410	2998096
14.83222	4379145
14.84035	5073420
14.84847	4623225
14.85660	3553122
14.86472	2383530
14.87283	1414355
14.88097	858222
14.88908	603022
14.89720	453511
14.90533	394301
14.91345	332106
14.92158	301556
14.92970	282694
14.93782	264047
14.94595	250630
14.95407	241415
14.96220	249484
14.97032	254323
14.97843	249910
14.98657	240000
14.99468	220536
15.00280	203314
15.01093	187546
15.01905	168757
15.02718	158229
15.03530	158524
15.04342	153978
15.05155	150643
15.05967	143410
15.06780	134654
15.07592	128252
15.08403	129712
15.09217	123218
15.10028	115790
15.10842	118136
15.11653	113158
15.12465	121560
15.13278	123848
15.14090	128522
15.14902	136876
15.15715	134431
15.16527	123011
15.17340	107564
15.18152	96592
15.18963	88500
15.19777	81795
15.20588	77965
15.21402	71855
15.22213	77930
15.23025	80051
15.23838	75569
15.24650	74695
15.25463	74323
15.26275	74163
15.27087	73107
15.27900	69681
15.28712	68450
15.29523	73785
15.30337	63237
15.31148	57427
15.31962	64510
15.32773	63567
15.33585	68033
15.34398	60067
15.35210	64901
15.36023	61537
15.36835	60636
15.37647	65869
15.38460	63279
15.39272	68330
15.40085	77308
15.40897	80828
15.41708	85750
15.42522	93786
15.43333	88352
15.44145	83426
15.44958	80872
15.45770	83766
15.46583	92836
15.47395	117660
15.48207	176651
15.49020	257267
15.49832	348096
15.50645	390445
15.51457	396607
15.52268	355647
15.53082	294084
15.53893	241721
15.54705	190274
15.55518	161171
15.56330	140440
15.57143	118924
15.57955	107070
15.58767	98335
15.59580	94985
15.60392	87844
15.61205	87158
15.62017	82472
15.62828	77967
15.63642	77990
15.64453	77766
15.65267	74051
15.66078	71486
15.66890	72554
15.67703	68760
15.68515	70510
15.69327	67533
15.70140	65866
15.70952	66138
15.71765	65081
15.72577	66132
15.73388	66249
15.74202	68128
15.75013	77385
15.75827	92551
15.76638	121792
15.77450	187692
15.78263	275593
15.79075	348922
15.79887	373347
15.80700	324449
15.81512	263673
15.82325	195552
15.83137	143692
15.83948	123916
15.84762	98464
15.85573	97403
15.86387	98064
15.87198	90077
15.88010	89906
15.88823	93615
15.89635	90435
15.90448	86780
15.91260	85261
15.92072	88174
15.92885	80366
15.93697	85145
15.94508	91773
15.95322	103832
15.96133	126827
15.96947	165694
15.97758	198363
15.98570	208760
15.99383	198315
16.00195	179477
16.01008	160239
16.01820	130805
16.02632	117741
16.03445	114478
16.04257	108737
16.05070	102387
16.05882	95008
16.06693	91074
16.07507	84796
16.08318	82923
16.09130	83069
16.09943	77515
16.10755	77150
16.11568	77674
16.12380	84978
16.13192	85987
16.14005	89044
16.14817	91336
16.15630	96175
16.16442	96380
16.17253	93861
16.18067	85068
16.18878	79896
16.19690	79369
16.20503	75293
16.21315	73382
16.22128	75566
16.22940	77457
16.23752	77113
16.24565	74085
16.25377	73544
16.26190	73200
16.27002	74534
16.27813	75421
16.28627	88132
16.29438	90924
16.30252	94693
16.31063	92396
16.31875	96092
16.32688	87328
16.33500	82391
16.34312	88120
16.35125	101786
16.35937	136771
16.36750	178933
16.37562	230355
16.38373	249567
16.39187	236950
16.39998	206901
16.40812	165172
16.41623	132929
16.42435	116903
16.43248	96297
16.44060	105513
16.44873	131695
16.45685	213099
16.46497	376088
16.47310	644025
16.48122	905781
16.48933	1075816
16.49747	997455
16.50558	791563
16.51372	536821
16.52183	350710
16.52995	243430
16.53808	183533
16.54620	152306
16.55433	129388
16.56245	125373
16.57057	120607
16.57870	114162
16.58682	116204
16.59493	125714
16.60307	129909
16.61118	145666
16.61932	149783
16.62743	139602
16.63555	139532
16.64368	125127
16.65180	110797
16.65993	103015
16.66805	96850
16.67617	95177
16.68430	91485
16.69242	93052
16.70055	86757
16.70867	85251
16.71678	83465
16.72492	84899
16.73303	80629
16.74115	79870
16.74928	78605
16.75740	88458
16.76553	85989
16.77365	92523
16.78177	87420
16.78990	80303
16.79802	79503
16.80615	75405
16.81427	74036
16.82238	77324
16.83052	68967
16.83863	70160
16.84675	70426
16.85488	64824
16.86300	64414
16.87113	64419
16.87925	65326
16.88737	66269
16.89550	61909
16.90362	66204
16.91175	65073
16.91987	65940
16.92798	63549
16.93612	64040
16.94423	64957
16.95237	61634
16.96048	62490
16.96860	60858
16.97673	64981
16.98485	62673
16.99297	63717
17.00110	67464
17.00922	63677
17.01735	62101
17.02547	60847
17.03358	64700
17.04172	66364
17.04983	69425
17.05797	72865
17.06608	74576
17.07420	73989
17.08233	74256
17.09045	86404
17.09858	95476
17.10670	102785
17.11482	113308
17.12295	121969
17.13107	122773
17.13918	112861
17.14732	105410
17.15543	101790
17.16357	93122
17.17168	85845
17.17980	78243
17.18793	77773
17.19605	72776
17.20418	65538
17.21230	65842
17.22042	65157
17.22855	61419
17.23667	67670
17.24478	68264
17.25292	69619
17.26103	67178
17.26917	62093
17.27728	61951
17.28540	59432
17.29353	62822
17.30165	60505
17.30978	64764
17.31790	66330
17.32602	75052
17.33415	86610
17.34227	101095
17.35040	112512
17.35852	123065
17.36663	125326
17.37477	121395
17.38288	114968
17.39100	112252
17.39913	98100
17.40725	97475
17.41538	99348
17.42350	100085
17.43162	100636
17.43975	95874
17.44787	96974
17.45600	87871
17.46412	81047
17.47223	83430
17.48037	79296
17.48848	76335
17.49662	72897
17.50473	71029
17.51285	65895
17.52098	70659
17.52910	75301
17.53722	74357
17.54535	73011
17.55347	78225
17.56160	88221
17.56972	108647
17.57783	160638
17.58597	238345
17.59408	346835
17.60222	464934
17.61033	557962
17.61845	573052
17.62658	516267
17.63470	432242
17.64282	345809
17.65095	301948
17.65907	305127
17.66720	306557
17.67532	305196
17.68343	276210
17.69157	236193
17.69968	205454
17.70782	173570
17.71593	149260
17.72405	135841
17.73218	129869
17.74030	119034
17.74843	116250
17.75655	112308
17.76467	106838
17.77280	97076
17.78092	103094
17.78903	100001
17.79717	102194
17.80528	112972
17.81342	128086
17.82153	161708
17.82965	181912
17.83778	201965
17.84590	195184
17.85403	180672
17.86215	170421
17.87027	160517
17.87840	146812
17.88652	134867
17.89465	115439
17.90277	98859
17.91088	90065
17.91902	81729
17.92713	77926
17.93525	72866
17.94338	76612
17.95150	71202
17.95963	69671
17.96775	69969
17.97587	67672
17.98400	66065
17.99212	71532
18.00025	70608
18.00837	69200
18.01648	82036
18.02462	94014
18.03273	111801
18.04085	127468
18.04898	142347
18.05710	162730
18.06523	235934
18.07335	410285
18.08147	699919
18.08960	1050217
18.09772	1278523
18.10585	1360208
18.11397	1189657
18.12208	923149
18.13022	658367
18.13833	491616
18.14647	392844
18.15458	336756
18.16270	289365
18.17083	258782
18.17895	238202
18.18707	211789
18.19520	204750
18.20332	196087
18.21145	167958
18.21957	163180
18.22768	144173
18.23582	146828
18.24393	132937
18.25207	128248
18.26018	121800
18.26830	118893
18.27643	111917
18.28455	105667
18.29267	92138
18.30080	82316
18.30892	79795
18.31705	68098
18.32517	71158
18.33328	75559
18.34142	68900
18.34953	70382
18.35767	70079
18.36578	67297
18.37390	68639
18.38203	76156
18.39015	94217
18.39828	133498
18.40640	187957
18.41452	268532
18.42265	351935
18.43077	418983
18.43888	439940
18.44702	396009
18.45513	357982
18.46327	319008
18.47138	303532
18.47950	311347
18.48763	302038
18.49575	281462
18.50388	244244
18.51200	202884
18.52012	162009
18.52825	134107
18.53637	109893
18.54450	103500
18.55262	99835
18.56073	95612
18.56887	94986
18.57698	107665
18.58510	121306
18.59323	168234
18.60135	206458
18.60948	231066
18.61760	248766
18.62572	245311
18.63385	266158
18.64197	261534
18.65010	258642
18.65822	258671
18.66633	239015
18.67447	250749
18.68258	241496
18.69070	242746
18.69883	238737
18.70695	250073
18.71508	251842
18.72320	247349
18.73132	236505
18.73945	236201
18.74757	226867
18.75570	227165
18.76382	224310
18.77193	216510
18.78007	216673
18.78818	219580
18.79632	209911
18.80443	219518
18.81255	213471
18.82068	206140
18.82880	205489
18.83692	208338
18.84505	205132
18.85317	207107
18.86130	202319
18.86942	215193
18.87753	210505
18.88567	213774
18.89378	208404
18.90192	210100
18.91003	207920
18.91815	203743
18.92628	201387
18.93440	207313
18.94253	208162
18.95065	218220
18.95877	216320
18.96690	210725
18.97502	217437
18.98313	218932
18.99127	204048
18.99938	194553
19.00752	190484
19.01563	185366
19.02375	181208
19.03188	182505
19.04000	177069
19.04813	174715
19.05625	179492
19.06437	179431
19.07250	201656
19.08062	247625
19.08873	324909
19.09687	422546
19.10498	522325
19.11312	563733
19.12123	523691
19.12935	461378
19.13748	377749
19.14560	316332
19.15373	268192
19.16185	232682
19.16997	211006
19.17810	202616
19.18622	192090
19.19435	192895
19.20247	181508
19.21058	178626
19.21872	183849
19.22683	169380
19.23495	160948
19.24308	160782
19.25120	162527
19.25933	153313
19.26745	153512
19.27557	160807
19.28370	154975
19.29182	164085
19.29995	159690
19.30807	157035
19.31618	164035
19.32432	163559
19.33243	167069
19.34055	163896
19.34868	168660
19.35680	184658
19.36493	207169
19.37305	231761
19.38117	241960
19.38930	238681
19.39742	214549
19.40555	197084
19.41367	181093
19.42178	170293
19.42992	150024
19.43803	143307
19.44617	145635
19.45428	139555
19.46240	139748
19.47053	136293
19.47865	153301
19.48677	179515
19.49490	235518
19.50302	310355
19.51115	417173
19.51927	453472
19.52738	448977
19.53552	388506
19.54363	308303
19.55177	246088
19.55988	198369
19.56800	171141
19.57613	155289
19.58425	142080
19.59238	134962
19.60050	134771
19.60862	130051
19.61675	127857
19.62487	134951
19.63298	155502
19.64112	196676
19.64923	267554
19.65737	393143
19.66548	535823
19.67360	660113
19.68173	741343
19.68985	704107
19.69798	637416
19.70610	526869
19.71422	456543
19.72235	379545
19.73047	335905
19.73858	293590
19.74672	258716
19.75483	242404
19.76297	224452
19.77108	207646
19.77920	207385
19.78733	214013
19.79545	234206
19.80358	248125
19.81170	239452
19.81982	223461
19.82795	211333
19.83607	189822
19.84420	176242
19.85232	177383
19.86043	239726
19.86857	428475
19.87668	820015
19.88480	1443800
19.89293	2233538
19.90105	2971332
19.90918	3184012
19.91730	2985126
19.92542	2320118
19.93355	1677679
19.94167	1139505
19.94980	803251
19.95792	628431
19.96603	510727
19.97417	460711
19.98228	425275
19.99042	397514
19.99853	365654
20.00665	353154
20.01478	327870
20.02290	330512
20.03102	292748
20.03915	294421
20.04727	278139
20.05540	274852
20.06352	270317
20.07163	297699
20.07977	317042
20.08788	324247
20.09602	331794
20.10413	299915
20.11225	281168
20.12038	235227
20.12850	211534
20.13662	197392
20.14475	214959
20.15287	268813
20.16100	372568
20.16912	578325
20.17723	821187
20.18537	1098166
20.19348	1319466
20.20162	1394294
20.20973	1357374
20.21785	1195847
20.22598	1010571
20.23410	817639
20.24223	716398
20.25035	727970
20.25847	833040
20.26660	1003023
20.27472	1140775
20.28283	1248629
20.29097	1239107
20.29908	1128708
20.30722	961717
20.31533	760436
20.32345	577283
20.33158	444318
20.33970	346532
20.34783	270627
20.35595	225482
20.36407	190531
20.37220	178044
20.38032	159391
20.38843	142867
20.39657	136881
20.40468	135062
20.41282	144273
20.42093	142953
20.42905	153817
20.43718	174792
20.44530	194323
20.45343	210324
20.46155	215124
20.46967	217438
20.47780	213075
20.48592	193244
20.49405	174382
20.50217	154536
20.51028	143845
20.51842	129825
20.52653	123924
20.53465	114370
20.54278	110270
20.55090	111019
20.55903	111277
20.56715	105038
20.57527	102604
20.58340	97730
20.59152	96421
20.59965	98242
20.60777	98032
20.61588	94185
20.62402	99469
20.63213	96094
20.64027	100270
20.64838	104020
20.65650	100961
20.66463	100051
20.67275	98801
20.68087	94451
20.68900	91339
20.69712	88050
20.70525	82243
20.71337	86550
20.72148	81926
20.72962	83692
20.73773	87646
20.74587	88583
20.75398	91658
20.76210	93919
20.77023	99024
20.77835	110059
20.78648	129241
20.79460	184236
20.80272	265993
20.81085	372569
20.81897	453152
20.82708	508841
20.83522	456836
20.84333	370246
20.85147	273762
20.85958	189909
20.86770	145672
20.87583	120636
20.88395	109608
20.89208	106915
20.90020	113484
20.90832	113297
20.91645	119318
20.92457	129783
20.93268	136784
20.94082	132848
20.94893	131677
20.95707	128975
20.96518	125516
20.97330	112192
20.98143	103517
20.98955	96858
20.99768	86195
21.00580	90479
21.01392	89289
21.02205	90131
21.03017	85750
21.03830	89560
21.04642	89306
21.05453	90138
21.06267	89758
21.07078	89745
21.07890	89578
21.08703	87955
21.09515	90200
21.10328	87564
21.11140	80356
21.11952	83409
21.12765	96510
21.13577	105032
21.14390	130135
21.15202	157837
21.16013	203304
21.16827	219491
21.17638	218101
21.18450	183758
21.19263	164116
21.20075	130852
21.20888	115838
21.21700	109064
21.22512	96359
21.23325	91937
21.24137	87975
21.24950	89641
21.25762	84908
21.26573	86519
21.27387	84017
21.28198	82435
21.29012	83532
21.29823	81814
21.30635	84256
21.31448	85351
21.32260	75958
21.33072	81605
21.33885	74066
21.34697	74023
21.35510	78355
21.36322	79061
21.37133	81922
21.37947	85154
21.38758	91728
21.39572	103994
21.40383	115718
21.41195	126014
21.42008	135793
21.42820	136599
21.43633	118620
21.44445	102243
21.45257	98506
21.46070	91812
21.46882	92102
21.47693	85592
21.48507	82669
21.49318	80695
21.50132	74992
21.50943	79892
21.51755	71935
21.52568	79120
21.53380	73147
21.54193	79113
21.55005	75971
21.55817	72347
21.56630	76246
21.57442	72397
21.58253	79611
21.59067	91962
21.59878	90628
21.60692	88425
21.61503	103088
21.62315	114810
21.63128	126893
21.63940	149404
21.64753	161054
21.65565	167139
21.66377	163212
21.67190	151761
21.68002	141114
21.68815	140560
21.69627	121274
21.70438	114107
21.71252	104708
21.72063	97989
21.72875	86646
21.73688	84084
21.74500	83931
21.75313	84251
21.76125	89718
21.76937	84714
21.77750	87528
21.78562	93724
21.79375	104254
21.80187	100686
21.80998	111966
21.81812	117276
21.82623	127346
21.83437	136319
21.84248	147380
21.85060	151226
21.85873	140862
21.86685	126926
21.87497	115675
21.88310	101523
21.89122	97565
21.89935	91840
21.90747	87951
21.91558	88567
21.92372	87644
21.93183	81059
21.93997	78442
21.94808	73261
21.95620	71921
21.96433	71798
21.97245	66572
21.98057	70618
21.98870	67701
21.99682	65114
22.00495	66480
22.01307	67061
22.02118	67653
22.02932	73349
22.03743	71896
22.04557	71324
22.05368	72215
22.06180	73703
22.06993	68450
22.07805	67902
22.08618	66409
22.09430	66899
22.10242	67962
22.11055	67879
22.11867	69842
22.12678	71406
22.13492	67693
22.14303	67898
22.15117	69676
22.15928	70956
22.16740	67792
22.17553	71535
22.18365	67915
22.19178	68632
22.19990	69012
22.20802	70824
22.21615	72797
22.22427	78859
22.23238	83443
22.24052	78293
22.24863	80327
22.25677	79326
22.26488	73032
22.27300	75450
22.28113	81813
22.28925	85852
22.29738	89515
22.30550	85353
22.31362	93526
22.32175	93345
22.32987	88208
22.33800	81992
22.34612	77982
22.35423	75149
22.36237	75212
22.37048	70337
22.37860	71138
22.38673	80487
22.39485	98695
22.40298	117664
22.41110	139670
22.41922	163653
22.42735	169617
22.43547	179715
22.44360	151692
22.45172	128680
22.45983	115022
22.46797	99575
22.47608	97038
22.48422	101129
22.49233	103534
22.50045	113273
22.50858	125704
22.51670	133214
22.52482	133472
22.53295	131307
22.54107	125887
22.54920	113342
22.55732	99023
22.56543	95359
22.57357	87255
22.58168	83232
22.58982	80176
22.59793	79886
22.60605	76304
22.61418	74240
22.62230	67548
22.63042	64854
22.63855	71181
22.64667	74151
22.65480	64202
22.66292	73170
22.67103	80943
22.67917	75878
22.68728	77498
22.69542	85311
22.70353	90876
22.71165	97745
22.71978	104888
22.72790	101856
22.73603	98396
22.74415	87280
22.75227	83670
22.76040	82769
22.76852	75809
22.77663	82937
22.78477	78552
22.79288	90759
22.80102	102100
22.80913	99890
22.81725	111791
22.82538	106204
22.83350	98018
22.84163	100735
22.84975	90273
22.85787	92623
22.86600	98832
22.87412	115628
22.88225	133397
22.89037	159771
22.89848	167339
22.90662	179493
22.91473	186278
22.92285	194447
22.93098	212434
22.93910	200256
22.94723	190045
22.95535	173810
22.96347	156771
22.97160	139171
22.97972	131713
22.98785	117731
22.99597	109265
23.00408	110366
23.01222	98024
23.02033	86992
23.02845	84973
23.03658	84695
23.04470	83031
23.05283	88034
23.06095	97702
23.06907	92450
23.07720	99544
23.08532	94224
23.09345	96260
23.10157	94932
23.10968	93668
23.11782	90607
23.12593	92737
23.13407	83929
23.14218	87210
23.15030	87654
23.15843	89413
23.16655	88297
23.17467	86864
23.18280	89929
23.19092	86290
23.19905	90822
23.20717	89317
23.21528	81534
23.22342	83780
23.23153	80976
23.23967	85071
23.24778	85675
23.25590	86239
23.26403	97353
23.27215	96075
23.28028	94041
23.28840	93470
23.29652	91928
23.30465	87052
23.31277	83995
23.32088	92384
23.32902	92842
23.33713	105752
23.34527	115475
23.35338	141371
23.36150	162369
23.36963	174000
23.37775	191057
23.38588	209342
23.39400	199259
23.40212	205511
23.41025	195335
23.41837	189843
23.42648	187906
23.43462	182468
23.44273	175161
23.45087	168724
23.45898	170986
23.46710	158402
23.47523	150870
23.48335	140193
23.49148	139305
23.49960	138869
23.50772	131576
23.51585	118326
23.52397	119544
23.53210	117629
23.54022	115159
23.54833	114393
23.55647	115725
23.56458	128250
23.57270	143687
23.58083	176130
23.58895	224387
23.59708	270364
23.60520	306978
23.61332	309717
23.62145	279931
23.62957	244654
23.63770	204489
23.64582	187527
23.65393	183451
23.66207	194497
23.67018	195278
23.67830	191480
23.68643	170872
23.69455	151756
23.70268	132452
23.71080	112813
23.71892	111327
23.72705	98218
23.73517	104096
23.74330	140827
23.75142	271620
23.75953	668503
23.76767	1573807
23.77578	3006994
23.78392	4660383
23.79203	5912081
23.80015	6178547
23.80828	5569193
23.81640	4764607
23.82452	3494839
23.83265	2526510
23.84077	1870240
23.84890	1382494
23.85702	1080958
23.86513	900201
23.87327	737690
23.88138	642762
23.88952	561138
23.89763	520546
23.90575	479057
23.91388	444493
23.92200	416774
23.93013	376277
23.93825	361055
23.94637	336794
23.95450	306300
23.96262	293217
23.97073	286718
23.97887	257567
23.98698	249875
23.99512	260658
24.00323	290427
24.01135	373539
24.01948	546833
24.02760	794194
24.03573	1001041
24.04385	1118464
24.05197	1039286
24.06010	799599
24.06822	568778
24.07633	395465
24.08447	287395
24.09258	230796
24.10072	209118
24.10883	198615
24.11695	186275
24.12508	186483
24.13320	195941
24.14133	209867
24.14945	214954
24.15757	220535
24.16570	219952
24.17382	197123
24.18195	195153
24.19007	201705
24.19818	196428
24.20632	200182
24.21443	195287
24.22255	193390
24.23068	188619
24.23880	164753
24.24693	156309
24.25505	145638
24.26317	140164
24.27130	131705
24.27942	128577
24.28755	122511
24.29567	123273
24.30378	129068
24.31192	130243
24.32003	128722
24.32817	122071
24.33628	125564
24.34440	128087
24.35253	123287
24.36065	119232
24.36877	119562
24.37690	137984
24.38502	164618
24.39315	213135
24.40127	254424
24.40938	283904
24.41752	280445
24.42563	229428
24.43377	182495
24.44188	153246
24.45000	129052
24.45813	120803
24.46625	126209
24.47437	133085
24.48250	145740
24.49062	148567
24.49875	162066
24.50687	162125
24.51498	169465
24.52312	177597
24.53123	170984
24.53937	175972
24.54748	174744
24.55560	174003
24.56373	181772
24.57185	187483
24.57998	180677
24.58810	179197
24.59622	172199
24.60435	171661
24.61247	166837
24.62058	164504
24.62872	159974
24.63683	162880
24.64497	159489
24.65308	162553
24.66120	166895
24.66933	170415
24.67745	168255
24.68558	158298
24.69370	165576
24.70182	152179
24.70995	158454
24.71807	154397
24.72618	154893
24.73432	153306
24.74243	154369
24.75057	152457
24.75868	157347
24.76680	153571
24.77493	166610
24.78305	175273
24.79118	181793
24.79930	188431
24.80742	193913
24.81555	188945
24.82367	196171
24.83180	203396
24.83992	221820
24.84803	246965
24.85617	287782
24.86428	353777
24.87240	422206
24.88053	519005
24.88865	624663
24.89678	682529
24.90490	654101
24.91302	574113
24.92115	472526
24.92927	366421
24.93740	285919
24.94552	235825
24.95363	202972
24.96177	187081
24.96988	172680
24.97802	177746
24.98613	175315
24.99425	166229
25.00238	163449
25.01050	174593
25.01862	172473
25.02675	161744
25.03487	163359
25.04300	162096
25.05112	163872
25.05923	155159
25.06737	153195
25.07548	145739
25.08362	137996
25.09173	141278
25.09985	164279
25.10798	270087
25.11610	509756
25.12422	964927
25.13235	1657616
25.14047	2420153
25.14860	2847811
25.15672	2967674
25.16483	2593611
25.17297	1937568
25.18108	1267944
25.18922	784085
25.19733	490799
25.20545	311466
25.21358	224343
25.22170	177145
25.22983	162478
25.23795	153804
25.24607	172343
25.25420	196045
25.26232	229177
25.27043	235918
25.27857	244260
25.28668	241828
25.29482	213066
25.30293	186585
25.31105	164801
25.31918	149603
25.32730	128622
25.33543	127900
25.34355	125363
25.35167	110430
25.35980	104511
25.36792	98716
25.37605	94772
25.38417	92546
25.39228	86383
25.40042	88272
25.40853	87581
25.41665	85965
25.42478	84808
25.43290	80469
25.44103	86295
25.44915	86359
25.45727	90273
25.46540	89797
25.47352	88215
25.48165	101969
25.48977	108461
25.49788	123278
25.50602	147406
25.51413	184228
25.52225	206813
25.53038	219485
25.53850	234604
25.54663	236968
25.55475	248358
25.56287	253212
25.57100	255331
25.57912	265611
25.58725	259770
25.59537	263697
25.60348	263101
25.61162	264384
25.61973	264684
25.62787	258355
25.63598	257981
25.64410	253505
25.65223	252820
25.66035	255941
25.66847	247179
25.67660	258037
25.68472	259141
25.69285	263762
25.70097	258231
25.70908	259877
25.71722	250679
25.72533	252811
25.73347	243848
25.74158	234956
25.74970	232505
25.75783	232614
25.76595	231098
25.77408	233907
25.78220	232224
25.79032	234129
25.79845	229388
25.80657	223112
25.81468	233379
25.82282	238253
25.83093	239425
25.83907	246875
25.84718	256819
25.85530	257892
25.86343	244334
25.87155	235377
25.87968	222430
25.88780	214938
25.89592	208302
25.90405	205787
25.91217	190983
25.92028	185718
25.92842	178519
25.93653	183615
25.94467	184806
25.95278	180475
25.96090	186615
25.96903	180091
25.97715	170403
25.98528	172805
25.99340	170432
26.00152	162059
26.00965	164706
26.01777	153369
26.02590	158946
26.03402	149893
26.04213	158473
26.05027	154586
26.05838	155485
26.06650	158162
26.07463	160976
26.08275	156738
26.09088	157603
26.09900	161620
26.10712	154406
26.11525	161959
26.12337	155655
26.13150	155792
26.13962	173944
26.14773	179672
26.15587	172982
26.16398	176119
26.17212	168274
26.18023	165255
26.18835	150730
26.19648	148662
26.20460	142711
26.21272	141540
26.22085	135661
26.22897	141193
26.23710	134545
26.24522	130366
26.25333	129500
26.26147	125197
26.26958	132243
26.27772	130686
26.28583	123652
26.29395	124470
26.30208	122006
26.31020	119834
26.31832	119188
26.32645	116077
26.33457	123694
26.34270	116696
26.35082	128148
26.35893	148512
26.36707	185713
26.37518	249628
26.38332	341140
26.39143	422611
26.39955	489701
26.40768	508357
26.41580	463866
26.42393	397671
26.43205	319931
26.44017	243003
26.44830	194199
26.45642	150740
26.46453	130996
26.47267	127419
26.48078	120755
26.48892	109877
26.49703	113379
26.50515	113525
26.51328	104813
26.52140	98755
26.52953	97463
26.53765	94187
26.54577	97808
26.55390	94576
26.56202	95879
26.57013	95475
26.57827	94856
26.58638	91833
26.59452	91748
26.60263	90875
26.61075	86230
26.61888	88935
26.62700	83208
26.63513	91785
26.64325	87633
26.65137	93657
26.65950	98972
26.66762	94245
26.67575	91055
26.68387	98339
26.69198	95767
26.70012	97108
26.70823	92665
26.71635	90639
26.72448	84533
26.73260	86075
26.74073	86520
26.74885	89022
26.75697	86787
26.76510	87236
26.77322	84883
26.78135	94468
26.78947	85146
26.79758	90983
26.80572	90126
26.81383	94919
26.82197	92411
26.83008	91337
26.83820	88771
26.84633	87387
26.85445	87280
26.86257	91179
26.87070	92993
26.87882	89639
26.88695	87550
26.89507	82692
26.90318	86556
26.91132	88063
26.91943	82416
26.92757	88195
26.93568	85213
26.94380	90123
26.95193	97856
26.96005	113095
26.96817	157363
26.97630	275802
26.98442	469056
26.99255	858690
27.00067	1565626
27.00878	2623940
27.01692	3821463
27.02503	4389118
27.03317	4321128
27.04128	3824027
27.04940	3107848
27.05753	2436960
27.06565	1891123
27.07378	1425082
27.08190	1108107
27.09002	875865
27.09815	714482
27.10627	600282
27.11438	540801
27.12252	482817
27.13063	436739
27.13877	395821
27.14688	372352
27.15500	335219
27.16313	340808
27.17125	322599
27.17938	327669
27.18750	329519
27.19562	316683
27.20375	306752
27.21187	279971
27.22000	261011
27.22812	245801
27.23623	223990
27.24437	211980
27.25248	219545
27.26060	195320
27.26873	196499
27.27685	183920
27.28498	176226
27.29310	170989
27.30122	170296
27.30935	165775
27.31747	164970
27.32560	160026
27.33372	152830
27.34183	151825
27.34997	150675
27.35808	151383
27.36620	145082
27.37433	146062
27.38245	139098
27.39058	128634
27.39870	135160
27.40682	133182
27.41495	126937
27.42307	133262
27.43120	130741
27.43932	120164
27.44743	129525
27.45557	123729
27.46368	117255
27.47182	112110
27.47993	117205
27.48805	111167
27.49618	109233
27.50430	110856
27.51242	109412
27.52055	114182
27.52867	115593
27.53680	114471
27.54492	111718
27.55303	116871
27.56117	104826
27.56928	112618
27.57742	112972
27.58553	124383
27.59365	128414
27.60178	145579
27.60990	141355
27.61803	141755
27.62615	131918
27.63427	122359
27.64240	117830
27.65052	110828
27.65863	101110
27.66677	100940
27.67488	105158
27.68302	98556
27.69113	104690
27.69925	106751
27.70738	107072
27.71550	95598
27.72363	95481
27.73175	96313
27.73987	94215
27.74800	88376
27.75612	82290
27.76423	85430
27.77237	86688
27.78048	88098
27.78862	91206
27.79673	89588
27.80485	102342
27.81298	89914
27.82110	89394
27.82923	95882
27.83735	91512
27.84547	84245
27.85360	90864
27.86172	81715
27.86985	87542
27.87797	87402
27.88608	80447
27.89422	83110
27.90233	84769
27.91045	81334
27.91858	76676
27.92670	81222
27.93483	76051
27.94295	77066
27.95107	81307
27.95920	75040
27.96732	75857
27.97545	80621
27.98357	76620
27.99168	80240
27.99982	78467
28.00793	85128
28.01605	89289
28.02418	94265
28.03230	111216
28.04043	126104
28.04855	129692
28.05667	134531
28.06480	127922
28.07292	120055
28.08105	108758
28.08917	101029
28.09728	95388
28.10542	89433
28.11353	84293
28.12167	82768
28.12978	79025
28.13790	76235
28.14603	79831
28.15415	76295
28.16227	71299
28.17040	72917
28.17852	75403
28.18665	80226
28.19477	91083
28.20288	112578
28.21102	124289
28.21913	126421
28.22727	126261
28.23538	121437
28.24350	118222
28.25163	101325
28.25975	92363
28.26788	93097
28.27600	86374
28.28412	84478
28.29225	98590
28.30037	110713
28.30848	140066
28.31662	173745
28.32473	248200
28.33287	307311
28.34098	397514
28.34910	493540
28.35723	580436
28.36535	687875
28.37348	755890
28.38160	774279
28.38972	791069
28.39785	782214
28.40597	730431
28.41408	669354
28.42222	620576
28.43033	558040
28.43847	486535
28.44658	451310
28.45470	391930
28.46283	353786
28.47095	312091
28.47908	288470
28.48720	281458
28.49532	259582
28.50345	238872
28.51157	234914
28.51970	216130
28.52782	203461
28.53593	189136
28.54407	175533
28.55218	169490
28.56030	168827
28.56843	151009
28.57655	145621
28.58468	142587
28.59280	139301
28.60092	140491
28.60905	140413
28.61717	145283
28.62530	147083
28.63342	140475
28.64153	145042
28.64967	145900
28.65778	147670
28.66592	146591
28.67403	149219
28.68215	142927
28.69028	130302
28.69840	130283
28.70652	124612
28.71465	119454
28.72277	110521
28.73090	112721
28.73902	108128
28.74713	119711
28.75527	126690
28.76338	148712
28.77152	171708
28.77963	186879
28.78775	182403
28.79588	170003
28.80400	150298
28.81212	130633
28.82025	121981
28.82837	114365
28.83650	108392
28.84462	103461
28.85273	100149
28.86087	100337
28.86898	100968
28.87712	103223
28.88523	106101
28.89335	108280
28.90148	109454
28.90960	109436
28.91773	107298
28.92585	100664
28.93397	99886
28.94210	108754
28.95022	102146
28.95833	103096
28.96647	103424
28.97458	107438
28.98272	96024
28.99083	92773
28.99895	91768
29.00708	88070
29.01520	84997
29.02333	87024
29.03145	86391
29.03957	83541
29.04770	83705
29.05582	93940
29.06393	80326
29.07207	86543
29.08018	84965
29.08832	89771
29.09643	88055
29.10455	88197
29.11268	85319
29.12080	81051
29.12893	80544
29.13705	81241
29.14517	78643
29.15330	78510
29.16142	81544
29.16955	85085
29.17767	83422
29.18578	82365
29.19392	89431
29.20203	106063
29.21015	119914
29.21828	128820
29.22640	154558
29.23453	193593
29.24265	267483
29.25077	391755
29.25890	537595
29.26702	665663
29.27515	683455
29.28327	607680
29.29138	455483
29.29952	318741
29.30763	208965
29.31577	140204
29.32388	104683
29.33200	92541
29.34013	82435
29.34825	80175
29.35637	80295
29.36450	76512
29.37262	74790
29.38075	78530
29.38887	81890
29.39698	79105
29.40512	78126
29.41323	82622
29.42137	77083
29.42948	79143
29.43760	82256
29.44573	80862
29.45385	75860
29.46197	82698
29.47010	79786
29.47822	75555
29.48635	79934
29.49447	85257
29.50258	87891
29.51072	91648
29.51883	87805
29.52697	83336
29.53508	86971
29.54320	79238
29.55133	72223
29.55945	76715
29.56758	80123
29.57570	73812
29.58382	63772
29.59195	67017
29.60007	69835
29.60818	70747
29.61632	66098
29.62443	69727
29.63257	71226
29.64068	72955
29.64880	71294
29.65693	66668
29.66505	67313
29.67318	66150
29.68130	70949
29.68942	69163
29.69755	70194
29.70567	75953
29.71380	71759
29.72192	75160
29.73003	71758
29.73817	69577
29.74628	67045
29.75440	69042
29.76253	74550
29.77065	67909
29.77878	66891
29.78690	63449
29.79502	61106
29.80315	63310
29.81127	59719
29.81940	62437
29.82752	67307
29.83563	61522
29.84377	60196
29.85188	61019
29.86000	63081
29.86813	68727
29.87625	71410
29.88438	78487
29.89250	86105
29.90062	97815
29.90875	103714
29.91687	100808
29.92500	90767
29.93312	91166
29.94123	94379
29.94937	98713
29.95748	106985
29.96562	130613
29.97373	149802
29.98185	165950
29.98998	206417
29.99810	224439
30.00622	245462
30.01435	277817
30.02247	295877
30.03060	303091
30.03872	303303
30.04683	315403
30.05497	302655
30.06308	300114
30.07122	303604
30.07933	291859
30.08745	286643
30.09558	276286
30.10370	258056
30.11182	244145
30.11995	228163
30.12807	219304
30.13620	215101
30.14432	200720
30.15243	196874
30.16057	180221
30.16868	170295
30.17682	161777
30.18493	170665
30.19305	171384
30.20118	159387
30.20930	156315
30.21743	146938
30.22555	146345
30.23367	129475
30.24180	123755
30.24992	115882
30.25803	114925
30.26617	106095
30.27428	101387
30.28242	100752
30.29053	100696
30.29865	105289
30.30678	96027
30.31490	97165
30.32303	93603
30.33115	93900
30.33927	88402
30.34740	98229
30.35552	89736
30.36365	90104
30.37177	89436
30.37988	88680
30.38802	84302
30.39613	80865
30.40425	83082
30.41238	78677
30.42050	84171
30.42863	83376
30.43675	81291
30.44487	78548
30.45300	81442
30.46112	82251
30.46925	77539
30.47737	75973
30.48548	82477
30.49362	74418
30.50173	78902
30.50987	76983
30.51798	75102
30.52610	74556
30.53423	70527
30.54235	70843
30.55047	71542
30.55860	74047
30.56672	73346
30.57485	72810
30.58297	70161
30.59108	75773
30.59922	76952
30.60733	72260
30.61547	69258
30.62358	65631
30.63170	73824
30.63983	66689
30.64795	68103
30.65607	68795
30.66420	68757
30.67232	68538
30.68045	62932
30.68857	67581
30.69668	70443
30.70482	61007
30.71293	72990
30.72107	63704
30.72918	59327
30.73730	65478
30.74543	68083
30.75355	68354
30.76168	67369
30.76980	67600
30.77792	77914
30.78605	82296
30.79417	100261
30.80228	117813
30.81042	130268
30.81853	138282
30.82667	128756
30.83478	129887
30.84290	119846
30.85103	111339
30.85915	106078
30.86728	113269
30.87540	109626
30.88352	115646
30.89165	113503
30.89977	106741
30.90788	111005
30.91602	111625
30.92413	100702
30.93227	102540
30.94038	101698
30.94850	102418
30.95663	99468
30.96475	102037
30.97288	104572
30.98100	104456
30.98912	102572
30.99725	113081
31.00537	100015
31.01350	103129
31.02162	105587
31.02973	108686
31.03787	103226
31.04598	104758
31.05410	102252
31.06223	105288
31.07035	108385
31.07848	115542
31.08660	125953
31.09472	137641
31.10285	158135
31.11097	159853
31.11910	149226
31.12722	136184
31.13533	124132
31.14347	120790
31.15158	119259
31.15972	111311
31.16783	115346
31.17595	120816
31.18408	136654
31.19220	166278
31.20032	218433
31.20845	276901
31.21657	331159
31.22470	385569
31.23282	392954
31.24093	363429
31.24907	286625
31.25718	223964
31.26532	174651
31.27343	137821
31.28155	112289
31.28968	102723
31.29780	96467
31.30592	95406
31.31405	96973
31.32217	91567
31.33030	96095
31.33842	93835
31.34653	95043
31.35467	97117
31.36278	94658
31.37092	83556
31.37903	87855
31.38715	86653
31.39528	93550
31.40340	89928
31.41153	94654
31.41965	90033
31.42777	92819
31.43590	86457
31.44402	86560
31.45213	83616
31.46027	79957
31.46838	79130
31.47652	80494
31.48463	88438
31.49275	86576
31.50088	84742
31.50900	86389
31.51713	85990
31.52525	89586
31.53337	91718
31.54150	92458
31.54962	84837
31.55775	82520
31.56587	82486
31.57398	77688
31.58212	77787
31.59023	83378
31.59835	78893
31.60648	73405
31.61460	73033
31.62273	82916
31.63085	80305
31.63897	72088
31.64710	74697
31.65522	80914
31.66335	84017
31.67147	85211
31.67958	78025
31.68772	77761
31.69583	77226
31.70395	80538
31.71208	75589
31.72020	72994
31.72833	72330
31.73645	70867
31.74457	69176
31.75270	70014
31.76082	71316
31.76895	78091
31.77707	71412
31.78518	73976
31.79332	73664
31.80143	78537
31.80957	72703
31.81768	76488
31.82580	75448
31.83393	73347
31.84205	72706
31.85017	75411
31.85830	74483
31.86642	80561
31.87455	82828
31.88267	88425
31.89078	90041
31.89892	97366
31.90703	105016
31.91517	128149
31.92328	143084
31.93140	159815
31.93953	189202
31.94765	199311
31.95577	214672
31.96390	233976
31.97202	239448
31.98015	256954
31.98827	256673
31.99638	258056
32.00452	248854
32.01263	244034
32.02077	225724
32.02888	217593
32.03700	217651
32.04513	192726
32.05325	185150
32.06138	176659
32.06950	180231
32.07762	168535
32.08575	165002
32.09387	145434
32.10198	135351
32.11012	137648
32.11823	131457
32.12637	119268
32.13448	115035
32.14260	116861
32.15073	104752
32.15885	110895
32.16698	95406
32.17510	99224
32.18322	95407
32.19135	98121
32.19947	89967
32.20760	91406
32.21572	94638
32.22383	88491
32.23197	89073
32.24008	87710
32.24820	87846
32.25633	89115
32.26445	96062
32.27258	82146
32.28070	91206
32.28882	90094
32.29695	84763
32.30507	82046
32.31320	80940
32.32132	77674
32.32943	79040
32.33757	80303
32.34568	79400
32.35380	81976
32.36193	82626
32.37005	77074
32.37818	80019
32.38630	76606
32.39442	84825
32.40255	77627
32.41067	77944
32.41880	80529
32.42692	75267
32.43503	71928
32.44317	74147
32.45128	77534
32.45942	71169
32.46753	70878
32.47565	67362
32.48378	72574
32.49190	69690
32.50002	69728
32.50815	65067
32.51627	65762
32.52440	71953
32.53252	70218
32.54063	74848
32.54877	70230
32.55688	77013
32.56502	77170
32.57313	70891
32.58125	68934
32.58938	72969
32.59750	70377
32.60563	67319
32.61375	64975
32.62187	67106
32.63000	64094
32.63812	68278
32.64623	80647
32.65437	93338
32.66248	111356
32.67062	118729
32.67873	117885
32.68685	111478
32.69498	110425
32.70310	99396
32.71123	84811
32.71935	86110
32.72747	75307
32.73560	74727
32.74372	79252
32.75183	71102
32.75997	70447
32.76808	68529
32.77622	69854
32.78433	65891
32.79245	63771
32.80058	67966
32.80870	63603
32.81683	69528
32.82495	67222
32.83307	67659
32.84120	68250
32.84932	70533
32.85745	65156
32.86557	64248
32.87368	70066
32.88182	75447
32.88993	76047
32.89805	79430
32.90618	83043
32.91430	81988
32.92243	78288
32.93055	77206
32.93867	68434
32.94680	69623
32.95492	77132
32.96305	68443
32.97117	68132
32.97928	70625
32.98742	84627
32.99553	84781
33.00367	88374
33.01178	93782
33.01990	85283
33.02803	78629
33.03615	75740
33.04427	78715
33.05240	70893
33.06052	80314
33.06865	79722
33.07677	85260
33.08488	88281
33.09302	94331
33.10113	105135
33.10927	105665
33.11738	107251
33.12550	110580
33.13363	104596
33.14175	96787
33.14987	90991
33.15800	81891
33.16612	80113
33.17425	75639
33.18237	73361
33.19048	71219
33.19862	75356
33.20673	74554
33.21487	72732
33.22298	73296
33.23110	75784
33.23923	70430
33.24735	73091
33.25548	68325
33.26360	67827
33.27172	73961
33.27985	68558
33.28797	70504
33.29608	69632
33.30422	66669
33.31233	65921
33.32047	67581
33.32858	70894
33.33670	73433
33.34483	73915
33.35295	74738
33.36108	76794
33.36920	72478
33.37732	73619
33.38545	72984
33.39357	72771
33.40168	70437
33.40982	65189
33.41793	64065
33.42607	65838
33.43418	66076
33.44230	66315
33.45043	64866
33.45855	59148
33.46668	64270
33.47480	63606
33.48292	64111
33.49105	68683
33.49917	63783
33.50730	64026
33.51542	67689
33.52353	68356
33.53167	69007
33.53978	71482
33.54790	71188
33.55603	78015
33.56415	74287
33.57228	72639
33.58040	70965
33.58852	69511
33.59665	65305
33.60477	68653
33.61290	66492
33.62102	68988
33.62913	67595
33.63727	68813
33.64538	72136
33.65352	74776
33.66163	74799
33.66975	79524
33.67788	69078
33.68600	65165
33.69412	63787
33.70225	66010
33.71037	68020
33.71850	62583
33.72662	64133
33.73473	62669
33.74287	62605
33.75098	65403
33.75912	63438
33.76723	62017
33.77535	60911
33.78348	60115
33.79160	61226
33.79972	59946
33.80785	58647
33.81597	61484
33.82410	69340
33.83222	65603
33.84033	68027
33.84847	69752
33.85658	76083
33.86472	68876
33.87283	69863
33.88095	65582
33.88908	66804
33.89720	67590
33.90533	67530
33.91345	72696
33.92157	68675
33.92970	72109
33.93782	67297
33.94593	68530
33.95407	68946
33.96218	63309
33.97032	63336
33.97843	64236
33.98655	67382
33.99468	64344
34.00280	61689
34.01093	60577
34.01905	62136
34.02717	63792
34.03530	63437
34.04342	63247
34.05155	60952
34.05967	59707
34.06778	63277
34.07592	62886
34.08403	68954
34.09215	66593
34.10028	63539
34.10840	65810
34.11653	67235
34.12465	65312
34.13277	68811
34.14090	65722
34.14902	62217
34.15715	65156
34.16527	66268
34.17338	67098
34.18152	61973
34.18963	64217
34.19775	63604
34.20588	66203
34.21400	65901
34.22213	63131
34.23025	67879
34.23837	65111
34.24650	61914
34.25462	60780
34.26275	62431
34.27087	62600
34.27898	59984
34.28712	64052
34.29523	64625
34.30337	63826
34.31148	64831
34.31960	62158
34.32773	65701
34.33585	64436
34.34397	62999
34.35210	66261
34.36022	65949
34.36835	66441
34.37647	70434
34.38458	63522
34.39272	63548
34.40083	61672
34.40897	63158
34.41708	61468
34.42520	61899
34.43333	68299
34.44145	61831
34.44957	64096
34.45770	61623
34.46582	57511
34.47395	64149
34.48207	66490
34.49018	69719
34.49832	70218
34.50643	83046
34.51457	100636
34.52268	127470
34.53080	159600
34.53893	193805
34.54705	227132
34.55518	236534
34.56330	246093
34.57142	233035
34.57955	229177
34.58767	203827
34.59578	185018
34.60392	172569
34.61203	157722
34.62017	139485
34.62828	129710
34.63640	129103
34.64453	123243
34.65265	119422
34.66078	106322
34.66890	106966
34.67702	88608
34.68515	98120
34.69327	90066
34.70140	96358
34.70952	90157
34.71763	91415
34.72577	90765
34.73388	88991
34.74200	86965
34.75013	87383
34.75825	87790
34.76638	86046
34.77450	82808
34.78262	89031
34.79075	90246
34.79887	85222
34.80700	85992
34.81512	85238
34.82323	84910
34.83137	89347
34.83948	83538
34.84762	86208
34.85573	87203
34.86385	85103
34.87198	81851
34.88010	81307
34.88822	78116
34.89635	80527
34.90447	81780
34.91260	80951
34.92072	82189
34.92883	82911
34.93697	85520
34.94508	85659
34.95322	84949
34.96133	88471
34.96945	90877
34.97758	93998
34.98570	92225
34.99382	91626
35.00195	86185
35.01007	83596
35.01820	82709
35.02632	84005
35.03443	76505
35.04257	77250
35.05068	81381
35.05882	84005
35.06693	78366
35.07505	80357
35.08318	70843
35.09130	71773
35.09943	76339
35.10755	77054
35.11567	74563
35.12380	68009
35.13192	76606
35.14003	75941
35.14817	79823
35.15628	85853
35.16442	77939
35.17253	81178
35.18065	80481
35.18878	73861
35.19690	73756
35.20503	73275
35.21315	74521
35.22127	71691
35.22940	72234
35.23752	65223
35.24563	69291
35.25377	72407
35.26188	77734
35.27002	72541
35.27813	72927
35.28625	73251
35.29438	73606
35.30250	74816
35.31063	72397
35.31875	74154
35.32687	70700
35.33500	69133
35.34312	71222
35.35125	65578
35.35937	69089
35.36748	71969
35.37562	68107
35.38373	73747
35.39185	73616
35.39998	78042
35.40810	74503
35.41623	82521
35.42435	86887
35.43247	86959
35.44060	88513
35.44872	79332
35.45685	85926
35.46497	81176
35.47308	79259
35.48122	82827
35.48933	78277
35.49747	78095
35.50558	77041
35.51370	76933
35.52183	73905
35.52995	70063
35.53807	70824
35.54620	72095
35.55432	72118
35.56245	68668
35.57057	71335
35.57868	67582
35.58682	69516
35.59493	73139
35.60307	72367
35.61118	72908
35.61930	71549
35.62743	64736
35.63555	66367
35.64367	70604
35.65180	75024
35.65992	73448
35.66805	74619
35.67617	78626
35.68428	81388
35.69242	86646
35.70053	78374
35.70867	78780
35.71678	79032
35.72490	76536
35.73303	79398
35.74115	79433
35.74928	80101
35.75740	86990
35.76552	87571
35.77365	90438
35.78177	87004
35.78988	84603
35.79802	83594
35.80613	79465
35.81427	70155
35.82238	75173
35.83050	72588
35.83863	69066
35.84675	73465
35.85488	75886
35.86300	70074
35.87112	72452
35.87925	69023
35.88737	72840
35.89550	69655
35.90362	70343
35.91173	72053
35.91987	72382
35.92798	74039
35.93610	67189
35.94423	70623
35.95235	70327
35.96048	68458
35.96860	70051
35.97672	67506
35.98485	72129
35.99297	70974
36.00110	74829
36.00922	73680
36.01733	82868
36.02547	78434
36.03358	79646
36.04170	76615
36.04983	78912
36.05795	77150
36.06608	74536
36.07420	78692
36.08232	75866
36.09045	70885
36.09857	77556
36.10670	79534
36.11482	78975
36.12293	75167
36.13107	79696
36.13918	80237
36.14732	77259
36.15543	77087
36.16355	82754
36.17168	77104
36.17980	76272
36.18792	69389
36.19605	74385
36.20417	71476
36.21230	67318
36.22042	70065
36.22853	69103
36.23667	72032
36.24478	70452
36.25292	66112
36.26103	71425
36.26915	73328
36.27728	73138
36.28540	80387
36.29352	96052
36.30165	102009
36.30977	115401
36.31790	127053
36.32602	132578
36.33413	131183
36.34227	122743
36.35038	113301
36.35852	106216
36.36663	103179
36.37475	94012
36.38288	97179
36.39100	97695
36.39913	101360
36.40725	99495
36.41537	101383
36.42350	97487
36.43162	93391
36.43973	96998
36.44787	94693
36.45598	93809
36.46412	96873
36.47223	93733
36.48035	96166
36.48848	90775
36.49660	93224
36.50473	89528
36.51285	95324
36.52097	96555
36.52910	90135
36.53722	88580
36.54535	85946
36.55347	92342
36.56158	92643
36.56972	88393
36.57783	84987
36.58595	90697
36.59408	89237
36.60220	85134
36.61033	90731
36.61845	90471
36.62657	89832
36.63470	84089
36.64282	90110
36.65095	91915
36.65907	95792
36.66718	91266
36.67532	87241
36.68343	94763
36.69155	88789
36.69968	91257
36.70780	94032
36.71593	87755
36.72405	85355
36.73217	92397
36.74030	87813
36.74842	79977
36.75655	86710
36.76467	85324
36.77278	83488
36.78092	88016
36.78903	84126
36.79717	84794
36.80528	82902
36.81340	83684
36.82153	80181
36.82965	82055
36.83777	79913
36.84590	83207
36.85402	84019
36.86215	78334
36.87027	81156
36.87838	84911
36.88652	80072
36.89463	90701
36.90277	82681
36.91088	83827
36.91900	83663
36.92713	82425
36.93525	85587
36.94338	83637
36.95150	83272
36.95962	92542
36.96775	96275
36.97587	100205
36.98398	94634
36.99212	89353
37.00023	85633
37.00837	84955
37.01648	83381
37.02460	81252
37.03273	87320
37.04085	86634
37.04898	84079
37.05710	83508
37.06522	83393
37.07335	83622
37.08147	87164
37.08958	89003
37.09772	85007
37.10583	93546
37.11397	84511
37.12208	81304
37.13020	80139
37.13833	86148
37.14645	81964
37.15458	82699
37.16270	85123
37.17082	83792
37.17895	82810
37.18707	86544
37.19520	91386
37.20332	83880
37.21143	82743
37.21957	85278
37.22768	79714
37.23580	82029
37.24393	81469
37.25205	75385
37.26018	85052
37.26830	83046
37.27642	83200
37.28455	80107
37.29267	83010
37.30080	87694
37.30892	89717
37.31703	100960
37.32517	117279
37.33328	141537
37.34140	165678
37.34953	188089
37.35765	200262
37.36578	204537
37.37390	200871
37.38202	181092
37.39015	164050
37.39827	155995
37.40640	149342
37.41452	138789
37.42263	130401
37.43077	138881
37.43888	129030
37.44702	121056
37.45513	123797
37.46325	122450
37.47138	116850
37.47950	113984
37.48762	112213
