Z:\data\JTB-E02\BACandBLUE\JTB-E02-199-12.D Wed Feb 27 13:35:21 2019
Start of data points
2.09527	155964
2.10340	146189
2.11152	142582
2.11963	138280
2.12777	148087
2.13588	170401
2.14402	189752
2.15213	250167
2.16025	295130
2.16838	261510
2.17650	239834
2.18462	300820
2.19275	440692
2.20087	481935
2.20900	614585
2.21712	628933
2.22523	462172
2.23337	338396
2.24148	273026
2.24962	231341
2.25773	212171
2.26585	193617
2.27398	179236
2.28210	173818
2.29023	169388
2.29835	155142
2.30647	154950
2.31460	151394
2.32272	137081
2.33083	131322
2.33897	140548
2.34708	136180
2.35522	145228
2.36333	318154
2.37145	985654
2.37958	1435693
2.38770	1788893
2.39583	2339952
2.40395	1833405
2.41207	1246756
2.42020	932406
2.42832	751871
2.43645	621980
2.44457	537750
2.45268	466150
2.46082	411805
2.46893	385420
2.47705	343839
2.48518	326713
2.49330	299820
2.50143	280761
2.50955	253435
2.51767	231627
2.52580	223713
2.53392	205762
2.54205	193578
2.55017	182459
2.55828	183639
2.56642	185549
2.57453	185605
2.58265	177879
2.59078	171945
2.59890	173691
2.60703	215548
2.61515	254465
2.62327	257025
2.63140	277954
2.63952	235271
2.64765	200230
2.65577	179295
2.66388	165731
2.67202	164361
2.68013	174794
2.68827	324604
2.69638	796442
2.70450	1408117
2.71263	2262296
2.72075	3257230
2.72887	3685412
2.73700	4074870
2.74512	3691101
2.75325	2700624
2.76137	1998912
2.76948	1551034
2.77762	1268053
2.78573	1092777
2.79387	992533
2.80198	1094013
2.81010	1278866
2.81823	1490483
2.82635	1773438
2.83447	1739920
2.84260	1419737
2.85072	1160547
2.85885	970278
2.86697	832944
2.87508	717954
2.88322	645558
2.89133	581097
2.89947	536374
2.90758	487556
2.91570	527787
2.92383	882152
2.93195	2218962
2.94008	4651480
2.94820	7459355
2.95632	9689188
2.96445	1.009509E+07
2.97257	8331355
2.98068	5855224
2.98882	3989519
2.99693	2912956
3.00507	2264926
3.01318	1880118
3.02130	1603846
3.02943	1386586
3.03755	1275817
3.04568	1154955
3.05380	1092015
3.06192	1015851
3.07005	920673
3.07817	842828
3.08630	793924
3.09442	754296
3.10253	702144
3.11067	680757
3.11878	645830
3.12690	649816
3.13503	614774
3.14315	602434
3.15128	592276
3.15940	588984
3.16752	565940
3.17565	554090
3.18377	540315
3.19190	515188
3.20002	490100
3.20813	499864
3.21627	546367
3.22438	598803
3.23250	614469
3.24063	574430
3.24875	512607
3.25688	461878
3.26500	450224
3.27312	429129
3.28125	412191
3.28937	394564
3.29750	417763
3.30562	694021
3.31373	2350366
3.32187	6120026
3.32998	1.023742E+07
3.33812	1.372404E+07
3.34623	1.519662E+07
3.35435	1.294266E+07
3.36248	9502804
3.37060	7173266
3.37872	5806928
3.38685	4865217
3.39497	4251683
3.40310	3758392
3.41122	3344118
3.41933	3061295
3.42747	2808474
3.43558	2587882
3.44372	2463764
3.45183	2448939
3.45995	2751182
3.46808	3305818
3.47620	3787433
3.48433	4111824
3.49245	3957976
3.50057	3308751
3.50870	2733689
3.51682	2364869
3.52493	2118090
3.53307	1926147
3.54118	1775291
3.54932	1674860
3.55743	1547896
3.56555	1526329
3.57368	1502309
3.58180	1509272
3.58993	1551813
3.59805	1549790
3.60617	1674296
3.61430	2149773
3.62242	3063546
3.63053	4019595
3.63867	4644441
3.64678	4453886
3.65492	4031447
3.66303	5201199
3.67115	9289117
3.67928	1.4188E+07
3.68740	1.81597E+07
3.69553	1.880601E+07
3.70365	1.528338E+07
3.71177	9928189
3.71990	6121093
3.72802	4095842
3.73615	3063270
3.74427	2473758
3.75238	2043710
3.76052	1777657
3.76863	1564345
3.77675	1431496
3.78488	1316787
3.79300	1175312
3.80113	1110309
3.80925	1036664
3.81737	1009375
3.82550	1002737
3.83362	1001996
3.84175	1010148
3.84987	989350
3.85798	947938
3.86612	896862
3.87423	817553
3.88235	777057
3.89048	851649
3.89860	1492995
3.90673	3384495
3.91485	6284392
3.92297	9019000
3.93110	1.131552E+07
3.93922	1.253757E+07
3.94735	1.131221E+07
3.95547	8274517
3.96358	5550676
3.97172	4074290
3.97983	3092258
3.98797	2496851
3.99608	2117994
4.00420	1838249
4.01233	1595440
4.02045	1433479
4.02857	1294126
4.03670	1220426
4.04482	1212257
4.05295	1215230
4.06107	1189783
4.06918	1111588
4.07732	991517
4.08543	881702
4.09357	802574
4.10168	731184
4.10980	686213
4.11793	641994
4.12605	615249
4.13418	591151
4.14230	569909
4.15042	553119
4.15855	535171
4.16667	523157
4.17478	502991
4.18292	504888
4.19103	487494
4.19917	474138
4.20728	465845
4.21540	472237
4.22353	464788
4.23165	449063
4.23978	446296
4.24790	446816
4.25602	442497
4.26415	450826
4.27227	426059
4.28038	413677
4.28852	405746
4.29663	384751
4.30477	391530
4.31288	410489
4.32100	492336
4.32913	644362
4.33725	816186
4.34538	976371
4.35350	973881
4.36162	879144
4.36975	708075
4.37787	616869
4.38600	554067
4.39412	527751
4.40223	481295
4.41037	445722
4.41848	403420
4.42660	378976
4.43473	348456
4.44285	341637
4.45098	329375
4.45910	323921
4.46722	307985
4.47535	308519
4.48347	301008
4.49160	303046
4.49972	298567
4.50783	312583
4.51597	372961
4.52408	435211
4.53222	477978
4.54033	479727
4.54845	459708
4.55658	448629
4.56470	449726
4.57282	433625
4.58095	413420
4.58907	389484
4.59720	369821
4.60532	338831
4.61343	328225
4.62157	308194
4.62968	304607
4.63782	287233
4.64593	288764
4.65405	269241
4.66218	272325
4.67030	272000
4.67842	269102
4.68655	256644
4.69467	267380
4.70280	321757
4.71092	523543
4.71903	926242
4.72717	1548613
4.73528	2137846
4.74342	2393762
4.75153	2219730
4.75965	1863350
4.76778	1547092
4.77590	1345407
4.78403	1152017
4.79215	1023341
4.80027	877224
4.80840	785320
4.81652	723022
4.82463	656532
4.83277	612957
4.84088	580956
4.84902	545982
4.85713	535112
4.86525	516482
4.87338	515947
4.88150	578997
4.88963	631762
4.89775	699478
4.90587	693157
4.91400	664235
4.92212	632459
4.93023	670045
4.93837	683018
4.94648	688933
4.95462	641362
4.96273	576527
4.97085	527103
4.97898	480237
4.98710	435556
4.99523	413959
5.00335	372574
5.01147	368762
5.01960	348233
5.02772	338825
5.03585	342817
5.04397	331562
5.05208	330358
5.06022	337012
5.06833	355706
5.07645	384202
5.08458	407418
5.09270	416855
5.10083	378300
5.10895	362703
5.11707	351696
5.12520	356224
5.13332	374297
5.14145	408495
5.14957	417768
5.15768	412568
5.16582	381737
5.17393	335994
5.18207	325266
5.19018	333159
5.19830	335355
5.20643	370941
5.21455	393725
5.22267	385152
5.23080	347442
5.23892	315840
5.24705	304114
5.25517	290915
5.26328	283799
5.27142	282317
5.27953	278912
5.28767	263119
5.29578	277481
5.30390	333624
5.31203	471324
5.32015	687682
5.32827	929965
5.33640	1028827
5.34452	932774
5.35265	770412
5.36077	589618
5.36888	474186
5.37702	400927
5.38513	360634
5.39327	326745
5.40138	316753
5.40950	290626
5.41763	271432
5.42575	257785
5.43388	257840
5.44200	264951
5.45012	270151
5.45825	306274
5.46637	330166
5.47448	353741
5.48262	348057
5.49073	327428
5.49887	306434
5.50698	270891
5.51510	249931
5.52323	232698
5.53135	232829
5.53948	229190
5.54760	229255
5.55572	210487
5.56385	214178
5.57197	214679
5.58010	207810
5.58822	206251
5.59633	220478
5.60447	204455
5.61258	215934
5.62070	211272
5.62883	209559
5.63695	203881
5.64508	201115
5.65320	196669
5.66132	189006
5.66945	200150
5.67757	208250
5.68570	224805
5.69382	242171
5.70193	243678
5.71007	242483
5.71818	273376
5.72630	413332
5.73443	716865
5.74255	1056555
5.75068	1335392
5.75880	1308606
5.76692	1105550
5.77505	850135
5.78317	694985
5.79130	606764
5.79942	549645
5.80753	494092
5.81567	442012
5.82378	406614
5.83192	376994
5.84003	349139
5.84815	328186
5.85628	317979
5.86440	301315
5.87252	301300
5.88065	294201
5.88877	298311
5.89690	298835
5.90502	320022
5.91313	401671
5.92127	488675
5.92938	591096
5.93752	578102
5.94563	530298
5.95375	443485
5.96188	387416
5.97000	351090
5.97813	315864
5.98625	307489
5.99437	297835
6.00250	297415
6.01062	291032
6.01873	288489
6.02687	299821
6.03498	315661
6.04312	360940
6.05123	381099
6.05935	381298
6.06748	354943
6.07560	321706
6.08373	295164
6.09185	274485
6.09997	281400
6.10810	265575
6.11622	271047
6.12433	283461
6.13247	272864
6.14058	283207
6.14872	267849
6.15683	272214
6.16495	271365
6.17308	264732
6.18120	273361
6.18933	271746
6.19745	253264
6.20557	258901
6.21370	246404
6.22182	245438
6.22995	243239
6.23807	263922
6.24618	259705
6.25432	274389
6.26243	263406
6.27055	255225
6.27868	260064
6.28680	258897
6.29493	264416
6.30305	265387
6.31117	261162
6.31930	266286
6.32742	261733
6.33555	261825
6.34367	260713
6.35178	280405
6.35992	338442
6.36803	516473
6.37615	785756
6.38428	1043064
6.39240	1083462
6.40053	902427
6.40865	658500
6.41677	496359
6.42490	420299
6.43302	487479
6.44115	1041158
6.44927	2512745
6.45738	5342568
6.46552	8344994
6.47363	9581724
6.48177	8486843
6.48988	6282391
6.49800	4232465
6.50613	2853270
6.51425	2106927
6.52237	1671533
6.53050	1401372
6.53862	1204545
6.54675	1055302
6.55487	937357
6.56298	834642
6.57112	759990
6.57923	683396
6.58737	641150
6.59548	595053
6.60360	548611
6.61173	519545
6.61985	467140
6.62798	442909
6.63610	421529
6.64422	402308
6.65235	392001
6.66047	392142
6.66858	407757
6.67672	406271
6.68483	402145
6.69297	379308
6.70108	348727
6.70920	282228
6.71733	241077
6.72545	213320
6.73358	211394
6.74170	241467
6.74982	291341
6.75795	342810
6.76607	363318
6.77418	389618
6.78232	421575
6.79043	431862
6.79857	419272
6.80668	399718
6.81480	355302
6.82293	322087
6.83105	303293
6.83918	286307
6.84730	280096
6.85542	266662
6.86355	255519
6.87167	264912
6.87980	284997
6.88792	329837
6.89603	383902
6.90417	404128
6.91228	404291
6.92040	351859
6.92853	314044
6.93665	266654
6.94478	245860
6.95290	242626
6.96102	271718
6.96915	298350
6.97727	323323
6.98540	330073
6.99352	314322
7.00163	306406
7.00977	387593
7.01788	674784
7.02602	1231230
7.03413	1880921
7.04225	2224955
7.05038	2034024
7.05850	1411712
7.06662	836812
7.07475	430543
7.08287	262973
7.09100	192416
7.09912	189170
7.10723	181553
7.11537	175157
7.12348	175306
7.13162	167333
7.13973	163711
7.14785	167161
7.15598	161819
7.16410	166767
7.17222	164750
7.18035	164975
7.18847	167399
7.19660	165214
7.20472	162930
7.21283	148360
7.22097	144237
7.22908	140673
7.23722	140274
7.24533	142678
7.25345	136671
7.26158	137470
7.26970	131402
7.27783	129554
7.28595	134056
7.29407	128288
7.30220	124447
7.31032	126274
7.31843	127795
7.32657	124840
7.33468	120523
7.34282	122964
7.35093	139089
7.35905	199660
7.36718	369409
7.37530	752200
7.38343	1533356
7.39155	2641399
7.39967	3919503
7.40780	4884596
7.41592	5099728
7.42403	4556359
7.43217	3534655
7.44028	2461659
7.44842	1601615
7.45653	996961
7.46465	665462
7.47278	490591
7.48090	368229
7.48903	297461
7.49715	235503
7.50527	194917
7.51340	168276
7.52152	147676
7.52965	134613
7.53777	146654
7.54588	181162
7.55402	219474
7.56213	252370
7.57025	286875
7.57838	284256
7.58650	268007
7.59463	249284
7.60275	234331
7.61087	206669
7.61900	196717
7.62712	181531
7.63525	178586
7.64337	168412
7.65148	180480
7.65962	185379
7.66773	192749
7.67587	185292
7.68398	173012
7.69210	146257
7.70023	150291
7.70835	150070
7.71647	152131
7.72460	183066
7.73272	206500
7.74085	255395
7.74897	286417
7.75708	303515
7.76522	301960
7.77333	347569
7.78147	414958
7.78958	478619
7.79770	474849
7.80583	408214
7.81395	322442
7.82208	236178
7.83020	178576
7.83832	161369
7.84645	132103
7.85457	118056
7.86268	118600
7.87082	108313
7.87893	109341
7.88707	104518
7.89518	100259
7.90330	103719
7.91143	98178
7.91955	96979
7.92768	93829
7.93580	94130
7.94392	94291
7.95205	90251
7.96017	90203
7.96828	90456
7.97642	97981
7.98453	113441
7.99267	123913
8.00078	139008
8.00890	140834
8.01703	132205
8.02515	119401
8.03328	108082
8.04140	106585
8.04952	101332
8.05765	95144
8.06577	86358
8.07390	85994
8.08202	81431
8.09013	86193
8.09827	84134
8.10638	81641
8.11450	76934
8.12263	90861
8.13075	80899
8.13888	81645
8.14700	78756
8.15512	79856
8.16325	85986
8.17137	97902
8.17950	115547
8.18762	121511
8.19573	120460
8.20387	117015
8.21198	97309
8.22010	89911
8.22823	82674
8.23635	83131
8.24448	88922
8.25260	89093
8.26072	82372
8.26885	83949
8.27697	79777
8.28510	77036
8.29322	77740
8.30133	77298
8.30947	76721
8.31758	82639
8.32572	77423
8.33383	85463
8.34195	87315
8.35008	80235
8.35820	81697
8.36632	79478
8.37445	89266
8.38257	116496
8.39070	184747
8.39882	284247
8.40693	369336
8.41507	379528
8.42318	322225
8.43132	223810
8.43943	159627
8.44755	129847
8.45568	110914
8.46380	109019
8.47193	110119
8.48005	120759
8.48817	120761
8.49630	111133
8.50442	101839
8.51253	98580
8.52067	88743
8.52878	84932
8.53692	83129
8.54503	84557
8.55315	79062
8.56128	84492
8.56940	83091
8.57753	80990
8.58565	83768
8.59377	75918
8.60190	79487
8.61002	75526
8.61813	74217
8.62627	71782
8.63438	70223
8.64252	76806
8.65063	72331
8.65875	71083
8.66688	82711
8.67500	76968
8.68313	72005
8.69125	78302
8.69937	113703
8.70750	185676
8.71562	295693
8.72375	430807
8.73187	553500
8.73998	550430
8.74812	492109
8.75623	387082
8.76435	318802
8.77248	282628
8.78060	248674
8.78873	240574
8.79685	229149
8.80497	227212
8.81310	231740
8.82122	226392
8.82935	227596
8.83747	210195
8.84558	194403
8.85372	193988
8.86183	204385
8.86997	217156
8.87808	200749
8.88620	187682
8.89433	172859
8.90245	160325
8.91057	148167
8.91870	144870
8.92682	134629
8.93495	131057
8.94307	133252
8.95118	127599
8.95932	129402
8.96743	143445
8.97557	149702
8.98368	171403
8.99180	214434
8.99993	250767
9.00805	248459
9.01617	229679
9.02430	198950
9.03242	167984
9.04055	149042
9.04867	136425
9.05678	133756
9.06492	129330
9.07303	124268
9.08117	135232
9.08928	116973
9.09740	111485
9.10553	118972
9.11365	118676
9.12178	121612
9.12990	124642
9.13802	127103
9.14615	121564
9.15427	122726
9.16238	114322
9.17052	120235
9.17863	110286
9.18677	111984
9.19488	108730
9.20300	105651
9.21113	104204
9.21925	105418
9.22738	105077
9.23550	103113
9.24362	100160
9.25175	102085
9.25987	98782
9.26798	108155
9.27612	127867
9.28423	144836
9.29237	175856
9.30048	208114
9.30860	244888
9.31673	278114
9.32485	317467
9.33298	333428
9.34110	322856
9.34922	276659
9.35735	222408
9.36547	183917
9.37360	150591
9.38172	127999
9.38983	140925
9.39797	152443
9.40608	184488
9.41420	203121
9.42233	213025
9.43045	205255
9.43858	183950
9.44670	154466
9.45482	132620
9.46295	118267
9.47107	125478
9.47920	121418
9.48732	116210
9.49543	120722
9.50357	116268
9.51168	111243
9.51982	105487
9.52793	92551
9.53605	93205
9.54418	90329
9.55230	94365
9.56042	86245
9.56855	83709
9.57667	75799
9.58480	71669
9.59292	69835
9.60103	63911
9.60917	70448
9.61728	66253
9.62542	64780
9.63353	66557
9.64165	59905
9.64978	57298
9.65790	54396
9.66602	62830
9.67415	59422
9.68227	61270
9.69040	52573
9.69852	55421
9.70663	56514
9.71477	52416
9.72288	57871
9.73102	56960
9.73913	57289
9.74725	56281
9.75538	57976
9.76350	61308
9.77163	63237
9.77975	62886
9.78787	65308
9.79600	61097
9.80412	60979
9.81223	56826
9.82037	63502
9.82848	80112
9.83662	113658
9.84473	166541
9.85285	260294
9.86098	329828
9.86910	341768
9.87723	312173
9.88535	259130
9.89347	188901
9.90160	131850
9.90972	104494
9.91785	86502
9.92597	91765
9.93408	90903
9.94222	102038
9.95033	110869
9.95845	111103
9.96658	115533
9.97470	120927
9.98283	106791
9.99095	110746
9.99907	111530
10.00720	109320
10.01532	98600
10.02345	91459
10.03157	93312
10.03968	87023
10.04782	82274
10.05593	81230
10.06405	75389
10.07218	75872
10.08030	70891
10.08843	70432
10.09655	68003
10.10467	70855
10.11280	69608
10.12092	69753
10.12905	70985
10.13717	71530
10.14528	69821
10.15342	77070
10.16153	98059
10.16967	148882
10.17778	328043
10.18590	713141
10.19403	1435841
10.20215	2421656
10.21027	3421212
10.21840	4718787
10.22652	6703257
10.23465	9241919
10.24277	1.166158E+07
10.25088	1.260532E+07
10.25902	1.118031E+07
10.26713	8488746
10.27527	6373930
10.28338	5359782
10.29150	4858652
10.29963	3991100
10.30775	3012324
10.31588	2060773
10.32400	1459265
10.33212	1194431
10.34025	1049404
10.34837	978523
10.35648	909442
10.36462	820057
10.37273	702615
10.38087	604319
10.38898	502286
10.39710	443167
10.40523	383872
10.41335	360640
10.42148	326255
10.42960	304774
10.43772	272293
10.44585	260056
10.45397	251737
10.46208	221761
10.47022	221543
10.47833	212425
10.48647	202758
10.49458	189572
10.50270	188395
10.51083	168829
10.51895	160415
10.52708	160492
10.53520	154680
10.54332	148524
10.55145	140357
10.55957	137109
10.56770	133023
10.57582	137820
10.58393	127971
10.59207	133470
10.60018	136456
10.60830	142705
10.61643	145496
10.62455	149361
10.63268	141568
10.64080	134866
10.64892	129874
10.65705	132602
10.66517	118966
10.67330	117417
10.68142	111488
10.68953	112226
10.69767	111483
10.70578	103423
10.71390	118556
10.72203	115768
10.73015	131438
10.73828	132148
10.74640	123265
10.75452	117235
10.76265	107972
10.77077	93460
10.77890	88753
10.78702	85995
10.79513	77816
10.80327	83287
10.81138	76668
10.81952	78208
10.82763	82067
10.83575	78726
10.84388	78488
10.85200	71639
10.86012	75299
10.86825	78723
10.87637	70028
10.88450	74115
10.89262	85948
10.90073	85326
10.90887	86510
10.91698	101953
10.92512	102733
10.93323	111849
10.94135	106713
10.94948	103396
10.95760	96085
10.96573	96830
10.97385	83958
10.98197	86476
10.99010	89130
10.99822	99426
11.00633	113329
11.01447	128578
11.02258	133918
11.03072	131424
11.03883	111686
11.04695	101815
11.05508	93911
11.06320	84428
11.07133	77440
11.07945	88585
11.08757	81543
11.09570	83683
11.10382	80424
11.11193	74709
11.12007	73933
11.12818	69695
11.13632	70045
11.14443	67074
11.15255	65157
11.16068	66371
11.16880	68902
11.17693	64167
11.18505	62657
11.19317	61621
11.20130	58102
11.20942	59767
11.21755	75601
11.22567	104918
11.23378	182249
11.24192	400990
11.25003	857224
11.25815	1602823
11.26628	2519625
11.27440	3177003
11.28253	3383452
11.29065	3016213
11.29877	2492605
11.30690	1908290
11.31502	1482154
11.32315	1183979
11.33127	991080
11.33938	787715
11.34752	638646
11.35563	548920
11.36377	466129
11.37188	402937
11.38000	342877
11.38813	296842
11.39625	261438
11.40437	260585
11.41250	270864
11.42062	271903
11.42875	267364
11.43687	260399
11.44498	254993
11.45312	222820
11.46123	206265
11.46937	188696
11.47748	176240
11.48560	173679
11.49373	174341
11.50185	157579
11.50997	157245
11.51810	143482
11.52622	146355
11.53435	160912
11.54247	172615
11.55058	186503
11.55872	198618
11.56683	196578
11.57497	168286
11.58308	154602
11.59120	130565
11.59933	121251
11.60745	107019
11.61558	115074
11.62370	115062
11.63182	114502
11.63995	119081
11.64807	117429
11.65618	109958
11.66432	104577
11.67243	103125
11.68057	102526
11.68868	95425
11.69680	86903
11.70493	83390
11.71305	78943
11.72118	73714
11.72930	68752
11.73742	70661
11.74555	74703
11.75367	76441
11.76178	76890
11.76992	89056
11.77803	99216
11.78617	101327
11.79428	106215
11.80240	107130
11.81053	84061
11.81865	77780
11.82678	72541
11.83490	68842
11.84302	63928
11.85115	65684
11.85927	66826
11.86740	71615
11.87552	71044
11.88363	68690
11.89177	61973
11.89988	60434
11.90800	62359
11.91613	60773
11.92425	65257
11.93238	81820
11.94050	85172
11.94862	87963
11.95675	78578
11.96487	81808
11.97300	71843
11.98112	64295
11.98923	63858
11.99737	62928
12.00548	65129
12.01362	71508
12.02173	83780
12.02985	102958
12.03798	163814
12.04610	292258
12.05422	570459
12.06235	940125
12.07047	1349996
12.07860	1612535
12.08672	1594780
12.09483	1388482
12.10297	1057681
12.11108	765154
12.11922	595258
12.12733	493447
12.13545	437304
12.14358	384354
12.15170	334322
12.15982	300064
12.16795	256401
12.17607	225400
12.18420	218181
12.19232	207227
12.20043	206645
12.20857	186776
12.21668	186659
12.22482	174751
12.23293	157411
12.24105	155448
12.24918	148793
12.25730	144351
12.26543	133790
12.27355	131341
12.28167	122303
12.28980	118281
12.29792	116212
12.30603	110566
12.31417	118186
12.32228	111966
12.33042	110575
12.33853	111399
12.34665	115992
12.35478	137377
12.36290	172208
12.37103	211723
12.37915	246874
12.38727	249830
12.39540	234047
12.40352	208749
12.41165	174235
12.41977	156601
12.42788	135305
12.43602	125584
12.44413	110216
12.45225	115632
12.46038	110118
12.46850	115723
12.47663	123100
12.48475	128692
12.49287	146458
12.50100	152184
12.50912	156638
12.51725	140198
12.52537	127741
12.53348	116058
12.54162	116655
12.54973	109908
12.55785	100368
12.56598	100875
12.57410	98698
12.58223	93736
12.59035	87060
12.59847	83094
12.60660	84106
12.61472	72760
12.62285	78228
12.63097	77774
12.63908	76656
12.64722	80124
12.65533	78370
12.66347	73819
12.67158	83118
12.67970	84545
12.68783	83644
12.69595	79246
12.70407	85244
12.71220	76012
12.72032	75005
12.72845	71733
12.73657	69980
12.74468	67885
12.75282	67399
12.76093	64348
12.76907	67641
12.77718	60864
12.78530	56947
12.79343	59691
12.80155	57312
12.80967	58686
12.81780	57750
12.82592	57655
12.83405	58068
12.84217	49478
12.85028	54294
12.85842	54411
12.86653	49217
12.87467	53098
12.88278	45750
12.89090	48753
12.89903	52542
12.90715	52855
12.91528	54304
12.92340	56409
12.93152	51219
12.93965	54261
12.94777	54803
12.95588	56461
12.96402	54294
12.97213	50538
12.98027	44767
12.98838	48249
12.99650	50661
13.00463	50156
13.01275	49177
13.02088	51668
13.02900	47893
13.03712	48552
13.04525	49938
13.05337	49498
13.06150	49692
13.06962	47285
13.07773	49489
13.08587	49537
13.09398	46337
13.10210	47672
13.11023	50421
13.11835	48410
13.12648	52695
13.13460	51095
13.14272	54461
13.15085	54582
13.15897	53062
13.16710	55965
13.17522	59627
13.18333	60228
13.19147	59890
13.19958	61771
13.20772	56446
13.21583	56578
13.22395	50743
13.23208	52521
13.24020	52685
13.24832	51512
13.25645	45590
13.26457	43434
13.27270	47340
13.28082	46007
13.28893	48596
13.29707	48699
13.30518	46777
13.31332	45300
13.32143	42898
13.32955	49955
13.33768	44301
13.34580	49567
13.35392	47140
13.36205	48482
13.37017	50374
13.37830	44262
13.38642	44618
13.39453	47382
13.40267	46083
13.41078	48430
13.41892	51489
13.42703	52433
13.43515	54505
13.44328	53730
13.45140	48447
13.45953	49586
13.46765	46722
13.47577	51010
13.48390	51881
13.49202	52797
13.50013	51962
13.50827	51933
13.51638	52766
13.52452	55508
13.53263	65758
13.54075	66574
13.54888	71915
13.55700	68666
13.56513	70550
13.57325	68418
13.58137	61413
13.58950	57972
13.59762	60455
13.60573	56363
13.61387	55184
13.62198	50130
13.63012	43961
13.63823	45826
13.64635	42647
13.65448	45537
13.66260	43121
13.67073	49249
13.67885	51611
13.68697	52573
13.69510	53347
13.70322	58186
13.71135	78216
13.71947	99909
13.72758	125423
13.73572	145292
13.74383	171269
13.75195	191351
13.76008	214486
13.76820	285276
13.77633	355182
13.78445	448363
13.79257	528373
13.80070	543996
13.80882	513702
13.81695	467473
13.82507	363308
13.83318	272853
13.84132	211336
13.84943	164984
13.85757	125933
13.86568	106843
13.87380	92667
13.88193	83283
13.89005	86856
13.89817	79432
13.90630	83056
13.91442	82041
13.92255	106287
13.93067	137291
13.93878	161421
13.94692	157142
13.95503	162393
13.96317	140420
13.97128	108540
13.97940	94766
13.98753	86017
13.99565	83004
14.00377	83123
14.01190	82515
14.02002	78746
14.02815	76802
14.03627	73170
14.04438	69309
14.05252	66415
14.06063	68043
14.06877	67923
14.07688	63104
14.08500	72657
14.09313	68994
14.10125	74373
14.10938	83914
14.11750	88191
14.12562	87320
14.13375	93902
14.14187	93930
14.14998	93026
14.15812	89888
14.16623	85478
14.17437	95681
14.18248	96852
14.19060	131155
14.19873	164154
14.20685	218972
14.21498	262250
14.22310	287930
14.23122	274059
14.23935	239279
14.24747	208643
14.25560	182050
14.26372	150888
14.27183	139796
14.27997	130431
14.28808	115969
14.29620	109600
14.30433	106897
14.31245	114793
14.32058	99860
14.32870	95563
14.33682	102396
14.34495	90165
14.35307	94253
14.36120	93034
14.36932	90659
14.37743	97104
14.38557	89607
14.39368	82684
14.40180	81852
14.40993	74773
14.41805	75164
14.42618	77319
14.43430	77871
14.44242	85892
14.45055	92492
14.45867	89117
14.46680	86882
14.47492	79081
14.48303	79577
14.49117	73439
14.49928	69216
14.50742	62512
14.51553	65368
14.52365	61280
14.53178	58831
14.53990	57447
14.54802	54363
14.55615	49279
14.56427	53382
14.57240	48506
14.58052	46732
14.58863	46412
14.59677	45294
14.60488	49680
14.61302	46573
14.62113	48102
14.62925	44763
14.63738	45616
14.64550	45301
14.65362	45271
14.66175	45618
14.66987	42544
14.67800	48117
14.68612	43316
14.69423	47597
14.70237	51299
14.71048	52976
14.71862	56662
14.72673	54763
14.73485	54600
14.74298	58868
14.75110	60766
14.75923	75614
14.76735	131645
14.77547	324221
14.78360	827979
14.79172	1779207
14.79983	3141400
14.80797	4341301
14.81608	4964504
14.82422	4528224
14.83233	3277519
14.84045	2147177
14.84858	1325268
14.85670	839920
14.86483	603703
14.87295	483514
14.88107	411399
14.88920	365409
14.89732	322668
14.90545	280990
14.91357	270426
14.92168	232527
14.92982	232997
14.93793	214836
14.94605	199744
14.95418	179103
14.96230	179699
14.97043	174558
14.97855	158428
14.98667	147203
14.99480	143152
15.00292	141374
15.01105	138770
15.01917	145072
15.02728	129872
15.03542	127516
15.04353	122393
15.05165	108378
15.05978	111460
15.06790	105669
15.07603	102878
15.08415	95796
15.09227	98718
15.10040	106398
15.10852	108163
15.11665	121011
15.12477	121327
15.13288	121843
15.14102	114971
15.14913	106791
15.15727	89672
15.16538	88433
15.17350	76215
15.18163	71354
15.18975	71040
15.19787	66932
15.20600	68273
15.21412	68989
15.22225	63574
15.23037	64146
15.23848	61002
15.24662	56146
15.25473	57062
15.26287	54711
15.27098	50599
15.27910	55086
15.28723	52620
15.29535	53515
15.30348	51911
15.31160	51728
15.31972	49349
15.32785	50487
15.33597	49781
15.34408	55192
15.35222	52569
15.36033	54677
15.36847	52670
15.37658	50414
15.38470	51771
15.39283	53367
15.40095	53746
15.40908	55738
15.41720	50500
15.42532	56574
15.43345	62652
15.44157	89414
15.44968	132117
15.45782	208360
15.46593	304842
15.47407	413750
15.48218	487196
15.49030	544663
15.49843	554441
15.50655	554853
15.51468	560111
15.52280	507008
15.53092	461275
15.53905	396041
15.54717	294436
15.55530	231040
15.56342	167204
15.57153	143490
15.57967	117235
15.58778	103336
15.59590	98610
15.60403	93160
15.61215	91128
15.62028	84489
15.62840	79373
15.63652	76694
15.64465	74065
15.65277	69736
15.66090	69536
15.66902	67520
15.67713	61712
15.68527	62854
15.69338	61502
15.70150	55226
15.70963	56482
15.71775	57652
15.72588	64192
15.73400	70581
15.74212	98801
15.75025	149919
15.75837	224958
15.76650	273983
15.77462	311727
15.78273	304521
15.79087	247842
15.79898	193550
15.80712	139564
15.81523	115421
15.82335	94882
15.83148	93676
15.83960	85686
15.84772	85569
15.85585	86972
15.86397	80016
15.87210	77983
15.88022	79286
15.88833	80126
15.89647	76517
15.90458	71176
15.91272	73747
15.92083	70767
15.92895	69868
15.93708	69452
15.94520	80261
15.95333	86218
15.96145	90720
15.96957	86504
15.97770	89101
15.98582	84068
15.99393	84487
16.00207	87060
16.01018	96738
16.01832	96741
16.02643	93996
16.03455	85641
16.04268	81294
16.05080	70612
16.05893	73312
16.06705	63774
16.07517	65409
16.08330	62823
16.09142	59644
16.09953	66802
16.10767	72416
16.11578	73697
16.12392	78174
16.13203	84406
16.14015	75178
16.14828	78722
16.15640	70489
16.16453	68673
16.17265	67313
16.18077	63913
16.18890	58641
16.19702	64082
16.20515	65484
16.21327	62538
16.22138	62006
16.22952	59720
16.23763	60752
16.24575	57026
16.25388	57219
16.26200	70911
16.27013	68480
16.27825	78720
16.28637	79748
16.29450	81322
16.30262	76873
16.31075	74576
16.31887	71507
16.32698	66474
16.33512	73765
16.34323	89512
16.35137	97937
16.35948	103738
16.36760	105347
16.37573	88805
16.38385	79686
16.39197	72019
16.40010	62749
16.40822	61440
16.41635	65132
16.42447	67261
16.43258	87693
16.44072	150188
16.44883	287860
16.45697	489170
16.46508	745997
16.47320	914478
16.48133	906652
16.48945	727223
16.49757	509842
16.50570	329464
16.51382	224814
16.52195	163056
16.53007	140138
16.53818	114526
16.54632	108265
16.55443	103741
16.56257	97609
16.57068	102098
16.57880	101429
16.58693	104401
16.59505	107516
16.60318	106906
16.61130	98727
16.61942	99436
16.62755	83481
16.63567	73979
16.64378	76097
16.65192	71720
16.66003	69513
16.66817	70304
16.67628	74623
16.68440	63951
16.69253	63432
16.70065	59623
16.70878	61577
16.71690	57881
16.72502	58240
16.73315	63296
16.74127	59933
16.74940	62739
16.75752	69842
16.76563	73679
16.77377	62349
16.78188	61737
16.79000	56558
16.79813	54224
16.80625	49181
16.81438	50049
16.82250	48281
16.83062	49178
16.83875	47096
16.84687	45844
16.85500	47055
16.86312	46694
16.87123	45063
16.87937	49481
16.88748	45621
16.89560	44127
16.90373	49250
16.91185	47964
16.91998	46568
16.92810	44642
16.93622	48750
16.94435	48359
16.95247	45566
16.96060	44023
16.96872	44402
16.97683	45322
16.98497	49478
16.99308	48899
17.00122	47585
17.00933	53903
17.01745	48538
17.02558	53253
17.03370	51332
17.04182	55060
17.04995	55073
17.05807	59768
17.06620	53987
17.07432	53906
17.08243	52452
17.09057	49612
17.09868	55058
17.10682	54471
17.11493	59431
17.12305	63646
17.13118	61947
17.13930	61332
17.14742	60348
17.15555	55309
17.16367	54629
17.17180	52041
17.17992	48067
17.18803	47560
17.19617	45706
17.20428	49427
17.21242	50013
17.22053	45319
17.22865	47850
17.23678	53973
17.24490	47900
17.25303	53284
17.26115	48279
17.26927	53397
17.27740	44708
17.28552	45394
17.29363	46702
17.30177	47054
17.30988	52594
17.31802	60649
17.32613	71852
17.33425	74116
17.34238	77987
17.35050	79746
17.35863	79891
17.36675	72629
17.37487	75474
17.38300	83478
17.39112	80106
17.39925	83215
17.40737	79699
17.41548	86790
17.42362	79277
17.43173	75536
17.43985	67254
17.44798	66858
17.45610	64973
17.46423	59684
17.47235	56583
17.48047	54571
17.48860	54751
17.49672	57428
17.50485	52816
17.51297	52516
17.52108	58767
17.52922	55352
17.53733	55702
17.54545	59773
17.55358	82334
17.56170	112104
17.56983	180862
17.57795	283220
17.58607	406393
17.59420	538155
17.60232	578050
17.61045	546902
17.61857	450785
17.62668	351677
17.63482	290194
17.64293	270032
17.65107	276098
17.65918	286932
17.66730	284459
17.67543	249124
17.68355	204896
17.69167	167097
17.69980	137975
17.70792	129953
17.71605	112706
17.72417	106738
17.73228	105709
17.74042	105003
17.74853	100418
17.75667	95621
17.76478	90024
17.77290	84462
17.78103	77714
17.78915	76720
17.79728	83441
17.80540	88701
17.81352	99102
17.82165	104942
17.82977	99322
17.83788	104463
17.84602	108793
17.85413	118758
17.86227	124349
17.87038	109819
17.87850	108357
17.88663	94318
17.89475	76065
17.90288	68521
17.91100	64994
17.91912	61249
17.92725	58913
17.93537	60630
17.94348	57704
17.95162	56891
17.95973	58880
17.96787	59521
17.97598	56546
17.98410	57313
17.99223	55277
18.00035	61320
18.00848	64308
18.01660	84357
18.02472	90580
18.03285	110540
18.04097	132914
18.04910	168685
18.05722	274626
18.06533	484687
18.07347	818496
18.08158	1191443
18.08970	1428422
18.09783	1404285
18.10595	1253877
18.11408	956200
18.12220	708724
18.13032	542572
18.13845	450958
18.14657	385842
18.15470	337891
18.16282	298892
18.17093	264204
18.17907	240010
18.18718	223725
18.19530	208003
18.20343	196774
18.21155	173915
18.21968	157074
18.22780	148547
18.23592	146756
18.24405	140741
18.25217	129779
18.26030	127360
18.26842	123280
18.27653	111815
18.28467	102789
18.29278	91164
18.30092	79664
18.30903	67532
18.31715	64951
18.32528	65130
18.33340	61938
18.34152	60470
18.34965	62686
18.35777	54704
18.36590	56173
18.37402	58069
18.38213	55547
18.39027	62298
18.39838	61017
18.40652	68780
18.41463	80504
18.42275	100667
18.43088	124313
18.43900	141902
18.44713	168628
18.45525	187839
18.46337	210337
18.47150	229305
18.47962	239738
18.48773	238442
18.49587	198893
18.50398	162325
18.51212	119700
18.52023	102804
18.52835	90350
18.53648	74043
18.54460	72483
18.55273	72546
18.56085	64460
18.56897	67214
18.57710	65917
18.58522	74068
18.59335	80729
18.60147	87296
18.60958	88435
18.61772	102553
18.62583	100978
18.63395	95204
18.64208	92143
18.65020	87034
18.65833	79573
18.66645	72874
18.67457	65640
18.68270	63339
18.69082	59543
18.69895	60248
18.70707	56390
18.71518	60199
18.72332	58320
18.73143	55222
18.73955	56511
18.74768	52344
18.75580	52774
18.76393	53653
18.77205	47524
18.78017	48389
18.78830	53945
18.79642	48696
18.80455	49047
18.81267	52697
18.82078	51219
18.82892	48708
18.83703	53825
18.84517	51429
18.85328	55629
18.86140	67755
18.86953	71012
18.87765	78052
18.88577	75516
18.89390	76609
18.90202	70910
18.91015	66728
18.91827	60197
18.92638	59689
18.93452	58537
18.94263	68635
18.95077	69203
18.95888	75122
18.96700	71453
18.97513	65968
18.98325	64142
18.99137	62385
18.99950	58991
19.00762	55765
19.01575	60275
19.02387	52952
19.03198	55596
19.04012	51154
19.04823	53387
19.05637	49942
19.06448	52867
19.07260	50911
19.08073	60405
19.08885	76574
19.09698	97096
19.10510	112701
19.11322	110894
19.12135	105029
19.12947	96711
19.13758	77970
19.14572	78626
19.15383	72504
19.16197	76184
19.17008	74679
19.17820	77129
19.18633	76238
19.19445	74981
19.20258	76311
19.21070	70850
19.21882	65455
19.22695	63003
19.23507	62528
19.24320	58160
19.25132	53747
19.25943	58373
19.26757	59820
19.27568	62438
19.28380	69223
19.29193	69435
19.30005	75672
19.30818	80010
19.31630	70063
19.32442	70083
19.33255	71118
19.34067	70775
19.34880	80709
19.35692	89947
19.36503	97742
19.37317	114680
19.38128	134183
19.38940	138568
19.39753	139237
19.40565	132161
19.41378	130679
19.42190	121128
19.43002	123749
19.43815	116963
19.44627	115343
19.45440	120171
19.46252	121883
19.47063	118687
19.47877	121212
19.48688	128212
19.49502	141466
19.50313	158360
19.51125	198737
19.51938	238589
19.52750	279934
19.53562	290418
19.54375	279608
19.55187	243105
19.56000	202086
19.56812	181442
19.57623	151176
19.58437	143115
19.59248	140999
19.60062	130912
19.60873	129277
19.61685	126453
19.62498	128918
19.63310	138070
19.64123	170851
19.64935	238063
19.65747	363754
19.66560	526628
19.67372	642980
19.68183	707037
19.68997	701230
19.69808	617717
19.70622	515729
19.71433	397551
19.72245	326710
19.73058	278092
19.73870	244480
19.74683	216916
19.75495	202437
19.76307	197311
19.77120	197676
19.77932	215334
19.78743	228313
19.79557	249824
19.80368	249882
19.81182	244611
19.81993	225260
19.82805	210329
19.83618	227414
19.84430	383131
19.85243	928210
19.86055	2548962
19.86867	6290678
19.87680	1.279499E+07
19.88492	2.083728E+07
19.89305	2.877882E+07
19.90117	3.367482E+07
19.90928	3.347774E+07
19.91742	2.937785E+07
19.92553	2.283454E+07
19.93365	1.577049E+07
19.94178	1.074231E+07
19.94990	7783230
19.95803	5930542
19.96615	4970359
19.97427	4235583
19.98240	3785999
19.99052	3503057
19.99865	3177446
20.00677	2959175
20.01488	2801852
20.02302	2581367
20.03113	2394973
20.03925	2177928
20.04738	1985003
20.05550	1759116
20.06363	1493996
20.07175	1226852
20.07987	1029816
20.08800	853005
20.09612	775785
20.10425	664194
20.11237	577736
20.12048	523337
20.12862	478314
20.13673	479492
20.14487	524649
20.15298	682954
20.16110	939560
20.16923	1374479
20.17735	1872604
20.18547	2363809
20.19360	2677625
20.20172	2691212
20.20985	2433444
20.21797	1982060
20.22608	1550480
20.23422	1273438
20.24233	1188969
20.25047	1246942
20.25858	1445942
20.26670	1685634
20.27483	1874463
20.28295	1919642
20.29108	1797817
20.29920	1576529
20.30732	1261583
20.31545	980478
20.32357	751814
20.33168	570134
20.33982	465682
20.34793	373947
20.35607	327369
20.36418	288237
20.37230	255653
20.38043	220100
20.38855	190562
20.39668	162364
20.40480	163865
20.41292	152543
20.42105	147493
20.42917	154625
20.43728	169375
20.44542	180162
20.45353	195100
20.46167	209607
20.46978	199486
20.47790	195553
20.48603	172082
20.49415	152965
20.50228	140705
20.51040	129708
20.51852	125724
20.52665	121025
20.53477	111793
20.54290	114983
20.55102	118690
20.55913	111167
20.56727	106186
20.57538	112124
20.58350	103132
20.59163	101148
20.59975	107729
20.60788	107576
20.61600	97438
20.62412	104886
20.63225	102654
20.64037	110308
20.64850	106937
20.65662	114290
20.66473	107190
20.67287	106290
20.68098	96244
20.68912	99201
20.69723	99411
20.70535	93552
20.71348	93333
20.72160	90585
20.72972	86168
20.73785	86951
20.74597	85633
20.75410	93952
20.76222	101258
20.77033	101105
20.77847	105600
20.78658	125859
20.79472	174599
20.80283	266936
20.81095	376745
20.81908	489678
20.82720	564433
20.83532	545561
20.84345	452055
20.85157	337716
20.85970	234592
20.86782	164224
20.87593	139113
20.88407	123928
20.89218	119873
20.90032	122910
20.90843	129988
20.91655	137134
20.92468	156366
20.93280	177068
20.94093	175037
20.94905	169612
20.95717	160720
20.96530	142645
20.97342	126120
20.98153	109587
20.98967	106296
20.99778	102276
21.00592	95521
21.01403	91915
21.02215	95257
21.03028	98953
21.03840	111273
21.04653	101779
21.05465	100751
21.06277	93496
21.07090	92939
21.07902	91454
21.08715	82662
21.09527	79282
21.10338	75785
21.11152	75224
21.11963	76543
21.12775	81027
21.13588	94615
21.14400	115668
21.15213	150442
21.16025	183941
21.16837	197393
21.17650	202779
21.18462	189302
21.19275	163458
21.20087	134159
21.20898	108837
21.21712	99202
21.22523	97351
21.23335	96543
21.24148	83935
21.24960	85318
21.25773	87486
21.26585	85697
21.27397	80828
21.28210	84060
21.29022	78717
21.29835	74411
21.30647	78493
21.31458	75177
21.32272	75324
21.33083	78624
21.33897	75636
21.34708	76252
21.35520	75500
21.36333	89199
21.37145	78010
21.37957	81424
21.38770	92352
21.39582	98956
21.40395	118324
21.41207	131067
21.42018	148022
21.42832	155486
21.43643	150254
21.44457	137780
21.45268	121647
21.46080	106926
21.46893	97048
21.47705	92734
21.48517	89592
21.49330	86619
21.50142	80905
21.50955	80902
21.51767	76847
21.52578	78958
21.53392	77675
21.54203	78692
21.55017	75880
21.55828	80101
21.56640	76038
21.57453	80777
21.58265	80117
21.59078	86649
21.59890	85460
21.60702	91046
21.61515	87554
21.62327	93597
21.63138	94068
21.63952	97397
21.64763	123886
21.65577	137952
21.66388	151744
21.67200	153982
21.68013	142322
21.68825	134244
21.69638	126562
21.70450	112673
21.71262	97433
21.72075	91512
21.72887	91345
21.73700	82449
21.74512	79397
21.75323	72579
21.76137	73851
21.76948	72704
21.77760	71584
21.78573	73097
21.79385	72457
21.80198	66756
21.81010	74264
21.81822	78251
21.82635	78852
21.83447	88962
21.84260	106374
21.85072	115882
21.85883	125938
21.86697	133466
21.87508	119646
21.88320	109643
21.89133	98919
21.89945	86545
21.90758	79614
21.91570	76820
21.92382	73572
21.93195	67028
21.94007	64922
21.94820	68075
21.95632	68190
21.96443	61417
21.97257	62214
21.98068	58219
21.98882	59764
21.99693	62522
22.00505	63652
22.01318	60599
22.02130	60384
22.02942	66552
22.03755	66083
22.04567	68781
22.05380	66571
22.06192	65156
22.07003	61352
22.07817	69212
22.08628	64981
22.09442	61728
22.10253	65976
22.11065	63428
22.11878	53455
22.12690	56141
22.13503	56383
22.14315	53964
22.15127	51878
22.15940	55521
22.16752	50200
22.17563	53385
22.18377	58300
22.19188	56931
22.20002	60599
22.20813	50410
22.21625	52817
22.22438	59871
22.23250	61666
22.24063	61793
22.24875	66139
22.25687	64065
22.26500	65697
22.27312	70654
22.28123	67715
22.28937	71535
22.29748	75930
22.30562	84608
22.31373	95744
22.32185	117417
22.32998	140823
22.33810	168301
22.34623	175000
22.35435	153271
22.36247	138047
22.37060	117795
22.37872	100971
22.38685	88627
22.39497	99283
22.40308	112037
22.41122	135894
22.41933	159404
22.42745	169764
22.43558	162820
22.44370	160079
22.45183	138334
22.45995	108595
22.46807	88705
22.47620	84865
22.48432	82294
22.49245	89101
22.50057	103663
22.50868	107237
22.51682	111809
22.52493	114308
22.53305	110848
22.54118	106070
22.54930	97755
22.55743	89481
22.56555	83937
22.57367	79686
22.58180	74339
22.58992	69409
22.59805	68066
22.60617	60833
22.61428	54282
22.62242	54235
22.63053	61288
22.63867	50804
22.64678	56551
22.65490	57847
22.66303	65496
22.67115	67478
22.67927	72016
22.68740	78610
22.69552	90502
22.70365	87810
22.71177	95677
22.71988	93723
22.72802	88452
22.73613	85080
22.74427	82050
22.75238	84025
22.76050	82885
22.76863	79626
22.77675	83799
22.78488	87138
22.79300	90152
22.80112	93103
22.80925	105099
22.81737	116183
22.82548	110757
22.83362	109001
22.84173	107179
22.84987	102480
22.85798	96343
22.86610	111283
22.87423	124442
22.88235	143091
22.89048	159901
22.89860	183480
22.90672	192836
22.91485	194752
22.92297	190874
22.93110	187551
22.93922	192496
22.94733	172929
22.95547	159087
22.96358	152266
22.97170	130645
22.97983	120089
22.98795	112106
22.99608	99972
23.00420	95992
23.01232	94732
23.02045	89202
23.02857	90911
23.03670	89020
23.04482	90041
23.05293	83090
23.06107	81753
23.06918	82836
23.07730	84361
23.08543	88371
23.09355	87992
23.10168	85574
23.10980	84154
23.11792	76219
23.12605	74842
23.13417	77108
23.14230	76073
23.15042	72347
23.15853	71124
23.16667	72100
23.17478	62812
23.18292	65075
23.19103	58419
23.19915	61029
23.20728	64718
23.21540	59996
23.22352	62232
23.23165	63767
23.23977	61906
23.24790	70775
23.25602	78488
23.26413	89420
23.27227	94192
23.28038	96144
23.28852	90179
23.29663	84945
23.30475	76790
23.31288	67186
23.32100	67486
23.32912	72269
23.33725	78358
23.34537	88221
23.35350	106630
23.36162	129914
23.36973	145343
23.37787	163313
23.38598	170255
23.39412	158057
23.40223	149528
23.41035	134440
23.41848	125040
23.42660	128547
23.43473	127274
23.44285	133013
23.45097	131192
23.45910	134292
23.46722	135596
23.47533	136315
23.48347	131952
23.49158	131899
23.49972	131238
23.50783	130607
23.51595	119848
23.52408	122712
23.53220	128400
23.54033	130529
23.54845	130728
23.55657	144249
23.56470	153422
23.57282	164840
23.58095	190469
23.58907	235752
23.59718	273160
23.60532	296391
23.61343	319711
23.62155	309166
23.62968	276208
23.63780	276395
23.64593	311189
23.65405	404114
23.66217	531648
23.67030	626637
23.67842	678677
23.68655	661691
23.69467	530404
23.70278	386101
23.71092	299082
23.71903	219065
23.72715	196693
23.73528	174625
23.74340	153528
23.75153	168229
23.75965	245331
23.76777	474414
23.77590	1043357
23.78402	1965720
23.79215	3100181
23.80027	3985391
23.80838	4238772
23.81652	3858783
23.82463	3095311
23.83277	2283502
23.84088	1626707
23.84900	1206185
23.85713	908978
23.86525	727188
23.87337	570481
23.88150	499051
23.88962	439370
23.89775	414813
23.90587	371520
23.91398	351829
23.92212	330679
23.93023	321835
23.93837	312197
23.94648	288192
23.95460	258392
23.96273	250747
23.97085	233670
23.97898	221966
23.98710	215528
23.99522	207415
24.00335	199379
24.01147	200519
24.01958	189902
24.02772	189253
24.03583	197953
24.04397	200453
24.05208	203165
24.06020	216331
24.06833	213356
24.07645	195291
24.08458	179056
24.09270	172673
24.10082	159574
24.10895	151613
24.11707	148697
24.12518	148037
24.13332	152389
24.14143	156469
24.14957	172769
24.15768	178982
24.16580	177787
24.17393	186469
24.18205	196417
24.19018	182318
24.19830	176181
24.20642	173116
24.21455	172315
24.22267	166243
24.23080	159087
24.23892	160127
24.24703	144157
24.25517	141665
24.26328	129835
24.27140	125527
24.27953	130587
24.28765	114535
24.29578	118390
24.30390	109889
24.31202	114186
24.32015	121512
24.32827	121393
24.33640	115729
24.34452	116306
24.35263	111772
24.36077	110232
24.36888	109138
24.37700	106267
24.38513	105953
24.39325	120523
24.40138	139597
24.40950	163907
24.41762	175117
24.42575	194568
24.43387	170946
24.44200	157444
24.45012	130364
24.45823	117555
24.46637	109363
24.47448	107823
24.48262	115777
24.49073	130479
24.49885	125018
24.50698	127972
24.51510	143323
24.52322	151626
24.53135	186945
24.53947	220676
24.54760	270401
24.55572	304272
24.56383	320890
24.57197	324445
24.58008	294399
24.58822	271469
24.59633	225036
24.60445	190940
24.61258	163765
24.62070	144970
24.62883	138807
24.63695	130747
24.64507	115073
24.65320	114677
24.66132	105178
24.66943	105101
24.67757	105788
24.68568	97751
24.69382	97419
24.70193	97967
24.71005	91373
24.71818	96498
24.72630	86774
24.73443	81044
24.74255	81849
24.75067	77762
24.75880	82239
24.76692	81948
24.77503	84181
24.78317	87550
24.79128	88783
24.79942	84621
24.80753	86194
24.81565	87223
24.82378	88465
24.83190	90586
24.84003	98147
24.84815	112734
24.85627	134598
24.86440	167770
24.87252	232885
24.88065	308001
24.88877	385858
24.89688	455172
24.90502	506228
24.91313	471191
24.92125	395082
24.92938	295101
24.93750	216881
24.94563	149346
24.95375	111800
24.96187	98799
24.97000	93967
24.97812	83061
24.98625	83628
24.99437	79507
25.00248	75521
25.01062	74599
25.01873	69658
25.02687	69873
25.03498	71385
25.04310	71059
25.05123	71894
25.05935	71391
25.06747	70240
25.07560	72319
25.08372	67094
25.09185	72283
25.09997	85140
25.10808	120945
25.11622	222080
25.12433	456086
25.13247	894398
25.14058	1623424
25.14870	2346264
25.15683	2975454
25.16495	2907940
25.17307	2494560
25.18120	1819895
25.18932	1200112
25.19745	740801
25.20557	495214
25.21368	337376
25.22182	257151
25.22993	226143
25.23807	206255
25.24618	216257
25.25430	238864
25.26243	257250
25.27055	293117
25.27868	319301
25.28680	314064
25.29492	292497
25.30305	265552
25.31117	244591
25.31928	217047
25.32742	203740
25.33553	193057
25.34367	183420
25.35178	176437
25.35990	174959
25.36803	176522
25.37615	169411
25.38428	165633
25.39240	162139
25.40052	153181
25.40865	155584
25.41677	157551
25.42490	155328
25.43302	149920
25.44113	148968
25.44927	145057
25.45738	149535
25.46550	149795
25.47363	155202
25.48175	154673
25.48988	147824
25.49800	152337
25.50612	150114
25.51425	150701
25.52237	145773
25.53050	142726
25.53862	142674
25.54673	133120
25.55487	135221
25.56298	134227
25.57110	131510
25.57923	130381
25.58735	130911
25.59548	130510
25.60360	129650
25.61172	127148
25.61985	124304
25.62797	128371
25.63610	126068
25.64422	124041
25.65233	123016
25.66047	139680
25.66858	137903
25.67672	136001
25.68483	132366
25.69295	132200
25.70108	133813
25.70920	127959
25.71732	128742
25.72545	120704
25.73357	114240
25.74170	112541
25.74982	110101
25.75793	99747
25.76607	93699
25.77418	91751
25.78232	83765
25.79043	77471
25.79855	69700
25.80668	73433
25.81480	79659
25.82292	73448
25.83105	83895
25.83917	83408
25.84730	79758
25.85542	80793
25.86353	78295
25.87167	81868
25.87978	80048
25.88792	75514
25.89603	72416
25.90415	74858
25.91228	71391
25.92040	70527
25.92853	69478
25.93665	69435
25.94477	66083
25.95290	69090
25.96102	68739
25.96913	69750
25.97727	62270
25.98538	63920
25.99352	63070
26.00163	63875
26.00975	66670
26.01788	60010
26.02600	55430
26.03413	59439
26.04225	58162
26.05037	54788
26.05850	61177
26.06662	58726
26.07475	57392
26.08287	64115
26.09098	64826
26.09912	68172
26.10723	66811
26.11535	73431
26.12348	76586
26.13160	99260
26.13973	128611
26.14785	151818
26.15597	168629
26.16410	178889
26.17222	184712
26.18035	197702
26.18847	194437
26.19658	185691
26.20472	185182
26.21283	185955
26.22095	185179
26.22908	180001
26.23720	180176
26.24533	179082
26.25345	174783
26.26157	180068
26.26970	175026
26.27782	176033
26.28595	164770
26.29407	171363
26.30218	169584
26.31032	168380
26.31843	165411
26.32657	171072
26.33468	170505
26.34280	176322
26.35093	182558
26.35905	210967
26.36717	268661
26.37530	380974
26.38342	529063
26.39155	718014
26.39967	908922
26.40778	1025603
26.41592	1031915
26.42403	923674
26.43217	717578
26.44028	539451
26.44840	393016
26.45653	286364
26.46465	250851
26.47278	210379
26.48090	185801
26.48902	179987
26.49715	175386
26.50527	173312
26.51338	157377
26.52152	153448
26.52963	154182
26.53777	155318
26.54588	149369
26.55400	146789
26.56213	141141
26.57025	143019
26.57838	138061
26.58650	144100
26.59462	142915
26.60275	140479
26.61087	144848
26.61898	136162
26.62712	140686
26.63523	130604
26.64337	138156
26.65148	132729
26.65960	129854
26.66773	132161
26.67585	135543
26.68398	128840
26.69210	133512
26.70022	132426
26.70835	128335
26.71647	131215
26.72460	123100
26.73272	119913
26.74083	121677
26.74897	119244
26.75708	118981
26.76520	115185
26.77333	120108
26.78145	118837
26.78958	128079
26.79770	118706
26.80582	121699
26.81395	127828
26.82207	123615
26.83020	125017
26.83832	121514
26.84643	116452
26.85457	116587
26.86268	108088
26.87080	111204
26.87893	113858
26.88705	121618
26.89518	113977
26.90330	108424
26.91142	105467
26.91955	106911
26.92767	97128
26.93580	98218
26.94392	95986
26.95203	105457
26.96017	104919
26.96828	109972
26.97642	131800
26.98453	181065
26.99265	289960
27.00078	532869
27.00890	924524
27.01702	1490812
27.02515	2022451
27.03327	2398326
27.04140	2325111
27.04952	2006324
27.05763	1620438
27.06577	1206044
27.07388	884262
27.08202	672053
27.09013	542092
27.09825	452070
27.10638	383167
27.11450	333200
27.12263	292111
27.13075	275196
27.13887	246508
27.14700	233050
27.15512	225782
27.16323	220912
27.17137	223845
27.17948	222082
27.18762	224076
27.19573	229270
27.20385	227991
27.21198	220537
27.22010	202842
27.22823	188569
27.23635	175618
27.24447	165551
27.25260	147188
27.26072	141390
27.26883	141732
27.27697	130761
27.28508	130302
27.29322	126599
27.30133	121920
27.30945	118208
27.31758	114994
27.32570	119911
27.33383	116550
27.34195	115129
27.35007	119355
27.35820	116426
27.36632	113659
27.37445	113411
27.38257	113336
27.39068	110948
27.39882	104735
27.40693	102347
27.41505	106114
27.42318	105416
27.43130	103897
27.43943	98335
27.44755	99095
27.45567	98081
27.46380	98970
27.47192	95407
27.48005	88567
27.48817	84448
27.49628	89611
27.50442	86431
27.51253	89339
27.52067	91865
27.52878	84101
27.53690	89456
27.54503	91168
27.55315	89052
27.56127	97061
27.56940	88739
27.57752	98356
27.58565	94988
27.59377	102616
27.60188	104819
27.61002	108672
27.61813	114296
27.62627	114412
27.63438	108091
27.64250	103593
27.65063	96160
27.65875	95647
27.66687	91800
27.67500	92188
27.68312	92363
27.69125	92158
27.69937	93813
27.70748	93015
27.71562	88041
27.72373	84779
27.73187	82025
27.73998	74128
27.74810	80071
27.75623	68885
27.76435	68514
27.77248	71079
27.78060	77795
27.78872	70539
27.79685	75360
27.80497	76324
27.81308	74837
27.82122	70543
27.82933	76013
27.83747	76948
27.84558	74551
27.85370	75014
27.86183	70252
27.86995	70660
27.87808	69810
27.88620	70005
27.89432	62082
27.90245	65196
27.91057	66081
27.91868	68674
27.92682	64999
27.93493	67135
27.94307	64992
27.95118	59544
27.95930	64723
27.96743	66614
27.97555	62310
27.98368	69849
27.99180	64573
27.99992	63727
28.00805	65655
28.01617	69757
28.02430	72776
28.03242	76310
28.04053	87909
28.04867	96053
28.05678	105175
28.06490	111114
28.07303	106657
28.08115	104747
28.08928	100715
28.09740	90450
28.10552	82509
28.11365	78342
28.12177	73804
28.12990	73636
28.13802	71086
28.14613	68621
28.15427	70696
28.16238	65404
28.17052	59071
28.17863	61157
28.18675	60647
28.19488	75166
28.20300	75712
28.21112	84769
28.21925	95895
28.22737	94710
28.23550	102284
28.24362	102216
28.25173	96173
28.25987	88011
28.26798	76287
28.27612	73357
28.28423	72462
28.29235	68561
28.30048	68728
28.30860	78490
28.31673	86174
28.32485	109544
28.33297	127017
28.34110	153330
28.34922	189599
28.35733	218965
28.36547	251615
28.37358	271171
28.38172	301734
28.38983	295644
28.39795	280529
28.40608	280888
28.41420	257082
28.42233	225565
28.43045	205040
28.43857	188756
28.44670	169123
28.45482	151353
28.46293	141095
28.47107	134627
28.47918	132768
28.48732	122647
28.49543	126909
28.50355	122267
28.51168	115845
28.51980	113060
28.52793	110637
28.53605	104971
28.54417	105715
28.55230	93704
28.56042	90681
28.56855	88205
28.57667	87794
28.58478	80726
28.59292	77710
28.60103	78426
28.60915	78134
28.61728	83194
28.62540	81331
28.63353	81820
28.64165	85860
28.64977	84381
28.65790	93252
28.66602	94410
28.67415	94051
28.68227	86714
28.69038	84064
28.69852	77894
28.70663	79524
28.71475	79638
28.72288	70454
28.73100	70077
28.73913	70085
28.74725	70496
28.75537	69761
28.76350	68566
28.77162	74545
28.77975	86902
28.78787	91929
28.79598	98660
28.80412	99899
28.81223	103139
28.82037	88157
28.82848	82097
28.83660	77999
28.84473	81581
28.85285	72547
28.86097	70738
28.86910	72373
28.87722	64683
28.88535	67748
28.89347	77601
28.90158	76494
28.90972	76530
28.91783	75609
28.92597	76400
28.93408	78143
28.94220	73169
28.95033	74313
28.95845	78149
28.96658	78582
28.97470	82190
28.98282	78339
28.99095	79427
28.99907	70707
29.00718	68606
29.01532	66462
29.02343	63499
29.03157	64290
29.03968	62146
29.04780	57919
29.05593	60055
29.06405	61680
29.07218	61404
29.08030	61339
29.08842	63700
29.09655	61464
29.10467	66828
29.11278	60357
29.12092	65816
29.12903	65342
29.13717	61589
29.14528	61192
29.15340	55563
29.16153	66472
29.16965	62445
29.17778	64681
29.18590	68217
29.19402	70082
29.20215	76924
29.21027	83811
29.21840	90750
29.22652	101234
29.23463	106498
29.24277	103029
29.25088	90465
29.25900	89269
29.26713	92620
29.27525	89804
29.28338	83829
29.29150	78355
29.29962	73822
29.30775	73173
29.31587	66714
29.32400	68091
29.33212	59026
29.34023	64965
29.34837	63671
29.35648	60383
29.36462	58591
29.37273	56435
29.38085	59213
29.38898	56083
29.39710	57950
29.40522	58766
29.41335	62510
29.42147	60134
29.42960	60307
29.43772	60060
29.44583	62142
29.45397	57646
29.46208	55976
29.47022	59493
29.47833	60440
29.48645	57807
29.49458	58093
29.50270	62954
29.51082	65368
29.51895	67112
29.52707	63517
29.53520	69941
29.54332	57174
29.55143	60100
29.55957	60895
29.56768	60149
29.57582	54625
29.58393	53450
29.59205	56634
29.60018	49012
29.60830	54583
29.61643	54559
29.62455	51794
29.63267	54902
29.64080	55274
29.64892	48752
29.65703	52161
29.66517	46906
29.67328	54042
29.68142	57111
29.68953	56859
29.69765	61794
29.70578	56308
29.71390	60213
29.72203	57593
29.73015	59178
29.73827	57383
29.74640	62913
29.75452	58178
29.76263	51089
29.77077	53903
29.77888	54038
29.78702	52039
29.79513	54974
29.80325	52983
29.81138	50174
29.81950	49732
29.82763	50960
29.83575	48270
29.84387	50329
29.85200	50232
29.86012	52369
29.86825	50880
29.87637	59480
29.88448	71738
29.89262	86420
29.90073	109485
29.90885	136671
29.91698	146514
29.92510	141098
29.93323	109961
29.94135	96434
29.94947	82626
29.95760	72513
29.96572	69557
29.97385	73080
29.98197	84911
29.99008	98425
29.99822	108210
30.00633	115192
30.01447	129002
30.02258	137028
30.03070	141273
30.03883	142608
30.04695	143417
30.05507	147095
30.06320	136088
30.07132	136728
30.07945	131195
30.08757	123212
30.09568	116359
30.10382	114523
30.11193	108200
30.12007	97931
30.12818	98226
30.13630	96837
30.14443	87463
30.15255	88979
30.16067	80774
30.16880	84082
30.17692	75007
30.18505	79461
30.19317	81020
30.20128	81259
30.20942	85984
30.21753	91604
30.22567	81381
30.23378	84563
30.24190	77390
30.25003	72080
30.25815	66983
30.26628	63446
30.27440	62189
30.28252	62576
30.29065	63192
30.29877	67202
30.30688	60443
30.31502	63782
30.32313	59719
30.33127	55072
30.33938	60498
30.34750	63290
30.35563	62044
30.36375	65574
30.37188	60130
30.38000	61611
30.38812	58431
30.39625	59527
30.40437	63600
30.41250	58705
30.42062	57858
30.42873	60667
30.43687	56283
30.44498	56922
30.45310	52825
30.46123	52551
30.46935	50517
30.47748	50759
30.48560	51606
30.49372	53575
30.50185	52839
30.50997	53963
30.51810	54762
30.52622	52935
30.53433	56384
30.54247	53238
30.55058	50297
30.55870	52187
30.56683	54329
30.57495	55252
30.58308	51250
30.59120	55105
30.59932	49873
30.60745	52190
30.61557	50259
30.62370	50229
30.63182	50336
30.63993	48489
30.64807	49218
30.65618	54713
30.66432	54395
30.67243	50549
30.68055	56239
30.68868	52153
30.69680	48477
30.70492	51044
30.71305	51200
30.72117	51644
30.72930	51464
30.73742	56185
30.74553	57379
30.75367	56743
30.76178	53105
30.76992	57454
30.77803	54537
30.78615	54525
30.79428	60673
30.80240	68456
30.81052	75655
30.81865	92641
30.82677	93394
30.83490	81907
30.84302	76520
30.85113	67747
30.85927	66394
30.86738	64895
30.87552	61061
30.88363	64735
30.89175	66099
30.89988	64153
30.90800	61544
30.91613	63289
30.92425	61384
30.93237	55224
30.94050	57619
30.94862	59453
30.95673	55713
30.96487	61792
30.97298	61573
30.98112	59261
30.98923	56429
30.99735	54777
31.00548	59275
31.01360	56429
31.02173	66576
31.02985	71075
31.03797	76256
31.04610	78954
31.05422	76950
31.06235	76883
31.07047	77628
31.07858	70984
31.08672	73769
31.09483	88677
31.10295	121747
31.11108	152978
31.11920	182531
31.12733	191028
31.13545	172280
31.14357	142602
31.15170	105748
31.15982	85508
31.16795	69646
31.17607	74641
31.18418	68676
31.19232	72042
31.20043	75411
31.20855	84623
31.21668	97428
31.22480	117208
31.23293	120870
31.24105	119083
31.24917	109720
31.25730	96262
31.26542	87101
31.27355	72589
31.28167	59882
31.28978	57724
31.29792	57808
31.30603	51933
31.31417	50509
31.32228	50611
31.33040	51561
31.33853	55681
31.34665	54427
31.35477	56078
31.36290	56771
31.37102	55294
31.37915	58410
31.38727	66585
31.39538	69471
31.40352	74176
31.41163	71961
31.41977	61217
31.42788	60664
31.43600	60431
31.44413	59494
31.45225	59395
31.46038	56745
31.46850	52071
31.47662	50956
31.48475	51477
31.49287	55209
31.50098	55244
31.50912	56779
31.51723	59902
31.52537	58734
31.53348	60039
31.54160	60781
31.54973	57813
31.55785	57338
31.56598	55776
31.57410	61413
31.58222	53275
31.59035	54012
31.59847	49765
31.60658	49731
31.61472	46410
31.62283	51153
31.63097	53497
31.63908	47119
31.64720	50296
31.65533	55393
31.66345	55676
31.67158	58620
31.67970	59665
31.68782	61644
31.69595	62861
31.70407	64920
31.71220	62315
31.72032	65492
31.72843	58571
31.73657	59170
31.74468	58908
31.75280	61322
31.76093	58493
31.76905	61038
31.77718	66596
31.78530	63680
31.79342	63810
31.80155	73606
31.80967	63958
31.81780	65567
31.82592	64036
31.83403	76036
31.84217	68977
31.85028	69278
31.85842	66162
31.86653	68824
31.87465	74855
31.88278	76939
31.89090	76012
31.89902	74301
31.90715	79447
31.91527	82925
31.92340	82919
31.93152	92026
31.93963	97894
31.94777	102516
31.95588	102395
31.96402	105661
31.97213	115275
31.98025	118878
31.98838	114704
31.99650	123592
32.00462	115120
32.01275	114069
32.02087	120694
32.02900	113794
32.03712	105521
32.04523	97497
32.05337	90378
32.06148	85125
32.06962	87495
32.07773	84071
32.08585	83125
32.09398	79877
32.10210	87585
32.11023	88309
32.11835	78671
32.12647	73685
32.13460	72027
32.14272	65821
32.15083	70565
32.15897	67193
32.16708	66369
32.17522	66501
32.18333	66110
32.19145	66258
32.19958	64608
32.20770	64776
32.21583	66652
32.22395	61818
32.23207	58231
32.24020	64818
32.24832	63138
32.25643	64566
32.26457	66865
32.27268	66393
32.28082	67117
32.28893	69714
32.29705	62778
32.30518	60043
32.31330	62538
32.32143	67315
32.32955	63500
32.33767	65675
32.34580	62278
32.35392	66373
32.36205	63154
32.37017	65380
32.37828	67514
32.38642	59429
32.39453	64475
32.40265	57103
32.41078	57681
32.41890	55763
32.42703	54618
32.43515	55278
32.44327	58093
32.45140	52241
32.45952	57356
32.46765	63680
32.47577	54797
32.48388	55655
32.49202	54475
32.50013	62607
32.50827	53650
32.51638	57952
32.52450	49634
32.53263	54135
32.54075	52770
32.54887	55265
32.55700	56368
32.56512	54237
32.57325	57321
32.58137	56220
32.58948	60177
32.59762	53915
32.60573	48833
32.61387	51703
32.62198	50540
32.63010	54297
32.63823	52397
32.64635	56481
32.65447	53340
32.66260	55547
32.67072	63860
32.67885	70171
32.68697	81008
32.69508	79111
32.70322	77640
32.71133	74895
32.71947	67343
32.72758	63298
32.73570	61272
32.74383	56296
32.75195	54869
32.76008	56759
32.76820	52136
32.77632	54060
32.78445	51118
32.79257	52737
32.80068	50829
32.80882	52474
32.81693	53085
32.82507	52504
32.83318	55931
32.84130	51111
32.84943	57407
32.85755	53959
32.86568	56050
32.87380	57027
32.88192	55803
32.89005	54230
32.89817	57075
32.90630	58652
32.91442	59403
32.92253	58112
32.93067	58137
32.93878	59971
32.94690	52935
32.95503	51919
32.96315	47594
32.97128	53073
32.97940	56854
32.98752	56273
32.99565	63156
33.00377	68441
33.01190	74278
33.02002	72372
33.02813	73175
33.03627	70558
33.04438	58889
33.05250	55385
33.06063	58852
33.06875	60598
33.07688	64868
33.08500	75342
33.09312	78833
33.10125	87933
33.10937	95978
33.11750	104275
33.12562	112272
33.13373	115016
33.14187	107181
33.14998	93213
33.15812	82593
33.16623	75557
33.17435	62766
33.18248	67708
33.19060	59800
33.19872	59340
33.20685	51817
33.21497	56410
33.22310	58749
33.23122	59411
33.23933	58933
33.24747	63102
33.25558	61338
33.26372	61937
33.27183	59313
33.27995	53581
33.28808	58564
33.29620	53204
33.30432	56806
33.31245	56720
33.32057	55316
33.32870	57436
33.33682	58106
33.34493	57224
33.35307	63295
33.36118	59839
33.36932	63951
33.37743	61843
33.38555	63373
33.39368	59836
33.40180	57209
33.40993	57892
33.41805	51494
33.42617	49627
33.43430	50913
33.44242	49618
33.45053	50591
33.45867	53982
33.46678	48101
33.47492	51039
33.48303	57881
33.49115	52160
33.49928	52140
33.50740	50650
33.51553	59460
33.52365	58687
33.53177	53626
33.53990	51154
33.54802	56465
33.55615	56811
33.56427	62026
33.57238	62060
33.58052	60243
33.58863	61650
33.59675	57450
33.60488	53145
33.61300	52736
33.62113	51168
33.62925	55913
33.63737	55042
33.64550	54614
33.65362	57846
33.66175	60178
33.66987	56574
33.67798	61086
33.68612	56638
33.69423	57179
33.70237	52474
33.71048	52877
33.71860	55441
33.72673	47428
33.73485	51810
33.74297	57642
33.75110	53261
33.75922	50503
33.76735	51212
33.77547	52496
33.78358	54594
33.79172	52195
33.79983	53703
33.80797	54517
33.81608	55414
33.82420	55162
33.83233	54450
33.84045	51870
33.84857	57337
33.85670	52569
33.86482	55573
33.87295	55510
33.88107	56614
33.88918	56343
33.89732	56142
33.90543	58207
33.91357	57455
33.92168	55582
33.92980	56053
33.93793	56609
33.94605	52456
33.95418	55728
33.96230	61100
33.97042	56981
33.97855	53785
33.98667	55577
33.99478	51240
34.00292	54688
34.01103	54297
34.01917	47465
34.02728	54566
34.03540	50546
34.04353	54142
34.05165	51284
34.05978	51721
34.06790	59428
34.07602	53684
34.08415	54962
34.09227	53229
34.10038	50415
34.10852	53876
34.11663	57966
34.12477	54554
34.13288	52190
34.14100	55381
34.14913	49500
34.15725	56097
34.16538	54074
34.17350	52786
34.18162	54093
34.18975	53974
34.19787	48270
34.20600	52498
34.21412	57686
34.22223	55503
34.23037	54400
34.23848	49405
34.24660	55890
34.25473	51038
34.26285	55094
34.27098	55575
34.27910	51510
34.28722	53139
34.29535	50498
34.30347	53438
34.31160	63332
34.31972	55203
34.32783	53272
34.33597	57614
34.34408	55495
34.35222	54014
34.36033	57333
34.36845	56310
34.37658	54346
34.38470	55364
34.39282	50459
34.40095	54070
34.40907	55962
34.41720	54360
34.42532	55475
34.43343	51940
34.44157	46789
34.44968	53214
34.45782	51871
34.46593	50388
34.47405	49616
34.48218	55038
34.49030	54008
34.49842	53990
34.50655	55161
34.51467	55446
34.52280	64142
34.53092	65155
34.53903	67253
34.54717	75138
34.55528	79033
34.56342	93256
34.57153	95316
34.57965	104859
34.58778	93166
34.59590	93718
34.60403	85980
34.61215	85339
34.62027	81991
34.62840	73278
34.63652	66221
34.64463	63431
34.65277	68508
34.66088	65186
34.66902	64843
34.67713	64703
34.68525	65603
34.69338	61491
34.70150	67590
34.70963	60161
34.71775	58151
34.72587	59018
34.73400	60337
34.74212	59268
34.75025	69595
34.75837	63129
34.76648	60906
34.77462	63185
34.78273	58940
34.79085	60180
34.79898	61190
34.80710	63593
34.81523	60659
34.82335	60654
34.83147	60448
34.83960	64112
34.84772	64429
34.85585	60381
34.86397	60892
34.87208	57935
34.88022	58869
34.88833	61204
34.89645	55621
34.90458	58416
34.91270	58084
34.92083	62702
34.92895	58337
34.93707	62958
34.94520	66241
34.95332	77444
34.96145	102276
34.96957	140146
34.97768	195060
34.98582	248945
34.99393	271663
35.00207	258146
35.01018	207800
35.01830	153268
35.02643	112702
35.03455	90561
35.04267	79838
35.05080	71761
35.05892	65794
35.06705	70526
35.07517	73693
35.08328	67262
35.09142	65666
35.09953	67106
35.10767	73137
35.11578	65428
35.12390	66492
35.13203	74637
35.14015	64972
35.14827	65016
35.15640	62846
35.16452	67466
35.17265	69582
35.18077	67391
35.18888	68358
35.19702	67193
35.20513	66909
35.21327	60798
35.22138	64271
35.22950	62966
35.23763	63704
35.24575	64131
35.25388	55279
35.26200	60951
35.27012	62490
35.27825	59853
35.28637	60802
35.29448	60685
35.30262	64226
35.31073	58599
35.31887	63184
35.32698	59025
35.33510	56048
35.34323	56830
35.35135	56635
35.35948	56274
35.36760	54912
35.37572	57944
35.38385	54817
35.39197	56580
35.40010	60198
35.40822	62901
35.41633	65908
35.42447	66509
35.43258	71066
35.44070	72582
35.44883	72799
35.45695	73488
35.46508	69992
35.47320	70097
35.48132	65404
35.48945	63647
35.49757	67657
35.50570	66252
35.51382	60251
35.52193	64800
35.53007	66240
35.53818	59420
35.54630	63146
35.55443	58141
35.56255	60621
35.57068	60668
35.57880	59759
35.58692	63066
35.59505	62431
35.60317	63471
35.61130	59446
35.61942	63021
35.62753	57657
35.63567	61756
35.64378	62464
35.65192	59868
35.66003	58121
35.66815	54242
35.67628	56158
35.68440	60316
35.69252	62144
35.70065	65298
35.70877	67118
35.71690	62603
35.72502	63332
35.73313	60335
35.74127	59965
35.74938	64988
35.75752	69636
35.76563	65715
35.77375	68280
35.78188	76554
35.79000	75179
35.79813	73211
35.80625	67382
35.81437	65814
35.82250	65301
35.83062	62296
35.83873	57359
35.84687	60653
35.85498	61691
35.86312	57718
35.87123	59402
35.87935	57377
35.88748	61698
35.89560	59157
35.90373	59643
35.91185	57289
35.91997	62175
35.92810	64608
35.93622	60440
35.94433	58738
35.95247	62362
35.96058	58432
35.96872	56477
35.97683	58981
35.98495	65136
35.99308	57652
36.00120	60478
36.00933	56549
36.01745	60645
36.02557	66500
36.03370	61564
36.04182	64257
36.04995	70124
36.05807	62413
36.06618	64915
36.07432	63047
36.08243	60595
36.09055	59558
36.09868	60917
36.10680	58461
36.11493	60986
36.12305	61267
36.13117	59811
36.13930	65833
36.14742	66159
36.15555	69341
36.16367	68305
36.17178	69589
36.17992	64708
36.18803	66259
36.19615	61783
36.20428	64533
36.21240	63917
36.22053	60235
36.22865	62914
36.23677	57822
36.24490	53794
36.25302	58181
36.26115	62533
36.26927	56049
36.27738	59971
36.28552	62474
36.29363	58610
36.30177	63729
36.30988	65222
36.31800	70137
36.32613	76649
36.33425	83103
36.34237	80945
36.35050	76631
36.35862	72555
36.36675	72451
36.37487	67797
36.38298	66559
36.39112	64658
36.39923	70895
36.40737	67495
36.41548	69197
36.42360	62972
36.43173	69727
36.43985	66598
36.44798	66212
36.45610	62430
36.46422	60571
36.47235	61513
36.48047	60732
36.48858	58972
36.49672	56414
36.50483	56561
36.51297	56733
36.52108	58453
36.52920	64801
36.53733	60331
36.54545	59312
36.55358	63152
36.56170	63977
36.56982	63411
36.57795	65292
36.58607	58178
36.59418	65207
36.60232	56078
36.61043	57268
36.61857	64180
36.62668	65659
36.63480	62834
36.64293	60787
36.65105	61975
36.65918	66325
36.66730	63941
36.67542	62677
36.68355	61297
36.69167	63891
36.69980	67071
36.70792	62442
36.71603	58289
36.72417	63803
36.73228	64107
36.74040	65560
36.74853	66506
36.75665	59560
36.76478	61020
36.77290	61944
36.78102	66385
36.78915	61379
36.79727	61653
36.80540	65952
36.81352	64600
36.82163	61126
36.82977	65406
36.83788	59114
36.84602	65978
36.85413	62300
36.86225	61640
36.87038	63076
36.87850	63596
36.88662	60158
36.89475	61958
36.90287	57080
36.91100	63239
36.91912	59525
36.92723	59235
36.93537	62220
36.94348	65651
36.95162	64304
36.95973	73796
36.96785	75563
36.97598	70826
36.98410	76125
36.99222	79698
37.00035	74446
37.00847	74024
37.01660	72651
37.02472	60770
37.03283	64493
37.04097	65466
37.04908	62101
37.05722	67611
37.06533	61552
37.07345	64445
37.08158	69345
37.08970	73169
37.09783	69869
37.10595	81239
37.11407	76951
37.12220	73066
37.13032	74675
37.13843	75562
37.14657	78174
37.15468	76523
37.16282	72960
37.17093	78718
37.17905	76564
37.18718	75758
37.19530	75350
37.20343	77232
37.21155	75968
37.21967	79148
37.22780	78453
37.23592	80056
37.24405	79579
37.25217	75932
37.26028	74674
37.26842	79347
37.27653	71795
37.28465	73475
37.29278	71593
37.30090	72928
37.30903	74522
37.31715	80600
37.32527	74310
37.33340	73830
37.34152	81927
37.34965	82435
37.35777	88970
37.36588	91848
37.37402	96391
37.38213	97845
37.39025	96697
37.39838	89393
37.40650	90648
37.41463	80390
37.42275	83785
37.43087	84428
37.43900	83824
37.44712	87715
37.45525	84063
37.46337	80928
37.47148	85832
37.47962	82196
37.48773	82538
