C:\MassHunter\GCMS\1\data\JTB-E18\JTB-E18-036-05.D Thu Oct 17 12:07:10 2019
Start of data points
2.09533,247554
2.10345,234113
2.11158,229999
2.11970,216610
2.12782,201928
2.13595,191976
2.14407,193484
2.15220,189698
2.16032,175887
2.16843,170992
2.17657,162873
2.18468,163819
2.19282,158405
2.20093,154289
2.20905,152917
2.21718,147950
2.22530,146414
2.23342,144018
2.24155,129197
2.24967,131689
2.25780,136162
2.26592,215341
2.27403,1129471
2.28217,2125516
2.29028,1264056
2.29842,641965
2.30653,465970
2.31465,399191
2.32278,363057
2.33090,326612
2.33903,292368
2.34715,271834
2.35527,242200
2.36340,239868
2.37152,221161
2.37963,223133
2.38777,231460
2.39588,221477
2.40402,199170
2.41213,190278
2.42025,190491
2.42838,191502
2.43650,182212
2.44463,190403
2.45275,182366
2.46087,175809
2.46900,162532
2.47712,160090
2.48523,160973
2.49337,163266
2.50148,164385
2.50962,155533
2.51773,150045
2.52585,140210
2.53398,146827
2.54210,145820
2.55023,150700
2.55835,192413
2.56647,213162
2.57460,173889
2.58272,155758
2.59085,144741
2.59897,153802
2.60708,382719
2.61522,865931
2.62333,744197
2.63145,419135
2.63958,293548
2.64770,231292
2.65583,191050
2.66395,179898
2.67207,168292
2.68020,171244
2.68832,162539
2.69645,147536
2.70457,138994
2.71268,134607
2.72082,142396
2.72893,134052
2.73705,128586
2.74518,127684
2.75330,129753
2.76143,121144
2.76955,122195
2.77767,118680
2.78580,144115
2.79392,152581
2.80205,138432
2.81017,137309
2.81828,151962
2.82642,198214
2.83453,278179
2.84267,285065
2.85078,203152
2.85890,180237
2.86703,169623
2.87515,166107
2.88327,141320
2.89140,138274
2.89952,128725
2.90765,127187
2.91577,118175
2.92388,117626
2.93202,113205
2.94013,109179
2.94827,108136
2.95638,110106
2.96450,111082
2.97263,117296
2.98075,112098
2.98888,107775
2.99700,116077
3.00512,117713
3.01325,124349
3.02137,136582
3.02948,218441
3.03762,370282
3.04573,546950
3.05387,1384244
3.06198,3624287
3.07010,4368915
3.07823,2808379
3.08635,1794041
3.09448,1962333
3.10260,3092594
3.11072,5420698
3.11885,5873973
3.12697,3911163
3.13508,2533502
3.14322,1853594
3.15133,1401063
3.15947,1119849
3.16758,930515
3.17570,832527
3.18383,821897
3.19195,1128702
3.20008,1464248
3.20820,1265177
3.21632,934874
3.22445,750546
3.23257,634533
3.24070,550270
3.24882,478884
3.25693,426906
3.26507,386305
3.27318,349313
3.28130,348279
3.28943,442322
3.29755,694150
3.30568,1043293
3.31380,1239101
3.32192,1127764
3.33005,931509
3.33817,786449
3.34630,690743
3.35442,624686
3.36253,563872
3.37067,573773
3.37878,650270
3.38692,725496
3.39503,663783
3.40315,705614
3.41128,1145017
3.41940,1827439
3.42752,1786539
3.43565,1232752
3.44377,816171
3.45190,641426
3.46002,550519
3.46813,498820
3.47627,470377
3.48438,434751
3.49252,403884
3.50063,377146
3.50875,355441
3.51688,338635
3.52500,329930
3.53312,322464
3.54125,327814
3.54937,305680
3.55750,310539
3.56562,294428
3.57373,293423
3.58187,306433
3.58998,289479
3.59812,277195
3.60623,277197
3.61435,292649
3.62248,403465
3.63060,706139
3.63873,1053730
3.64685,1080855
3.65497,799397
3.66310,669807
3.67122,1094474
3.67933,2337320
3.68747,3160494
3.69558,2634106
3.70372,1803542
3.71183,1382178
3.71995,1128679
3.72808,966329
3.73620,832744
3.74433,730614
3.75245,656657
3.76057,627731
3.76870,615917
3.77682,622063
3.78493,594174
3.79307,553783
3.80118,572306
3.80932,772650
3.81743,1191516
3.82555,1376314
3.83368,1150541
3.84180,889950
3.84993,719850
3.85805,619179
3.86617,542061
3.87430,498825
3.88242,452038
3.89055,422564
3.89867,390322
3.90678,374791
3.91492,378830
3.92303,411870
3.93115,473667
3.93928,488945
3.94740,478767
3.95553,592911
3.96365,959936
3.97177,1279866
3.97990,1175742
3.98802,862130
3.99615,677865
4.00427,797878
4.01238,1221786
4.02052,1537356
4.02863,1377601
4.03677,960769
4.04488,672841
4.05300,517983
4.06113,441275
4.06925,391143
4.07737,347183
4.08550,313823
4.09362,298340
4.10175,274444
4.10987,259415
4.11798,255773
4.12612,236019
4.13423,252794
4.14237,306565
4.15048,407163
4.15860,467377
4.16673,429566
4.17485,342759
4.18297,292600
4.19110,263523
4.19922,238458
4.20735,345404
4.21547,1319705
4.22358,5055568
4.23172,1.153486E+07
4.23983,1.688617E+07
4.24797,1.753213E+07
4.25608,1.285033E+07
4.26420,7241025
4.27233,4375872
4.28045,3010665
4.28858,2167497
4.29670,1677598
4.30482,1345702
4.31295,1098453
4.32107,928789
4.32918,808334
4.33732,731619
4.34543,662625
4.35357,625528
4.36168,602133
4.36980,570165
4.37793,516733
4.38605,488993
4.39418,454974
4.40230,424279
4.41042,407730
4.41855,378173
4.42667,375073
4.43480,350845
4.44292,349853
4.45103,342872
4.45917,337215
4.46728,332574
4.47540,320200
4.48353,301573
4.49165,296131
4.49978,276741
4.50790,271541
4.51602,269851
4.52415,258291
4.53227,262476
4.54040,246587
4.54852,248350
4.55663,243352
4.56477,242199
4.57288,239010
4.58100,224236
4.58913,218754
4.59725,212824
4.60538,210273
4.61350,212130
4.62162,220296
4.62975,257917
4.63787,317389
4.64600,357375
4.65412,353195
4.66223,309044
4.67037,268565
4.67848,249132
4.68662,228884
4.69473,224996
4.70285,220219
4.71098,207555
4.71910,203511
4.72722,187642
4.73535,184087
4.74347,186473
4.75160,184910
4.75972,190824
4.76783,180661
4.77597,176609
4.78408,176567
4.79222,187093
4.80033,248044
4.80845,312853
4.81658,346762
4.82470,330533
4.83282,280814
4.84095,260544
4.84907,240022
4.85720,236464
4.86532,224697
4.87343,214864
4.88157,199485
4.88968,200520
4.89782,193276
4.90593,188195
4.91405,196102
4.92218,200099
4.93030,247922
4.93843,325304
4.94655,435142
4.95467,456243
4.96280,477178
4.97092,421285
4.97903,364134
4.98717,334693
4.99528,313464
5.00342,296356
5.01153,283515
5.01965,294066
5.02778,365875
5.03590,551641
5.04403,780492
5.05215,881804
5.06027,787381
5.06840,680588
5.07652,558018
5.08465,499087
5.09277,450625
5.10088,426656
5.10902,432496
5.11713,443946
5.12525,433050
5.13338,401298
5.14150,357394
5.14963,336552
5.15775,317929
5.16587,322727
5.17400,338952
5.18212,368763
5.19025,375423
5.19837,365818
5.20648,343160
5.21462,326818
5.22273,297210
5.23085,294656
5.23898,298979
5.24710,291343
5.25523,275343
5.26335,262117
5.27147,232764
5.27960,221738
5.28772,218095
5.29585,211402
5.30397,203026
5.31208,201941
5.32022,196693
5.32833,196920
5.33647,195977
5.34458,203381
5.35270,195333
5.36083,187048
5.36895,184887
5.37707,173735
5.38520,180278
5.39332,175326
5.40145,174265
5.40957,171254
5.41768,167016
5.42582,160794
5.43393,159952
5.44207,155556
5.45018,158475
5.45830,158028
5.46643,153482
5.47455,154576
5.48268,154368
5.49080,145444
5.49892,149555
5.50705,151115
5.51517,148198
5.52328,151663
5.53142,144738
5.53953,151657
5.54767,145255
5.55578,144659
5.56390,149228
5.57203,148350
5.58015,158354
5.58828,156242
5.59640,158096
5.60452,159811
5.61265,151045
5.62077,150383
5.62888,158885
5.63702,152872
5.64513,159948
5.65327,157117
5.66138,157306
5.66950,150913
5.67763,153173
5.68575,171387
5.69388,192492
5.70200,225234
5.71012,230833
5.71825,222207
5.72637,214749
5.73450,217004
5.74262,203539
5.75073,196419
5.75887,196075
5.76698,191294
5.77510,196561
5.78323,190902
5.79135,182678
5.79948,184361
5.80760,228144
5.81572,331367
5.82385,532295
5.83197,744715
5.84010,870182
5.84822,818168
5.85633,621442
5.86447,439119
5.87258,327594
5.88072,265371
5.88883,230122
5.89695,212705
5.90508,209344
5.91320,235109
5.92132,281597
5.92945,357346
5.93757,402697
5.94570,403158
5.95382,348966
5.96193,293869
5.97007,284761
5.97818,269585
5.98632,269880
5.99443,274644
6.00255,266926
6.01068,240862
6.01880,214221
6.02692,190183
6.03505,171607
6.04317,153957
6.05130,144906
6.05942,136568
6.06753,139193
6.07567,133162
6.08378,128332
6.09192,128491
6.10003,124863
6.10815,123985
6.11628,129649
6.12440,129183
6.13253,148635
6.14065,194077
6.14877,244903
6.15690,273961
6.16502,249552
6.17313,221102
6.18127,195776
6.18938,192916
6.19752,198527
6.20563,199786
6.21375,197335
6.22188,177439
6.23000,178262
6.23813,171552
6.24625,171000
6.25437,165796
6.26250,170384
6.27062,168932
6.27873,164732
6.28687,173600
6.29498,166997
6.30312,167519
6.31123,167217
6.31935,174878
6.32748,194170
6.33560,214918
6.34373,236356
6.35185,251328
6.35997,239429
6.36810,214518
6.37622,216179
6.38435,213061
6.39247,201613
6.40058,198271
6.40872,195937
6.41683,191648
6.42495,197071
6.43308,203118
6.44120,195682
6.44933,199155
6.45745,206031
6.46557,207977
6.47370,209404
6.48182,204037
6.48995,206872
6.49807,219126
6.50618,215044
6.51432,215516
6.52243,220348
6.53057,220010
6.53868,228063
6.54680,223287
6.55493,220237
6.56305,222274
6.57117,226862
6.57930,230879
6.58742,223179
6.59555,227136
6.60367,231441
6.61178,226447
6.61992,224292
6.62803,226324
6.63617,220591
6.64428,219760
6.65240,228278
6.66053,243587
6.66865,263486
6.67677,293744
6.68490,312777
6.69302,342316
6.70115,350143
6.70927,346216
6.71738,312036
6.72552,282401
6.73363,255873
6.74177,252458
6.74988,243930
6.75800,243401
6.76613,205712
6.77425,176536
6.78238,182656
6.79050,246065
6.79862,372686
6.80675,508558
6.81487,570124
6.82298,533427
6.83112,401394
6.83923,276279
6.84737,200404
6.85548,166795
6.86360,140449
6.87173,126772
6.87985,126657
6.88798,105772
6.89610,102553
6.90422,93330
6.91235,92029
6.92047,96413
6.92860,112478
6.93672,147665
6.94483,174154
6.95297,204740
6.96108,211207
6.96920,201120
6.97733,175312
6.98545,148139
6.99358,124947
7.00170,108867
7.00982,98731
7.01795,92704
7.02607,87425
7.03420,81854
7.04232,83526
7.05043,84908
7.05857,76725
7.06668,77884
7.07480,73204
7.08293,72019
7.09105,72271
7.09918,69714
7.10730,65051
7.11542,63331
7.12355,66828
7.13167,69447
7.13980,69285
7.14792,74343
7.15603,82533
7.16417,93563
7.17228,107171
7.18042,108985
7.18853,113407
7.19665,118919
7.20478,111678
7.21290,125301
7.22102,204203
7.22915,449909
7.23727,921059
7.24540,1361944
7.25352,1402979
7.26163,1091199
7.26977,658226
7.27788,400383
7.28602,278731
7.29413,226163
7.30225,195382
7.31038,196441
7.31850,203518
7.32662,206069
7.33475,193632
7.34287,168487
7.35100,143044
7.35912,121122
7.36723,107158
7.37537,95987
7.38348,97568
7.39162,94322
7.39973,100080
7.40785,111787
7.41598,120201
7.42410,125279
7.43223,133093
7.44035,133709
7.44847,119359
7.45660,109763
7.46472,97486
7.47283,88879
7.48097,77495
7.48908,80024
7.49722,74489
7.50533,73087
7.51345,71315
7.52158,71410
7.52970,75154
7.53783,83167
7.54595,92703
7.55407,92018
7.56220,92631
7.57032,87531
7.57845,83512
7.58657,77656
7.59468,72609
7.60282,71566
7.61093,69959
7.61905,70652
7.62718,68108
7.63530,65405
7.64343,65074
7.65155,69240
7.65967,64727
7.66780,65174
7.67592,63533
7.68405,63877
7.69217,62862
7.70028,61959
7.70842,64683
7.71653,58399
7.72467,62494
7.73278,61518
7.74090,57137
7.74903,61124
7.75715,62382
7.76527,57643
7.77340,56728
7.78152,57073
7.78965,60454
7.79777,60623
7.80588,57766
7.81402,62554
7.82213,61151
7.83027,58044
7.83838,57841
7.84650,55618
7.85463,55054
7.86275,53052
7.87087,53101
7.87900,54698
7.88712,56060
7.89525,55225
7.90337,54341
7.91148,55232
7.91962,57568
7.92773,60067
7.93587,71289
7.94398,75537
7.95210,77138
7.96023,79103
7.96835,73066
7.97648,66800
7.98460,63814
7.99272,57559
8.00085,53623
8.00897,56789
8.01708,54892
8.02522,52450
8.03333,49904
8.04147,47294
8.04958,49206
8.05770,53097
8.06583,54492
8.07395,49396
8.08208,50281
8.09020,48584
8.09832,46322
8.10645,50545
8.11457,50165
8.12268,48269
8.13082,49772
8.13893,48587
8.14707,53192
8.15518,52602
8.16330,55599
8.17143,52835
8.17955,49417
8.18768,49866
8.19580,52988
8.20392,45994
8.21205,48120
8.22017,48064
8.22830,47489
8.23642,53069
8.24453,45340
8.25267,48752
8.26078,45612
8.26890,44115
8.27703,45213
8.28515,46257
8.29328,45899
8.30140,45714
8.30952,49902
8.31765,47723
8.32577,48956
8.33390,51569
8.34202,48440
8.35013,47984
8.35827,46682
8.36638,46367
8.37452,45085
8.38263,42791
8.39075,42678
8.39888,38309
8.40700,39907
8.41512,42680
8.42325,45099
8.43137,42038
8.43950,40184
8.44762,40933
8.45573,41102
8.46387,40058
8.47198,43004
8.48012,42067
8.48823,45415
8.49635,47281
8.50448,42919
8.51260,45518
8.52072,46115
8.52885,68646
8.53697,115093
8.54510,198243
8.55322,324858
8.56133,400779
8.56947,389670
8.57758,292128
8.58572,183967
8.59383,117997
8.60195,86249
8.61008,74758
8.61820,63900
8.62633,63447
8.63445,61573
8.64257,54215
8.65070,54578
8.65882,52013
8.66693,53228
8.67507,49749
8.68318,49287
8.69132,49796
8.69943,50313
8.70755,50237
8.71568,50218
8.72380,60216
8.73193,73486
8.74005,95248
8.74817,111764
8.75630,115606
8.76442,109703
8.77255,95685
8.78067,85093
8.78878,73921
8.79692,69726
8.80503,66191
8.81315,62141
8.82128,68842
8.82940,64703
8.83753,75664
8.84565,68515
8.85377,67061
8.86190,65947
8.87002,68264
8.87815,63702
8.88627,62158
8.89438,60451
8.90252,56343
8.91063,59149
8.91875,58538
8.92688,62820
8.93500,61433
8.94313,70142
8.95125,68508
8.95937,75203
8.96750,67812
8.97562,66807
8.98375,61662
8.99187,60130
8.99998,55272
9.00812,57802
9.01623,55006
9.02437,55277
9.03248,57418
9.04060,56234
9.04873,51584
9.05685,49738
9.06497,51604
9.07310,50702
9.08122,49044
9.08935,50036
9.09747,50676
9.10558,52807
9.11372,55591
9.12183,53579
9.12997,52364
9.13808,51401
9.14620,54509
9.15433,52700
9.16245,49903
9.17057,49215
9.17870,49542
9.18682,47096
9.19495,49292
9.20307,49785
9.21118,48391
9.21932,45501
9.22743,47356
9.23557,49269
9.24368,45532
9.25180,45613
9.25993,48148
9.26805,50820
9.27618,49932
9.28430,49478
9.29242,50998
9.30055,50303
9.30867,46682
9.31678,48452
9.32492,53754
9.33303,51914
9.34117,52928
9.34928,52511
9.35740,55133
9.36553,51417
9.37365,45828
9.38178,46748
9.38990,45436
9.39802,46174
9.40615,48856
9.41427,46347
9.42240,52303
9.43052,52530
9.43863,54308
9.44677,51115
9.45488,44759
9.46300,45715
9.47113,44528
9.47925,44866
9.48738,44416
9.49550,43206
9.50362,47827
9.51175,41687
9.51987,48971
9.52800,45157
9.53612,44698
9.54423,42613
9.55237,41042
9.56048,39052
9.56860,37290
9.57673,34499
9.58485,34644
9.59298,38893
9.60110,37780
9.60922,34116
9.61735,36384
9.62547,34702
9.63360,39392
9.64172,41229
9.64983,44227
9.65797,40171
9.66608,35089
9.67422,36537
9.68233,33991
9.69045,31586
9.69858,32389
9.70670,33975
9.71482,33729
9.72295,31951
9.73107,32113
9.73920,34770
9.74732,31549
9.75543,29422
9.76357,29381
9.77168,32977
9.77982,27913
9.78793,32242
9.79605,33535
9.80418,29880
9.81230,31707
9.82043,36332
9.82855,29441
9.83667,30682
9.84480,28009
9.85292,30083
9.86103,30161
9.86917,33561
9.87728,32866
9.88542,29116
9.89353,32565
9.90165,33134
9.90978,32792
9.91790,32256
9.92603,38006
9.93415,42459
9.94227,41969
9.95040,45899
9.95852,47713
9.96663,57567
9.97477,49211
9.98288,49478
9.99102,40697
9.99913,39270
10.00725,36521
10.01538,36281
10.02350,35054
10.03163,34340
10.03975,33338
10.04787,32752
10.05600,33247
10.06412,39645
10.07225,33121
10.08037,31777
10.08848,30252
10.09662,32485
10.10473,32432
10.11285,30338
10.12098,31047
10.12910,35251
10.13723,31325
10.14535,31409
10.15347,29274
10.16160,30669
10.16972,27203
10.17785,28371
10.18597,30387
10.19408,30180
10.20222,28530
10.21033,29522
10.21847,32541
10.22658,30761
10.23470,30475
10.24283,34558
10.25095,37211
10.25907,45418
10.26720,74159
10.27532,147229
10.28345,322727
10.29157,662189
10.29968,1197982
10.30782,1958314
10.31593,3063548
10.32407,4834238
10.33218,6787746
10.34030,7885855
10.34843,7167891
10.35655,5142874
10.36467,2993818
10.37280,1553862
10.38092,853995
10.38905,526902
10.39717,374872
10.40528,290271
10.41342,241396
10.42153,205797
10.42967,179807
10.43778,159336
10.44590,148597
10.45403,138853
10.46215,120406
10.47028,119605
10.47840,108894
10.48652,109493
10.49465,103460
10.50277,101998
10.51088,97916
10.51902,93142
10.52713,86203
10.53527,84679
10.54338,77364
10.55150,76273
10.55963,76438
10.56775,73538
10.57588,74155
10.58400,65464
10.59212,69323
10.60025,70330
10.60837,64351
10.61648,60256
10.62462,60015
10.63273,61915
10.64087,59198
10.64898,59270
10.65710,57899
10.66523,53655
10.67335,54686
10.68148,53849
10.68960,58677
10.69772,50689
10.70585,50843
10.71397,49700
10.72210,54559
10.73022,49105
10.73833,47515
10.74647,49322
10.75458,48499
10.76270,45471
10.77083,50019
10.77895,47057
10.78708,48902
10.79520,44425
10.80332,44095
10.81145,44963
10.81957,42523
10.82770,45001
10.83582,43688
10.84393,40902
10.85207,42191
10.86018,42455
10.86832,39521
10.87643,38813
10.88455,36449
10.89268,47331
10.90080,36575
10.90892,35768
10.91705,39833
10.92517,37291
10.93330,35096
10.94142,39190
10.94953,38743
10.95767,37172
10.96578,35299
10.97392,35400
10.98203,39333
10.99015,35458
10.99828,34006
11.00640,35950
11.01452,35796
11.02265,35701
11.03077,36102
11.03890,33617
11.04702,34071
11.05513,33184
11.06327,35589
11.07138,35688
11.07952,40048
11.08763,37130
11.09575,31793
11.10388,36592
11.11200,36205
11.12013,36189
11.12825,35247
11.13637,31534
11.14450,30788
11.15262,30706
11.16073,32576
11.16887,32257
11.17698,34344
11.18512,34840
11.19323,34809
11.20135,32550
11.20948,31730
11.21760,33908
11.22573,30723
11.23385,31054
11.24197,31787
11.25010,35725
11.25822,39595
11.26635,46561
11.27447,57426
11.28258,59662
11.29072,65264
11.29883,61738
11.30695,57694
11.31508,61897
11.32320,67527
11.33133,75233
11.33945,80983
11.34757,77433
11.35570,71860
11.36382,61491
11.37195,59845
11.38007,50186
11.38818,47910
11.39632,46668
11.40443,44955
11.41255,46562
11.42068,42092
11.42880,42193
11.43693,39811
11.44505,39640
11.45317,39544
11.46130,38590
11.46942,39843
11.47755,40450
11.48567,49242
11.49378,53710
11.50192,57637
11.51003,59833
11.51817,56553
11.52628,59539
11.53440,53649
11.54253,54979
11.55065,53455
11.55877,50921
11.56690,49459
11.57502,45573
11.58315,41275
11.59127,43210
11.59938,48404
11.60752,56850
11.61563,63710
11.62377,65119
11.63188,66519
11.64000,61864
11.64813,49961
11.65625,46992
11.66437,44514
11.67250,45331
11.68062,46613
11.68875,45599
11.69687,51715
11.70498,47774
11.71312,48901
11.72123,52279
11.72937,47824
11.73748,48232
11.74560,46558
11.75373,43474
11.76185,37873
11.76998,38461
11.77810,37964
11.78622,34808
11.79435,41930
11.80247,32131
11.81058,37363
11.81872,32542
11.82683,32418
11.83497,30178
11.84308,34247
11.85120,29329
11.85933,33357
11.86745,33028
11.87558,32004
11.88370,30743
11.89182,31342
11.89995,34399
11.90807,37508
11.91620,38671
11.92432,40122
11.93243,40809
11.94057,41317
11.94868,43170
11.95680,37944
11.96493,35877
11.97305,34982
11.98118,36413
11.98930,34671
11.99742,38417
12.00555,41809
12.01367,42081
12.02180,42983
12.02992,42319
12.03803,39144
12.04617,35969
12.05428,35166
12.06240,32040
12.07053,34361
12.07865,33166
12.08678,30876
12.09490,30294
12.10302,32295
12.11115,32828
12.11927,32749
12.12740,32984
12.13552,34016
12.14363,30394
12.15177,34643
12.15988,27775
12.16802,31108
12.17613,30189
12.18425,30949
12.19238,28323
12.20050,28601
12.20862,28310
12.21675,29256
12.22487,29264
12.23300,31880
12.24112,27375
12.24923,26676
12.25737,28795
12.26548,27024
12.27362,26306
12.28173,30487
12.28985,26978
12.29798,27739
12.30610,32916
12.31423,27361
12.32235,26588
12.33047,26672
12.33860,26347
12.34672,26486
12.35483,27243
12.36297,25809
12.37108,25640
12.37922,25153
12.38733,25229
12.39545,30452
12.40358,35747
12.41170,42661
12.41983,47374
12.42795,46977
12.43607,53837
12.44420,45446
12.45232,42241
12.46043,36330
12.46857,33485
12.47668,33070
12.48482,29070
12.49293,26988
12.50105,28225
12.50918,27644
12.51730,30282
12.52543,29047
12.53355,29159
12.54167,35034
12.54980,44944
12.55792,57107
12.56605,65632
12.57417,77806
12.58228,69927
12.59042,64043
12.59853,48869
12.60665,40197
12.61478,39553
12.62290,36428
12.63103,32085
12.63915,33660
12.64727,33038
12.65540,33011
12.66352,29020
12.67165,30218
12.67977,31696
12.68788,26248
12.69602,27918
12.70413,29103
12.71225,28830
12.72038,31390
12.72850,28105
12.73663,30931
12.74475,28260
12.75287,28612
12.76100,28014
12.76912,32586
12.77725,28699
12.78537,30852
12.79348,31581
12.80162,29168
12.80973,30882
12.81787,27396
12.82598,26398
12.83410,26799
12.84223,25519
12.85035,26459
12.85847,23434
12.86660,26300
12.87472,26401
12.88285,24527
12.89097,24540
12.89908,23049
12.90722,25709
12.91533,26084
12.92347,28499
12.93158,30303
12.93970,35896
12.94783,39611
12.95595,49426
12.96408,57280
12.97220,58778
12.98032,65592
12.98845,66040
12.99657,57093
13.00468,53772
13.01282,47392
13.02093,40419
13.02907,37452
13.03718,40951
13.04530,36775
13.05343,36540
13.06155,34720
13.06968,33188
13.07780,29841
13.08592,30559
13.09405,28895
13.10217,30632
13.11030,28018
13.11842,28815
13.12653,30215
13.13467,31192
13.14278,28323
13.15090,28949
13.15903,28432
13.16715,30204
13.17528,29974
13.18340,33602
13.19152,28959
13.19965,28035
13.20777,27090
13.21590,29678
13.22402,29347
13.23213,31375
13.24027,36795
13.24838,28900
13.25650,37604
13.26463,31120
13.27275,31753
13.28088,29424
13.28900,29700
13.29712,31976
13.30525,30548
13.31337,30194
13.32150,29234
13.32962,31499
13.33773,31873
13.34587,29977
13.35398,28951
13.36212,30114
13.37023,25278
13.37835,26704
13.38648,25706
13.39460,30259
13.40272,31468
13.41085,26994
13.41897,30781
13.42710,27086
13.43522,28736
13.44333,24057
13.45147,25848
13.45958,23678
13.46772,23755
13.47583,24680
13.48395,25681
13.49208,27970
13.50020,23684
13.50832,25492
13.51645,23467
13.52457,28940
13.53270,28108
13.54082,29408
13.54893,28933
13.55707,28423
13.56518,26598
13.57332,26598
13.58143,31576
13.58955,32788
13.59768,40016
13.60580,47164
13.61393,63279
13.62205,75550
13.63017,76217
13.63830,80384
13.64642,65638
13.65453,53332
13.66267,41789
13.67078,41574
13.67892,35764
13.68703,36247
13.69515,34266
13.70328,33967
13.71140,31095
13.71953,31161
13.72765,31018
13.73577,33109
13.74390,38717
13.75202,45487
13.76015,65597
13.76827,91877
13.77638,113435
13.78452,138321
13.79263,151430
13.80075,142844
13.80888,124470
13.81700,118665
13.82513,108406
13.83325,100923
13.84137,86733
13.84950,84628
13.85762,76434
13.86575,69022
13.87387,61453
13.88198,59888
13.89012,57464
13.89823,55458
13.90635,54622
13.91448,48254
13.92260,49447
13.93073,42830
13.93885,43172
13.94697,41193
13.95510,40604
13.96322,42065
13.97135,42234
13.97947,43283
13.98758,42010
13.99572,38871
14.00383,37729
14.01197,40439
14.02008,37334
14.02820,38711
14.03633,40383
14.04445,35371
14.05257,40322
14.06070,32646
14.06882,31262
14.07695,32538
14.08507,31581
14.09318,31877
14.10132,35247
14.10943,31585
14.11757,33290
14.12568,33638
14.13380,37817
14.14193,47308
14.15005,59941
14.15818,64463
14.16630,72832
14.17442,71764
14.18255,62631
14.19067,54034
14.19878,57164
14.20692,52668
14.21503,52893
14.22317,50044
14.23128,50693
14.23940,45666
14.24753,43006
14.25565,43439
14.26378,43998
14.27190,40721
14.28002,40953
14.28815,39171
14.29627,37076
14.30438,33839
14.31252,31976
14.32063,34446
14.32877,31376
14.33688,29618
14.34500,29536
14.35313,30989
14.36125,29617
14.36938,30241
14.37750,27549
14.38562,31537
14.39375,38026
14.40187,51162
14.41000,74096
14.41812,96379
14.42623,114202
14.43437,111097
14.44248,99113
14.45060,78678
14.45873,62453
14.46685,48267
14.47498,45853
14.48310,39322
14.49122,36260
14.49935,37148
14.50747,37848
14.51560,34380
14.52372,35574
14.53183,34069
14.53997,32826
14.54808,33289
14.55620,31206
14.56433,31957
14.57245,31361
14.58058,31622
14.58870,31536
14.59682,30640
14.60495,28703
14.61307,27215
14.62120,23962
14.62932,29861
14.63743,25375
14.64557,28748
14.65368,28126
14.66182,27829
14.66993,25297
14.67805,27419
14.68618,26224
14.69430,29347
14.70242,27590
14.71055,24904
14.71867,28117
14.72680,28134
14.73492,25940
14.74303,28867
14.75117,27725
14.75928,25333
14.76742,27494
14.77553,30419
14.78365,33551
14.79178,55518
14.79990,93356
14.80803,192070
14.81615,394917
14.82427,699889
14.83240,986477
14.84052,1063197
14.84863,918530
14.85677,663949
14.86488,425768
14.87302,300175
14.88113,216390
14.88925,173372
14.89738,146162
14.90550,122907
14.91363,107714
14.92175,101851
14.92987,92477
14.93800,80794
14.94612,79701
14.95423,71363
14.96237,66960
14.97048,63495
14.97862,63755
14.98673,59807
14.99485,59920
15.00298,56019
15.01110,57650
15.01923,52913
15.02735,48574
15.03547,50088
15.04360,49247
15.05172,49728
15.05985,45380
15.06797,42630
15.07608,43550
15.08422,42703
15.09233,41625
15.10045,41254
15.10858,41036
15.11670,37074
15.12483,38387
15.13295,41331
15.14107,46143
15.14920,48445
15.15732,45682
15.16545,41164
15.17357,38457
15.18168,38772
15.18982,35265
15.19793,32541
15.20607,32363
15.21418,31052
15.22230,32912
15.23043,31001
15.23855,31028
15.24667,31421
15.25480,30595
15.26292,35714
15.27105,30870
15.27917,28782
15.28728,28060
15.29542,27640
15.30353,29198
15.31167,27638
15.31978,28452
15.32790,31157
15.33603,25283
15.34415,23880
15.35227,28417
15.36040,30676
15.36852,30523
15.37665,27088
15.38477,26287
15.39288,27640
15.40102,26506
15.40913,28707
15.41727,25640
15.42538,30899
15.43350,29157
15.44163,28261
15.44975,28048
15.45788,28938
15.46600,27296
15.47412,26564
15.48225,32856
15.49037,36643
15.49848,37807
15.50662,36137
15.51473,38801
15.52287,36046
15.53098,34049
15.53910,32931
15.54723,32760
15.55535,34942
15.56348,30667
15.57160,29602
15.57972,30065
15.58785,28328
15.59597,25856
15.60410,26330
15.61222,27949
15.62033,28756
15.62847,26529
15.63658,25636
15.64470,26507
15.65283,24912
15.66095,26442
15.66908,27506
15.67720,24261
15.68532,23769
15.69345,25807
15.70157,26971
15.70970,27758
15.71782,25774
15.72593,28034
15.73407,29473
15.74218,28613
15.75030,39993
15.75843,47498
15.76655,62693
15.77468,91832
15.78280,119044
15.79092,143785
15.79905,141675
15.80717,119944
15.81530,97748
15.82342,76825
15.83153,65978
15.83967,55415
15.84778,50985
15.85592,49043
15.86403,46745
15.87215,45251
15.88028,45105
15.88840,46070
15.89652,41383
15.90465,43591
15.91277,41035
15.92090,37453
15.92902,37909
15.93713,35827
15.94527,36152
15.95338,35141
15.96152,36002
15.96963,41628
15.97775,35581
15.98588,37659
15.99400,40098
16.00212,41111
16.01025,40021
16.01837,42169
16.02650,42814
16.03462,37606
16.04273,37465
16.05087,35083
16.05898,32447
16.06712,32827
16.07523,33021
16.08335,28228
16.09148,29232
16.09960,27649
16.10773,30416
16.11585,28715
16.12397,30698
16.13210,28012
16.14022,30930
16.14833,32170
16.15647,29663
16.16458,27807
16.17272,27418
16.18083,28156
16.18895,27838
16.19708,27466
16.20520,27308
16.21333,27496
16.22145,29529
16.22957,26614
16.23770,27669
16.24582,27567
16.25395,25431
16.26207,30783
16.27018,27890
16.27832,29073
16.28643,26230
16.29455,27044
16.30268,26617
16.31080,25132
16.31893,26430
16.32705,29919
16.33517,27417
16.34330,34031
16.35142,31483
16.35955,28237
16.36767,28908
16.37578,29352
16.38392,28952
16.39203,29254
16.40015,27874
16.40828,27735
16.41640,28865
16.42453,28051
16.43265,29199
16.44077,34385
16.44890,36978
16.45702,46768
16.46515,65123
16.47327,85603
16.48138,96020
16.48952,93420
16.49763,92903
16.50577,73739
16.51388,59698
16.52200,48428
16.53013,46363
16.53825,43001
16.54637,38381
16.55450,34337
16.56262,36475
16.57075,36715
16.57887,36577
16.58698,41253
16.59512,38548
16.60323,35545
16.61137,33234
16.61948,32924
16.62760,34916
16.63573,33377
16.64385,29967
16.65198,29450
16.66010,31612
16.66822,32875
16.67635,32799
16.68447,28285
16.69258,26372
16.70072,31394
16.70883,25015
16.71697,29775
16.72508,28591
16.73320,27052
16.74133,27006
16.74945,28355
16.75758,28700
16.76570,28430
16.77382,27979
16.78195,28632
16.79007,23776
16.79818,26842
16.80632,28686
16.81443,26604
16.82257,25049
16.83068,25367
16.83880,26500
16.84693,28005
16.85505,27552
16.86318,24102
16.87130,25505
16.87942,30340
16.88755,26559
16.89567,26642
16.90380,25922
16.91192,25954
16.92003,26023
16.92817,29312
16.93628,27281
16.94440,24308
16.95253,27795
16.96065,24774
16.96878,27010
16.97690,25166
16.98502,29022
16.99315,24576
17.00127,26192
17.00940,28092
17.01752,25055
17.02563,25375
17.03377,28178
17.04188,30223
17.05000,29055
17.05813,30566
17.06625,30067
17.07438,28154
17.08250,26487
17.09062,26108
17.09875,29124
17.10687,30271
17.11500,32667
17.12312,27143
17.13123,28088
17.13937,24478
17.14748,25577
17.15562,25689
17.16373,25033
17.17185,26886
17.17998,23986
17.18810,23202
17.19622,23384
17.20435,25944
17.21247,20935
17.22060,22777
17.22872,25238
17.23683,26860
17.24497,24382
17.25308,25386
17.26122,25148
17.26933,25505
17.27745,24680
17.28558,23240
17.29370,24809
17.30183,24730
17.30995,25333
17.31807,26055
17.32620,25823
17.33432,23681
17.34243,27799
17.35057,27089
17.35868,25911
17.36682,27909
17.37493,29783
17.38305,27958
17.39118,28042
17.39930,26083
17.40743,28003
17.41555,29103
17.42367,30173
17.43180,25191
17.43992,28069
17.44805,27883
17.45617,24702
17.46428,27375
17.47242,26411
17.48053,24402
17.48865,23645
17.49678,26554
17.50490,24940
17.51303,26932
17.52115,31826
17.52927,30838
17.53740,30558
17.54552,33039
17.55365,36630
17.56177,41994
17.56988,56222
17.57802,71594
17.58613,98644
17.59425,118314
17.60238,129389
17.61050,138706
17.61863,115451
17.62675,100638
17.63487,82191
17.64300,66635
17.65112,57059
17.65925,47383
17.66737,47695
17.67548,45426
17.68362,43606
17.69173,45753
17.69987,44008
17.70798,45797
17.71610,40146
17.72423,37290
17.73235,38738
17.74047,36524
17.74860,36047
17.75672,33335
17.76485,33494
17.77297,31967
17.78108,31712
17.78922,36004
17.79733,30343
17.80547,30558
17.81358,34171
17.82170,33873
17.82983,34077
17.83795,37109
17.84607,36621
17.85420,39358
17.86232,35411
17.87045,38769
17.87857,36191
17.88668,33653
17.89482,33557
17.90293,34851
17.91107,29107
17.91918,31378
17.92730,28994
17.93543,29257
17.94355,29754
17.95168,29579
17.95980,31937
17.96792,30631
17.97605,37142
17.98417,58115
17.99228,116073
18.00042,208310
18.00853,321025
18.01667,397673
18.02478,452779
18.03290,486765
18.04103,513322
18.04915,509064
18.05728,515663
18.06540,514859
18.07352,545726
18.08165,587232
18.08977,629781
18.09790,644504
18.10602,609256
18.11413,596380
18.12227,548056
18.13038,498800
18.13850,493217
18.14663,463201
18.15475,447408
18.16288,428188
18.17100,420706
18.17912,400062
18.18725,391857
18.19537,380260
18.20350,359210
18.21162,354342
18.21973,336936
18.22787,347996
18.23598,337875
18.24410,322497
18.25223,315656
18.26035,309478
18.26848,305157
18.27660,290514
18.28472,286302
18.29285,271103
18.30097,260779
18.30910,264266
18.31722,262537
18.32533,243424
18.33347,241157
18.34158,246219
18.34972,233129
18.35783,228391
18.36595,226258
18.37408,221338
18.38220,221059
18.39032,205091
18.39845,209790
18.40657,201814
18.41470,198938
18.42282,198014
18.43093,192170
18.43907,190995
18.44718,196225
18.45532,196139
18.46343,214519
18.47155,223060
18.47968,230250
18.48780,217643
18.49593,209326
18.50405,192458
18.51217,187142
18.52030,181054
18.52842,162965
18.53653,156987
18.54467,151039
18.55278,151470
18.56092,146472
18.56903,144750
18.57715,138516
18.58528,138247
18.59340,136104
18.60153,136090
18.60965,135319
18.61777,133709
18.62590,134419
18.63402,121765
18.64213,124030
18.65027,118201
18.65838,117179
18.66652,113723
18.67463,106545
18.68275,114555
18.69088,102233
18.69900,107181
18.70713,105006
18.71525,107720
18.72337,108152
18.73150,98792
18.73962,98918
18.74775,97214
18.75587,91369
18.76398,93727
18.77212,91378
18.78023,86034
18.78835,89651
18.79648,86657
18.80460,89639
18.81273,86521
18.82085,84896
18.82897,77588
18.83710,82418
18.84522,77810
18.85335,80700
18.86147,84017
18.86958,81584
18.87772,78375
18.88583,78962
18.89395,69100
18.90208,77205
18.91020,70666
18.91833,77361
18.92645,73621
18.93457,75190
18.94270,72969
18.95082,70511
18.95895,70943
18.96707,64893
18.97518,68965
18.98332,63958
18.99143,67897
18.99957,65162
19.00768,62884
19.01580,59815
19.02393,62683
19.03205,60325
19.04017,60974
19.04830,64805
19.05642,58636
19.06455,63901
19.07267,67772
19.08078,72551
19.08892,82448
19.09703,85355
19.10517,87211
19.11328,88427
19.12140,79953
19.12953,74408
19.13765,69629
19.14578,69092
19.15390,68344
19.16202,64086
19.17015,63207
19.17827,62626
19.18638,63851
19.19452,59351
19.20263,56477
19.21077,56215
19.21888,58008
19.22700,54120
19.23513,54276
19.24325,53391
19.25138,49710
19.25950,51340
19.26762,51153
19.27575,54102
19.28387,47035
19.29198,51695
19.30012,51973
19.30823,50263
19.31637,49175
19.32448,49555
19.33260,46471
19.34073,48175
19.34885,56082
19.35698,51444
19.36510,53393
19.37322,55120
19.38135,54590
19.38947,49866
19.39760,47152
19.40572,47180
19.41383,51205
19.42197,54508
19.43008,58414
19.43820,63732
19.44633,70336
19.45445,74484
19.46258,75732
19.47070,72279
19.47882,62005
19.48695,52463
19.49507,48191
19.50320,47625
19.51132,48805
19.51943,44221
19.52757,43275
19.53568,49977
19.54382,44514
19.55193,44225
19.56005,44508
19.56818,43930
19.57630,42101
19.58442,40973
19.59255,40960
19.60067,44438
19.60880,37944
19.61692,45028
19.62503,49359
19.63317,69425
19.64128,89053
19.64942,113416
19.65753,123319
19.66565,127367
19.67378,127020
19.68190,120152
19.69002,105554
19.69815,93215
19.70627,84490
19.71440,80212
19.72252,66476
19.73063,61822
19.73877,60074
19.74688,48176
19.75502,50479
19.76313,48228
19.77125,46190
19.77938,47877
19.78750,47155
19.79563,47286
19.80375,47653
19.81187,48082
19.82000,43755
19.82812,42628
19.83623,43948
19.84437,44275
19.85248,45516
19.86062,49901
19.86873,66968
19.87685,92489
19.88498,124111
19.89310,157902
19.90123,183138
19.90935,184818
19.91747,166073
19.92560,138372
19.93372,116210
19.94185,105713
19.94997,87396
19.95808,79535
19.96622,77719
19.97433,78239
19.98245,74348
19.99058,68447
19.99870,70286
20.00683,66221
20.01495,65734
20.02307,57873
20.03120,58898
20.03932,59419
20.04745,51215
20.05557,52046
20.06368,50675
20.07182,54363
20.07993,45942
20.08805,42115
20.09618,44809
20.10430,45073
20.11243,44958
20.12055,40323
20.12867,41631
20.13680,38874
20.14492,41195
20.15305,40857
20.16117,42838
20.16928,42812
20.17742,44235
20.18553,50079
20.19367,49360
20.20178,47498
20.20990,42565
20.21803,46682
20.22615,55754
20.23427,58896
20.24240,73285
20.25052,84016
20.25865,87939
20.26677,89120
20.27488,84502
20.28302,74550
20.29113,63137
20.29927,56426
20.30738,54391
20.31550,45880
20.32363,49792
20.33175,44038
20.33987,39087
20.34800,36769
20.35612,42297
20.36425,35776
20.37237,38493
20.38048,37575
20.38862,38825
20.39673,39759
20.40487,44870
20.41298,49300
20.42110,48187
20.42923,49469
20.43735,48537
20.44548,41713
20.45360,45080
20.46172,40788
20.46985,36619
20.47797,34023
20.48608,34989
20.49422,35331
20.50233,34835
20.51047,31271
20.51858,34029
20.52670,32840
20.53483,34916
20.54295,32075
20.55108,33599
20.55920,31258
20.56732,32829
20.57545,31576
20.58357,30327
20.59170,31183
20.59982,31259
20.60793,31213
20.61607,32489
20.62418,36805
20.63230,30033
20.64043,31323
20.64855,32819
20.65668,31621
20.66480,32642
20.67292,30912
20.68105,32682
20.68917,29963
20.69730,29106
20.70542,29428
20.71353,31906
20.72167,30664
20.72978,30962
20.73790,32320
20.74603,31524
20.75415,29211
20.76228,33778
20.77040,32172
20.77852,38769
20.78665,41217
20.79477,47517
20.80290,55542
20.81102,61660
20.81913,60362
20.82727,61242
20.83538,55226
20.84352,49173
20.85163,41226
20.85975,39145
20.86788,33841
20.87600,35946
20.88412,34648
20.89225,37161
20.90037,33745
20.90850,31784
20.91662,32332
20.92473,30826
20.93287,33731
20.94098,30432
20.94912,32040
20.95723,30999
20.96535,28967
20.97348,27891
20.98160,28401
20.98973,30980
20.99785,28477
21.00597,30655
21.01410,28874
21.02222,28492
21.03033,25876
21.03847,28402
21.04658,30213
21.05472,27867
21.06283,32642
21.07095,29751
21.07908,28624
21.08720,26621
21.09533,30482
21.10345,29860
21.11157,28530
21.11970,30273
21.12782,34397
21.13593,41823
21.14407,41829
21.15218,45074
21.16032,46602
21.16843,47467
21.17655,41643
21.18468,40294
21.19280,40760
21.20093,34641
21.20905,34605
21.21717,33881
21.22530,36902
21.23342,32443
21.24155,32410
21.24967,36787
21.25778,33453
21.26592,36272
21.27403,40762
21.28215,40706
21.29028,38231
21.29840,41321
21.30653,42093
21.31465,39841
21.32277,43149
21.33090,44065
21.33902,42585
21.34715,41654
21.35527,45821
21.36338,41396
21.37152,45242
21.37963,42804
21.38775,46146
21.39588,45569
21.40400,45194
21.41213,46212
21.42025,42592
21.42837,50550
21.43650,46047
21.44462,44143
21.45275,40103
21.46087,46708
21.46898,43407
21.47712,39156
21.48523,42467
21.49337,45505
21.50148,48241
21.50960,40152
21.51773,46701
21.52585,44298
21.53397,44976
21.54210,42626
21.55022,46193
21.55835,44916
21.56647,44308
21.57458,50473
21.58272,58557
21.59083,61967
21.59897,63138
21.60708,61545
21.61520,58208
21.62333,53260
21.63145,45333
21.63958,46511
21.64770,41874
21.65582,40637
21.66395,40412
21.67207,41282
21.68018,44064
21.68832,39954
21.69643,41377
21.70457,39308
21.71268,36677
21.72080,35824
21.72893,35916
21.73705,32856
21.74518,33358
21.75330,35271
21.76142,38283
21.76955,44009
21.77767,43509
21.78580,42015
21.79392,41518
21.80203,48026
21.81017,45830
21.81828,41430
21.82640,39794
21.83453,35927
21.84265,37475
21.85078,32902
21.85890,29184
21.86702,32946
21.87515,34637
21.88327,34436
21.89140,33172
21.89952,29389
21.90763,29826
21.91577,32898
21.92388,32958
21.93200,32063
21.94013,32078
21.94825,33969
21.95638,46684
21.96450,59621
21.97262,76235
21.98075,86481
21.98887,88036
21.99700,100115
22.00512,97473
22.01323,96362
22.02137,101055
22.02948,102557
22.03762,103138
22.04573,105229
22.05385,99961
22.06198,106332
22.07010,102698
22.07822,104794
22.08635,95280
22.09447,94191
22.10260,100250
22.11072,99570
22.11883,100441
22.12697,93112
22.13508,87844
22.14322,92742
22.15133,93902
22.15945,87505
22.16758,91325
22.17570,89143
22.18382,87523
22.19195,85529
22.20007,82843
22.20820,82093
22.21632,77523
22.22443,78413
22.23257,74189
22.24068,72817
22.24882,66165
22.25693,68466
22.26505,71052
22.27318,70203
22.28130,69601
22.28943,62930
22.29755,63502
22.30567,62598
22.31380,67070
22.32192,61374
22.33003,67905
22.33817,59662
22.34628,58374
22.35442,66016
22.36253,58294
22.37065,56115
22.37878,56049
22.38690,59673
22.39503,58134
22.40315,61623
22.41127,66480
22.41940,69031
22.42752,62192
22.43565,57123
22.44377,54790
22.45188,51562
22.46002,49716
22.46813,46463
22.47625,46021
22.48438,55750
22.49250,49822
22.50063,49203
22.50875,46809
22.51687,49436
22.52500,53729
22.53312,44491
22.54125,44054
22.54937,49895
22.55748,46150
22.56562,44892
22.57373,41219
22.58185,40359
22.58998,40192
22.59810,40150
22.60623,37430
22.61435,37835
22.62247,37731
22.63060,37428
22.63872,40461
22.64685,38792
22.65497,37222
22.66308,36361
22.67122,39354
22.67933,36221
22.68747,43343
22.69558,43533
22.70370,44637
22.71183,42694
22.71995,46360
22.72807,45678
22.73620,43929
22.74432,42671
22.75245,42556
22.76057,42478
22.76868,40168
22.77682,41271
22.78493,39567
22.79307,40379
22.80118,41918
22.80930,42987
22.81743,40808
22.82555,42028
22.83368,40981
22.84180,43862
22.84992,38738
22.85805,39805
22.86617,42561
22.87428,40016
22.88242,41809
22.89053,45021
22.89867,50628
22.90678,62034
22.91490,73198
22.92303,85653
22.93115,88157
22.93928,91838
22.94740,81703
22.95552,76222
22.96365,70018
22.97177,57575
22.97988,56621
22.98802,49844
22.99613,50512
23.00427,48014
23.01238,44627
23.02050,42395
23.02863,41227
23.03675,38615
23.04488,35432
23.05300,39857
23.06112,37183
23.06925,37375
23.07737,37063
23.08550,37011
23.09362,37503
23.10173,36539
23.10987,36310
23.11798,37972
23.12610,33225
23.13423,35850
23.14235,33036
23.15048,32814
23.15860,35034
23.16672,32839
23.17485,31812
23.18297,31623
23.19110,33559
23.19922,34381
23.20733,30474
23.21547,33818
23.22358,32579
23.23170,33233
23.23983,31701
23.24795,34181
23.25608,32347
23.26420,34210
23.27232,31743
23.28045,32778
23.28857,34987
23.29670,32246
23.30482,33483
23.31293,33108
23.32107,33346
23.32918,34726
23.33732,32833
23.34543,35122
23.35355,36290
23.36168,35795
23.36980,41231
23.37792,38234
23.38605,37354
23.39417,39995
23.40230,35635
23.41042,30614
23.41853,34863
23.42667,35739
23.43478,33811
23.44292,34697
23.45103,35700
23.45915,31449
23.46728,31761
23.47540,31568
23.48353,34337
23.49165,30417
23.49977,32435
23.50790,31487
23.51602,35474
23.52413,28147
23.53227,29305
23.54038,31185
23.54852,29041
23.55663,33695
23.56475,38719
23.57288,37215
23.58100,42311
23.58913,44190
23.59725,48880
23.60537,49446
23.61350,49946
23.62162,48808
23.62973,38280
23.63787,47354
23.64598,42749
23.65412,46919
23.66223,45336
23.67035,39459
23.67848,39956
23.68660,42490
23.69473,43280
23.70285,41745
23.71097,57222
23.71910,72317
23.72722,96747
23.73535,130909
23.74347,215079
23.75158,428785
23.75972,813916
23.76783,1504375
23.77595,2381928
23.78408,3021457
23.79220,3106174
23.80033,2720333
23.80845,2239724
23.81657,1694259
23.82470,1291108
23.83282,975446
23.84095,783783
23.84907,608737
23.85718,517393
23.86532,459945
23.87343,414360
23.88157,371134
23.88968,337521
23.89780,313682
23.90593,286787
23.91405,264480
23.92217,251823
23.93030,238365
23.93842,225237
23.94655,211941
23.95467,213261
23.96278,194927
23.97092,186385
23.97903,174937
23.98717,174999
23.99528,171415
24.00340,159878
24.01153,160788
24.01965,173287
24.02777,163312
24.03590,169886
24.04402,158713
24.05215,154092
24.06027,145272
24.06838,138122
24.07652,135454
24.08463,128396
24.09277,126878
24.10088,114693
24.10900,118427
24.11713,115135
24.12525,111489
24.13338,121154
24.14150,110524
24.14962,118431
24.15775,118838
24.16587,112111
24.17398,113104
24.18212,103026
24.19023,104243
24.19837,92714
24.20648,93728
24.21460,90986
24.22273,84281
24.23085,85493
24.23898,81941
24.24710,82162
24.25522,78701
24.26335,78022
24.27147,78775
24.27958,76855
24.28772,73397
24.29583,76161
24.30397,81015
24.31208,78219
24.32020,84974
24.32833,88377
24.33645,90412
24.34458,83834
24.35270,83672
24.36082,70879
24.36895,69015
24.37707,65866
24.38520,65902
24.39332,61740
24.40143,61164
24.40957,57548
24.41768,58193
24.42580,60240
24.43393,62958
24.44205,69925
24.45018,62647
24.45830,65989
24.46642,65607
24.47455,64164
24.48267,62661
24.49080,60982
24.49892,55771
24.50703,55506
24.51517,54696
24.52328,56786
24.53142,56863
24.53953,52553
24.54765,51924
24.55578,55568
24.56390,52224
24.57202,56391
24.58015,54418
24.58827,48667
24.59640,47756
24.60452,54004
24.61263,47639
24.62077,45926
24.62888,46363
24.63702,45880
24.64513,43096
24.65325,50282
24.66138,54387
24.66950,48475
24.67762,47523
24.68575,47655
24.69387,43031
24.70200,44049
24.71012,43662
24.71823,43506
24.72637,42146
24.73448,43405
24.74262,43415
24.75073,40707
24.75885,42565
24.76698,46119
24.77510,41318
24.78323,47695
24.79135,45031
24.79947,43030
24.80760,45796
24.81572,45364
24.82383,48093
24.83197,49600
24.84008,49223
24.84822,55663
24.85633,65341
24.86445,67790
24.87258,82136
24.88070,85932
24.88883,93626
24.89695,86896
24.90507,77938
24.91320,68754
24.92132,61041
24.92945,55873
24.93757,53788
24.94568,53844
24.95382,67175
24.96193,82562
24.97005,99652
24.97818,111669
24.98630,114205
24.99443,115333
25.00255,113106
25.01067,108644
25.01880,109093
25.02692,112238
25.03505,113433
25.04317,113278
25.05128,111711
25.05942,111323
25.06753,116604
25.07565,111063
25.08378,111653
25.09190,127540
25.10003,137174
25.10815,170117
25.11627,227598
25.12440,304111
25.13252,415266
25.14065,501999
25.14877,513147
25.15688,468550
25.16502,406353
25.17313,325305
25.18127,249063
25.18938,196789
25.19750,166974
25.20563,145799
25.21375,135331
25.22187,129702
25.23000,136279
25.23812,160672
25.24625,194520
25.25437,248760
25.26248,286863
25.27062,315698
25.27873,296759
25.28687,261816
25.29498,207646
25.30310,172131
25.31123,137188
25.31935,117501
25.32748,106682
25.33560,93069
25.34372,92859
25.35185,86890
25.35997,82755
25.36808,82542
25.37622,77597
25.38433,76401
25.39247,75919
25.40058,79428
25.40870,79003
25.41683,69447
25.42495,69810
25.43308,68654
25.44120,64729
25.44932,59702
25.45745,59888
25.46557,62077
25.47368,59618
25.48182,54832
25.48993,58181
25.49807,54091
25.50618,53520
25.51430,56327
25.52243,55506
25.53055,53530
25.53868,50977
25.54680,51071
25.55492,52234
25.56305,49730
25.57117,54814
25.57930,50756
25.58742,50796
25.59553,46861
25.60367,47655
25.61178,49115
25.61990,48598
25.62803,51121
25.63615,47491
25.64428,46084
25.65240,49229
25.66052,44285
25.66865,44774
25.67677,47068
25.68490,42807
25.69302,41386
25.70113,41234
25.70927,38270
25.71738,42179
25.72550,42584
25.73363,45488
25.74175,46986
25.74988,40971
25.75800,44268
25.76612,42283
25.77425,44028
25.78237,47095
25.79050,41992
25.79862,42391
25.80673,43282
25.81487,43398
25.82298,42983
25.83112,39920
25.83923,40764
25.84735,41247
25.85548,38501
25.86360,37819
25.87172,39449
25.87985,39892
25.88797,38540
25.89610,38625
25.90422,38152
25.91233,34647
25.92047,37570
25.92858,38976
25.93672,38774
25.94483,40859
25.95295,40756
25.96108,39511
25.96920,37710
25.97733,34981
25.98545,36748
25.99357,40041
26.00170,38116
26.00982,38249
26.01793,38458
26.02607,34862
26.03418,37484
26.04232,36217
26.05043,37523
26.05855,36718
26.06668,34514
26.07480,38859
26.08293,36484
26.09105,37151
26.09917,39214
26.10730,37373
26.11542,38498
26.12353,36821
26.13167,35874
26.13978,37975
26.14792,39212
26.15603,38268
26.16415,37060
26.17228,38947
26.18040,38076
26.18853,38140
26.19665,35113
26.20477,36350
26.21290,35324
26.22102,35670
26.22915,38181
26.23727,34673
26.24538,33160
26.25352,34313
26.26163,34822
26.26975,33266
26.27788,33900
26.28600,34291
26.29413,39034
26.30225,32415
26.31037,34392
26.31850,33833
26.32662,32799
26.33475,33173
26.34287,33607
26.35098,33779
26.35912,30200
26.36723,31579
26.37537,32660
26.38348,32706
26.39160,32615
26.39973,33501
26.40785,31336
26.41597,33017
26.42410,29731
26.43222,34603
26.44035,34959
26.44847,33537
26.45658,32601
26.46472,32485
26.47283,32225
26.48097,35402
26.48908,31196
26.49720,30571
26.50533,31396
26.51345,32829
26.52157,31174
26.52970,34049
26.53782,30114
26.54595,31400
26.55407,31052
26.56218,31894
26.57032,31051
26.57843,25988
26.58657,29027
26.59468,32888
26.60280,33711
26.61093,35857
26.61905,35423
26.62718,32653
26.63530,32134
26.64342,34404
26.65155,33407
26.65967,31005
26.66778,34374
26.67592,36641
26.68403,37729
26.69217,33903
26.70028,33795
26.70840,34995
26.71653,33360
26.72465,29542
26.73278,31637
26.74090,31371
26.74902,31675
26.75715,33659
26.76527,30298
26.77338,32842
26.78152,37710
26.78963,35155
26.79777,34416
26.80588,33005
26.81400,36025
26.82213,33134
26.83025,32651
26.83838,32355
26.84650,35826
26.85462,33454
26.86275,30412
26.87087,29210
26.87900,29176
26.88712,30913
26.89523,30588
26.90337,33045
26.91148,31953
26.91960,31279
26.92773,31728
26.93585,34998
26.94398,36924
26.95210,50557
26.96022,74381
26.96835,107156
26.97647,162523
26.98460,217000
26.99272,248137
27.00083,277270
27.00897,278256
27.01708,259519
27.02522,224762
27.03333,187290
27.04145,145178
27.04958,121656
27.05770,101383
27.06582,87969
27.07395,76453
27.08207,73123
27.09020,66390
27.09832,63426
27.10643,57430
27.11457,55564
27.12268,55405
27.13082,51529
27.13893,52152
27.14705,49780
27.15518,54900
27.16330,58975
27.17143,53374
27.17955,54535
27.18767,51785
27.19580,48414
27.20392,44358
27.21203,47583
27.22017,41317
27.22828,44517
27.23642,42651
27.24453,42645
27.25265,41446
27.26078,37500
27.26890,42910
27.27703,38745
27.28515,37218
27.29327,39547
27.30140,38753
27.30952,36380
27.31763,35972
27.32577,34080
27.33388,39782
27.34202,36134
27.35013,35922
27.35825,33393
27.36638,37318
27.37450,37203
27.38263,40375
27.39075,36728
27.39887,35655
27.40700,36591
27.41512,33386
27.42325,34118
27.43137,35673
27.43948,34750
27.44762,36415
27.45573,38588
27.46385,36798
27.47198,32264
27.48010,33617
27.48823,32578
27.49635,31247
27.50447,34793
27.51260,32896
27.52072,37001
27.52885,35732
27.53697,32605
27.54508,35392
27.55322,30599
27.56133,31689
27.56945,34564
27.57758,32258
27.58570,35110
27.59383,38024
27.60195,36169
27.61007,34407
27.61820,33829
27.62632,36483
27.63445,31120
27.64257,32828
27.65068,31970
27.65882,31971
27.66693,31769
27.67507,31496
27.68318,31926
27.69130,30245
27.69943,30806
27.70755,32275
27.71567,32096
27.72380,35140
27.73192,32491
27.74005,36105
27.74817,37361
27.75628,34662
27.76442,37985
27.77253,37914
27.78067,43497
27.78878,39385
27.79690,36834
27.80503,37679
27.81315,35118
27.82128,33222
27.82940,35733
27.83752,31225
27.84565,32407
27.85377,32399
27.86188,30949
27.87002,31092
27.87813,31342
27.88627,33430
27.89438,27995
27.90250,25668
27.91063,30065
27.91875,29248
27.92688,27239
27.93500,29091
27.94312,27250
27.95125,30364
27.95937,28285
27.96748,29406
27.97562,34858
27.98373,32481
27.99187,35330
27.99998,31395
28.00810,34398
28.01623,33880
28.02435,31221
28.03248,33066
28.04060,34668
28.04872,35997
28.05685,33586
28.06497,34608
28.07310,33372
28.08122,33003
28.08933,34980
28.09747,31688
28.10558,31926
28.11370,34097
28.12183,39968
28.12995,35509
28.13808,34373
28.14620,32964
28.15432,30499
28.16245,28378
28.17057,31071
28.17870,31510
28.18682,29109
28.19493,31182
28.20307,33784
28.21118,33987
28.21932,35924
28.22743,35016
28.23555,31341
28.24368,32669
28.25180,31060
28.25992,32105
28.26805,34582
28.27617,38945
28.28430,43538
28.29242,52153
28.30053,53494
28.30867,56459
28.31678,61293
28.32492,62033
28.33303,63632
28.34115,56619
28.34928,59789
28.35740,54889
28.36552,49101
28.37365,44331
28.38177,45787
28.38990,41694
28.39802,40398
28.40613,41619
28.41427,39042
28.42238,38697
28.43052,35614
28.43863,39431
28.44675,31702
28.45488,32018
28.46300,33528
28.47113,32454
28.47925,34049
28.48737,33197
28.49550,30543
28.50362,31132
28.51173,31406
28.51987,32041
28.52798,32398
28.53612,30968
28.54423,28627
28.55235,31162
28.56048,32478
28.56860,29964
28.57673,29863
28.58485,30181
28.59297,25183
28.60110,26565
28.60922,29339
28.61733,30665
28.62547,30991
28.63358,29738
28.64172,32795
28.64983,33604
28.65795,34769
28.66608,36156
28.67420,33534
28.68233,37735
28.69045,42905
28.69857,42336
28.70670,36576
28.71482,31958
28.72295,31591
28.73107,30816
28.73918,30136
28.74732,29762
28.75543,28019
28.76355,28349
28.77168,26113
28.77980,27831
28.78793,27824
28.79605,31049
28.80417,27376
28.81230,31511
28.82042,31564
28.82855,30515
28.83667,29652
28.84478,31239
28.85292,30117
28.86103,33098
28.86917,26877
28.87728,31253
28.88540,31806
28.89353,28546
28.90165,30245
28.90977,34362
28.91790,30180
28.92602,32577
28.93415,29408
28.94227,31343
28.95038,32517
28.95852,30897
28.96663,30787
28.97477,33319
28.98288,26957
28.99100,30865
28.99913,30046
29.00725,28555
29.01537,27632
29.02350,27888
29.03162,29910
29.03975,28888
29.04787,26846
29.05598,30883
29.06412,30238
29.07223,29559
29.08037,32387
29.08848,30816
29.09660,30708
29.10473,27921
29.11285,29974
29.12098,32353
29.12910,29547
29.13722,27612
29.14535,29815
29.15347,30294
29.16158,28637
29.16972,30602
29.17783,27690
29.18597,30741
29.19408,32714
29.20220,33756
29.21033,33141
29.21845,35095
29.22658,36907
29.23470,36059
29.24282,34344
29.25095,33827
29.25907,31193
29.26720,32209
29.27532,30054
29.28343,30565
29.29157,28127
29.29968,28559
29.30780,27888
29.31593,26928
29.32405,26275
29.33218,29594
29.34030,27510
29.34842,26768
29.35655,28709
29.36467,26013
29.37280,28568
29.38092,29006
29.38903,28849
29.39717,30446
29.40528,29778
29.41340,31574
29.42153,29555
29.42965,30355
29.43778,27454
29.44590,26723
29.45402,28676
29.46215,27196
29.47027,26694
29.47840,29554
29.48652,29164
29.49463,27224
29.50277,28141
29.51088,28868
29.51902,29911
29.52713,30164
29.53525,29164
29.54338,28275
29.55150,25878
29.55962,28025
29.56775,30405
29.57587,28078
29.58400,25014
29.59212,30609
29.60023,29890
29.60837,26731
29.61648,29473
29.62462,29916
29.63273,27383
29.64085,24938
29.64898,27438
29.65710,28491
29.66523,25300
29.67335,25317
29.68147,29198
29.68960,31303
29.69772,28372
29.70583,26706
29.71397,28663
29.72208,24288
29.73022,28779
29.73833,26324
29.74645,24857
29.75458,28631
29.76270,24909
29.77083,25600
29.77895,25333
29.78707,25225
29.79520,24422
29.80332,28691
29.81143,26805
29.81957,26434
29.82768,26152
29.83582,28791
29.84393,25738
29.85205,27142
29.86018,31635
29.86830,37669
29.87643,39821
29.88455,44886
29.89267,54740
29.90080,53378
29.90892,54434
29.91705,50717
29.92517,49899
29.93328,44778
29.94142,46730
29.94953,45118
29.95765,46550
29.96578,43590
29.97390,46050
29.98203,44264
29.99015,40174
29.99827,41662
30.00640,41675
30.01452,39225
30.02265,36641
30.03077,34922
30.03888,38096
30.04702,41835
30.05513,39033
30.06325,42816
30.07138,44915
30.07950,45159
30.08763,43822
30.09575,38315
30.10387,44943
30.11200,44243
30.12012,39950
30.12825,43949
30.13637,38513
30.14448,37804
30.15262,39735
30.16073,37576
30.16887,39840
30.17698,41271
30.18510,39621
30.19323,37347
30.20135,36158
30.20947,33894
30.21760,38127
30.22572,37767
30.23385,35648
30.24197,36926
30.25008,35745
30.25822,35119
30.26633,33076
30.27447,35732
30.28258,33235
30.29070,33047
30.29883,36669
30.30695,35228
30.31508,31284
30.32320,35708
30.33132,33592
30.33945,35210
30.34757,31840
30.35568,30402
30.36382,33769
30.37193,33442
30.38007,35778
30.38818,30247
30.39630,34197
30.40443,30208
30.41255,30551
30.42068,30274
30.42880,31103
30.43692,31523
30.44505,31984
30.45317,32842
30.46128,31240
30.46942,32556
30.47753,29505
30.48567,26235
30.49378,30361
30.50190,33491
30.51003,28910
30.51815,32917
30.52628,29198
30.53440,27568
30.54252,27406
30.55065,27117
30.55877,30768
30.56690,30753
30.57502,28074
30.58313,30459
30.59127,28308
30.59938,30750
30.60750,29039
30.61563,27236
30.62375,29778
30.63188,26997
30.64000,28256
30.64812,24801
30.65625,28850
30.66437,28166
30.67250,31251
30.68062,24546
30.68873,26618
30.69687,25386
30.70498,26256
30.71312,28160
30.72123,25603
30.72935,26571
30.73748,31085
30.74560,26429
30.75372,29541
30.76185,31839
30.76997,34280
30.77810,46243
30.78622,49041
30.79433,53579
30.80247,60453
30.81058,58247
30.81872,52041
30.82683,46398
30.83495,42284
30.84308,36280
30.85120,37081
30.85932,35855
30.86745,29169
30.87557,28432
30.88370,31325
30.89182,30108
30.89993,32543
30.90807,29740
30.91618,28957
30.92432,30599
30.93243,30680
30.94055,31008
30.94868,28549
30.95680,32124
30.96493,29686
30.97305,28386
30.98117,28717
30.98930,30406
30.99742,29922
31.00553,28720
31.01367,31561
31.02178,30936
31.02992,27389
31.03803,28077
31.04615,31390
31.05428,31144
31.06240,31603
31.07053,31509
31.07865,38391
31.08677,40584
31.09490,41986
31.10302,40774
31.11113,41307
31.11927,36229
31.12738,36688
31.13552,36298
31.14363,32655
31.15175,32950
31.15988,34737
31.16800,33425
31.17613,38118
31.18425,43336
31.19237,51017
31.20050,59907
31.20862,58759
31.21675,54919
31.22487,52056
31.23298,47573
31.24112,36506
31.24923,32558
31.25735,31775
31.26548,28375
31.27360,29498
31.28173,29552
31.28985,28096
31.29797,33194
31.30610,31161
31.31422,29230
31.32235,28020
31.33047,30570
31.33858,30965
31.34672,26946
31.35483,31198
31.36297,31152
31.37108,29949
31.37920,29117
31.38733,28732
31.39545,28996
31.40357,27931
31.41170,27042
31.41982,28470
31.42795,31059
31.43607,29603
31.44418,31639
31.45232,30542
31.46043,31740
31.46857,33315
31.47668,38034
31.48480,34797
31.49293,33774
31.50105,35649
31.50917,30244
31.51730,30956
31.52542,33030
31.53355,31653
31.54167,33632
31.54978,36749
31.55792,36648
31.56603,35966
31.57417,35914
31.58228,34974
31.59040,32038
31.59853,29641
31.60665,28621
31.61478,27977
31.62290,30740
31.63102,27086
31.63915,29462
31.64727,30081
31.65538,29354
31.66352,32088
31.67163,29909
31.67977,29377
31.68788,33228
31.69600,33333
31.70413,31714
31.71225,29869
31.72038,28884
31.72850,29065
31.73662,27899
31.74475,26371
31.75287,28021
31.76100,27788
31.76912,29647
31.77723,30938
31.78537,33147
31.79348,26836
31.80160,31285
31.80973,31362
31.81785,33195
31.82598,29441
31.83410,36123
31.84222,34678
31.85035,35535
31.85847,35828
31.86660,40950
31.87472,45566
31.88283,42920
31.89097,40071
31.89908,46084
31.90720,42057
31.91533,44289
31.92345,44298
31.93158,37350
31.93970,37019
31.94782,39720
31.95595,38321
31.96407,35750
31.97220,37842
31.98032,40673
31.98843,39674
31.99657,36330
32.00468,34876
32.01282,36242
32.02093,33118
32.02905,30961
32.03718,31178
32.04530,31636
32.05342,30786
32.06155,31353
32.06967,29678
32.07780,30178
32.08592,27755
32.09403,28929
32.10217,27548
32.11028,27308
32.11842,26470
32.12653,30279
32.13465,29109
32.14278,30949
32.15090,29980
32.15902,26133
32.16715,30118
32.17527,29157
32.18340,29397
32.19152,28333
32.19963,28475
32.20777,29450
32.21588,29558
32.22402,31651
32.23213,29237
32.24025,30056
32.24838,30130
32.25650,31481
32.26463,31093
32.27275,30870
32.28087,29029
32.28900,30322
32.29712,30191
32.30523,31144
32.31337,30465
32.32148,26787
32.32962,28416
32.33773,28317
32.34585,30214
32.35398,36201
32.36210,31337
32.37023,30272
32.37835,31054
32.38647,28155
32.39460,29192
32.40272,27039
32.41085,29120
32.41897,26866
32.42708,29836
32.43522,27185
32.44333,30584
32.45145,29590
32.45958,27738
32.46770,29242
32.47583,30959
32.48395,26683
32.49207,27929
32.50020,27411
32.50832,27629
32.51645,30671
32.52457,30041
32.53268,26997
32.54082,32211
32.54893,29016
32.55707,26999
32.56518,33403
32.57330,32405
32.58143,33268
32.58955,38254
32.59767,35165
32.60580,35517
32.61392,31720
32.62205,32398
32.63017,30829
32.63828,32548
32.64642,29327
32.65453,31527
32.66267,28206
32.67078,28600
32.67890,29786
32.68703,29465
32.69515,29933
32.70327,34586
32.71140,30304
32.71952,31397
32.72765,31368
32.73577,27232
32.74388,28067
32.75202,29183
32.76013,29498
32.76827,27238
32.77638,25167
32.78450,26801
32.79263,30116
32.80075,30801
32.80888,29045
32.81700,28057
32.82512,26887
32.83325,26681
32.84137,30442
32.84948,30338
32.85762,27122
32.86573,28313
32.87387,28032
32.88198,29646
32.89010,27809
32.89823,28425
32.90635,30505
32.91448,28749
32.92260,27384
32.93072,27847
32.93885,31266
32.94697,30926
32.95508,29857
32.96322,38288
32.97133,40551
32.97947,46331
32.98758,47467
32.99570,57938
33.00383,54407
33.01195,50766
33.02008,43592
33.02820,42016
33.03632,39082
33.04445,33860
33.05257,35662
33.06070,32570
33.06882,32858
33.07693,33232
33.08507,34675
33.09318,37999
33.10130,39004
33.10943,37389
33.11755,37035
33.12568,42225
33.13380,37562
33.14192,35324
33.15005,32288
33.15817,31292
33.16630,30917
33.17442,33461
33.18253,31251
33.19067,33821
33.19878,31514
33.20692,32757
33.21503,31539
33.22315,31061
33.23128,32231
33.23940,28483
33.24752,34271
33.25565,33406
33.26377,30160
33.27190,34367
33.28002,29025
33.28813,30011
33.29627,29206
33.30438,30993
33.31252,31179
33.32063,30194
33.32875,27963
33.33688,32092
33.34500,31080
33.35312,28822
33.36125,33246
33.36937,32155
33.37750,29984
33.38562,33741
33.39373,28864
33.40187,29977
33.40998,29532
33.41812,28617
33.42623,28881
33.43435,27938
33.44248,33302
33.45060,33724
33.45873,29785
33.46685,31380
33.47497,30843
33.48310,30180
33.49122,31753
33.49933,30972
33.50747,31008
33.51558,31555
33.52372,32277
33.53183,34024
33.53995,32929
33.54808,32923
33.55620,34322
33.56433,37366
33.57245,35210
33.58057,36633
33.58870,36659
33.59682,35249
33.60495,37507
33.61307,36863
33.62118,41758
33.62932,41240
33.63743,40194
33.64555,44885
33.65368,39005
33.66180,40506
33.66993,40720
33.67805,41643
33.68617,43744
33.69430,44716
33.70242,42808
33.71055,43538
33.71867,41863
33.72678,45626
33.73492,43907
33.74303,46849
33.75115,45249
33.75928,50817
33.76740,45510
33.77553,42931
33.78365,45446
33.79177,43255
33.79990,49071
33.80802,43757
33.81615,40694
33.82427,40336
33.83238,40693
33.84052,41032
33.84863,41773
33.85677,36858
33.86488,38227
33.87300,37075
33.88113,40218
33.88925,40135
33.89737,38817
33.90550,37469
33.91362,38794
33.92175,35644
33.92987,37778
33.93798,36709
33.94612,35786
33.95423,37212
33.96237,35646
33.97048,34204
33.97860,36033
33.98673,35801
33.99485,33525
34.00297,36570
34.01110,33538
34.01922,34045
34.02735,31069
34.03547,37741
34.04358,31667
34.05172,36125
34.05983,36511
34.06797,31475
34.07608,37951
34.08420,31704
34.09233,32703
34.10045,35635
34.10858,35977
34.11670,33685
34.12482,33947
34.13295,31612
34.14107,32288
34.14918,32575
34.15732,33807
34.16543,36225
34.17357,32741
34.18168,30409
34.18980,34448
34.19793,31713
34.20605,33058
34.21418,35136
34.22230,29355
34.23042,34808
34.23855,37544
34.24667,31750
34.25480,36409
34.26292,35385
34.27103,34391
34.27917,30968
34.28728,33201
34.29540,32133
34.30353,34764
34.31165,33348
34.31978,33303
34.32790,35922
34.33602,37449
34.34415,36179
34.35227,33948
34.36040,35130
34.36852,32551
34.37663,31721
34.38477,33881
34.39288,36556
34.40100,34908
34.40913,38825
34.41725,35723
34.42538,38347
34.43350,38573
34.44162,41279
34.44975,46008
34.45787,48294
34.46600,53194
34.47412,50422
34.48223,54633
34.49037,52051
34.49848,54783
34.50662,55861
34.51473,49705
34.52285,48633
34.53098,47410
34.53910,49989
34.54722,42199
34.55535,44878
34.56347,42084
34.57160,42980
34.57972,40973
34.58783,41930
34.59597,42986
34.60408,40324
34.61222,42895
34.62033,42384
34.62845,41474
34.63658,39397
34.64470,38514
34.65283,36896
34.66095,36941
34.66907,35188
34.67720,34318
34.68532,38227
34.69343,39584
34.70157,35230
34.70968,36451
34.71782,32824
34.72593,37237
34.73405,37750
34.74218,35750
34.75030,32743
34.75843,35966
34.76655,35766
34.77467,34620
34.78280,34864
34.79092,30564
34.79903,31843
34.80717,36572
34.81528,32764
34.82342,31583
34.83153,36783
34.83965,34175
34.84778,30313
34.85590,35764
34.86403,37248
34.87215,34759
34.88027,35580
34.88840,32200
34.89652,32966
34.90465,33459
34.91277,31522
34.92088,35505
34.92902,30327
34.93713,29395
34.94525,35977
34.95338,36190
34.96150,35170
34.96963,36756
34.97775,36256
34.98587,32526
34.99400,37052
35.00212,30656
35.01025,32901
35.01837,32930
35.02648,33577
35.03462,31491
35.04273,34777
35.05085,34475
35.05898,35199
35.06710,35389
35.07523,36540
35.08335,36587
35.09147,32021
35.09960,35420
35.10772,34514
35.11585,32570
35.12397,33933
35.13208,34308
35.14022,35826
35.14833,36823
35.15647,35985
35.16458,37002
35.17270,34907
35.18083,37266
35.18895,36826
35.19707,38616
35.20520,31443
35.21332,36263
35.22145,32751
35.22957,34214
35.23768,36991
35.24582,38827
35.25393,37430
35.26207,33456
35.27018,35167
35.27830,39324
35.28643,38957
35.29455,37828
35.30268,36403
35.31080,36855
35.31892,36441
35.32705,37499
35.33517,37079
35.34328,36013
35.35142,38318
35.35953,38528
35.36767,38006
35.37578,37619
35.38390,36261
35.39203,36084
35.40015,38349
35.40828,35798
35.41640,37634
35.42452,36537
35.43265,35249
35.44077,38422
35.44888,39508
35.45702,38057
35.46513,39176
35.47327,41676
35.48138,35851
35.48950,43475
35.49763,40920
35.50575,40447
35.51388,38784
35.52200,38543
35.53012,37128
35.53825,39107
35.54637,39559
35.55450,38020
35.56262,43910
35.57073,42313
35.57887,45995
35.58698,44680
35.59510,45912
35.60323,47720
35.61135,42399
35.61948,40495
35.62760,39564
35.63572,39366
35.64385,40647
35.65197,39957
35.66010,37371
35.66822,40801
35.67633,40620
35.68447,42955
35.69258,37005
35.70072,40041
35.70883,40037
35.71695,36433
35.72508,39181
35.73320,38968
35.74132,42728
35.74945,40552
35.75757,41287
35.76570,38511
35.77382,38110
35.78193,41425
35.79007,41537
35.79818,39965
35.80632,40577
35.81443,40693
35.82255,37154
35.83068,39520
35.83880,38780
35.84692,40061
35.85505,39176
35.86317,42939
35.87130,41351
35.87942,37383
35.88753,38441
35.89567,38063
35.90378,38948
35.91192,37378
35.92003,40612
35.92815,37893
35.93628,40022
35.94440,38995
35.95253,39491
35.96065,40165
35.96877,40211
35.97690,39409
35.98502,39153
35.99313,39689
36.00127,41106
36.00938,42131
36.01752,41304
36.02563,42583
36.03375,41502
36.04188,43011
36.05000,38518
36.05813,41926
36.06625,39269
36.07437,38827
36.08250,42864
36.09062,38984
36.09875,39426
36.10687,37355
36.11498,38080
36.12312,39217
36.13123,43228
36.13935,39806
36.14748,36698
36.15560,39520
36.16373,35389
36.17185,40714
36.17997,40337
36.18810,37479
36.19622,36899
36.20435,42549
36.21247,43800
36.22058,45112
36.22872,46393
36.23683,49591
36.24495,49300
36.25308,44752
36.26120,41894
36.26933,45178
36.27745,41087
36.28557,40715
36.29370,38533
36.30182,37884
36.30995,42562
36.31807,40689
36.32618,41463
36.33432,43219
36.34243,36974
36.35057,39026
36.35868,39948
36.36680,40947
36.37493,45282
36.38305,43335
36.39117,40199
36.39930,37687
36.40742,38032
36.41555,39146
36.42367,39905
36.43178,38658
36.43992,38604
36.44803,41532
36.45617,38871
36.46428,39979
36.47240,40925
36.48053,41009
36.48865,38039
36.49677,37725
36.50490,37807
36.51302,37376
36.52115,37835
36.52927,40831
36.53738,39873
36.54552,42564
36.55363,42518
36.56177,43958
36.56988,42151
36.57800,43084
36.58613,44278
36.59425,39475
36.60238,42669
36.61050,41441
36.61862,41005
36.62675,38629
36.63487,40593
36.64298,38193
36.65112,38086
36.65923,36659
36.66737,41461
36.67548,40474
36.68360,37948
36.69173,39655
36.69985,40478
36.70798,38804
36.71610,41216
36.72422,40474
36.73235,41381
36.74047,43386
36.74860,41170
36.75672,38318
36.76483,42351
36.77297,44729
36.78108,41892
36.78920,40478
36.79733,42425
36.80545,42488
36.81358,42149
36.82170,36088
36.82982,41388
36.83795,41691
36.84607,42336
36.85420,41945
36.86232,46421
36.87043,43595
36.87857,41804
36.88668,41267
36.89480,38514
36.90293,42973
36.91105,45356
36.91918,47171
36.92730,45326
36.93542,49769
36.94355,51817
36.95167,52107
36.95980,52681
36.96792,50044
36.97603,50435
36.98417,49774
36.99228,51342
37.00042,49820
37.00853,51781
37.01665,49189
37.02478,52855
37.03290,51488
37.04102,51719
37.04915,51014
37.05727,49592
37.06540,44712
37.07352,47111
37.08163,44862
37.08977,43281
37.09788,42820
37.10602,42392
37.11413,48157
37.12225,46435
37.13038,48157
37.13850,43270
37.14663,45777
37.15475,43259
37.16287,45594
37.17100,44150
37.17912,42516
37.18723,45996
37.19537,44459
37.20348,44124
37.21162,48120
37.21973,44344
37.22785,45293
37.23598,50850
37.24410,51052
37.25223,52730
37.26035,54308
37.26847,60105
37.27660,57668
37.28472,59282
37.29283,56783
37.30097,56165
37.30908,54953
37.31722,48992
37.32533,52337
37.33345,50366
37.34158,48223
37.34970,50156
37.35783,49618
37.36595,53882
37.37407,44464
37.38220,49745
37.39032,50983
37.39845,46037
37.40657,45984
37.41468,45315
37.42282,50991
37.43093,45587
37.43905,46363
37.44718,45473
37.45530,48263
37.46343,46482
37.47155,46184
37.47967,47958
37.48780,45505
