Z:\data\JTB-E02\BACandBLUE\JTB-E18-007-10.D Fri Apr 12 12:55:42 2019
Start of data points
2.09527,128604
2.10338,117568
2.11152,121499
2.11963,119124
2.12777,121121
2.13588,134646
2.14400,122044
2.15213,122179
2.16025,124667
2.16837,116113
2.17650,113534
2.18462,119392
2.19275,114407
2.20087,116322
2.20898,111576
2.21712,112917
2.22523,113635
2.23337,111412
2.24148,107726
2.24960,114501
2.25773,110827
2.26585,155156
2.27398,846344
2.28210,2522854
2.29022,2000630
2.29835,985397
2.30647,655717
2.31458,527941
2.32272,460365
2.33083,391949
2.33897,360361
2.34708,314814
2.35520,285855
2.36333,264213
2.37145,261503
2.37958,253487
2.38770,237219
2.39582,230381
2.40395,219661
2.41207,216486
2.42018,211006
2.42832,210056
2.43643,198842
2.44457,196590
2.45268,197733
2.46080,189832
2.46893,185770
2.47705,181913
2.48518,187900
2.49330,186288
2.50142,194300
2.50955,188130
2.51767,183670
2.52580,182881
2.53392,187261
2.54203,176607
2.55017,188201
2.55828,352168
2.56640,677975
2.57453,616954
2.58265,436456
2.59078,349630
2.59890,309687
2.60702,292319
2.61515,320426
2.62327,320136
2.63140,290635
2.63952,263377
2.64763,249123
2.65577,239320
2.66388,219126
2.67202,213112
2.68013,203362
2.68825,193775
2.69638,198030
2.70450,189071
2.71262,190836
2.72075,191184
2.72887,188724
2.73700,186922
2.74512,181905
2.75323,177112
2.76137,175127
2.76948,170526
2.77762,182899
2.78573,313593
2.79385,437605
2.80198,375925
2.81010,290613
2.81822,271530
2.82635,253889
2.83447,229376
2.84260,214853
2.85072,200549
2.85883,195491
2.86697,187998
2.87508,187002
2.88322,183245
2.89133,179806
2.89945,175151
2.90758,178693
2.91570,171159
2.92383,167751
2.93195,168349
2.94007,167218
2.94820,168028
2.95632,169148
2.96443,164917
2.97257,166300
2.98068,160826
2.98882,165387
2.99693,169958
3.00505,167909
3.01318,174604
3.02130,177233
3.02943,160125
3.03755,166350
3.04567,159980
3.05380,161971
3.06192,162348
3.07005,183186
3.07817,186112
3.08628,207509
3.09442,315345
3.10253,472267
3.11065,668903
3.11878,737564
3.12690,557762
3.13503,413606
3.14315,346618
3.15127,301437
3.15940,273166
3.16752,254500
3.17565,286802
3.18377,374663
3.19188,796430
3.20002,1320985
3.20813,1231813
3.21625,860044
3.22438,666372
3.23250,560232
3.24063,480800
3.24875,424932
3.25687,377727
3.26500,356563
3.27312,315756
3.28125,303737
3.28937,343777
3.29748,724235
3.30562,1948088
3.31373,3702490
3.32187,4655731
3.32998,4286437
3.33810,3575718
3.34623,2968290
3.35435,2533082
3.36247,2218201
3.37060,2017930
3.37872,1783871
3.38685,1624001
3.39497,1507984
3.40308,1403533
3.41122,1290826
3.41933,1214291
3.42747,1161315
3.43558,1096274
3.44370,1046260
3.45183,1001995
3.45995,961332
3.46808,901310
3.47620,881065
3.48432,848966
3.49245,828586
3.50057,803187
3.50868,757916
3.51682,758622
3.52493,772442
3.53307,803364
3.54118,791387
3.54930,753212
3.55743,713993
3.56555,685313
3.57368,683774
3.58180,667559
3.58992,648559
3.59805,632982
3.60617,629239
3.61428,604668
3.62242,603326
3.63053,604211
3.63867,585392
3.64678,574971
3.65490,585008
3.66303,807008
3.67115,2536476
3.67928,7151092
3.68740,1.104808E+07
3.69552,9727775
3.70365,6401003
3.71177,4586064
3.71990,3761113
3.72802,3178470
3.73613,2795279
3.74427,2473449
3.75238,2221292
3.76050,2027819
3.76863,1892262
3.77675,1721461
3.78488,1636731
3.79300,1533744
3.80112,1452564
3.80925,1383418
3.81737,1312331
3.82550,1275613
3.83362,1199142
3.84173,1130812
3.84987,1077781
3.85798,1031982
3.86610,989501
3.87423,947519
3.88235,914067
3.89048,890643
3.89860,854846
3.90672,824622
3.91485,810129
3.92297,818358
3.93110,889213
3.93922,911213
3.94733,876008
3.95547,901265
3.96358,1084610
3.97172,1329237
3.97983,1308266
3.98795,1113536
3.99608,970212
4.00420,1011847
4.01232,1368227
4.02045,1768926
4.02857,1738831
4.03670,1381680
4.04482,1058294
4.05293,882373
4.06107,774962
4.06918,707538
4.07732,659849
4.08543,626338
4.09355,592671
4.10168,571377
4.10980,555760
4.11793,532948
4.12605,564042
4.13417,945726
4.14230,2302119
4.15042,4606823
4.15853,6070905
4.16667,5531415
4.17478,3959813
4.18292,2654062
4.19103,1859240
4.19915,1402810
4.20728,1466914
4.21540,3337629
4.22353,9493060
4.23165,1.832948E+07
4.23977,2.555188E+07
4.24790,3.020669E+07
4.25602,3.248998E+07
4.26413,3.009058E+07
4.27227,2.027327E+07
4.28038,1.242222E+07
4.28852,8779982
4.29663,6626804
4.30475,5211857
4.31288,4125028
4.32100,3384544
4.32913,2867731
4.33725,2456071
4.34537,2133907
4.35350,1914977
4.36162,1712883
4.36975,1580018
4.37787,1445465
4.38598,1357474
4.39412,1245044
4.40223,1144535
4.41035,1071324
4.41848,992683
4.42660,935199
4.43473,881496
4.44285,853927
4.45097,803577
4.45910,780101
4.46722,836769
4.47535,1164693
4.48347,2287131
4.49158,3758371
4.49972,4288140
4.50783,3582392
4.51597,2605154
4.52408,1996397
4.53220,1688847
4.54033,1494695
4.54845,1377578
4.55657,1296496
4.56470,1218327
4.57282,1136789
4.58095,1072365
4.58907,1024164
4.59718,978929
4.60532,970797
4.61343,911957
4.62157,915259
4.62968,897187
4.63780,936850
4.64593,992644
4.65405,1007011
4.66217,968201
4.67030,893068
4.67842,833083
4.68655,803768
4.69467,796160
4.70278,769027
4.71092,722667
4.71903,701356
4.72717,694487
4.73528,672753
4.74340,674022
4.75153,651756
4.75965,635836
4.76778,625364
4.77590,616172
4.78402,605197
4.79215,585654
4.80027,600626
4.80838,597592
4.81652,601578
4.82463,591950
4.83277,580272
4.84088,564934
4.84900,562938
4.85713,552275
4.86525,544274
4.87338,531414
4.88150,527421
4.88962,504931
4.89775,507532
4.90587,500210
4.91398,495558
4.92212,492010
4.93023,497216
4.93837,572693
4.94648,894145
4.95460,1641785
4.96273,2766971
4.97085,3709972
4.97898,3864448
4.98710,3372627
4.99522,2713058
5.00335,2159641
5.01147,1803308
5.01960,1598242
5.02772,1436353
5.03583,1390558
5.04397,1339440
5.05208,1306513
5.06020,1267473
5.06833,1159168
5.07645,1094261
5.08458,1050374
5.09270,991168
5.10082,970683
5.10895,917983
5.11707,905818
5.12520,878033
5.13332,852581
5.14143,845770
5.14957,817286
5.15768,825251
5.16582,837777
5.17393,841283
5.18205,839340
5.19018,806941
5.19830,783797
5.20642,789464
5.21455,774362
5.22267,775790
5.23080,758975
5.23892,736549
5.24703,722939
5.25517,695839
5.26328,666457
5.27142,646191
5.27953,621095
5.28765,607376
5.29578,589906
5.30390,574723
5.31202,563888
5.32015,560427
5.32827,538464
5.33640,540337
5.34452,530386
5.35263,526150
5.36077,515135
5.36888,505378
5.37702,496698
5.38513,495447
5.39325,503835
5.40138,500386
5.40950,505984
5.41763,496539
5.42575,487380
5.43387,487113
5.44200,553050
5.45012,759480
5.45823,1057188
5.46637,1328089
5.47448,1311876
5.48262,1096112
5.49073,840053
5.49885,691071
5.50698,589298
5.51510,547729
5.52323,511484
5.53135,491549
5.53947,477362
5.54760,461474
5.55572,466969
5.56385,473632
5.57197,486792
5.58008,509566
5.58822,522944
5.59633,485628
5.60445,456926
5.61258,451785
5.62070,432057
5.62883,427582
5.63695,421020
5.64507,405857
5.65320,412687
5.66132,408722
5.66945,429476
5.67757,526497
5.68568,788907
5.69382,1133416
5.70193,1408461
5.71005,1349097
5.71818,1117279
5.72630,841072
5.73443,698613
5.74255,602891
5.75067,551420
5.75880,499187
5.76692,482220
5.77505,456170
5.78317,444190
5.79128,447062
5.79942,465724
5.80753,526208
5.81567,611681
5.82378,640218
5.83190,608901
5.84003,549057
5.84815,505595
5.85627,470530
5.86440,438289
5.87252,435634
5.88065,415409
5.88877,394387
5.89688,391059
5.90502,362963
5.91313,346319
5.92127,335415
5.92938,315533
5.93750,311627
5.94563,329166
5.95375,320771
5.96187,338389
5.97000,341386
5.97812,368718
5.98625,387980
5.99437,411773
6.00248,417806
6.01062,401539
6.01873,364993
6.02687,323482
6.03498,318482
6.04310,297938
6.05123,292784
6.05935,281488
6.06748,264463
6.07560,267816
6.08372,258372
6.09185,263184
6.09997,260626
6.10808,254409
6.11622,249398
6.12433,264087
6.13247,271332
6.14058,345770
6.14870,431881
6.15683,513697
6.16495,532875
6.17308,510660
6.18120,452660
6.18932,402208
6.19745,369281
6.20557,326882
6.21370,328456
6.22182,307211
6.22993,303193
6.23807,297446
6.24618,295150
6.25430,287535
6.26243,294384
6.27055,297284
6.27868,295437
6.28680,285180
6.29492,288165
6.30305,300396
6.31117,334323
6.31930,367766
6.32742,361816
6.33553,330756
6.34367,305266
6.35178,290169
6.35992,278746
6.36803,273423
6.37615,265102
6.38428,270012
6.39240,265384
6.40052,260339
6.40865,251023
6.41677,258673
6.42490,252287
6.43302,252340
6.44113,256011
6.44927,250339
6.45738,252345
6.46552,251975
6.47363,252218
6.48175,247010
6.48988,246644
6.49800,247219
6.50612,261192
6.51425,251003
6.52237,249679
6.53050,244704
6.53862,249377
6.54673,250584
6.55487,251737
6.56298,243880
6.57112,241049
6.57923,265521
6.58735,267495
6.59548,271972
6.60360,265125
6.61173,251959
6.61985,244113
6.62797,235029
6.63610,234161
6.64422,284000
6.65233,433719
6.66047,744205
6.66858,1149062
6.67672,1367348
6.68483,1220943
6.69295,892198
6.70108,631024
6.70920,480199
6.71733,418611
6.72545,378750
6.73357,351069
6.74170,331833
6.74982,317472
6.75793,304496
6.76607,294792
6.77418,289036
6.78232,286937
6.79043,292345
6.79855,302301
6.80668,299602
6.81480,319438
6.82293,334243
6.83105,306327
6.83917,295822
6.84730,286539
6.85542,283310
6.86355,268545
6.87167,259572
6.87978,226151
6.88792,210799
6.89603,199450
6.90415,193159
6.91228,190603
6.92040,179879
6.92853,178149
6.93665,189754
6.94477,179786
6.95290,187996
6.96102,181015
6.96915,181842
6.97727,170168
6.98538,177609
6.99352,174097
7.00163,164448
7.00977,151443
7.01788,146371
7.02600,149521
7.03413,160347
7.04225,171415
7.05037,162375
7.05850,173162
7.06662,171645
7.07475,168965
7.08287,166404
7.09098,162447
7.09912,162504
7.10723,159937
7.11537,148600
7.12348,151370
7.13160,159441
7.13973,153040
7.14785,163449
7.15597,173531
7.16410,202546
7.17222,214735
7.18035,208735
7.18847,199469
7.19658,185091
7.20472,181507
7.21283,172899
7.22097,177285
7.22908,246727
7.23720,529742
7.24533,1311834
7.25345,2668791
7.26158,4104606
7.26970,4679253
7.27782,3932785
7.28595,2625255
7.29407,1605598
7.30218,1007565
7.31032,741035
7.31843,596194
7.32657,442865
7.33468,301370
7.34280,220916
7.35093,199772
7.35905,184854
7.36718,174257
7.37530,178838
7.38342,176782
7.39155,166731
7.39967,176014
7.40780,164019
7.41592,161591
7.42403,155686
7.43217,150083
7.44028,159374
7.44840,157637
7.45653,158204
7.46465,162784
7.47278,155048
7.48090,150852
7.48902,146785
7.49715,156102
7.50527,152655
7.51340,171162
7.52152,218303
7.52963,273455
7.53777,361213
7.54588,409660
7.55400,447264
7.56213,434072
7.57025,367393
7.57838,293414
7.58650,244625
7.59462,211206
7.60275,191023
7.61087,191994
7.61900,197709
7.62712,203467
7.63523,196784
7.64337,182452
7.65148,166187
7.65962,166875
7.66773,157267
7.67585,149928
7.68398,138485
7.69210,143554
7.70022,139853
7.70835,137100
7.71647,143759
7.72460,145624
7.73272,151717
7.74083,147276
7.74897,149193
7.75708,137902
7.76522,133005
7.77333,132385
7.78145,131109
7.78958,134517
7.79770,139343
7.80582,147364
7.81395,183343
7.82207,284216
7.83020,517580
7.83832,971606
7.84643,1674462
7.85457,2621720
7.86268,3991261
7.87082,5948889
7.87893,8126429
7.88705,9679508
7.89518,9377587
7.90330,7546619
7.91143,5144009
7.91955,3241670
7.92767,2241189
7.93580,1838391
7.94392,1731304
7.95203,1620896
7.96017,1364018
7.96828,1128560
7.97642,872796
7.98453,691694
7.99265,522290
8.00078,437239
8.00890,387444
8.01703,368577
8.02515,384537
8.03327,475171
8.04140,569113
8.04952,637496
8.05765,681363
8.06577,673768
8.07388,649628
8.08202,623737
8.09013,595588
8.09825,558106
8.10638,547183
8.11450,517204
8.12263,504102
8.13075,487578
8.13887,472941
8.14700,455215
8.15512,447222
8.16325,437450
8.17137,425886
8.17948,415654
8.18762,407543
8.19573,387799
8.20385,376234
8.21198,375386
8.22010,358828
8.22823,349089
8.23635,344260
8.24447,323507
8.25260,335031
8.26072,321476
8.26885,315342
8.27697,304861
8.28508,309307
8.29322,297860
8.30133,286921
8.30947,288730
8.31758,286134
8.32570,285720
8.33383,275203
8.34195,269952
8.35007,259949
8.35820,256855
8.36632,256851
8.37445,239042
8.38257,241935
8.39068,253003
8.39882,238155
8.40693,236038
8.41507,240185
8.42318,230557
8.43130,230360
8.43943,219037
8.44755,210551
8.45568,214300
8.46380,205164
8.47192,216564
8.48005,204610
8.48817,209524
8.49628,201817
8.50442,210249
8.51253,208471
8.52067,211773
8.52878,258711
8.53690,508905
8.54503,1282256
8.55315,2888903
8.56128,5326403
8.56940,7325376
8.57752,7721271
8.58565,6280493
8.59377,3941393
8.60188,2040506
8.61002,1100110
8.61813,739245
8.62627,602380
8.63438,533698
8.64250,492530
8.65063,459104
8.65875,427514
8.66688,402425
8.67500,381927
8.68312,361471
8.69125,352588
8.69937,332010
8.70750,313789
8.71562,294726
8.72373,292311
8.73187,277896
8.73998,279899
8.74810,278006
8.75623,299779
8.76435,388521
8.77248,602930
8.78060,876735
8.78872,1126315
8.79685,1182979
8.80497,1093989
8.81310,850609
8.82122,680170
8.82933,535166
8.83747,484056
8.84558,473376
8.85372,488798
8.86183,499643
8.86995,501680
8.87808,474373
8.88620,455794
8.89432,456465
8.90245,434948
8.91057,422164
8.91870,401388
8.92682,379911
8.93493,386965
8.94307,380044
8.95118,392690
8.95932,387637
8.96743,387501
8.97555,372924
8.98368,352426
8.99180,331973
8.99992,309819
9.00805,295039
9.01617,286532
9.02430,273817
9.03242,262978
9.04053,260121
9.04867,258734
9.05678,257529
9.06492,252222
9.07303,251649
9.08115,238075
9.08928,241276
9.09740,238776
9.10553,234124
9.11365,240144
9.12177,248298
9.12990,239620
9.13802,240870
9.14613,238008
9.15427,247422
9.16238,253282
9.17052,259697
9.17863,264051
9.18675,262322
9.19488,241839
9.20300,232278
9.21113,224452
9.21925,215274
9.22737,207133
9.23550,191519
9.24362,188425
9.25173,192677
9.25987,183061
9.26798,183514
9.27612,185944
9.28423,182389
9.29235,178714
9.30048,178426
9.30860,168270
9.31673,165630
9.32485,155371
9.33297,157130
9.34110,159092
9.34922,153814
9.35735,150883
9.36547,145549
9.37358,144304
9.38172,148165
9.38983,151875
9.39795,152783
9.40608,150654
9.41420,159036
9.42233,169203
9.43045,174474
9.43857,185013
9.44670,194381
9.45482,206642
9.46295,214537
9.47107,223133
9.47918,225843
9.48732,210171
9.49543,185003
9.50357,169402
9.51168,150299
9.51980,153737
9.52793,151114
9.53605,150364
9.54417,146758
9.55230,138326
9.56042,128958
9.56855,120223
9.57667,110077
9.58478,109968
9.59292,109522
9.60103,106066
9.60917,107752
9.61728,99910
9.62540,97176
9.63353,98672
9.64165,95809
9.64977,90782
9.65790,88949
9.66602,86355
9.67415,95918
9.68227,86133
9.69038,84424
9.69852,88276
9.70663,83445
9.71477,79528
9.72288,85418
9.73100,80325
9.73913,87843
9.74725,90950
9.75538,94249
9.76350,88220
9.77162,83015
9.77975,85655
9.78787,80471
9.79598,83152
9.80412,72265
9.81223,76400
9.82037,79360
9.82848,71362
9.83660,74077
9.84473,73534
9.85285,77389
9.86098,79183
9.86910,83115
9.87722,85582
9.88535,98813
9.89347,100977
9.90160,105763
9.90972,101300
9.91783,91235
9.92597,96143
9.93408,96413
9.94220,99550
9.95033,101766
9.95845,102571
9.96658,108904
9.97470,108895
9.98282,108275
9.99095,107165
9.99907,118721
10.00720,122488
10.01532,119794
10.02343,125081
10.03157,121249
10.03968,110822
10.04780,109627
10.05593,108189
10.06405,109245
10.07218,109804
10.08030,104930
10.08842,108605
10.09655,105704
10.10467,98630
10.11280,100551
10.12092,99716
10.12903,97415
10.13717,94777
10.14528,96116
10.15342,91267
10.16153,84519
10.16965,88758
10.17778,92496
10.18590,85150
10.19402,79919
10.20215,84606
10.21027,78596
10.21840,80617
10.22652,82088
10.23463,83795
10.24277,83530
10.25088,92196
10.25902,118285
10.26713,221813
10.27525,575512
10.28338,1573030
10.29150,3556098
10.29962,6643238
10.30775,1.019053E+07
10.31587,1.336523E+07
10.32400,1.680849E+07
10.33212,2.049123E+07
10.34023,2.631821E+07
10.34837,3.307232E+07
10.35648,3.898981E+07
10.36462,4.251078E+07
10.37273,3.920698E+07
10.38085,2.780689E+07
10.38898,1.453705E+07
10.39710,7093512
10.40523,4316581
10.41335,3216770
10.42147,2607656
10.42960,2124107
10.43772,1764348
10.44583,1497326
10.45397,1306679
10.46208,1209598
10.47022,1124880
10.47833,1022371
10.48645,945280
10.49458,879236
10.50270,818229
10.51083,763207
10.51895,713005
10.52707,679174
10.53520,643407
10.54332,612548
10.55145,581809
10.55957,561731
10.56768,529465
10.57582,499031
10.58393,491012
10.59205,480641
10.60018,463198
10.60830,450202
10.61643,428367
10.62455,405314
10.63267,390712
10.64080,374048
10.64892,363271
10.65705,351208
10.66517,341630
10.67328,332568
10.68142,326721
10.68953,312469
10.69765,314041
10.70578,300079
10.71390,294322
10.72203,281355
10.73015,283543
10.73827,281474
10.74640,272865
10.75452,276670
10.76265,264364
10.77077,254307
10.77888,244885
10.78702,238259
10.79513,234872
10.80327,231355
10.81138,218907
10.81950,213137
10.82763,207867
10.83575,212319
10.84387,200892
10.85200,198451
10.86012,196547
10.86825,194079
10.87637,187302
10.88448,181803
10.89262,174576
10.90073,183268
10.90887,169942
10.91698,170666
10.92510,173608
10.93323,177069
10.94135,174619
10.94948,169617
10.95760,165281
10.96572,173093
10.97385,162956
10.98197,155592
10.99008,154175
10.99822,155329
11.00633,153049
11.01447,151286
11.02258,148429
11.03070,139147
11.03883,135468
11.04695,138541
11.05508,139994
11.06320,139214
11.07132,141842
11.07945,139316
11.08757,142230
11.09568,132392
11.10382,129395
11.11193,125896
11.12007,115643
11.12818,115840
11.13630,110956
11.14443,106130
11.15255,107729
11.16068,107626
11.16880,109348
11.17692,115003
11.18505,106354
11.19317,116455
11.20130,102220
11.20942,106134
11.21753,99609
11.22567,100556
11.23378,97093
11.24190,98096
11.25003,85893
11.25815,88876
11.26628,86248
11.27440,81409
11.28252,82828
11.29065,81636
11.29877,86780
11.30690,95279
11.31502,113111
11.32313,143545
11.33127,176174
11.33938,211665
11.34750,231642
11.35563,227556
11.36375,196643
11.37188,165573
11.38000,138466
11.38812,126327
11.39625,119449
11.40437,121925
11.41250,128940
11.42062,123863
11.42873,117618
11.43687,108392
11.44498,108434
11.45312,106517
11.46123,101612
11.46935,104552
11.47748,98273
11.48560,107614
11.49372,120481
11.50185,135454
11.50997,140383
11.51810,150051
11.52622,149656
11.53433,170570
11.54247,203762
11.55058,246210
11.55872,253863
11.56683,241792
11.57495,225279
11.58308,184979
11.59120,155564
11.59933,149281
11.60745,160785
11.61557,190303
11.62370,219197
11.63182,231771
11.63993,234682
11.64807,215346
11.65618,185172
11.66432,169511
11.67243,154202
11.68055,143045
11.68868,125972
11.69680,119079
11.70493,113887
11.71305,116457
11.72117,112376
11.72930,100341
11.73742,94085
11.74555,93486
11.75367,93819
11.76178,86217
11.76992,87412
11.77803,89120
11.78615,87313
11.79428,78251
11.80240,83471
11.81053,84518
11.81865,79014
11.82677,82943
11.83490,85564
11.84302,88963
11.85115,90710
11.85927,92489
11.86738,97903
11.87552,88566
11.88363,91269
11.89175,87575
11.89988,84980
11.90800,85097
11.91613,104984
11.92425,123279
11.93237,147797
11.94050,167052
11.94862,169595
11.95675,161359
11.96487,141864
11.97298,141732
11.98112,181000
11.98923,342677
11.99737,665057
12.00548,1184926
12.01360,1782275
12.02173,2272611
12.02985,2685337
12.03797,3096345
12.04610,3486234
12.05422,3648624
12.06235,3297703
12.07047,2565066
12.07858,1901613
12.08672,1518957
12.09483,1202308
12.10297,1069071
12.11108,1015719
12.11920,929466
12.12733,906320
12.13545,853462
12.14357,799752
12.15170,808124
12.15982,738851
12.16795,713773
12.17607,682232
12.18418,665684
12.19232,673617
12.20043,615597
12.20857,621205
12.21668,570376
12.22480,567439
12.23293,547161
12.24105,555783
12.24918,565872
12.25730,599647
12.26542,599911
12.27355,588604
12.28167,586427
12.28978,547226
12.29792,534219
12.30603,500680
12.31417,463685
12.32228,452845
12.33040,445971
12.33853,416899
12.34665,413649
12.35478,410224
12.36290,412518
12.37102,383722
12.37915,383476
12.38727,369811
12.39540,384902
12.40352,379984
12.41163,370103
12.41977,362883
12.42788,382126
12.43600,372446
12.44413,360619
12.45225,356371
12.46038,334022
12.46850,335025
12.47662,326262
12.48475,317406
12.49287,306215
12.50100,304258
12.50912,314538
12.51723,309827
12.52537,315244
12.53348,315159
12.54160,308968
12.54973,316461
12.55785,291648
12.56598,269839
12.57410,278275
12.58222,259103
12.59035,260330
12.59847,250929
12.60660,254172
12.61472,239933
12.62283,235269
12.63097,242227
12.63908,239545
12.64722,236204
12.65533,231613
12.66345,217006
12.67158,223126
12.67970,192614
12.68782,172442
12.69595,151606
12.70407,135293
12.71220,114445
12.72032,117379
12.72843,107538
12.73657,111305
12.74468,111999
12.75282,112419
12.76093,110939
12.76905,100200
12.77718,102951
12.78530,94065
12.79343,100406
12.80155,92468
12.80967,93299
12.81780,97179
12.82592,91280
12.83403,86039
12.84217,89035
12.85028,81744
12.85842,87569
12.86653,86886
12.87465,83057
12.88278,82893
12.89090,88540
12.89903,85349
12.90715,81301
12.91527,84241
12.92340,85297
12.93152,82714
12.93963,84445
12.94777,84818
12.95588,90831
12.96402,85339
12.97213,90426
12.98025,90784
12.98838,89212
12.99650,95131
13.00463,91761
13.01275,92054
13.02087,92534
13.02900,89306
13.03712,88286
13.04525,83802
13.05337,83905
13.06148,81316
13.06962,84620
13.07773,83354
13.08585,82490
13.09398,87218
13.10210,85972
13.11023,83928
13.11835,87484
13.12647,78888
13.13460,77984
13.14272,80120
13.15085,76793
13.15897,75086
13.16708,77151
13.17522,81265
13.18333,81407
13.19145,84677
13.19958,84742
13.20770,87042
13.21583,90576
13.22395,93348
13.23207,91227
13.24020,84301
13.24832,83953
13.25645,80375
13.26457,75639
13.27268,81510
13.28082,79835
13.28893,75511
13.29707,77400
13.30518,75057
13.31330,67685
13.32143,70754
13.32955,70215
13.33767,70183
13.34580,68297
13.35392,69694
13.36205,68469
13.37017,68052
13.37828,68203
13.38642,72082
13.39453,67891
13.40267,65415
13.41078,67503
13.41890,63024
13.42703,68497
13.43515,67262
13.44328,66346
13.45140,63421
13.45952,67288
13.46765,65426
13.47577,66379
13.48388,60357
13.49202,66832
13.50013,66114
13.50827,66717
13.51638,62135
13.52450,68821
13.53263,68292
13.54075,74770
13.54888,70136
13.55700,74890
13.56512,75538
13.57325,74279
13.58137,80752
13.58948,78651
13.59762,86282
13.60573,106155
13.61387,130628
13.62198,150589
13.63010,170532
13.63823,172953
13.64635,177492
13.65448,166223
13.66260,138852
13.67072,124076
13.67885,110221
13.68697,100244
13.69510,86567
13.70322,89013
13.71133,83695
13.71947,82112
13.72758,83094
13.73570,81769
13.74383,108279
13.75195,141141
13.76008,221246
13.76820,385442
13.77632,643521
13.78445,972008
13.79257,1389586
13.80070,1825286
13.80882,2316996
13.81693,2645669
13.82507,2671176
13.83318,2429762
13.84132,1981169
13.84943,1560284
13.85755,1223134
13.86568,1027624
13.87380,890886
13.88192,814001
13.89005,754845
13.89817,688431
13.90630,636588
13.91442,604183
13.92253,591822
13.93067,531691
13.93878,521424
13.94692,503001
13.95503,495016
13.96315,528643
13.97128,587236
13.97940,673781
13.98752,797250
13.99565,953151
14.00377,1166903
14.01190,1386121
14.02002,1626889
14.02813,1522577
14.03627,1335365
14.04438,1183143
14.05252,912921
14.06063,828391
14.06875,690315
14.07688,628732
14.08500,604993
14.09313,558350
14.10125,577382
14.10937,527013
14.11750,503725
14.12562,497915
14.13373,523006
14.14187,540816
14.14998,579748
14.15812,628921
14.16623,704243
14.17435,780723
14.18248,838896
14.19060,917632
14.19873,919671
14.20685,895610
14.21497,847651
14.22310,754953
14.23122,706127
14.23935,624950
14.24747,600397
14.25558,565648
14.26372,541667
14.27183,494343
14.27995,450350
14.28808,424773
14.29620,371001
14.30433,363399
14.31245,349645
14.32057,317903
14.32870,313159
14.33682,300143
14.34495,300257
14.35307,291614
14.36118,257501
14.36932,246356
14.37743,236348
14.38555,216669
14.39368,216756
14.40180,209814
14.40993,214026
14.41805,212220
14.42617,218430
14.43430,203985
14.44242,209586
14.45055,201368
14.45867,187773
14.46678,175470
14.47492,153694
14.48303,152258
14.49117,145878
14.49928,142129
14.50740,139062
14.51553,137537
14.52365,148929
14.53177,148621
14.53990,150492
14.54802,167934
14.55615,193972
14.56427,205456
14.57238,212596
14.58052,207630
14.58863,187030
14.59677,177432
14.60488,151975
14.61300,131401
14.62113,133881
14.62925,117693
14.63737,114261
14.64550,122494
14.65362,105588
14.66175,113187
14.66987,101611
14.67798,107556
14.68612,108328
14.69423,105701
14.70237,101336
14.71048,103126
14.71860,109135
14.72673,99433
14.73485,104110
14.74298,101985
14.75110,104967
14.75922,110596
14.76735,111556
14.77547,110960
14.78358,109127
14.79172,109762
14.79983,122167
14.80797,148286
14.81608,225050
14.82420,417672
14.83233,792522
14.84045,1483597
14.84858,2466481
14.85670,3487102
14.86482,4076874
14.87295,3845510
14.88107,3219412
14.88920,2247486
14.89732,1514769
14.90543,1050713
14.91357,791498
14.92168,647354
14.92980,581693
14.93793,529743
14.94605,451828
14.95418,424702
14.96230,399198
14.97042,366776
14.97855,339736
14.98667,321953
14.99480,298974
15.00292,293854
15.01103,272261
15.01917,253495
15.02728,255646
15.03540,242426
15.04353,227248
15.05165,215438
15.05978,219981
15.06790,207031
15.07602,198033
15.08415,206012
15.09227,196367
15.10040,195317
15.10852,189065
15.11663,190088
15.12477,182037
15.13288,181479
15.14102,169463
15.14913,175920
15.15725,180826
15.16538,198811
15.17350,203484
15.18162,203559
15.18975,187224
15.19787,166203
15.20600,147754
15.21412,131473
15.22223,125311
15.23037,112747
15.23848,107285
15.24662,98566
15.25473,96126
15.26285,98108
15.27098,94774
15.27910,90178
15.28723,93443
15.29535,90020
15.30347,84099
15.31160,82018
15.31972,86248
15.32783,84810
15.33597,86718
15.34408,90646
15.35222,83043
15.36033,84649
15.36845,82780
15.37658,84115
15.38470,87665
15.39283,86847
15.40095,83256
15.40907,82916
15.41720,87642
15.42532,85156
15.43343,83599
15.44157,78155
15.44968,79491
15.45782,75976
15.46593,78697
15.47405,78452
15.48218,81146
15.49030,85504
15.49843,90817
15.50655,94714
15.51467,98782
15.52280,97873
15.53092,97042
15.53905,100659
15.54717,98258
15.55528,96097
15.56342,96583
15.57153,85243
15.57965,81921
15.58778,83000
15.59590,75473
15.60403,74451
15.61215,72676
15.62027,70781
15.62840,72847
15.63652,75171
15.64465,73710
15.65277,68661
15.66088,73632
15.66902,71394
15.67713,69858
15.68525,68527
15.69338,69355
15.70150,68872
15.70963,72962
15.71775,63558
15.72587,69064
15.73400,73691
15.74212,70200
15.75025,70331
15.75837,67466
15.76648,77089
15.77462,88640
15.78273,133067
15.79087,211993
15.79898,390661
15.80710,678455
15.81523,961346
15.82335,1136140
15.83147,1105653
15.83960,938765
15.84772,705750
15.85585,520122
15.86397,399285
15.87208,314198
15.88022,271139
15.88833,230579
15.89647,209265
15.90458,197995
15.91270,187582
15.92083,173099
15.92895,165764
15.93708,158163
15.94520,154601
15.95332,154112
15.96145,148925
15.96957,144399
15.97768,143465
15.98582,143845
15.99393,156563
16.00207,181741
16.01018,215464
16.01830,265056
16.02643,296276
16.03455,301108
16.04268,285053
16.05080,250079
16.05892,219896
16.06705,191272
16.07517,173235
16.08328,155351
16.09142,145542
16.09953,143041
16.10767,134959
16.11578,133044
16.12390,145690
16.13203,167230
16.14015,186353
16.14828,247526
16.15640,263614
16.16452,262552
16.17265,242960
16.18077,201449
16.18890,164717
16.19702,145747
16.20513,131083
16.21327,124851
16.22138,117466
16.22950,128560
16.23763,112932
16.24575,114131
16.25388,113579
16.26200,111049
16.27012,110422
16.27825,102984
16.28637,104023
16.29450,102562
16.30262,100991
16.31073,97855
16.31887,99527
16.32698,97003
16.33512,93376
16.34323,90193
16.35135,89751
16.35948,81356
16.36760,88158
16.37572,80947
16.38385,88868
16.39197,88929
16.40010,102378
16.40822,122786
16.41633,156548
16.42447,211724
16.43258,272633
16.44072,337722
16.44883,349239
16.45695,323921
16.46508,276457
16.47320,229519
16.48132,218689
16.48945,255494
16.49757,388241
16.50570,567754
16.51382,788647
16.52193,916731
16.53007,879697
16.53818,709247
16.54632,542798
16.55443,402020
16.56255,313951
16.57068,253173
16.57880,226610
16.58693,210139
16.59505,186988
16.60317,175334
16.61130,165389
16.61942,154049
16.62753,156303
16.63567,144854
16.64378,140835
16.65192,143406
16.66003,133627
16.66815,139801
16.67628,135341
16.68440,130343
16.69253,127870
16.70065,127070
16.70877,122270
16.71690,114004
16.72502,109267
16.73313,105692
16.74127,99270
16.74938,93458
16.75752,92587
16.76563,86092
16.77375,89790
16.78188,88227
16.79000,90927
16.79813,93959
16.80625,94678
16.81437,95242
16.82250,96826
16.83062,86364
16.83875,83880
16.84687,84576
16.85498,83850
16.86312,83588
16.87123,86739
16.87935,86184
16.88748,82048
16.89560,82414
16.90373,84281
16.91185,80629
16.91997,80211
16.92810,77402
16.93622,79274
16.94435,78741
16.95247,70992
16.96058,73020
16.96872,72425
16.97683,75110
16.98497,76643
16.99308,78332
17.00120,75672
17.00933,76255
17.01745,76965
17.02557,73147
17.03370,80618
17.04182,75427
17.04995,76577
17.05807,77588
17.06618,83981
17.07432,87517
17.08243,89330
17.09057,87997
17.09868,91418
17.10680,96570
17.11493,93512
17.12305,87899
17.13118,90938
17.13930,93612
17.14742,88195
17.15555,91378
17.16367,90838
17.17178,92033
17.17992,88296
17.18803,87841
17.19617,80565
17.20428,80090
17.21240,84522
17.22053,80189
17.22865,75662
17.23678,74552
17.24490,73343
17.25302,76686
17.26115,76536
17.26927,72683
17.27738,80211
17.28552,71651
17.29363,78517
17.30177,76448
17.30988,76429
17.31800,70596
17.32613,75826
17.33425,71189
17.34238,75627
17.35050,85186
17.35862,89824
17.36675,99857
17.37487,119749
17.38300,125466
17.39112,135831
17.39923,139574
17.40737,201043
17.41548,3.605982E+07
17.42360,5.284655E+07
17.43173,5.189148E+07
17.43985,5.134938E+07
17.44798,5.063078E+07
17.45610,5.00894E+07
17.46422,4.957367E+07
17.47235,4.90267E+07
17.48047,4.87514E+07
17.48860,4.812461E+07
17.49672,4.769304E+07
17.50483,4.704488E+07
17.51297,4.671559E+07
17.52108,4.623207E+07
17.52920,4.526368E+07
17.53733,4.485844E+07
17.54545,4.375187E+07
17.55358,4.346984E+07
17.56170,4.277279E+07
17.56982,4.201091E+07
17.57795,4.098384E+07
17.58607,4.028136E+07
17.59420,3.936223E+07
17.60232,3.870128E+07
17.61043,3.812898E+07
17.61857,3.720275E+07
17.62668,3.690004E+07
17.63482,3.611593E+07
17.64293,3.541329E+07
17.65105,3.495827E+07
17.65918,3.355992E+07
17.66730,3.228869E+07
17.67542,3.060842E+07
17.68355,2.858298E+07
17.69167,2.714878E+07
17.69980,2.561898E+07
17.70792,2.408414E+07
17.71603,2.25641E+07
17.72417,2.156072E+07
17.73228,2.057332E+07
17.74042,1.946997E+07
17.74853,1.801156E+07
17.75665,1.704887E+07
17.76478,1.599682E+07
17.77290,1.488957E+07
17.78103,1.376566E+07
17.78915,1.289202E+07
17.79727,1.214152E+07
17.80540,1.138549E+07
17.81352,1.105093E+07
17.82163,1.030135E+07
17.82977,9619921
17.83788,8947100
17.84602,8390238
17.85413,8017151
17.86225,7702151
17.87038,7320588
17.87850,6934084
17.88663,6555074
17.89475,6251178
17.90287,5994757
17.91100,5789333
17.91912,5510308
17.92723,5275669
17.93537,5064158
17.94348,4835601
17.95162,4651148
17.95973,4494658
17.96785,4334805
17.97598,4184791
17.98410,4005956
17.99223,3854417
18.00035,3803823
18.00847,3692240
18.01660,3524200
18.02472,3385726
18.03285,3291805
18.04097,3233456
18.04908,3232177
18.05722,3183823
18.06533,3029403
18.07345,2879037
18.08158,2770145
18.08970,2748416
18.09783,2644750
18.10595,2578042
18.11407,2539971
18.12220,2481959
18.13032,2430904
18.13845,2319463
18.14657,2255364
18.15468,2219797
18.16282,2147624
18.17093,2081670
18.17907,2023405
18.18718,1965516
18.19530,1912336
18.20343,1847631
18.21155,1811822
18.21967,1729618
18.22780,1685650
18.23592,1617666
18.24405,1586685
18.25217,1565276
18.26028,1532687
18.26842,1483196
18.27653,1410596
18.28467,1389790
18.29278,1347576
18.30090,1323302
18.30903,1277378
18.31715,1249347
18.32527,1190569
18.33340,1161679
18.34152,1124289
18.34965,1124967
18.35777,1082479
18.36588,1043095
18.37402,1035397
18.38213,1024195
18.39027,1009466
18.39838,961614
18.40650,959973
18.41463,942145
18.42275,925085
18.43088,907411
18.43900,880153
18.44712,914006
18.45525,954967
18.46337,1027832
18.47148,1180161
18.47962,1428948
18.48773,1717416
18.49587,1892039
18.50398,1943540
18.51210,1758978
18.52023,1528441
18.52835,1262050
18.53648,1093774
18.54460,982557
18.55272,904008
18.56085,833589
18.56897,802490
18.57708,772279
18.58522,744500
18.59333,739389
18.60147,713478
18.60958,705858
18.61770,683098
18.62583,683581
18.63395,664791
18.64208,654969
18.65020,640688
18.65832,637807
18.66645,616864
18.67457,596544
18.68270,602440
18.69082,583137
18.69893,572099
18.70707,564260
18.71518,553763
18.72330,546030
18.73143,535305
18.73955,537696
18.74768,531830
18.75580,510993
18.76392,519910
18.77205,519755
18.78017,505588
18.78830,504408
18.79642,497032
18.80453,488367
18.81267,482242
18.82078,470332
18.82892,483673
18.83703,470708
18.84515,453567
18.85328,460011
18.86140,452345
18.86952,440116
18.87765,446920
18.88577,447370
18.89390,439086
18.90202,432926
18.91013,422037
18.91827,424393
18.92638,433774
18.93452,429337
18.94263,454322
18.95075,462960
18.95888,482170
18.96700,511720
18.97512,515390
18.98325,508158
18.99137,505930
18.99950,475879
19.00762,456937
19.01573,442745
19.02387,422766
19.03198,423641
19.04012,402108
19.04823,415605
19.05635,405891
19.06448,400066
19.07260,402151
19.08073,409304
19.08885,419448
19.09697,448806
19.10510,494680
19.11322,523619
19.12133,547897
19.12947,524815
19.13758,502126
19.14572,462264
19.15383,447136
19.16195,422748
19.17008,425686
19.17820,400741
19.18633,379025
19.19445,376370
19.20257,376899
19.21070,371449
19.21882,359324
19.22695,361046
19.23507,351924
19.24318,343491
19.25132,332978
19.25943,330089
19.26755,328715
19.27568,324248
19.28380,328113
19.29193,327023
19.30005,335937
19.30817,334896
19.31630,332390
19.32442,331141
19.33255,322952
19.34067,326640
19.34878,324442
19.35692,315397
19.36503,307637
19.37315,313920
19.38128,314823
19.38940,311190
19.39753,303303
19.40565,302824
19.41377,301161
19.42190,290179
19.43002,302680
19.43815,300676
19.44627,305295
19.45438,321765
19.46252,327620
19.47063,374843
19.47877,374841
19.48688,395096
19.49500,434408
19.50313,481515
19.51125,524642
19.51937,584075
19.52750,609926
19.53562,570885
19.54375,488639
19.55187,416406
19.55998,367781
19.56812,318888
19.57623,303346
19.58437,306608
19.59248,295930
19.60060,297364
19.60873,288792
19.61685,286346
19.62498,289552
19.63310,290736
19.64122,314797
19.64935,385227
19.65747,474134
19.66558,620251
19.67372,753745
19.68183,872912
19.68997,920802
19.69808,881164
19.70620,779096
19.71433,675293
19.72245,596865
19.73058,537058
19.73870,467930
19.74682,438397
19.75495,410022
19.76307,359349
19.77118,347981
19.77932,329036
19.78743,312707
19.79557,305960
19.80368,300029
19.81180,308174
19.81993,305285
19.82805,302504
19.83618,295323
19.84430,280744
19.85242,275486
19.86055,275884
19.86867,269242
19.87680,281325
19.88492,312689
19.89303,363016
19.90117,411466
19.90928,450421
19.91740,489700
19.92553,491937
19.93365,476724
19.94178,450488
19.94990,449052
19.95802,414076
19.96615,403719
19.97427,393434
19.98240,388488
19.99052,372285
19.99863,370223
20.00677,367365
20.01488,366237
20.02300,358435
20.03113,358032
20.03925,338854
20.04738,333272
20.05550,318311
20.06362,301121
20.07175,293636
20.07987,273198
20.08800,266868
20.09612,265632
20.10423,263459
20.11237,255962
20.12048,258826
20.12862,251375
20.13673,251754
20.14485,240126
20.15298,249260
20.16110,246733
20.16922,258851
20.17735,280722
20.18547,293340
20.19360,323078
20.20172,332300
20.20983,339599
20.21797,340847
20.22608,340280
20.23422,322909
20.24233,332722
20.25045,341472
20.25858,376443
20.26670,438886
20.27483,560464
20.28295,640315
20.29107,723506
20.29920,728168
20.30732,679858
20.31543,614399
20.32357,525787
20.33168,463269
20.33982,399783
20.34793,350379
20.35605,317654
20.36418,287612
20.37230,281932
20.38043,273500
20.38855,285867
20.39667,289291
20.40480,315281
20.41292,328355
20.42103,340719
20.42917,354526
20.43728,356786
20.44542,354751
20.45353,355093
20.46165,346556
20.46978,342324
20.47790,330818
20.48603,306306
20.49415,289256
20.50227,266579
20.51040,249472
20.51852,243867
20.52665,239202
20.53477,227573
20.54288,222514
20.55102,223425
20.55913,219269
20.56725,215029
20.57538,215150
20.58350,208737
20.59163,208327
20.59975,199016
20.60787,206553
20.61600,207070
20.62412,208183
20.63225,201833
20.64037,204926
20.64848,201742
20.65662,208405
20.66473,203406
20.67287,202882
20.68098,210094
20.68910,197480
20.69723,203743
20.70535,206663
20.71347,198545
20.72160,197872
20.72972,194555
20.73785,191255
20.74597,193354
20.75408,189628
20.76222,200848
20.77033,200705
20.77847,206868
20.78658,205225
20.79470,225161
20.80283,248469
20.81095,292460
20.81907,316066
20.82720,345547
20.83532,354001
20.84345,324582
20.85157,297781
20.85968,269877
20.86782,242025
20.87593,219729
20.88407,216092
20.89218,214613
20.90030,210629
20.90843,202870
20.91655,200924
20.92468,197705
20.93280,196231
20.94092,197498
20.94905,202101
20.95717,201950
20.96528,199470
20.97342,194619
20.98153,188035
20.98967,188833
20.99778,185411
21.00590,192136
21.01403,183000
21.02215,189462
21.03028,188631
21.03840,186518
21.04652,191152
21.05465,191913
21.06277,194227
21.07088,192281
21.07902,179509
21.08713,191937
21.09527,186530
21.10338,183042
21.11150,183627
21.11963,182450
21.12775,191813
21.13588,194957
21.14400,206661
21.15212,229951
21.16025,247613
21.16837,278599
21.17650,288707
21.18462,281218
21.19273,262790
21.20087,247493
21.20898,233079
21.21710,219725
21.22523,218761
21.23335,202724
21.24148,202012
21.24960,191969
21.25772,189065
21.26585,186049
21.27397,183554
21.28210,180239
21.29022,182064
21.29833,180189
21.30647,185185
21.31458,179972
21.32272,175633
21.33083,173290
21.33895,172450
21.34708,177162
21.35520,175849
21.36332,176151
21.37145,171542
21.37957,169620
21.38770,172466
21.39582,163304
21.40393,165577
21.41207,163333
21.42018,171048
21.42832,175494
21.43643,176355
21.44455,176387
21.45268,174975
21.46080,172543
21.46892,166715
21.47705,161795
21.48517,156651
21.49330,153105
21.50142,150710
21.50953,156056
21.51767,157808
21.52578,150540
21.53392,153125
21.54203,149088
21.55015,148882
21.55828,151165
21.56640,145486
21.57453,146141
21.58265,147794
21.59077,149371
21.59890,157248
21.60702,157933
21.61513,164366
21.62327,177399
21.63138,201655
21.63952,217306
21.64763,235898
21.65575,243029
21.66388,247119
21.67200,231474
21.68013,224118
21.68825,205134
21.69637,195672
21.70450,188900
21.71262,175449
21.72075,166249
21.72887,163699
21.73698,162708
21.74512,163601
21.75323,157957
21.76135,155350
21.76948,151553
21.77760,152437
21.78573,158799
21.79385,167148
21.80197,163060
21.81010,178732
21.81822,186383
21.82635,194785
21.83447,215650
21.84258,229163
21.85072,231982
21.85883,233451
21.86695,210480
21.87508,203792
21.88320,179422
21.89133,159370
21.89945,157782
21.90757,145948
21.91570,140528
21.92382,136796
21.93195,135321
21.94007,134498
21.94818,132475
21.95632,121504
21.96443,122585
21.97257,120613
21.98068,123044
21.98880,117720
21.99693,118701
22.00505,119946
22.01317,121519
22.02130,117336
22.02942,115856
22.03755,118350
22.04567,118063
22.05378,126225
22.06192,129310
22.07003,137642
22.07817,149282
22.08628,158662
22.09440,165967
22.10253,170214
22.11065,179834
22.11877,177548
22.12690,183833
22.13502,192731
22.14315,205174
22.15127,210636
22.15938,212215
22.16752,212196
22.17563,215129
22.18377,230461
22.19188,228826
22.20000,241141
22.20813,230624
22.21625,218322
22.22438,217384
22.23250,211741
22.24062,213877
22.24875,199266
22.25687,202500
22.26498,189634
22.27312,188596
22.28123,178494
22.28937,176902
22.29748,186146
22.30560,176202
22.31373,182961
22.32185,179670
22.32998,185237
22.33810,183255
22.34622,178848
22.35435,175677
22.36247,173991
22.37060,168920
22.37872,164468
22.38683,179305
22.39497,176178
22.40308,169759
22.41120,183173
22.41933,199431
22.42745,212160
22.43558,207287
22.44370,201852
22.45182,190661
22.45995,174915
22.46807,157056
22.47620,151394
22.48432,145626
22.49243,144659
22.50057,139262
22.50868,135306
22.51682,131941
22.52493,131283
22.53305,127019
22.54118,126588
22.54930,127316
22.55742,128894
22.56555,119610
22.57367,118855
22.58180,114563
22.58992,106234
22.59803,105438
22.60617,103068
22.61428,107641
22.62242,104149
22.63053,96765
22.63865,105995
22.64678,105623
22.65490,106042
22.66302,109954
22.67115,107513
22.67927,110342
22.68740,111356
22.69552,120538
22.70363,112684
22.71177,119394
22.71988,130514
22.72802,130822
22.73613,144997
22.74425,151819
22.75238,159864
22.76050,174517
22.76863,181291
22.77675,185246
22.78487,189967
22.79300,187934
22.80112,195990
22.80923,203836
22.81737,215307
22.82548,205885
22.83362,205252
22.84173,215828
22.84985,213918
22.85798,204819
22.86610,211348
22.87423,213524
22.88235,224783
22.89047,220010
22.89860,233720
22.90672,243545
22.91483,272979
22.92297,299920
22.93108,318807
22.93922,349001
22.94733,349787
22.95545,336730
22.96358,312287
22.97170,286086
22.97983,269370
22.98795,246470
22.99607,241433
23.00420,238488
23.01232,233960
23.02045,221048
23.02857,215497
23.03668,205233
23.04482,200898
23.05293,197075
23.06105,192764
23.06918,190200
23.07730,186479
23.08543,180320
23.09355,181961
23.10167,181099
23.10980,181465
23.11792,177714
23.12605,170102
23.13417,174689
23.14228,171006
23.15042,180718
23.15853,185406
23.16667,187626
23.17478,178881
23.18290,169231
23.19103,173119
23.19915,173187
23.20727,162102
23.21540,165480
23.22352,167906
23.23165,159541
23.23977,158336
23.24788,165555
23.25602,161057
23.26413,162496
23.27227,170627
23.28038,161387
23.28850,170517
23.29663,164094
23.30475,157588
23.31287,151124
23.32100,156082
23.32912,153246
23.33725,159851
23.34537,167946
23.35348,180301
23.36162,178614
23.36973,188630
23.37787,203043
23.38598,207689
23.39410,200043
23.40223,190191
23.41035,184606
23.41848,185392
23.42660,180807
23.43472,175277
23.44285,172492
23.45097,166767
23.45908,169196
23.46722,163952
23.47533,156832
23.48347,163622
23.49158,163428
23.49970,164888
23.50783,160686
23.51595,160992
23.52408,155682
23.53220,159353
23.54032,156036
23.54845,150936
23.55657,157972
23.56470,162576
23.57282,157848
23.58093,162546
23.58907,167168
23.59718,177086
23.60530,179361
23.61343,188525
23.62155,190569
23.62968,172799
23.63780,181327
23.64592,165626
23.65405,155057
23.66217,152927
23.67030,154874
23.67842,149461
23.68653,146928
23.69467,145008
23.70278,148207
23.71090,140209
23.71903,141401
23.72715,139412
23.73528,137465
23.74340,159377
23.75152,221142
23.75965,404192
23.76777,862489
23.77590,1744489
23.78402,3040060
23.79213,4229856
23.80027,4937827
23.80838,4836310
23.81652,4247359
23.82463,3311447
23.83275,2441005
23.84088,1792990
23.84900,1331299
23.85712,1058741
23.86525,833009
23.87337,699931
23.88150,607520
23.88962,523196
23.89773,465361
23.90587,444415
23.91398,419578
23.92212,382812
23.93023,381553
23.93835,356747
23.94648,334408
23.95460,324120
23.96272,301640
23.97085,296720
23.97897,284036
23.98710,269934
23.99522,278259
24.00333,337609
24.01147,534662
24.01958,955503
24.02772,1615801
24.03583,2335464
24.04395,2775806
24.05208,2710696
24.06020,2226345
24.06833,1548631
24.07645,953400
24.08457,590532
24.09270,395108
24.10082,290828
24.10893,244015
24.11707,221751
24.12518,215961
24.13332,216211
24.14143,228593
24.14955,229043
24.15768,240838
24.16580,241574
24.17393,222721
24.18205,226198
24.19017,201555
24.19830,208040
24.20642,190743
24.21455,202896
24.22267,196073
24.23078,189385
24.23892,186833
24.24703,177402
24.25515,168080
24.26328,161041
24.27140,155575
24.27953,151396
24.28765,143225
24.29577,146503
24.30390,140428
24.31202,135480
24.32015,138813
24.32827,136934
24.33638,144778
24.34452,134635
24.35263,143955
24.36075,161482
24.36888,190755
24.37700,231027
24.38513,278208
24.39325,311971
24.40137,374951
24.40950,431325
24.41762,449765
24.42575,453753
24.43387,415239
24.44198,374398
24.45012,351161
24.45823,332675
24.46637,313630
24.47448,329402
24.48260,323067
24.49073,334858
24.49885,342208
24.50697,350993
24.51510,361563
24.52322,367562
24.53135,375938
24.53947,374367
24.54758,369598
24.55572,362583
24.56383,348445
24.57197,332493
24.58008,337757
24.58820,326162
24.59633,336349
24.60445,335425
24.61258,331884
24.62070,326198
24.62882,329117
24.63695,314236
24.64507,310342
24.65318,321475
24.66132,319545
24.66943,312321
24.67757,318990
24.68568,314090
24.69380,315720
24.70193,299189
24.71005,298620
24.71818,301997
24.72630,300596
24.73442,286380
24.74255,290799
24.75067,289129
24.75878,294933
24.76692,285473
24.77503,299980
24.78317,303920
24.79128,300597
24.79940,316468
24.80753,313129
24.81565,313645
24.82378,307491
24.83190,316161
24.84002,311156
24.84815,335559
24.85627,361656
24.86440,398271
24.87252,452741
24.88063,538975
24.88877,619658
24.89688,711007
24.90500,734721
24.91313,704137
24.92125,617520
24.92938,518805
24.93750,436436
24.94562,374892
24.95375,322698
24.96187,312460
24.97000,295796
24.97812,273142
24.98623,273255
24.99437,265588
25.00248,262859
25.01060,261420
25.01873,251383
25.02685,251393
25.03498,258896
25.04310,248911
25.05122,253618
25.05935,249587
25.06747,245853
25.07560,242286
25.08372,249504
25.09183,256326
25.09997,268858
25.10808,301992
25.11622,413172
25.12433,647772
25.13245,989576
25.14058,1504760
25.14870,1991625
25.15682,2253659
25.16495,2233068
25.17307,1926178
25.18120,1552738
25.18932,1145137
25.19743,820580
25.20557,600214
25.21368,467834
25.22182,372636
25.22993,334267
25.23805,343215
25.24618,405695
25.25430,535121
25.26243,742771
25.27055,988807
25.27867,1216616
25.28680,1282338
25.29492,1154098
25.30303,936177
25.31117,672039
25.31928,455661
25.32742,323622
25.33553,235002
25.34365,197213
25.35178,170419
25.35990,156690
25.36803,144276
25.37615,152251
25.38427,141261
25.39240,134815
25.40052,131611
25.40863,131309
25.41677,124361
25.42488,119642
25.43302,124018
25.44113,127676
25.44925,127430
25.45738,120575
25.46550,129140
25.47363,131640
25.48175,131931
25.48987,133191
25.49800,135179
25.50612,134089
25.51425,124728
25.52237,118792
25.53048,118630
25.53862,117167
25.54673,111328
25.55485,110872
25.56298,110747
25.57110,110068
25.57923,108569
25.58735,108051
25.59547,106621
25.60360,114559
25.61172,110558
25.61985,123820
25.62797,141347
25.63608,167906
25.64422,189189
25.65233,217685
25.66047,221796
25.66858,209782
25.67670,187102
25.68483,166062
25.69295,153745
25.70107,160878
25.70920,183327
25.71732,197853
25.72545,214508
25.73357,226110
25.74168,239907
25.74982,236947
25.75793,258658
25.76607,271348
25.77418,308301
25.78230,341282
25.79043,385395
25.79855,410815
25.80667,382861
25.81480,356016
25.82292,318109
25.83105,302516
25.83917,277889
25.84728,283818
25.85542,278647
25.86353,276058
25.87167,269021
25.87978,271886
25.88790,261303
25.89603,262563
25.90415,262033
25.91228,260191
25.92040,252708
25.92852,252080
25.93665,259939
25.94477,268514
25.95288,271113
25.96102,264996
25.96913,258062
25.97727,256689
25.98538,254468
25.99350,241575
26.00163,239523
26.00975,242345
26.01788,243900
26.02600,230062
26.03412,233950
26.04225,228643
26.05037,228915
26.05850,225428
26.06662,222140
26.07473,230464
26.08287,231320
26.09098,224919
26.09910,230234
26.10723,225475
26.11535,223130
26.12348,221069
26.13160,224949
26.13972,229201
26.14785,217239
26.15597,214588
26.16410,211720
26.17222,215493
26.18033,207635
26.18847,213894
26.19658,217145
26.20470,207194
26.21283,199652
26.22095,204214
26.22908,202769
26.23720,204662
26.24532,201729
26.25345,205950
26.26157,209830
26.26970,221158
26.27782,217962
26.28593,238172
26.29407,245504
26.30218,265033
26.31032,260323
26.31843,251980
26.32655,231593
26.33468,216424
26.34280,191451
26.35092,189658
26.35905,175400
26.36717,180842
26.37530,175496
26.38342,186648
26.39153,188835
26.39967,193375
26.40778,199253
26.41592,198580
26.42403,198470
26.43215,199237
26.44028,185126
26.44840,188669
26.45652,186239
26.46465,188153
26.47277,181089
26.48090,178584
26.48902,179793
26.49713,172557
26.50527,170899
26.51338,163661
26.52152,160452
26.52963,152426
26.53775,158199
26.54588,154156
26.55400,155335
26.56213,152128
26.57025,151412
26.57837,150828
26.58650,151654
26.59462,153167
26.60273,145438
26.61087,147411
26.61898,147181
26.62712,145649
26.63523,146182
26.64335,142828
26.65148,145143
26.65960,142298
26.66773,143834
26.67585,138534
26.68397,146526
26.69210,139291
26.70022,137510
26.70835,140340
26.71647,135166
26.72458,141662
26.73272,141194
26.74083,133297
26.74895,135761
26.75708,127297
26.76520,130942
26.77333,133539
26.78145,134605
26.78957,131159
26.79770,140287
26.80582,142338
26.81395,139899
26.82207,138064
26.83018,141940
26.83832,139642
26.84643,133674
26.85455,134683
26.86268,129293
26.87080,133059
26.87893,132454
26.88705,137302
26.89517,133183
26.90330,131227
26.91142,123820
26.91955,123365
26.92767,119718
26.93578,123749
26.94392,123616
26.95203,125010
26.96017,135176
26.96828,155656
26.97640,193934
26.98453,249483
26.99265,340026
27.00077,516807
27.00890,732726
27.01702,999830
27.02515,1265523
27.03327,1402226
27.04138,1437202
27.04952,1300812
27.05763,1083223
27.06577,872464
27.07388,701345
27.08200,562693
27.09013,470076
27.09825,400766
27.10638,355918
27.11450,317511
27.12262,287116
27.13075,274905
27.13887,255771
27.14698,236419
27.15512,242275
27.16323,238684
27.17137,236632
27.17948,261833
27.18760,269850
27.19573,272154
27.20385,271764
27.21198,252422
27.22010,247608
27.22822,230067
27.23635,207584
27.24447,197598
27.25258,189259
27.26072,171348
27.26883,164686
27.27697,166203
27.28508,161556
27.29320,154205
27.30133,149774
27.30945,145790
27.31758,139963
27.32570,139762
27.33382,142308
27.34195,138897
27.35007,137230
27.35820,142314
27.36632,141520
27.37443,145235
27.38257,144721
27.39068,145250
27.39880,141256
27.40693,127558
27.41505,128816
27.42318,124551
27.43130,118911
27.43942,123597
27.44755,114951
27.45567,114328
27.46380,122891
27.47192,113176
27.48003,115588
27.48817,117169
27.49628,116918
27.50440,112015
27.51253,113190
27.52065,117084
27.52878,117512
27.53690,117113
27.54502,114734
27.55315,114628
27.56127,115818
27.56940,114227
27.57752,116205
27.58563,121281
27.59377,124378
27.60188,137716
27.61002,139835
27.61813,133107
27.62625,128897
27.63438,124596
27.64250,116345
27.65062,113103
27.65875,112517
27.66687,109107
27.67500,105830
27.68312,106654
27.69123,99672
27.69937,98672
27.70748,102291
27.71562,105292
27.72373,87893
27.73185,96448
27.73998,91910
27.74810,97549
27.75623,98924
27.76435,108726
27.77247,122716
27.78060,150787
27.78872,165998
27.79683,192510
27.80497,188288
27.81308,171397
27.82122,154766
27.82933,130312
27.83745,113046
27.84558,105492
27.85370,101845
27.86183,95676
27.86995,95523
27.87807,92749
27.88620,95296
27.89432,95393
27.90245,95546
27.91057,93284
27.91868,90290
27.92682,90701
27.93493,91136
27.94305,90234
27.95118,85786
27.95930,90236
27.96743,90008
27.97555,90978
27.98367,87176
27.99180,86534
27.99992,87714
28.00805,89527
28.01617,94886
28.02428,93696
28.03242,92400
28.04053,92192
28.04865,90039
28.05678,92984
28.06490,87192
28.07303,90942
28.08115,92753
28.08927,92210
28.09740,88191
28.10552,85920
28.11365,84329
28.12177,81189
28.12988,85157
28.13802,81103
28.14613,82508
28.15427,79006
28.16238,81708
28.17050,77659
28.17863,82280
28.18675,83214
28.19487,95116
28.20300,101316
28.21112,116060
28.21925,127808
28.22737,134152
28.23548,131586
28.24362,128327
28.25173,128211
28.25987,121047
28.26798,111357
28.27610,102543
28.28423,103651
28.29235,100874
28.30047,101279
28.30860,95237
28.31672,103981
28.32485,110508
28.33297,121546
28.34108,131896
28.34922,135219
28.35733,155719
28.36547,158142
28.37358,176268
28.38170,176198
28.38983,193427
28.39795,200514
28.40608,197026
28.41420,198287
28.42232,190005
28.43045,185079
28.43857,177599
28.44668,164667
28.45482,154843
28.46293,149607
28.47107,147039
28.47918,145569
28.48730,139188
28.49543,152584
28.50355,158493
28.51168,165693
28.51980,158334
28.52792,156351
28.53605,148169
28.54417,136378
28.55230,124767
28.56042,123334
28.56853,115764
28.57667,114173
28.58478,113673
28.59290,116541
28.60103,111375
28.60915,113287
28.61728,114463
28.62540,117578
28.63352,116192
28.64165,116825
28.64977,119344
28.65790,116806
28.66602,121301
28.67413,114413
28.68227,111819
28.69038,112080
28.69850,114116
28.70663,106527
28.71475,111725
28.72288,100449
28.73100,103485
28.73912,103121
28.74725,103247
28.75537,111230
28.76350,120015
28.77162,130862
28.77973,139303
28.78787,153724
28.79598,149831
28.80412,147540
28.81223,134147
28.82035,124956
28.82848,116374
28.83660,114730
28.84472,111864
28.85285,106650
28.86097,99692
28.86910,98231
28.87722,97667
28.88533,97278
28.89347,103876
28.90158,105035
28.90972,112273
28.91783,102810
28.92595,100313
28.93408,104209
28.94220,102705
28.95033,107075
28.95845,113847
28.96657,112335
28.97470,104548
28.98282,106809
28.99093,104008
28.99907,96428
29.00718,96846
29.01532,89478
29.02343,94955
29.03155,86317
29.03968,84969
29.04780,94998
29.05593,96726
29.06405,99995
29.07217,109470
29.08030,117882
29.08842,119173
29.09653,117300
29.10467,110170
29.11278,112541
29.12092,97575
29.12903,97781
29.13715,92216
29.14528,93265
29.15340,88262
29.16153,85955
29.16965,88530
29.17777,93556
29.18590,91965
29.19402,94740
29.20215,98208
29.21027,106783
29.21838,112154
29.22652,117783
29.23463,120105
29.24275,125619
29.25088,129805
29.25900,130149
29.26713,135040
29.27525,125512
29.28337,121430
29.29150,115258
29.29962,107690
29.30775,101535
29.31587,96778
29.32398,90615
29.33212,92780
29.34023,85205
29.34835,87267
29.35648,87779
29.36460,83518
29.37273,83359
29.38085,83895
29.38897,84682
29.39710,82042
29.40522,83428
29.41335,85117
29.42147,83214
29.42958,87219
29.43772,89087
29.44583,90708
29.45397,86670
29.46208,89191
29.47020,92020
29.47833,92658
29.48645,90625
29.49457,97894
29.50270,100426
29.51082,105604
29.51895,99554
29.52707,106509
29.53518,108562
29.54332,99807
29.55143,105459
29.55957,104787
29.56768,103222
29.57580,101877
29.58393,93765
29.59205,85301
29.60018,87975
29.60830,85022
29.61642,87434
29.62455,87757
29.63267,78336
29.64078,86502
29.64892,86712
29.65703,80135
29.66517,80159
29.67328,76546
29.68140,80662
29.68953,81677
29.69765,77196
29.70578,84077
29.71390,78885
29.72202,80187
29.73015,78498
29.73827,82069
29.74638,74592
29.75452,72960
29.76263,82510
29.77077,73443
29.77888,76706
29.78700,73709
29.79513,74795
29.80325,71505
29.81138,66004
29.81950,71632
29.82762,78043
29.83575,76206
29.84387,75722
29.85200,82776
29.86012,83265
29.86823,97736
29.87637,126946
29.88448,183150
29.89260,262791
29.90073,359284
29.90885,404942
29.91698,393123
29.92510,337703
29.93322,262688
29.94135,189122
29.94947,142528
29.95760,117263
29.96572,106267
29.97383,99476
29.98197,102084
29.99008,99309
29.99822,100522
30.00633,113940
30.01445,112487
30.02258,118990
30.03070,117064
30.03882,119584
30.04695,125261
30.05507,120360
30.06320,123625
30.07132,122406
30.07943,121341
30.08757,129404
30.09568,121177
30.10382,119867
30.11193,118628
30.12005,120634
30.12818,109292
30.13630,110159
30.14442,109595
30.15255,107186
30.16067,101553
30.16880,103517
30.17692,100816
30.18503,103089
30.19317,95012
30.20128,98157
30.20942,95918
30.21753,96364
30.22565,98707
30.23378,94368
30.24190,93572
30.25003,93650
30.25815,88876
30.26627,85681
30.27440,87740
30.28252,80983
30.29063,83422
30.29877,82156
30.30688,80071
30.31502,78644
30.32313,79861
30.33125,79511
30.33938,82480
30.34750,82461
30.35563,74798
30.36375,77595
30.37187,80005
30.38000,81042
30.38812,72827
30.39625,75750
30.40437,77371
30.41248,75419
30.42062,72199
30.42873,75317
30.43685,79417
30.44498,77360
30.45310,77471
30.46123,78143
30.46935,76983
30.47747,80734
30.48560,88633
30.49372,82969
30.50185,86794
30.50997,91855
30.51808,90890
30.52622,87223
30.53433,81186
30.54245,86928
30.55058,83598
30.55870,78047
30.56683,79168
30.57495,80886
30.58307,76588
30.59120,74005
30.59932,74268
30.60745,78643
30.61557,75742
30.62368,77526
30.63182,79321
30.63993,82518
30.64807,77843
30.65618,79871
30.66430,75233
30.67243,74137
30.68055,75667
30.68867,76471
30.69680,71566
30.70492,74321
30.71305,73271
30.72117,74308
30.72928,74875
30.73742,78311
30.74553,73738
30.75367,72790
30.76178,79640
30.76990,90877
30.77803,102816
30.78615,145032
30.79427,223203
30.80240,308621
30.81052,415697
30.81865,497462
30.82677,479637
30.83488,404136
30.84302,304313
30.85113,217110
30.85927,165528
30.86738,125491
30.87550,106379
30.88363,100716
30.89175,92797
30.89988,96037
30.90800,93605
30.91612,83459
30.92425,86082
30.93237,79075
30.94048,84193
30.94862,79649
30.95673,80286
30.96487,79058
30.97298,78545
30.98110,73555
30.98923,78904
30.99735,75003
31.00548,78926
31.01360,73230
31.02172,78210
31.02985,78716
31.03797,75350
31.04610,82084
31.05422,78036
31.06233,74938
31.07047,78876
31.07858,83507
31.08670,91425
31.09483,105358
31.10295,109413
31.11108,114842
31.11920,113711
31.12732,103634
31.13545,96728
31.14357,85812
31.15170,85269
31.15982,89840
31.16793,82429
31.17607,90834
31.18418,95231
31.19230,106167
31.20043,117562
31.20855,144300
31.21668,160281
31.22480,185152
31.23292,193181
31.24105,189703
31.24917,173327
31.25730,141099
31.26542,122038
31.27353,106850
31.28167,95726
31.28978,92257
31.29792,87817
31.30603,91550
31.31415,91464
31.32228,91458
31.33040,88382
31.33852,88790
31.34665,93735
31.35477,93756
31.36290,95188
31.37102,89456
31.37913,91775
31.38727,92373
31.39538,90297
31.40352,89677
31.41163,90972
31.41975,91891
31.42788,94100
31.43600,92343
31.44413,94637
31.45225,102111
31.46037,99118
31.46850,102495
31.47662,114516
31.48473,112241
31.49287,115846
31.50098,120236
31.50912,110293
31.51723,112665
31.52535,106532
31.53348,101968
31.54160,105661
31.54973,105698
31.55785,110614
31.56597,116987
31.57410,116906
31.58222,114578
31.59033,120205
31.59847,106187
31.60658,106192
31.61472,101630
31.62283,95363
31.63095,100409
31.63908,97675
31.64720,100025
31.65533,99857
31.66345,100672
31.67157,99652
31.67970,94298
31.68782,99718
31.69595,98806
31.70407,95004
31.71218,94927
31.72032,87666
31.72843,92646
31.73655,90186
31.74468,85708
31.75280,90938
31.76093,84752
31.76905,87968
31.77717,86741
31.78530,94291
31.79342,95205
31.80155,94132
31.80967,85579
31.81778,87763
31.82592,93177
31.83403,87790
31.84215,93329
31.85028,91043
31.85840,95808
31.86653,95274
31.87465,85995
31.88277,99315
31.89090,90708
31.89902,85504
31.90715,96961
31.91527,91284
31.92338,93124
31.93152,99195
31.93963,97723
31.94777,103693
31.95588,104569
31.96400,109781
31.97213,115116
31.98025,112436
31.98837,122709
31.99650,118300
32.00462,121564
32.01275,118630
32.02087,122490
32.02898,124144
32.03712,124757
32.04523,119464
32.05337,108483
32.06148,109931
32.06960,115386
32.07773,117971
32.08585,115543
32.09398,110009
32.10210,114872
32.11022,107698
32.11835,99878
32.12647,102663
32.13458,97670
32.14272,96300
32.15083,100575
32.15897,89601
32.16708,90933
32.17520,90571
32.18333,83887
32.19145,90495
32.19958,88472
32.20770,87540
32.21582,86113
32.22395,88150
32.23207,87532
32.24018,88276
32.24832,89791
32.25643,96417
32.26457,98819
32.27268,106181
32.28080,110104
32.28893,114621
32.29705,98485
32.30518,94013
32.31330,90491
32.32142,88055
32.32955,89010
32.33767,80950
32.34580,87801
32.35392,84768
32.36203,84795
32.37017,85123
32.37828,84373
32.38640,83799
32.39453,81246
32.40265,79329
32.41078,76031
32.41890,80860
32.42702,76703
32.43515,78674
32.44327,78921
32.45140,78389
32.45952,77282
32.46763,73846
32.47577,75523
32.48388,76980
32.49202,73538
32.50013,73590
32.50825,72722
32.51638,82835
32.52450,76107
32.53262,75150
32.54075,74601
32.54887,75728
32.55700,75368
32.56512,74000
32.57323,73162
32.58137,76133
32.58948,80425
32.59762,72054
32.60573,73767
32.61385,73586
32.62198,75922
32.63010,73830
32.63822,72583
32.64635,78522
32.65447,79246
32.66260,84189
32.67072,91780
32.67883,104401
32.68697,107252
32.69508,98525
32.70322,99983
32.71133,97163
32.71945,88880
32.72758,80831
32.73570,82320
32.74383,82790
32.75195,79208
32.76007,78283
32.76820,74447
32.77632,72431
32.78443,73776
32.79257,75544
32.80068,71446
32.80882,71919
32.81693,75548
32.82505,74941
32.83318,69917
32.84130,70718
32.84943,73136
32.85755,68081
32.86567,71828
32.87380,69123
32.88192,70183
32.89003,69089
32.89817,70185
32.90628,69063
32.91442,72765
32.92253,71343
32.93065,67533
32.93878,67437
32.94690,68856
32.95503,71890
32.96315,68354
32.97127,73005
32.97940,84633
32.98752,85483
32.99565,106747
33.00377,120553
33.01188,123358
33.02002,119586
33.02813,110785
33.03625,96764
33.04438,91123
33.05250,82586
33.06063,79763
33.06875,78529
33.07687,79640
33.08500,81649
33.09312,85746
33.10125,101844
33.10937,101336
33.11748,110460
33.12562,114666
33.13373,121428
33.14187,116195
33.14998,102505
33.15810,90160
33.16623,88451
33.17435,83814
33.18247,80950
33.19060,78337
33.19872,79313
33.20685,80629
33.21497,80884
33.22308,80936
33.23122,79240
33.23933,81818
33.24747,79433
33.25558,80580
33.26370,75902
33.27183,75724
33.27995,72465
33.28808,75075
33.29620,71574
33.30432,71855
33.31245,68208
33.32057,68205
33.32868,70582
33.33682,70104
33.34493,70306
33.35307,70359
33.36118,68319
33.36930,67148
33.37743,66245
33.38555,68257
33.39368,71338
33.40180,69812
33.40992,71828
33.41805,79896
33.42617,80295
33.43428,80035
33.44242,79886
33.45053,83181
33.45867,77812
33.46678,72191
33.47490,77913
33.48303,76218
33.49115,73874
33.49928,76064
33.50740,79491
33.51552,80636
33.52365,79672
33.53177,77618
33.53990,77724
33.54802,79440
33.55613,74380
33.56427,72370
33.57238,72913
33.58050,76063
33.58863,75412
33.59675,77093
33.60488,70401
33.61300,70923
33.62112,67974
33.62925,74356
33.63737,79709
33.64550,77660
33.65362,78663
33.66173,73895
33.66987,76109
33.67798,78452
33.68610,78434
33.69423,76024
33.70235,67536
33.71048,72373
33.71860,75564
33.72672,74315
33.73485,76612
33.74297,79508
33.75110,82477
33.75922,82221
33.76733,87507
33.77547,85306
33.78358,74586
33.79172,75063
33.79983,74502
33.80795,70678
33.81608,72536
33.82420,72405
33.83232,72665
33.84045,75918
33.84857,76379
33.85670,83471
33.86482,83623
33.87293,86853
33.88107,85467
33.88918,84679
33.89732,92493
33.90543,89867
33.91355,93460
33.92168,94155
33.92980,92640
33.93793,89224
33.94605,86737
33.95417,84212
33.96230,79210
33.97042,78273
33.97853,81118
33.98667,76007
33.99478,79371
34.00292,77390
34.01103,74477
34.01915,72187
34.02728,69911
34.03540,73894
34.04353,70217
34.05165,76330
34.05977,69607
34.06790,70468
34.07602,67496
34.08413,72176
34.09227,71578
34.10038,70690
34.10852,68166
34.11663,68817
34.12475,68327
34.13288,69141
34.14100,67178
34.14913,66385
34.15725,70048
34.16537,69986
34.17350,74953
34.18162,78414
34.18975,83512
34.19787,78265
34.20598,79810
34.21412,80036
34.22223,81381
34.23035,80199
34.23848,80976
34.24660,72795
34.25473,72368
34.26285,75677
34.27097,76902
34.27910,73798
34.28722,67449
34.29535,71723
34.30347,67560
34.31158,72241
34.31972,66117
34.32783,65801
34.33597,70342
34.34408,67707
34.35220,73784
34.36033,69536
34.36845,68803
34.37657,70379
34.38470,71527
34.39282,68083
34.40095,74845
34.40907,66102
34.41718,70357
34.42532,69060
34.43343,70483
34.44157,66188
34.44968,65024
34.45780,69143
34.46593,67331
34.47405,72318
34.48217,68410
34.49030,70427
34.49842,68527
34.50655,67498
34.51467,68285
34.52278,75740
34.53092,77158
34.53903,78959
34.54717,86606
34.55528,94994
34.56340,97679
34.57153,103652
34.57965,99523
34.58778,100177
34.59590,99643
34.60402,96557
34.61215,101945
34.62027,97285
34.62838,97609
34.63652,91721
34.64463,93157
34.65277,92220
34.66088,91616
34.66900,86099
34.67713,82493
34.68525,87785
34.69338,84840
34.70150,79433
34.70962,85544
34.71775,80560
34.72587,78311
34.73398,83664
34.74212,77625
34.75023,82592
34.75837,75665
34.76648,76644
34.77460,76439
34.78273,72981
34.79085,76732
34.79898,69647
34.80710,72119
34.81522,74055
34.82335,75440
34.83147,76071
34.83960,74619
34.84772,79277
34.85583,71715
34.86397,71208
34.87208,70582
34.88020,71020
34.88833,72954
34.89645,73977
34.90458,70982
34.91270,74307
34.92082,76731
34.92895,79522
34.93707,79304
34.94520,77092
34.95332,80525
34.96143,86205
34.96957,96201
34.97768,101821
34.98582,96445
34.99393,98000
35.00205,94085
35.01018,92397
35.01830,93750
35.02642,92936
35.03455,87160
35.04267,90987
35.05080,87693
35.05892,85941
35.06703,85699
35.07517,86927
35.08328,85177
35.09142,79555
35.09953,79974
35.10765,78509
35.11578,80906
35.12390,74575
35.13202,73210
35.14015,75145
35.14827,77592
35.15640,77801
35.16452,79177
35.17263,79830
35.18077,83034
35.18888,76614
35.19702,81449
35.20513,78506
35.21325,76470
35.22138,73228
35.22950,75296
35.23763,78449
35.24575,78339
35.25387,76500
35.26200,78382
35.27012,80262
35.27823,79539
35.28637,86167
35.29448,87087
35.30262,79467
35.31073,76771
35.31885,76397
35.32698,78205
35.33510,76012
35.34323,77777
35.35135,74213
35.35947,77843
35.36760,77822
35.37572,79072
35.38385,82632
35.39197,87510
35.40008,94927
35.40822,96398
35.41633,103312
35.42445,107250
35.43258,107630
35.44070,100207
35.44883,104390
35.45695,96299
35.46507,88363
35.47320,87615
35.48132,84906
35.48945,86351
35.49757,77936
35.50568,77610
35.51382,80152
35.52193,75945
35.53005,75338
35.53818,79765
35.54630,78349
35.55443,81727
35.56255,77925
35.57067,77270
35.57880,85785
35.58692,79647
35.59505,77207
35.60317,81588
35.61128,75993
35.61942,72401
35.62753,67470
35.63567,68285
35.64378,69969
35.65190,75308
35.66003,74575
35.66815,75137
35.67627,76036
35.68440,80627
35.69252,85013
35.70065,84686
35.70877,86052
35.71688,87071
35.72502,83201
35.73313,84812
35.74127,84581
35.74938,82008
35.75750,83100
35.76563,85266
35.77375,84813
35.78187,84228
35.79000,85655
35.79812,91849
35.80625,80170
35.81437,80658
35.82248,84320
35.83062,74910
35.83873,78837
35.84687,78686
35.85498,76458
35.86310,78699
35.87123,77099
35.87935,80766
35.88748,85479
35.89560,82757
35.90372,72862
35.91185,78256
35.91997,74556
35.92808,72839
35.93622,75886
35.94433,76730
35.95247,79629
35.96058,73494
35.96870,79226
35.97683,77296
35.98495,74235
35.99308,74181
36.00120,75407
36.00932,73295
36.01745,79299
36.02557,81042
36.03370,77595
36.04182,73324
36.04993,81486
36.05807,76329
36.06618,71724
36.07430,74957
36.08243,79791
36.09055,72235
36.09868,70866
36.10680,76768
36.11492,74495
36.12305,73287
36.13117,71281
36.13930,72746
36.14742,76315
36.15553,77036
36.16367,76964
36.17178,75732
36.17990,72721
36.18803,77779
36.19615,69961
36.20428,76842
36.21240,72788
36.22052,79417
36.22865,76874
36.23677,77114
36.24490,80464
36.25302,76801
36.26113,80302
36.26927,82577
36.27738,80463
36.28552,80481
36.29363,82820
36.30175,86718
36.30988,90099
36.31800,87052
36.32612,89693
36.33425,96937
36.34237,90454
36.35050,87759
36.35862,84853
36.36673,81061
36.37487,75496
36.38298,79396
36.39112,80557
36.39923,82945
36.40735,79401
36.41548,78910
36.42360,82001
36.43173,84561
36.43985,81444
36.44797,94991
36.45610,90552
36.46422,88287
36.47233,86810
36.48047,87093
36.48858,87931
36.49672,87292
36.50483,90400
36.51295,91514
36.52108,96703
36.52920,94835
36.53733,92172
36.54545,87366
36.55357,84108
36.56170,79882
36.56982,77656
36.57793,78592
36.58607,73559
36.59418,75912
36.60232,78500
36.61043,74664
36.61855,77591
36.62668,78518
36.63480,83495
36.64293,88899
36.65105,92586
36.65917,91725
36.66730,97425
36.67542,88476
36.68355,95313
36.69167,88761
36.69978,92352
36.70792,84390
36.71603,84494
36.72415,82170
36.73228,80833
36.74040,83359
36.74853,85377
36.75665,79064
36.76477,78075
36.77290,81387
36.78102,81855
36.78915,88017
36.79727,84490
36.80538,81544
36.81352,83610
36.82163,89811
36.82977,86085
36.83788,89436
36.84600,84028
36.85413,80239
36.86225,84690
36.87037,87888
36.87850,89909
36.88662,98564
36.89475,92089
36.90287,92358
36.91098,86855
36.91912,85957
36.92723,89781
36.93537,89483
36.94348,91603
36.95160,103950
36.95973,110145
36.96785,117918
36.97597,124315
36.98410,120127
36.99222,114114
37.00035,111742
37.00847,103190
37.01658,98133
37.02472,94805
37.03283,94793
37.04097,96996
37.04908,96830
37.05720,93755
37.06533,98923
37.07345,92114
37.08158,101449
37.08970,99093
37.09782,98002
37.10595,100095
37.11407,99557
37.12218,99963
37.13032,107528
37.13843,112198
37.14657,106531
37.15468,104518
37.16280,110716
37.17093,101662
37.17905,107847
37.18718,98516
37.19530,102310
37.20342,97588
37.21155,93654
37.21967,90483
37.22778,85669
37.23592,88849
37.24403,89047
37.25217,87677
37.26028,86113
37.26840,89698
37.27653,103774
37.28465,87392
37.29278,95372
37.30090,95078
37.30902,89131
37.31715,95775
37.32527,96538
37.33340,97978
37.34152,94749
37.34963,103461
37.35777,109009
37.36588,108074
37.37400,110565
37.38213,107211
37.39025,109965
37.39838,106302
37.40650,103464
37.41462,98289
37.42275,101574
37.43087,103558
37.43900,98519
37.44712,100259
37.45523,99323
37.46337,103876
37.47148,92649
37.47962,100404
37.48773,97723
