Z:\data\JTB-E02\BACandBLUE\JTB-E02-200-08.D Thu Feb 28 09:52:56 2019
Start of data points
2.09532,71401
2.10343,69947
2.11157,74596
2.11968,71645
2.12782,68985
2.13593,69696
2.14405,70109
2.15218,71301
2.16030,67431
2.16842,65609
2.17655,65114
2.18467,62575
2.19280,65675
2.20092,60014
2.20903,60539
2.21717,60973
2.22528,58317
2.23342,61646
2.24153,58791
2.24965,60049
2.25778,96921
2.26590,707459
2.27403,2210296
2.28215,2965217
2.29027,2041985
2.29840,1043359
2.30652,716429
2.31463,562607
2.32277,481750
2.33088,438236
2.33902,382916
2.34713,337585
2.35525,310348
2.36338,288667
2.37150,262900
2.37963,259329
2.38775,240102
2.39587,237957
2.40400,264198
2.41212,308882
2.42025,432524
2.42837,441971
2.43648,308580
2.44462,267208
2.45273,242764
2.46085,215768
2.46898,195385
2.47710,182384
2.48523,170719
2.49335,163143
2.50147,160981
2.50960,162807
2.51772,152076
2.52585,154548
2.53397,151745
2.54208,148845
2.55022,157239
2.55833,189218
2.56645,201254
2.57458,190653
2.58270,162625
2.59083,154645
2.59895,144205
2.60707,150414
2.61520,166473
2.62332,165825
2.63145,157046
2.63957,141519
2.64768,134026
2.65582,134529
2.66393,126071
2.67207,127459
2.68018,122386
2.68830,126097
2.69643,116222
2.70455,121941
2.71267,115659
2.72080,116072
2.72892,120090
2.73705,117727
2.74517,112841
2.75328,117250
2.76142,114809
2.76953,109106
2.77767,110328
2.78578,108691
2.79390,111734
2.80203,122578
2.81015,110722
2.81827,113620
2.82640,110937
2.83452,105537
2.84265,104995
2.85077,104298
2.85888,104231
2.86702,106787
2.87513,107823
2.88327,105742
2.89138,103333
2.89950,107107
2.90763,95166
2.91575,103836
2.92388,98581
2.93200,95569
2.94012,102630
2.94825,98660
2.95637,98554
2.96448,100095
2.97262,110010
2.98073,107569
2.98887,104455
2.99698,102714
3.00510,106628
3.01323,104138
3.02135,101337
3.02948,95128
3.03760,96007
3.04572,91891
3.05385,92427
3.06197,93842
3.07010,93247
3.07822,93287
3.08633,94032
3.09447,96241
3.10258,99269
3.11070,117802
3.11883,134248
3.12695,129092
3.13508,119319
3.14320,108859
3.15132,98962
3.15945,109108
3.16757,97531
3.17570,100977
3.18382,93257
3.19193,99305
3.20007,89286
3.20818,88493
3.21632,95459
3.22443,91552
3.23255,88492
3.24068,85818
3.24880,85830
3.25692,90315
3.26505,89910
3.27317,85723
3.28130,92342
3.28942,151059
3.29753,548478
3.30567,1921615
3.31378,4488463
3.32192,6486020
3.33003,6314132
3.33815,4999767
3.34628,3690537
3.35440,2883800
3.36252,2335453
3.37065,1916043
3.37877,1661635
3.38690,1431646
3.39502,1260588
3.40313,1168776
3.41127,1049329
3.41938,934401
3.42752,854866
3.43563,752028
3.44375,700487
3.45188,636099
3.46000,581788
3.46813,547000
3.47625,511618
3.48437,486538
3.49250,477953
3.50062,466302
3.50873,466385
3.51687,460206
3.52498,458307
3.53312,458462
3.54123,429358
3.54935,440899
3.55748,428679
3.56560,413995
3.57373,406894
3.58185,397605
3.58997,383838
3.59810,378253
3.60622,350865
3.61433,347784
3.62247,332926
3.63058,319519
3.63872,310688
3.64683,303021
3.65495,290165
3.66308,292174
3.67120,285848
3.67933,290283
3.68745,293172
3.69557,301524
3.70370,296541
3.71182,290051
3.71995,276676
3.72807,279902
3.73618,268985
3.74432,281230
3.75243,265127
3.76055,255773
3.76868,249151
3.77680,247155
3.78493,245017
3.79305,245948
3.80117,247595
3.80930,242064
3.81742,244081
3.82555,238662
3.83367,237479
3.84178,236069
3.84992,226306
3.85803,228814
3.86617,219102
3.87428,215067
3.88240,215522
3.89053,217008
3.89865,212473
3.90677,209310
3.91490,207738
3.92302,210537
3.93115,201028
3.93927,204135
3.94738,204988
3.95552,194332
3.96363,195944
3.97177,197809
3.97988,197724
3.98800,193471
3.99613,193005
4.00425,200045
4.01237,192457
4.02050,205492
4.02862,207579
4.03675,201467
4.04487,197372
4.05298,195261
4.06112,186916
4.06923,182116
4.07737,186096
4.08548,184107
4.09360,185550
4.10173,184570
4.10985,184403
4.11798,178911
4.12610,175373
4.13422,183733
4.14235,201840
4.15047,290643
4.15858,430374
4.16672,492010
4.17483,438997
4.18297,350437
4.19108,278471
4.19920,239417
4.20733,222598
4.21545,205041
4.22358,188939
4.23170,202236
4.23982,207562
4.24795,217157
4.25607,214810
4.26420,204062
4.27232,189299
4.28043,188522
4.28857,171363
4.29668,163891
4.30480,162612
4.31293,166762
4.32105,158732
4.32918,171141
4.33730,173747
4.34542,172588
4.35355,175361
4.36167,169177
4.36980,170193
4.37792,173282
4.38603,169851
4.39417,169815
4.40228,165643
4.41040,162120
4.41853,159914
4.42665,156461
4.43478,151933
4.44290,159248
4.45102,153281
4.45915,150339
4.46727,139237
4.47540,151572
4.48352,151630
4.49163,143777
4.49977,148746
4.50788,143031
4.51602,144984
4.52413,149378
4.53225,142243
4.54038,145019
4.54850,146541
4.55662,140010
4.56475,144165
4.57287,148860
4.58100,137941
4.58912,140145
4.59723,134366
4.60537,142057
4.61348,141765
4.62162,139665
4.62973,139838
4.63785,137693
4.64598,142870
4.65410,137931
4.66222,134243
4.67035,138087
4.67847,135962
4.68660,129187
4.69472,135930
4.70283,134090
4.71097,128838
4.71908,130255
4.72722,127613
4.73533,129510
4.74345,135056
4.75158,132738
4.75970,126762
4.76783,127977
4.77595,126954
4.78407,125654
4.79220,131124
4.80032,124665
4.80843,132392
4.81657,130309
4.82468,130214
4.83282,132558
4.84093,127421
4.84905,125984
4.85718,126061
4.86530,128149
4.87343,128997
4.88155,125989
4.88967,129158
4.89780,131335
4.90592,130022
4.91405,127875
4.92217,123766
4.93028,126536
4.93842,130048
4.94653,156826
4.95465,256306
4.96278,552329
4.97090,1125069
4.97903,1793225
4.98715,2212164
4.99527,2145080
5.00340,1774541
5.01152,1391463
5.01965,1118622
5.02777,911051
5.03588,769602
5.04402,663866
5.05213,569179
5.06025,517994
5.06838,467524
5.07650,434370
5.08463,423178
5.09275,405135
5.10087,397858
5.10900,382542
5.11712,393480
5.12525,369772
5.13337,379458
5.14148,356074
5.14962,350951
5.15773,328817
5.16587,316968
5.17398,308968
5.18210,294947
5.19023,287451
5.19835,285846
5.20647,280941
5.21460,281448
5.22272,274530
5.23085,268817
5.23897,266047
5.24708,275820
5.25522,271855
5.26333,268326
5.27147,251424
5.27958,245177
5.28770,235839
5.29583,220407
5.30395,217046
5.31208,210095
5.32020,221851
5.32832,217917
5.33645,217201
5.34457,225433
5.35268,206294
5.36082,203922
5.36893,200523
5.37707,205490
5.38518,199445
5.39330,199507
5.40143,195155
5.40955,197126
5.41768,196011
5.42580,189099
5.43392,195451
5.44205,183603
5.45017,183563
5.45828,180923
5.46642,191847
5.47453,181559
5.48267,182547
5.49078,176718
5.49890,178483
5.50703,170691
5.51515,169384
5.52328,172130
5.53140,170971
5.53952,161602
5.54765,171981
5.55577,165695
5.56390,162646
5.57202,166349
5.58013,170460
5.58827,166944
5.59638,162699
5.60450,166723
5.61263,164624
5.62075,159692
5.62888,175888
5.63700,186296
5.64512,187632
5.65325,188041
5.66137,189685
5.66950,177113
5.67762,166595
5.68573,169193
5.69387,193785
5.70198,214215
5.71012,225917
5.71823,236872
5.72635,222922
5.73448,198452
5.74260,178932
5.75072,175455
5.75885,168532
5.76697,162246
5.77510,150606
5.78322,157335
5.79133,161976
5.79947,150603
5.80758,157502
5.81572,145901
5.82383,149915
5.83195,148770
5.84008,141294
5.84820,143290
5.85632,148019
5.86445,140730
5.87257,142577
5.88070,143988
5.88882,135295
5.89693,137439
5.90507,138549
5.91318,128538
5.92132,124518
5.92943,109309
5.93755,106155
5.94568,106775
5.95380,106395
5.96193,112599
5.97005,117081
5.97817,127943
5.98630,157559
5.99442,192913
6.00253,200598
6.01067,185705
6.01878,165076
6.02692,139707
6.03503,128085
6.04315,126330
6.05128,120311
6.05940,120111
6.06753,115271
6.07565,117281
6.08377,113460
6.09190,111911
6.10002,112888
6.10813,102219
6.11627,107628
6.12438,108003
6.13252,105058
6.14063,110975
6.14875,114120
6.15688,118344
6.16500,114113
6.17313,117660
6.18125,117601
6.18937,129123
6.19750,122471
6.20562,123965
6.21375,123972
6.22187,129569
6.22998,132210
6.23812,127187
6.24623,132748
6.25435,136150
6.26248,139768
6.27060,143280
6.27873,140372
6.28685,147855
6.29497,147607
6.30310,140491
6.31122,139461
6.31935,151164
6.32747,151947
6.33558,147260
6.34372,155235
6.35183,154297
6.35997,152399
6.36808,161241
6.37620,157579
6.38433,163047
6.39245,159821
6.40057,166337
6.40870,163774
6.41682,166075
6.42495,162919
6.43307,171444
6.44118,165527
6.44932,170229
6.45743,170302
6.46557,177452
6.47368,167982
6.48180,145700
6.48993,134882
6.49805,130821
6.50617,126226
6.51430,122751
6.52242,121945
6.53055,118800
6.53867,118400
6.54678,114426
6.55492,107822
6.56303,113565
6.57117,110870
6.57928,103805
6.58740,104102
6.59553,109836
6.60365,101246
6.61178,105260
6.61990,109777
6.62802,108539
6.63615,98587
6.64427,102190
6.65238,104875
6.66052,105518
6.66863,101916
6.67677,97636
6.68488,101113
6.69300,100387
6.70113,101735
6.70925,93463
6.71738,99961
6.72550,98745
6.73362,92705
6.74175,95812
6.74987,95835
6.75800,95917
6.76612,92612
6.77423,97523
6.78237,91109
6.79048,93766
6.79860,95910
6.80673,95156
6.81485,94088
6.82298,92483
6.83110,90681
6.83922,91763
6.84735,90988
6.85547,90979
6.86360,89808
6.87172,84222
6.87983,75934
6.88797,76304
6.89608,76979
6.90420,76391
6.91233,78180
6.92045,76654
6.92858,68374
6.93670,72927
6.94482,70627
6.95295,66815
6.96107,68308
6.96920,68835
6.97732,63939
6.98543,58710
6.99357,71840
7.00168,67780
7.00982,65009
7.01793,64872
7.02605,62510
7.03418,66174
7.04230,62606
7.05042,62350
7.05855,64723
7.06667,61791
7.07480,60063
7.08292,63015
7.09103,60211
7.09917,61527
7.10728,61633
7.11542,63606
7.12353,62453
7.13165,62776
7.13978,64115
7.14790,64693
7.15602,62681
7.16415,66375
7.17227,64413
7.18040,64810
7.18852,61642
7.19663,60541
7.20477,64614
7.21288,59998
7.22102,70297
7.22913,59493
7.23725,65136
7.24538,60429
7.25350,62531
7.26163,61089
7.26975,64301
7.27787,64178
7.28600,62308
7.29412,57836
7.30223,60075
7.31037,64410
7.31848,63198
7.32662,61309
7.33473,61394
7.34285,63641
7.35098,63245
7.35910,57203
7.36723,60861
7.37535,61384
7.38347,61829
7.39160,58961
7.39972,63734
7.40785,64441
7.41597,61687
7.42408,60916
7.43222,65370
7.44033,63835
7.44845,60584
7.45658,62772
7.46470,66725
7.47283,71057
7.48095,72991
7.48907,77244
7.49720,77789
7.50532,67737
7.51345,68822
7.52157,63810
7.52968,63248
7.53782,67663
7.54593,62916
7.55407,57500
7.56218,60599
7.57030,66435
7.57843,67887
7.58655,57885
7.59467,60887
7.60280,60441
7.61092,62417
7.61905,61950
7.62717,57950
7.63528,60224
7.64342,59417
7.65153,60124
7.65967,59224
7.66778,61734
7.67590,59376
7.68403,58069
7.69215,63690
7.70027,62034
7.70840,62888
7.71652,60053
7.72465,56902
7.73277,56962
7.74088,60132
7.74902,58706
7.75713,61418
7.76527,60812
7.77338,60527
7.78150,56666
7.78963,56927
7.79775,57499
7.80588,57078
7.81400,59201
7.82212,56526
7.83025,59327
7.83837,60429
7.84648,58645
7.85462,52455
7.86273,52445
7.87087,54264
7.87898,53353
7.88710,54995
7.89523,55219
7.90335,48657
7.91148,53208
7.91960,56193
7.92772,50389
7.93585,56258
7.94397,53682
7.95208,53928
7.96022,53721
7.96833,55025
7.97647,51347
7.98458,56479
7.99270,53831
8.00083,52871
8.00895,56782
8.01708,54973
8.02520,53331
8.03332,53236
8.04145,54039
8.04957,51446
8.05770,59297
8.06582,59454
8.07393,50017
8.08207,52659
8.09018,56144
8.09830,54345
8.10643,54414
8.11455,55974
8.12268,52638
8.13080,56640
8.13892,56061
8.14705,49474
8.15517,57546
8.16330,52866
8.17142,53098
8.17953,55048
8.18767,57061
8.19578,60903
8.20392,60640
8.21203,63529
8.22015,62045
8.22828,60914
8.23640,55067
8.24452,54610
8.25265,56180
8.26077,55189
8.26890,55287
8.27702,56988
8.28513,57058
8.29327,56037
8.30138,57063
8.30952,57322
8.31763,58121
8.32575,57335
8.33388,59159
8.34200,54523
8.35012,59326
8.35825,59206
8.36637,65380
8.37450,71789
8.38262,63307
8.39073,64101
8.39887,61326
8.40698,69280
8.41512,60070
8.42323,66246
8.43135,67703
8.43948,66836
8.44760,65457
8.45573,61835
8.46385,65184
8.47197,62605
8.48010,60997
8.48822,59244
8.49633,61051
8.50447,69337
8.51258,61575
8.52072,69905
8.52883,74188
8.53695,76722
8.54508,79799
8.55320,74303
8.56133,70367
8.56945,74571
8.57757,65959
8.58570,68091
8.59382,67265
8.60195,64009
8.61007,62577
8.61818,64811
8.62632,68883
8.63443,70631
8.64255,68169
8.65068,65141
8.65880,62572
8.66693,63225
8.67505,64182
8.68317,66874
8.69130,66153
8.69942,60158
8.70755,65299
8.71567,61383
8.72378,63223
8.73192,60968
8.74003,60392
8.74815,62788
8.75628,63417
8.76440,56025
8.77253,59542
8.78065,63306
8.78877,71091
8.79690,111000
8.80502,186593
8.81315,317331
8.82127,452374
8.82938,534666
8.83752,524250
8.84563,444389
8.85377,371215
8.86188,318983
8.87000,268654
8.87813,237255
8.88625,214580
8.89437,197856
8.90250,175023
8.91062,167167
8.91875,157584
8.92687,161407
8.93498,146421
8.94312,151441
8.95123,130701
8.95937,133665
8.96748,133107
8.97560,132540
8.98373,125651
8.99185,123485
8.99997,129499
9.00810,120143
9.01622,111100
9.02435,111063
9.03247,110236
9.04058,115413
9.04872,110403
9.05683,109852
9.06497,107826
9.07308,108402
9.08120,108705
9.08933,102403
9.09745,99443
9.10558,103687
9.11370,95975
9.12182,99719
9.12995,97376
9.13807,88578
9.14618,98655
9.15432,95663
9.16243,97639
9.17057,91255
9.17868,99603
9.18680,94956
9.19493,95426
9.20305,99350
9.21118,93100
9.21930,92907
9.22742,91433
9.23555,93747
9.24367,90561
9.25180,95566
9.25992,86041
9.26803,86195
9.27617,86029
9.28428,89140
9.29240,85110
9.30053,82599
9.30865,85197
9.31678,85423
9.32490,78987
9.33302,79769
9.34115,81914
9.34927,76224
9.35740,77676
9.36552,73829
9.37363,76632
9.38177,73373
9.38988,75976
9.39800,73990
9.40613,73436
9.41425,73695
9.42238,78406
9.43050,69152
9.43862,69628
9.44675,68287
9.45487,70303
9.46300,73047
9.47112,68451
9.47923,67616
9.48737,68931
9.49548,73642
9.50362,71659
9.51173,65160
9.51985,70017
9.52798,70499
9.53610,68701
9.54422,69421
9.55235,72005
9.56047,68334
9.56860,76849
9.57672,68389
9.58483,61034
9.59297,55942
9.60108,58423
9.60922,58946
9.61733,62195
9.62545,62458
9.63358,64508
9.64170,61331
9.64983,57247
9.65795,64512
9.66607,57053
9.67420,57797
9.68232,53381
9.69043,50023
9.69857,51990
9.70668,55357
9.71482,51272
9.72293,53693
9.73105,53700
9.73918,50657
9.74730,48886
9.75543,48485
9.76355,50277
9.77167,51777
9.77980,48539
9.78792,42713
9.79603,51352
9.80417,48233
9.81228,44731
9.82042,48531
9.82853,53110
9.83665,47610
9.84478,47171
9.85290,49954
9.86103,52221
9.86915,53627
9.87727,61792
9.88540,51041
9.89352,53280
9.90165,51334
9.90977,49373
9.91788,54935
9.92602,51948
9.93413,49820
9.94225,49048
9.95038,54443
9.95850,50121
9.96663,52869
9.97475,50476
9.98287,49533
9.99100,47922
9.99912,47990
10.00725,48986
10.01537,50008
10.02348,55937
10.03162,61981
10.03973,61761
10.04785,65261
10.05598,70732
10.06410,74013
10.07223,72492
10.08035,77022
10.08847,66261
10.09660,74109
10.10472,67179
10.11285,57580
10.12097,60145
10.12908,59055
10.13722,63279
10.14533,52815
10.15347,55446
10.16158,52980
10.16970,54245
10.17783,54468
10.18595,54703
10.19407,48449
10.20220,50896
10.21032,49043
10.21845,49791
10.22657,49145
10.23468,50937
10.24282,56150
10.25093,57773
10.25907,61861
10.26718,62574
10.27530,61396
10.28343,61003
10.29155,59576
10.29968,61018
10.30780,56214
10.31592,61593
10.32405,59799
10.33217,66478
10.34028,70834
10.34842,68900
10.35653,63279
10.36467,60361
10.37278,60055
10.38090,58063
10.38903,55850
10.39715,57497
10.40528,54472
10.41340,56693
10.42152,55719
10.42965,53580
10.43777,55378
10.44588,51455
10.45402,53681
10.46213,58649
10.47027,55375
10.47838,53020
10.48650,56324
10.49463,60060
10.50275,54709
10.51088,51352
10.51900,51197
10.52712,53431
10.53525,50690
10.54337,52152
10.55150,51171
10.55962,50216
10.56773,52999
10.57587,50140
10.58398,51542
10.59210,46679
10.60023,52204
10.60835,50469
10.61648,56069
10.62460,50572
10.63272,52664
10.64085,49987
10.64897,47909
10.65710,50172
10.66522,50146
10.67333,49214
10.68147,47403
10.68958,47704
10.69772,48052
10.70583,53317
10.71395,53204
10.72208,49790
10.73020,51493
10.73832,52341
10.74645,56733
10.75457,52686
10.76270,47354
10.77082,49930
10.77893,50810
10.78707,54562
10.79518,52381
10.80332,51566
10.81143,48684
10.81955,44151
10.82768,49323
10.83580,47431
10.84392,47066
10.85205,46386
10.86017,51042
10.86830,53048
10.87642,50434
10.88453,46829
10.89267,48354
10.90078,52019
10.90892,48034
10.91703,50452
10.92515,46013
10.93328,47099
10.94140,42867
10.94953,43579
10.95765,43566
10.96577,44149
10.97390,43430
10.98202,48439
10.99013,46740
10.99827,47168
11.00638,48003
11.01452,52132
11.02263,47324
11.03075,46877
11.03888,44732
11.04700,47427
11.05513,46489
11.06325,46050
11.07137,42970
11.07950,47021
11.08762,40394
11.09575,40511
11.10387,43441
11.11198,44210
11.12012,43127
11.12823,43001
11.13635,40535
11.14448,39514
11.15260,42273
11.16073,40975
11.16885,41220
11.17697,44866
11.18510,44659
11.19322,44098
11.20135,49454
11.20947,57220
11.21758,62883
11.22572,66340
11.23383,69104
11.24195,70757
11.25008,62474
11.25820,58179
11.26633,53390
11.27445,55479
11.28257,47742
11.29070,47952
11.29882,42985
11.30695,42053
11.31507,40751
11.32318,43253
11.33132,44879
11.33943,45988
11.34757,44765
11.35568,41768
11.36380,44350
11.37193,42261
11.38005,40781
11.38817,44122
11.39630,47481
11.40442,45925
11.41255,44277
11.42067,43477
11.42878,45898
11.43692,43072
11.44503,44063
11.45317,42652
11.46128,42135
11.46940,42852
11.47753,42403
11.48565,41007
11.49377,38201
11.50190,39024
11.51002,38983
11.51815,43633
11.52627,45617
11.53438,45758
11.54252,44579
11.55063,40341
11.55877,43372
11.56688,43409
11.57500,42779
11.58313,50337
11.59125,46089
11.59938,40433
11.60750,40102
11.61562,37248
11.62375,40683
11.63187,45965
11.63998,44032
11.64812,43152
11.65623,45714
11.66437,43402
11.67248,38328
11.68060,38680
11.68873,41220
11.69685,41731
11.70498,40431
11.71310,42040
11.72122,43277
11.72935,43452
11.73747,46313
11.74560,42181
11.75372,50454
11.76183,47210
11.76997,44889
11.77808,44674
11.78620,48117
11.79433,44299
11.80245,47393
11.81058,44066
11.81870,42579
11.82682,46147
11.83495,46854
11.84307,46078
11.85120,40311
11.85932,40955
11.86743,43860
11.87557,43075
11.88368,47476
11.89180,45002
11.89993,42910
11.90805,41234
11.91618,38778
11.92430,36501
11.93242,39276
11.94055,45004
11.94867,43520
11.95680,40613
11.96492,42609
11.97303,40928
11.98117,40746
11.98928,41098
11.99742,35221
12.00553,39169
12.01365,39763
12.02178,44347
12.02990,39687
12.03802,45862
12.04615,44562
12.05427,41854
12.06240,38928
12.07052,39529
12.07863,41408
12.08677,45475
12.09488,38016
12.10302,44566
12.11113,38559
12.11925,40573
12.12738,44106
12.13550,38435
12.14363,39825
12.15175,36972
12.15987,40549
12.16800,44479
12.17612,45882
12.18423,48634
12.19237,51220
12.20048,51431
12.20862,55083
12.21673,57148
12.22485,56385
12.23298,51256
12.24110,51727
12.24923,51296
12.25735,54054
12.26547,53796
12.27360,53478
12.28172,53560
12.28983,53177
12.29797,51156
12.30608,55576
12.31422,50710
12.32233,53809
12.33045,51696
12.33858,49572
12.34670,49591
12.35483,50184
12.36295,54344
12.37107,51277
12.37920,48706
12.38732,52841
12.39545,50078
12.40357,47389
12.41168,49028
12.41982,49567
12.42793,45412
12.43605,50726
12.44418,49485
12.45230,52214
12.46043,51774
12.46855,51599
12.47667,49051
12.48480,52856
12.49292,52682
12.50105,49071
12.50917,49162
12.51728,52608
12.52542,49432
12.53353,47532
12.54165,45449
12.54978,43094
12.55790,52958
12.56603,50183
12.57415,50156
12.58227,44358
12.59040,49664
12.59852,46908
12.60665,48333
12.61477,47382
12.62288,45817
12.63102,46984
12.63913,46737
12.64727,48380
12.65538,47937
12.66350,48088
12.67163,44347
12.67975,47322
12.68787,47438
12.69600,43145
12.70412,44329
12.71225,41521
12.72037,44446
12.72848,46369
12.73662,49297
12.74473,47397
12.75287,62206
12.76098,51935
12.76910,56791
12.77723,59937
12.78535,54789
12.79348,50047
12.80160,50821
12.80972,45270
12.81785,44784
12.82597,45353
12.83408,44406
12.84222,38718
12.85033,43467
12.85847,40098
12.86658,40904
12.87470,37822
12.88283,39927
12.89095,36609
12.89908,42666
12.90720,40013
12.91532,42599
12.92345,36787
12.93157,47413
12.93970,36613
12.94782,35389
12.95593,38021
12.96407,38619
12.97218,39651
12.98030,39444
12.98843,34931
12.99655,39559
13.00468,38568
13.01280,42399
13.02092,36234
13.02905,35560
13.03717,35938
13.04530,39276
13.05342,42007
13.06153,38469
13.06967,35683
13.07778,37027
13.08590,39495
13.09403,36864
13.10215,36522
13.11028,37968
13.11840,36818
13.12652,42654
13.13465,38121
13.14277,35481
13.15090,41578
13.15902,36934
13.16713,36321
13.17527,42216
13.18338,44818
13.19152,40805
13.19963,38445
13.20775,43692
13.21588,40388
13.22400,43284
13.23212,43077
13.24025,48495
13.24837,52361
13.25650,42220
13.26462,40360
13.27273,42038
13.28087,48750
13.28898,41932
13.29712,38411
13.30523,34793
13.31335,39161
13.32148,37757
13.32960,36234
13.33772,37961
13.34585,40222
13.35397,38544
13.36210,41094
13.37022,39321
13.37833,38801
13.38647,36459
13.39458,39151
13.40272,37311
13.41083,39628
13.41895,35457
13.42708,38579
13.43520,42843
13.44333,36987
13.45145,39754
13.45957,37780
13.46770,34816
13.47582,37874
13.48393,41048
13.49207,35773
13.50018,38652
13.50832,36214
13.51643,36351
13.52455,36653
13.53268,39402
13.54080,36233
13.54893,36282
13.55705,38280
13.56517,33245
13.57330,35473
13.58142,34969
13.58955,41126
13.59767,36132
13.60578,41583
13.61392,41528
13.62203,36535
13.63015,37838
13.63828,34484
13.64640,35683
13.65453,36540
13.66265,32962
13.67077,40170
13.67890,39793
13.68702,37247
13.69515,34301
13.70327,39015
13.71138,37765
13.71952,35898
13.72763,35301
13.73575,37074
13.74388,35754
13.75200,37494
13.76013,34745
13.76825,35896
13.77637,34275
13.78450,39566
13.79262,35994
13.80075,39286
13.80887,36966
13.81698,35894
13.82512,40331
13.83323,40058
13.84137,42977
13.84948,38099
13.85760,36534
13.86573,42822
13.87385,41581
13.88197,43027
13.89010,41128
13.89822,40275
13.90635,38827
13.91447,39032
13.92258,38490
13.93072,38319
13.93883,39233
13.94697,40023
13.95508,42330
13.96320,42877
13.97133,46299
13.97945,40771
13.98758,43612
13.99570,39036
14.00382,45597
14.01195,44970
14.02007,41036
14.02818,42057
14.03632,42134
14.04443,38121
14.05257,39790
14.06068,36032
14.06880,40457
14.07693,41387
14.08505,44341
14.09318,45193
14.10130,44728
14.10942,51125
14.11755,46965
14.12567,44764
14.13378,39016
14.14192,41624
14.15003,40725
14.15817,43730
14.16628,40482
14.17440,40899
14.18253,41642
14.19065,42089
14.19878,49324
14.20690,58285
14.21502,85573
14.22315,115238
14.23127,151572
14.23940,175918
14.24752,169527
14.25563,150821
14.26377,140048
14.27188,110423
14.28000,112676
14.28813,105322
14.29625,99456
14.30438,84786
14.31250,84843
14.32062,82217
14.32875,74280
14.33687,68286
14.34500,61335
14.35312,67066
14.36123,62588
14.36937,56118
14.37748,57180
14.38560,51235
14.39373,48757
14.40185,48566
14.40998,41022
14.41810,46701
14.42622,47850
14.43435,44493
14.44247,46089
14.45060,44437
14.45872,41209
14.46683,46341
14.47497,47699
14.48308,43182
14.49122,38317
14.49933,44307
14.50745,45678
14.51558,40268
14.52370,45718
14.53182,46144
14.53995,42301
14.54807,43482
14.55620,47736
14.56432,41951
14.57243,44778
14.58057,41071
14.58868,43719
14.59682,44881
14.60493,40645
14.61305,40851
14.62118,39278
14.62930,40694
14.63743,41271
14.64555,37579
14.65367,37538
14.66180,40949
14.66992,40340
14.67803,40682
14.68617,38674
14.69428,41247
14.70242,39094
14.71053,37846
14.71865,39765
14.72678,40105
14.73490,38544
14.74303,40780
14.75115,42145
14.75927,36814
14.76740,40305
14.77552,39722
14.78363,37447
14.79177,37200
14.79988,40501
14.80802,34445
14.81613,38094
14.82425,42038
14.83238,45921
14.84050,49193
14.84863,54319
14.85675,59533
14.86487,62967
14.87300,69409
14.88112,74675
14.88925,67642
14.89737,69302
14.90548,62036
14.91362,63476
14.92173,66590
14.92985,65323
14.93798,64815
14.94610,62259
14.95423,56717
14.96235,59319
14.97047,63973
14.97860,58997
14.98672,57102
14.99485,58967
15.00297,51171
15.01108,51789
15.01922,53974
15.02733,59107
15.03547,55344
15.04358,56602
15.05170,57955
15.05983,56709
15.06795,54841
15.07607,54924
15.08420,52015
15.09232,50589
15.10045,51422
15.10857,52023
15.11668,50316
15.12482,49299
15.13293,47842
15.14107,48200
15.14918,48771
15.15730,48693
15.16543,49993
15.17355,44132
15.18167,45626
15.18980,41766
15.19792,39977
15.20605,42904
15.21417,46429
15.22228,47262
15.23042,42810
15.23853,47168
15.24667,46235
15.25478,44776
15.26290,45453
15.27103,40215
15.27915,43199
15.28728,41902
15.29540,38973
15.30352,45878
15.31165,41983
15.31977,42093
15.32788,41083
15.33602,42263
15.34413,40192
15.35227,42131
15.36038,44000
15.36850,44660
15.37663,40455
15.38475,39902
15.39288,40804
15.40100,37189
15.40912,38769
15.41725,40493
15.42537,41327
15.43350,41086
15.44162,39898
15.44973,42805
15.45787,40285
15.46598,36818
15.47410,43458
15.48223,39161
15.49035,39126
15.49848,40991
15.50660,42606
15.51472,47023
15.52285,49583
15.53097,52042
15.53910,53187
15.54722,43929
15.55533,45601
15.56347,44115
15.57158,42894
15.57970,39917
15.58783,44074
15.59595,42441
15.60408,42471
15.61220,39641
15.62032,40362
15.62845,40172
15.63657,42529
15.64470,43768
15.65282,37939
15.66093,41265
15.66907,43241
15.67718,39505
15.68532,42220
15.69343,43835
15.70155,36353
15.70968,37850
15.71780,42145
15.72592,41258
15.73405,39150
15.74217,44433
15.75030,42017
15.75842,41501
15.76653,41136
15.77467,42616
15.78278,42981
15.79092,46238
15.79903,44686
15.80715,44475
15.81528,41599
15.82340,43779
15.83152,41219
15.83965,44856
15.84777,44426
15.85590,44955
15.86402,43707
15.87213,42722
15.88027,41857
15.88838,38772
15.89652,41588
15.90463,43700
15.91275,44565
15.92088,40992
15.92900,39107
15.93713,45360
15.94525,40080
15.95337,42547
15.96150,42230
15.96962,42936
15.97773,39676
15.98587,43008
15.99398,41527
16.00212,42159
16.01023,45757
16.01835,43662
16.02648,47932
16.03460,54980
16.04273,62932
16.05085,69704
16.05897,71835
16.06710,75348
16.07522,64098
16.08335,60776
16.09147,55382
16.09958,49208
16.10772,46742
16.11583,47301
16.12395,46168
16.13208,48768
16.14020,48589
16.14833,44957
16.15645,43546
16.16457,42166
16.17270,45844
16.18082,45742
16.18895,47915
16.19707,44553
16.20518,41949
16.21332,41345
16.22143,44177
16.22955,47120
16.23768,44042
16.24580,45783
16.25393,47072
16.26205,43708
16.27017,41990
16.27830,42779
16.28642,43126
16.29455,44697
16.30267,50109
16.31078,39676
16.31892,43585
16.32703,43368
16.33517,42296
16.34328,44575
16.35140,40618
16.35953,45142
16.36765,42968
16.37577,42568
16.38390,44068
16.39202,44843
16.40015,46975
16.40827,44967
16.41638,45671
16.42452,49955
16.43263,46489
16.44077,36316
16.44888,44238
16.45700,43605
16.46513,52706
16.47325,49746
16.48138,42811
16.48950,43833
16.49762,45572
16.50575,44392
16.51387,46158
16.52198,45223
16.53012,46853
16.53823,50240
16.54637,45518
16.55448,45830
16.56260,47633
16.57073,48043
16.57885,41296
16.58698,42318
16.59510,42603
16.60322,46689
16.61135,47137
16.61947,48644
16.62758,44004
16.63572,42188
16.64383,42465
16.65197,44105
16.66008,41140
16.66820,41214
16.67633,40215
16.68445,46508
16.69258,47903
16.70070,45696
16.70882,45369
16.71695,41309
16.72507,41564
16.73320,41071
16.74132,42739
16.74943,41852
16.75757,36869
16.76568,38215
16.77380,41432
16.78193,38288
16.79005,41638
16.79818,43390
16.80630,42563
16.81442,36976
16.82255,39886
16.83067,35898
16.83880,35130
16.84692,39617
16.85503,37668
16.86317,37368
16.87128,39668
16.87940,39582
16.88753,43013
16.89565,38974
16.90378,42911
16.91190,37617
16.92002,40527
16.92815,38865
16.93627,38271
16.94440,40660
16.95252,37817
16.96063,41636
16.96877,35747
16.97688,42284
16.98502,40804
16.99313,38999
17.00125,38772
17.00938,41370
17.01750,35816
17.02562,38664
17.03375,36687
17.04187,40710
17.05000,41433
17.05812,37288
17.06623,41775
17.07437,43774
17.08248,42620
17.09062,37688
17.09873,39805
17.10685,36434
17.11498,38991
17.12310,41124
17.13123,38994
17.13935,39188
17.14747,41902
17.15560,40044
17.16372,41531
17.17183,39948
17.17997,37511
17.18808,39561
17.19622,35816
17.20433,34360
17.21245,39901
17.22058,39150
17.22870,38242
17.23683,39709
17.24495,37187
17.25307,37094
17.26120,41315
17.26932,36575
17.27743,40040
17.28557,38767
17.29368,38706
17.30182,37899
17.30993,39839
17.31805,37001
17.32618,38090
17.33430,40298
17.34243,40568
17.35055,39926
17.35867,43407
17.36680,42726
17.37492,40236
17.38305,49200
17.39117,49413
17.39928,47994
17.40742,49932
17.41553,52611
17.42365,51732
17.43178,44971
17.43990,44227
17.44803,43927
17.45615,42395
17.46427,44492
17.47240,44037
17.48052,41630
17.48865,44236
17.49677,42674
17.50488,45039
17.51302,42438
17.52113,43321
17.52927,40961
17.53738,39063
17.54550,40555
17.55363,44340
17.56175,39669
17.56987,43673
17.57800,41607
17.58612,41278
17.59425,39401
17.60237,41257
17.61048,38533
17.61862,38387
17.62673,41227
17.63487,40114
17.64298,40945
17.65110,42030
17.65923,40278
17.66735,44705
17.67547,46751
17.68360,45794
17.69172,53075
17.69985,43518
17.70797,46924
17.71608,52425
17.72422,48716
17.73233,48240
17.74047,46741
17.74858,51487
17.75670,44233
17.76483,48479
17.77295,45597
17.78108,51156
17.78920,43945
17.79732,41538
17.80545,40151
17.81357,41620
17.82168,48608
17.82982,39036
17.83793,43102
17.84607,43171
17.85418,43333
17.86230,43458
17.87043,43504
17.87855,37153
17.88668,43079
17.89480,44700
17.90292,39824
17.91105,40686
17.91917,44746
17.92728,42865
17.93542,44298
17.94353,44406
17.95167,36753
17.95978,36317
17.96790,35519
17.97603,33163
17.98415,37333
17.99228,39069
18.00040,37475
18.00852,37138
18.01665,36662
18.02477,37737
18.03290,42972
18.04102,38359
18.04913,38460
18.05727,40937
18.06538,39297
18.07350,37722
18.08163,43714
18.08975,52414
18.09788,53982
18.10600,59940
18.11412,63579
18.12225,69370
18.13037,84053
18.13850,82855
18.14662,77481
18.15473,72432
18.16287,77528
18.17098,67357
18.17912,68452
18.18723,64017
18.19535,61138
18.20348,60198
18.21160,67129
18.21972,66581
18.22785,55528
18.23597,54635
18.24410,56150
18.25222,56568
18.26033,53889
18.26847,55646
18.27658,58753
18.28472,53032
18.29283,53147
18.30095,45526
18.30908,48490
18.31720,42480
18.32533,42065
18.33345,44578
18.34157,40807
18.34970,38824
18.35782,45235
18.36593,38820
18.37407,37473
18.38218,38495
18.39032,36800
18.39843,38524
18.40655,42004
18.41468,39760
18.42280,39510
18.43093,38789
18.43905,38388
18.44717,35491
18.45530,37873
18.46342,41071
18.47153,37086
18.47967,35240
18.48778,37843
18.49592,40038
18.50403,42799
18.51215,36727
18.52028,38972
18.52840,40690
18.53653,40885
18.54465,35164
18.55277,36640
18.56090,38376
18.56902,40718
18.57715,42341
18.58527,42345
18.59338,38597
18.60152,40048
18.60963,40872
18.61775,42137
18.62588,46075
18.63400,43778
18.64213,39610
18.65025,41519
18.65837,39220
18.66650,40358
18.67462,35978
18.68275,39603
18.69087,36632
18.69898,39019
18.70712,37849
18.71523,43700
18.72335,41131
18.73148,40198
18.73960,45936
18.74773,39855
18.75585,38991
18.76397,41280
18.77210,39249
18.78022,37955
18.78835,40730
18.79647,40005
18.80458,39983
18.81272,38943
18.82083,39209
18.82897,40410
18.83708,41751
18.84520,42442
18.85333,44500
18.86145,37892
18.86957,42094
18.87770,40207
18.88582,52769
18.89395,42294
18.90207,40181
18.91018,42967
18.91832,41146
18.92643,40450
18.93457,42734
18.94268,41704
18.95080,39999
18.95893,37845
18.96705,41134
18.97518,37507
18.98330,42136
18.99142,43049
18.99955,44420
19.00767,39898
19.01578,48035
19.02392,41139
19.03203,40962
19.04017,40777
19.04828,39476
19.05640,40900
19.06453,46168
19.07265,38295
19.08078,43400
19.08890,41867
19.09702,39763
19.10515,45484
19.11327,46028
19.12138,53653
19.12952,60120
19.13763,53411
19.14577,57727
19.15388,55274
19.16200,52787
19.17013,53572
19.17825,52863
19.18638,51235
19.19450,54434
19.20262,45989
19.21075,46357
19.21887,50238
19.22700,45184
19.23512,47117
19.24323,40966
19.25137,44379
19.25948,46674
19.26760,45930
19.27573,43693
19.28385,42519
19.29198,45500
19.30010,48487
19.30822,52404
19.31635,53247
19.32447,52420
19.33260,53166
19.34072,50732
19.34883,49554
19.35697,46548
19.36508,48272
19.37322,48502
19.38133,45688
19.38945,44829
19.39758,45619
19.40570,46413
19.41382,43511
19.42195,44457
19.43007,45720
19.43820,50067
19.44632,45314
19.45443,40561
19.46257,47602
19.47068,44394
19.47882,43176
19.48693,42960
19.49505,43929
19.50318,45831
19.51130,59533
19.51942,72045
19.52755,88908
19.53567,105057
19.54380,101915
19.55192,94498
19.56003,74922
19.56817,66336
19.57628,55828
19.58442,48509
19.59253,44520
19.60065,47396
19.60878,40460
19.61690,45706
19.62503,42643
19.63315,46310
19.64127,49825
19.64940,59008
19.65752,85820
19.66563,128898
19.67377,216700
19.68188,302242
19.69002,385405
19.69813,426810
19.70625,402249
19.71438,332661
19.72250,266666
19.73063,194652
19.73875,144306
19.74687,113885
19.75500,104931
19.76312,91740
19.77123,81176
19.77937,75361
19.78748,66186
19.79562,62668
19.80373,59588
19.81185,63761
19.81998,61448
19.82810,56191
19.83623,53899
19.84435,57724
19.85247,50646
19.86060,50612
19.86872,54504
19.87685,60793
19.88497,76497
19.89308,125268
19.90122,225564
19.90933,410562
19.91745,669706
19.92558,957308
19.93370,1249938
19.94183,1443659
19.94995,1520263
19.95807,1523901
19.96620,1487156
19.97432,1391236
19.98245,1337969
19.99057,1263980
19.99868,1215496
20.00682,1154290
20.01493,1097122
20.02307,1047101
20.03118,967164
20.03930,934440
20.04743,864387
20.05555,763022
20.06367,684937
20.07180,533736
20.07992,414232
20.08805,325002
20.09617,247053
20.10428,217796
20.11242,191587
20.12053,191843
20.12867,172076
20.13678,164913
20.14490,166163
20.15303,156133
20.16115,146274
20.16927,149440
20.17740,149962
20.18552,140612
20.19365,135503
20.20177,131611
20.20988,132713
20.21802,137491
20.22613,136701
20.23427,139891
20.24238,140414
20.25050,141929
20.25863,151117
20.26675,163114
20.27488,188872
20.28300,241925
20.29112,311141
20.29925,376870
20.30737,426104
20.31548,409445
20.32362,381201
20.33173,318083
20.33987,260854
20.34798,208487
20.35610,171107
20.36423,146057
20.37235,130694
20.38048,108844
20.38860,95358
20.39672,94374
20.40485,87234
20.41297,86682
20.42110,87766
20.42922,94022
20.43733,98149
20.44547,110695
20.45358,134896
20.46170,153936
20.46983,166007
20.47795,166033
20.48608,150370
20.49420,128158
20.50232,114265
20.51045,101671
20.51857,87778
20.52670,85541
20.53482,81966
20.54293,74407
20.55107,73418
20.55918,79673
20.56730,71186
20.57543,76512
20.58355,73406
20.59168,67403
20.59980,73238
20.60792,71157
20.61605,73990
20.62417,69861
20.63230,67105
20.64042,69663
20.64853,69326
20.65667,66703
20.66478,69295
20.67292,64384
20.68103,71107
20.68915,63795
20.69728,69736
20.70540,64434
20.71352,62304
20.72165,61385
20.72977,63053
20.73790,58852
20.74602,65833
20.75413,63281
20.76227,65749
20.77038,60902
20.77852,62237
20.78663,64587
20.79475,65991
20.80288,61714
20.81100,62765
20.81913,70055
20.82725,63890
20.83537,65794
20.84350,64732
20.85162,68399
20.85973,65989
20.86787,66979
20.87598,65909
20.88412,61762
20.89223,65042
20.90035,62205
20.90848,61548
20.91660,63072
20.92473,57644
20.93285,58111
20.94097,56701
20.94910,56945
20.95722,59812
20.96533,60621
20.97347,63646
20.98158,55855
20.98972,57248
20.99783,60342
21.00595,60349
21.01408,54374
21.02220,54888
21.03033,54935
21.03845,56666
21.04657,57910
21.05470,60022
21.06282,56329
21.07095,54088
21.07907,57425
21.08718,59689
21.09532,53822
21.10343,56072
21.11155,54978
21.11968,57804
21.12780,53209
21.13593,55544
21.14405,54527
21.15217,53276
21.16030,61372
21.16842,56530
21.17655,57585
21.18467,61004
21.19278,55201
21.20092,57304
21.20903,56667
21.21715,59591
21.22528,59017
21.23340,54640
21.24153,56689
21.24965,57524
21.25777,60943
21.26590,59879
21.27402,57361
21.28215,58033
21.29027,61107
21.29838,64294
21.30652,57621
21.31463,54696
21.32277,54596
21.33088,53427
21.33900,52802
21.34713,57418
21.35525,55576
21.36337,54397
21.37150,49743
21.37962,50964
21.38775,47362
21.39587,49779
21.40398,53876
21.41212,52026
21.42023,50704
21.42837,49499
21.43648,54137
21.44460,56598
21.45273,54466
21.46085,51620
21.46898,51323
21.47710,49903
21.48522,54478
21.49335,52584
21.50147,51044
21.50958,51686
21.51772,48414
21.52583,49609
21.53397,51364
21.54208,56209
21.55020,48128
21.55833,53433
21.56645,53930
21.57458,52891
21.58270,54992
21.59082,52529
21.59895,54278
21.60707,55675
21.61518,52201
21.62332,59529
21.63143,57007
21.63957,72953
21.64768,99481
21.65580,103871
21.66393,121956
21.67205,127717
21.68018,119230
21.68830,103870
21.69642,91096
21.70455,75292
21.71267,65231
21.72080,60773
21.72892,57877
21.73703,56409
21.74517,55106
21.75328,57799
21.76140,53841
21.76953,57791
21.77765,57702
21.78578,55125
21.79390,55402
21.80202,58264
21.81015,56040
21.81827,56793
21.82640,64380
21.83452,67954
21.84263,81365
21.85077,104817
21.85888,104383
21.86702,112276
21.87513,111332
21.88325,101781
21.89138,80326
21.89950,75132
21.90762,62486
21.91575,62220
21.92387,53706
21.93200,55259
21.94012,52254
21.94823,52013
21.95637,55912
21.96448,48259
21.97262,47825
21.98073,55366
21.98885,48929
21.99698,46159
22.00510,50656
22.01322,49188
22.02135,45951
22.02947,47959
22.03760,49214
22.04572,49837
22.05383,47573
22.06197,45271
22.07008,50001
22.07822,50129
22.08633,42707
22.09445,45209
22.10258,47661
22.11070,46932
22.11883,45673
22.12695,47653
22.13507,47124
22.14320,47805
22.15132,50692
22.15943,46546
22.16757,53452
22.17568,46713
22.18382,50177
22.19193,48683
22.20005,44780
22.20818,48420
22.21630,53698
22.22443,48215
22.23255,48488
22.24067,55306
22.24880,55160
22.25692,60356
22.26503,55958
22.27317,49284
22.28128,50580
22.28942,50524
22.29753,51190
22.30565,45099
22.31378,45875
22.32190,42161
22.33003,48832
22.33815,50866
22.34627,49150
22.35440,54641
22.36252,49141
22.37065,53102
22.37877,52830
22.38688,51659
22.39502,49094
22.40313,51198
22.41125,45761
22.41938,49397
22.42750,45772
22.43563,46533
22.44375,48564
22.45187,48128
22.46000,46900
22.46812,48087
22.47625,41626
22.48437,41368
22.49248,45266
22.50062,47168
22.50873,46603
22.51687,39194
22.52498,41151
22.53310,43533
22.54123,38982
22.54935,43078
22.55747,44763
22.56560,42341
22.57372,39094
22.58185,47091
22.58997,39808
22.59808,50644
22.60622,41872
22.61433,41898
22.62247,37843
22.63058,41323
22.63870,41795
22.64683,40188
22.65495,38954
22.66307,37134
22.67120,43109
22.67932,42662
22.68745,38307
22.69557,41422
22.70368,42852
22.71182,40796
22.71993,50439
22.72807,48451
22.73618,49890
22.74430,56180
22.75243,47533
22.76055,49091
22.76868,50406
22.77680,49851
22.78492,51470
22.79305,49501
22.80117,44022
22.80928,46085
22.81742,44915
22.82553,46297
22.83367,45611
22.84178,48139
22.84990,47136
22.85803,45650
22.86615,45884
22.87428,52905
22.88240,44805
22.89052,45655
22.89865,53587
22.90677,51938
22.91490,56030
22.92302,60194
22.93113,60816
22.93927,75060
22.94738,83211
22.95550,89365
22.96363,103027
22.97175,92799
22.97988,93734
22.98800,78113
22.99612,77583
23.00425,70282
23.01237,66306
23.02050,58553
23.02862,57037
23.03673,59601
23.04487,50115
23.05298,44458
23.06110,52621
23.06923,47923
23.07735,45068
23.08548,45276
23.09360,41711
23.10172,46340
23.10985,46526
23.11797,42884
23.12610,40641
23.13422,39945
23.14233,39137
23.15047,41923
23.15858,41012
23.16672,37461
23.17483,38541
23.18295,39346
23.19108,37531
23.19920,37246
23.20732,36749
23.21545,35817
23.22357,38155
23.23170,41669
23.23982,38230
23.24793,39427
23.25607,42610
23.26418,39181
23.27232,39629
23.28043,38547
23.28855,37851
23.29668,38695
23.30480,37680
23.31293,41146
23.32105,44989
23.32917,37922
23.33730,40664
23.34542,38532
23.35353,41930
23.36167,37727
23.36978,38467
23.37792,39441
23.38603,42291
23.39415,46520
23.40228,39876
23.41040,38599
23.41853,42573
23.42665,35917
23.43477,46075
23.44290,38482
23.45102,43362
23.45913,39949
23.46727,44336
23.47538,39776
23.48352,43414
23.49163,42260
23.49975,34909
23.50788,41049
23.51600,39145
23.52413,38939
23.53225,40671
23.54037,40621
23.54850,43601
23.55662,41471
23.56475,41113
23.57287,47961
23.58098,40802
23.58912,44289
23.59723,47617
23.60535,42668
23.61348,43797
23.62160,45171
23.62973,47403
23.63785,47470
23.64597,44366
23.65410,50992
23.66222,53119
23.67035,54972
23.67847,63200
23.68658,69891
23.69472,77211
23.70283,82352
23.71097,82928
23.71908,78138
23.72720,79159
23.73533,72168
23.74345,65245
23.75157,71876
23.75970,101265
23.76782,210487
23.77595,506278
23.78407,1158220
23.79218,2368996
23.80032,3666149
23.80843,4576996
23.81657,4705292
23.82468,4076039
23.83280,3215156
23.84093,2271661
23.84905,1564118
23.85717,1138164
23.86530,877902
23.87342,688677
23.88155,556723
23.88967,464806
23.89778,403464
23.90592,365024
23.91403,322541
23.92217,293824
23.93028,270003
23.93840,247663
23.94653,233060
23.95465,221384
23.96278,206665
23.97090,202425
23.97902,196976
23.98715,176499
23.99527,171074
24.00338,164039
24.01152,153141
24.01963,148548
24.02777,146949
24.03588,139005
24.04400,140783
24.05213,142600
24.06025,131395
24.06838,128739
24.07650,118642
24.08462,116062
24.09275,117946
24.10087,111137
24.10898,111947
24.11712,110159
24.12523,102884
24.13337,113551
24.14148,108505
24.14960,114705
24.15773,115771
24.16585,118671
24.17398,122790
24.18210,111215
24.19022,104452
24.19835,107397
24.20647,104534
24.21460,95504
24.22272,100448
24.23083,104217
24.23897,111608
24.24708,113752
24.25520,103832
24.26333,104677
24.27145,98927
24.27958,89528
24.28770,88449
24.29582,80069
24.30395,82188
24.31207,78428
24.32020,83299
24.32832,75399
24.33643,72951
24.34457,75923
24.35268,72726
24.36082,68168
24.36893,69062
24.37705,72846
24.38518,72820
24.39330,77233
24.40142,82175
24.40955,89116
24.41767,99595
24.42580,101690
24.43392,105393
24.44203,97797
24.45017,88514
24.45828,78728
24.46642,71096
24.47453,66307
24.48265,67423
24.49078,70103
24.49890,71670
24.50702,72626
24.51515,77640
24.52327,79243
24.53140,92907
24.53952,95163
24.54763,90645
24.55577,91634
24.56388,86522
24.57202,79947
24.58013,75696
24.58825,79923
24.59638,74993
24.60450,76165
24.61263,84109
24.62075,82206
24.62887,77030
24.63700,76219
24.64512,78994
24.65323,75113
24.66137,74080
24.66948,80631
24.67762,76797
24.68573,80256
24.69385,72753
24.70198,76572
24.71010,74685
24.71823,65830
24.72635,65128
24.73447,58717
24.74260,60659
24.75072,56902
24.75885,60717
24.76697,58509
24.77508,56589
24.78322,55930
24.79133,56875
24.79945,55107
24.80758,58678
24.81570,57551
24.82383,55087
24.83195,53477
24.84007,53585
24.84820,51120
24.85632,53829
24.86445,51252
24.87257,51432
24.88068,56798
24.88882,60432
24.89693,52315
24.90505,59903
24.91318,53435
24.92130,58672
24.92943,60321
24.93755,57597
24.94567,52891
24.95380,56684
24.96192,56736
24.97005,49489
24.97817,51743
24.98628,48047
24.99442,48425
25.00253,52193
25.01067,49907
25.01878,49218
25.02690,50401
25.03503,55084
25.04315,50537
25.05127,53972
25.05940,49161
25.06752,49775
25.07565,49326
25.08377,46044
25.09188,48284
25.10002,50807
25.10813,51995
25.11627,51006
25.12438,53778
25.13250,60443
25.14063,67966
25.14875,76064
25.15687,99686
25.16500,112090
25.17312,131536
25.18125,124938
25.18937,124817
25.19748,113335
25.20562,93338
25.21373,80964
25.22187,68992
25.22998,65177
25.23810,59941
25.24623,55471
25.25435,56463
25.26248,53224
25.27060,52304
25.27872,55196
25.28685,57681
25.29497,53314
25.30308,58993
25.31122,62558
25.31933,59026
25.32747,64908
25.33558,76607
25.34370,73646
25.35183,69249
25.35995,58501
25.36808,63407
25.37620,58774
25.38432,51311
25.39245,54660
25.40057,52201
25.40870,49135
25.41682,45937
25.42493,50937
25.43307,44983
25.44118,43930
25.44930,44356
25.45743,45457
25.46555,46020
25.47368,43294
25.48180,48830
25.48992,51036
25.49805,56647
25.50617,54047
25.51430,56537
25.52242,55506
25.53053,53204
25.53867,50107
25.54678,52998
25.55490,46601
25.56303,45371
25.57115,44577
25.57928,44490
25.58740,43849
25.59552,44194
25.60365,41910
25.61177,46146
25.61990,45292
25.62802,43077
25.63613,44448
25.64427,42271
25.65238,44004
25.66052,43695
25.66863,45951
25.67675,43560
25.68488,45748
25.69300,40835
25.70112,42422
25.70925,43279
25.71737,42498
25.72550,43672
25.73362,41823
25.74173,43482
25.74987,43851
25.75798,42928
25.76612,44684
25.77423,42175
25.78235,40886
25.79048,42198
25.79860,44457
25.80673,42002
25.81485,43396
25.82297,43799
25.83110,45446
25.83922,43094
25.84733,46219
25.85547,46416
25.86358,42100
25.87172,43447
25.87983,46695
25.88795,38365
25.89608,40017
25.90420,42873
25.91233,41059
25.92045,42591
25.92857,44731
25.93670,38776
25.94482,37840
25.95293,42039
25.96107,45482
25.96918,41463
25.97732,38202
25.98543,40902
25.99355,43026
26.00168,41264
26.00980,43272
26.01793,37595
26.02605,42219
26.03417,41198
26.04230,43752
26.05042,42297
26.05855,38100
26.06667,41504
26.07478,42339
26.08292,44108
26.09103,46046
26.09915,41566
26.10728,40766
26.11540,44685
26.12353,48530
26.13165,46990
26.13977,52283
26.14790,51991
26.15602,55437
26.16415,55895
26.17227,61453
26.18038,61690
26.18852,55326
26.19663,58155
26.20477,51870
26.21288,54392
26.22100,47499
26.22913,43036
26.23725,50286
26.24537,45211
26.25350,45580
26.26162,42344
26.26975,47033
26.27787,46188
26.28598,48161
26.29412,44284
26.30223,43510
26.31037,44777
26.31848,49125
26.32660,53181
26.33473,43702
26.34285,42668
26.35097,42502
26.35910,38943
26.36722,45002
26.37535,48435
26.38347,45752
26.39158,53757
26.39972,60290
26.40783,73280
26.41597,84859
26.42408,87996
26.43220,89997
26.44033,89367
26.44845,89930
26.45658,75398
26.46470,68983
26.47282,62396
26.48095,52434
26.48907,49512
26.49718,46194
26.50532,45320
26.51343,45488
26.52157,43100
26.52968,42587
26.53780,42001
26.54593,42601
26.55405,39782
26.56218,39504
26.57030,40675
26.57842,39685
26.58655,39824
26.59467,40261
26.60278,41942
26.61092,43247
26.61903,47227
26.62717,43252
26.63528,38939
26.64340,40878
26.65153,39843
26.65965,42275
26.66778,43873
26.67590,44170
26.68402,44738
26.69215,44735
26.70027,46132
26.70840,40534
26.71652,44593
26.72463,37732
26.73277,42747
26.74088,42662
26.74900,41388
26.75713,42888
26.76525,42812
26.77338,41734
26.78150,37140
26.78962,44280
26.79775,46876
26.80587,41031
26.81400,43421
26.82212,45950
26.83023,45311
26.83837,44832
26.84648,43493
26.85462,47437
26.86273,44274
26.87085,42627
26.87898,44713
26.88710,46886
26.89522,45086
26.90335,42277
26.91147,44070
26.91960,40251
26.92772,39709
26.93583,41986
26.94397,44748
26.95208,41723
26.96022,48479
26.96833,49477
26.97645,70428
26.98458,119836
26.99270,236572
27.00082,451131
27.00895,885700
27.01707,1535827
27.02520,2424517
27.03332,3149694
27.04143,3544059
27.04957,3151571
27.05768,2550429
27.06582,1875554
27.07393,1382236
27.08205,1029593
27.09018,767426
27.09830,601358
27.10643,477932
27.11455,408657
27.12267,347037
27.13080,306523
27.13892,266145
27.14703,250879
27.15517,237025
27.16328,216209
27.17142,198454
27.17953,189804
27.18765,181914
27.19578,164879
27.20390,171351
27.21203,164256
27.22015,150519
27.22827,146782
27.23640,141509
27.24452,129974
27.25265,128685
27.26077,124310
27.26888,123226
27.27702,116855
27.28513,111853
27.29325,104536
27.30138,101615
27.30950,103716
27.31763,99240
27.32575,93013
27.33387,94839
27.34200,94003
27.35012,89232
27.35825,90818
27.36637,89336
27.37448,86455
27.38262,87118
27.39073,84542
27.39885,84503
27.40698,82344
27.41510,86722
27.42323,75262
27.43135,76068
27.43947,75545
27.44760,77250
27.45572,77003
27.46385,79993
27.47197,70009
27.48008,68203
27.48822,69047
27.49633,67705
27.50447,66869
27.51258,66231
27.52070,62578
27.52883,70086
27.53695,68288
27.54507,66630
27.55320,68864
27.56132,68801
27.56945,67622
27.57757,64354
27.58568,62268
27.59382,62308
27.60193,62040
27.61007,60165
27.61818,65130
27.62630,62375
27.63443,66720
27.64255,64887
27.65067,65519
27.65880,62778
27.66692,59758
27.67505,59117
27.68317,57027
27.69128,60022
27.69942,59561
27.70753,54696
27.71567,55722
27.72378,57217
27.73190,59193
27.74003,54565
27.74815,57869
27.75628,54044
27.76440,53769
27.77252,54750
27.78065,54233
27.78877,51751
27.79688,52732
27.80502,53371
27.81313,56591
27.82127,52249
27.82938,52241
27.83750,52078
27.84563,63474
27.85375,57761
27.86188,52556
27.87000,55826
27.87812,59656
27.88625,53829
27.89437,54199
27.90250,53057
27.91062,52054
27.91873,47986
27.92687,47531
27.93498,47537
27.94310,46658
27.95123,49696
27.95935,49785
27.96748,45460
27.97560,53861
27.98372,45104
27.99185,48838
27.99997,43905
28.00810,44965
28.01622,44317
28.02433,47330
28.03247,47830
28.04058,51409
28.04872,47852
28.05683,46475
28.06495,53227
28.07308,52973
28.08120,48920
28.08932,54898
28.09745,49946
28.10557,50060
28.11370,51434
28.12182,54223
28.12993,55590
28.13807,46020
28.14618,46017
28.15432,50825
28.16243,41689
28.17055,45810
28.17868,44069
28.18680,43850
28.19492,49591
28.20305,47408
28.21117,49400
28.21930,54195
28.22742,58671
28.23553,58739
28.24367,62687
28.25178,54036
28.25992,55105
28.26803,48443
28.27615,47059
28.28428,49202
28.29240,49561
28.30053,60961
28.30865,68350
28.31677,84008
28.32490,114210
28.33302,167016
28.34113,243993
28.34927,318462
28.35738,408967
28.36552,496885
28.37363,559475
28.38175,589871
28.38988,619034
28.39800,606461
28.40613,580045
28.41425,531669
28.42237,477222
28.43050,407868
28.43862,355883
28.44673,304334
28.45487,268198
28.46298,239379
28.47112,224594
28.47923,192877
28.48735,166529
28.49548,162852
28.50360,154085
28.51173,137789
28.51985,136015
28.52797,131290
28.53610,126423
28.54422,121779
28.55235,110131
28.56047,108822
28.56858,106886
28.57672,102357
28.58483,99050
28.59295,96704
28.60108,93412
28.60920,93418
28.61733,85476
28.62545,89310
28.63357,90028
28.64170,82061
28.64982,91749
28.65795,86429
28.66607,92317
28.67418,91577
28.68232,88884
28.69043,86888
28.69857,90432
28.70668,82636
28.71480,86028
28.72293,75372
28.73105,70519
28.73917,63976
28.74730,71481
28.75542,72307
28.76355,72074
28.77167,72770
28.77978,76713
28.78792,80372
28.79603,79835
28.80417,77381
28.81228,75127
28.82040,74487
28.82853,74370
28.83665,66525
28.84477,60966
28.85290,68609
28.86102,61212
28.86915,56628
28.87727,54176
28.88538,55238
28.89352,57810
28.90163,57615
28.90977,59083
28.91788,58956
28.92600,64034
28.93413,55844
28.94225,59656
28.95038,59990
28.95850,64382
28.96662,59060
28.97475,64025
28.98287,65527
28.99098,65403
28.99912,62824
29.00723,64086
29.01537,58488
29.02348,59138
29.03160,59026
29.03973,53183
29.04785,57902
29.05598,56986
29.06410,54026
29.07222,55455
29.08035,50755
29.08847,52927
29.09660,54148
29.10472,51272
29.11283,54996
29.12097,57055
29.12908,56066
29.13720,51006
29.14533,53871
29.15345,49087
29.16158,56991
29.16970,59873
29.17782,58880
29.18595,56757
29.19407,53178
29.20220,59737
29.21032,57165
29.21843,60313
29.22657,57679
29.23468,57948
29.24280,55698
29.25093,54246
29.25905,57903
29.26718,56485
29.27530,54822
29.28342,57321
29.29155,58161
29.29967,56752
29.30780,55334
29.31592,58584
29.32403,54740
29.33217,50579
29.34028,51233
29.34842,51892
29.35653,48874
29.36465,52584
29.37278,53080
29.38090,50170
29.38902,51594
29.39715,51584
29.40527,50368
29.41340,53675
29.42152,48071
29.42963,50700
29.43777,52021
29.44588,50862
29.45402,48720
29.46213,50665
29.47025,49961
29.47838,45755
29.48650,53908
29.49462,49427
29.50275,52401
29.51087,58292
29.51900,62887
29.52712,60903
29.53523,59996
29.54337,55647
29.55148,56121
29.55962,52857
29.56773,52980
29.57585,52778
29.58398,49834
29.59210,45657
29.60023,42574
29.60835,51101
29.61647,48891
29.62460,50389
29.63272,47182
29.64083,51211
29.64897,48346
29.65708,50854
29.66522,48656
29.67333,47625
29.68145,47446
29.68958,50233
29.69770,48330
29.70583,38803
29.71395,44165
29.72207,43570
29.73020,40140
29.73832,47321
29.74645,46715
29.75457,46158
29.76268,46505
29.77082,46925
29.77893,48669
29.78705,40859
29.79518,45519
29.80330,45484
29.81143,41902
29.81955,44920
29.82767,42921
29.83580,43016
29.84392,45794
29.85205,43536
29.86017,39012
29.86828,44558
29.87642,46895
29.88453,45494
29.89265,47096
29.90078,54554
29.90890,61592
29.91703,62852
29.92515,61963
29.93327,61191
29.94140,65840
29.94952,56285
29.95765,64864
29.96577,70283
29.97388,84776
29.98202,106827
29.99013,118222
29.99827,142283
30.00638,163545
30.01450,193732
30.02263,204027
30.03075,223929
30.03887,232247
30.04700,226140
30.05512,226333
30.06325,229440
30.07137,221811
30.07948,212549
30.08762,195636
30.09573,185274
30.10387,181747
30.11198,158998
30.12010,157059
30.12823,134987
30.13635,128716
30.14448,122449
30.15260,107877
30.16072,106785
30.16885,112448
30.17697,95093
30.18508,93454
30.19322,88861
30.20133,92503
30.20947,78096
30.21758,83126
30.22570,78023
30.23383,79303
30.24195,74058
30.25008,73470
30.25820,70251
30.26632,67349
30.27445,68077
30.28257,65473
30.29068,64147
30.29882,68744
30.30693,61504
30.31507,61703
30.32318,58090
30.33130,60873
30.33943,62559
30.34755,58832
30.35568,69863
30.36380,58582
30.37192,59051
30.38005,57447
30.38817,54452
30.39630,54620
30.40442,55928
30.41253,55520
30.42067,52313
30.42878,57580
30.43690,56637
30.44503,53762
30.45315,49429
30.46128,57984
30.46940,56685
30.47752,53103
30.48565,52752
30.49377,52986
30.50190,57087
30.51002,47075
30.51813,50382
30.52627,47387
30.53438,49932
30.54250,55533
30.55063,49452
30.55875,48535
30.56688,48797
30.57500,47527
30.58312,51576
30.59125,50262
30.59937,45822
30.60750,48784
30.61562,50057
30.62373,44962
30.63187,47426
30.63998,47346
30.64812,49983
30.65623,47681
30.66435,48182
30.67248,50458
30.68060,45956
30.68872,45371
30.69685,46716
30.70497,47748
30.71310,49397
30.72122,47708
30.72933,45899
30.73747,46880
30.74558,45623
30.75372,45586
30.76183,47672
30.76995,45264
30.77808,44692
30.78620,49759
30.79433,45127
30.80245,44233
30.81057,50058
30.81870,48124
30.82682,47485
30.83493,48051
30.84307,43221
30.85118,49300
30.85932,47578
30.86743,44422
30.87555,47918
30.88368,49032
30.89180,44676
30.89993,44580
30.90805,45815
30.91617,46362
30.92430,43696
30.93242,41963
30.94053,44086
30.94867,41586
30.95678,46131
30.96492,39005
30.97303,45279
30.98115,44359
30.98928,44791
30.99740,43543
31.00553,43222
31.01365,40316
31.02177,43850
31.02990,45875
31.03802,47290
31.04615,49017
31.05427,46305
31.06238,44352
31.07052,42538
31.07863,48438
31.08675,47681
31.09488,55748
31.10300,57984
31.11113,71833
31.11925,75989
31.12737,79212
31.13550,80156
31.14362,68928
31.15175,62278
31.15987,60428
31.16798,53429
31.17612,50356
31.18423,47904
31.19237,59357
31.20048,53912
31.20860,63332
31.21673,68030
31.22485,75453
31.23297,76530
31.24110,81129
31.24922,82871
31.25735,72962
31.26547,72350
31.27358,61872
31.28172,57347
31.28983,52536
31.29797,47278
31.30608,49128
31.31420,46217
31.32233,45117
31.33045,44760
31.33857,41989
31.34670,42190
31.35482,42435
31.36295,43293
31.37107,42812
31.37918,45087
31.38732,46771
31.39543,45105
31.40357,41085
31.41168,43814
31.41980,42722
31.42793,48958
31.43605,46246
31.44418,49974
31.45230,45352
31.46042,46613
31.46855,46541
31.47667,42791
31.48478,42269
31.49292,41382
31.50103,42630
31.50917,44168
31.51728,46373
31.52540,38619
31.53353,44902
31.54165,39336
31.54978,43027
31.55790,45124
31.56602,45302
31.57415,40749
31.58227,46912
31.59040,42504
31.59852,43099
31.60663,41599
31.61477,40409
31.62288,45373
31.63100,46418
31.63913,42039
31.64725,43425
31.65538,46944
31.66350,45416
31.67162,46648
31.67975,46312
31.68787,39932
31.69600,45680
31.70412,42476
31.71223,38349
31.72037,41652
31.72848,40887
31.73660,39819
31.74473,39098
31.75285,35109
31.76098,39833
31.76910,39976
31.77722,36797
31.78535,41087
31.79347,39882
31.80160,44178
31.80972,43401
31.81783,44241
31.82597,46325
31.83408,44325
31.84222,45879
31.85033,48674
31.85845,48766
31.86658,47358
31.87470,51279
31.88282,48572
31.89095,50915
31.89907,52309
31.90720,50401
31.91532,53150
31.92343,61881
31.93157,65258
31.93968,72838
31.94782,86583
31.95593,97760
31.96405,107334
31.97218,115959
31.98030,113331
31.98842,118022
31.99655,130565
32.00467,121205
32.01280,117835
32.02092,118511
32.02903,105091
32.03717,101021
32.04528,94727
32.05342,84231
32.06153,88039
32.06965,81656
32.07778,79889
32.08590,77358
32.09403,79185
32.10215,77876
32.11027,72875
32.11840,72039
32.12652,65325
32.13463,58787
32.14277,59894
32.15088,64850
32.15902,57517
32.16713,54813
32.17525,56254
32.18338,58255
32.19150,57798
32.19963,51866
32.20775,54852
32.21587,50061
32.22400,47769
32.23212,50390
32.24025,51540
32.24837,50756
32.25648,51118
32.26462,50266
32.27273,47598
32.28085,52451
32.28898,53256
32.29710,49211
32.30523,47408
32.31335,48532
32.32147,51996
32.32960,46241
32.33772,48056
32.34585,45877
32.35397,47120
32.36208,47274
32.37022,51103
32.37833,50631
32.38645,49315
32.39458,47988
32.40270,43371
32.41083,46740
32.41895,45567
32.42707,48091
32.43520,42408
32.44332,45400
32.45145,45988
32.45957,43106
32.46768,50683
32.47582,43857
32.48393,45615
32.49207,50068
32.50018,43506
32.50830,49012
32.51643,40862
32.52455,41758
32.53267,41264
32.54080,44902
32.54892,42817
32.55705,43245
32.56517,44772
32.57328,45181
32.58142,42142
32.58953,45317
32.59767,46685
32.60578,46933
32.61390,43703
32.62203,42328
32.63015,41180
32.63828,41539
32.64640,40730
32.65452,42432
32.66265,44750
32.67077,48333
32.67888,52077
32.68702,47989
32.69513,47915
32.70327,55608
32.71138,50358
32.71950,53429
32.72763,49110
32.73575,44148
32.74388,50564
32.75200,47757
32.76012,41930
32.76825,43775
32.77637,40624
32.78448,41253
32.79262,44399
32.80073,42804
32.80887,37988
32.81698,44292
32.82510,39313
32.83323,41565
32.84135,40798
32.84948,41101
32.85760,42285
32.86572,41676
32.87385,41040
32.88197,43816
32.89010,42926
32.89822,42759
32.90633,42370
32.91447,41748
32.92258,43680
32.93070,46229
32.93883,43740
32.94695,45149
32.95508,47064
32.96320,38936
32.97132,42034
32.97945,38948
32.98757,40803
32.99570,44373
33.00382,45899
33.01193,49158
33.02007,40206
33.02818,41367
33.03630,41535
33.04443,44758
33.05255,40206
33.06068,42365
33.06880,40968
33.07692,43114
33.08505,43733
33.09317,42537
33.10130,49972
33.10942,48969
33.11753,55430
33.12567,52723
33.13378,64892
33.14192,63602
33.15003,63814
33.15815,60269
33.16628,60758
33.17440,55380
33.18252,47956
33.19065,48962
33.19877,51564
33.20690,45770
33.21502,45741
33.22313,45276
33.23127,49771
33.23938,46833
33.24752,46820
33.25563,43276
33.26375,44329
33.27188,43000
33.28000,47132
33.28813,45510
33.29625,42662
33.30437,43281
33.31250,42521
33.32062,46222
33.32873,42034
33.33687,47651
33.34498,47133
33.35312,44209
33.36123,45135
33.36935,46743
33.37748,42649
33.38560,44403
33.39373,48417
33.40185,43693
33.40997,44613
33.41810,43540
33.42622,40484
33.43435,44722
33.44247,41269
33.45058,41665
33.45872,40399
33.46683,40975
33.47495,47238
33.48308,44582
33.49120,46202
33.49933,43204
33.50745,44923
33.51557,40958
33.52370,39371
33.53182,43025
33.53995,45537
33.54807,42505
33.55618,44049
33.56432,46292
33.57243,40684
33.58055,42450
33.58868,48395
33.59680,47981
33.60493,45272
33.61305,50734
33.62117,45386
33.62930,46468
33.63742,44523
33.64555,41965
33.65367,43230
33.66178,38566
33.66992,44408
33.67803,44327
33.68617,41865
33.69428,45005
33.70240,40229
33.71053,42875
33.71865,42356
33.72677,43143
33.73490,51333
33.74302,41326
33.75115,48610
33.75927,41064
33.76738,42274
33.77552,41455
33.78363,44421
33.79177,43609
33.79988,43514
33.80800,41789
33.81613,44336
33.82425,46745
33.83237,37188
33.84050,43442
33.84862,42535
33.85675,42569
33.86487,47311
33.87298,46372
33.88112,46805
33.88923,44998
33.89737,44316
33.90548,44526
33.91360,42319
33.92173,38706
33.92985,43032
33.93798,41219
33.94610,46650
33.95422,45179
33.96235,44361
33.97047,41912
33.97858,49085
33.98672,45695
33.99483,43618
34.00297,43311
34.01108,45541
34.01920,42334
34.02733,45691
34.03545,44532
34.04358,42330
34.05170,42808
34.05982,46215
34.06795,46154
34.07607,45556
34.08420,43194
34.09232,39497
34.10043,43063
34.10857,43104
34.11668,45084
34.12480,43788
34.13293,44865
34.14105,47133
34.14918,47578
34.15730,43271
34.16542,44431
34.17355,44589
34.18167,41460
34.18980,44273
34.19792,46800
34.20603,45229
34.21417,45476
34.22228,46214
34.23040,42709
34.23853,41818
34.24665,40473
34.25478,40923
34.26290,46310
34.27102,46373
34.27915,41989
34.28727,45727
34.29540,42623
34.30352,44409
34.31163,51509
34.31977,43697
34.32788,46822
34.33602,45788
34.34413,41410
34.35225,45327
34.36038,50986
34.36850,47805
34.37662,48275
34.38475,46210
34.39287,45355
34.40100,43144
34.40912,46539
34.41723,44181
34.42537,49022
34.43348,48538
34.44162,44818
34.44973,39865
34.45785,41433
34.46598,44503
34.47410,46494
34.48223,41282
34.49035,47877
34.49847,41916
34.50660,42855
34.51472,47266
34.52283,49111
34.53097,49876
34.53908,66534
34.54722,70281
34.55533,79173
34.56345,89834
34.57158,92245
34.57970,92672
34.58783,94414
34.59595,90552
34.60407,84046
34.61220,80179
34.62032,79067
34.62843,73800
34.63657,62178
34.64468,61871
34.65282,59230
34.66093,59530
34.66905,56106
34.67718,51456
34.68530,52193
34.69343,59552
34.70155,54205
34.70967,51814
34.71780,51193
34.72592,51955
34.73405,52751
34.74217,49292
34.75028,56090
34.75842,52742
34.76653,52475
34.77465,52079
34.78278,55105
34.79090,50280
34.79903,48365
34.80715,46249
34.81527,49263
34.82340,53131
34.83152,47114
34.83965,48244
34.84777,48266
34.85588,49496
34.86402,47646
34.87213,46436
34.88025,48412
34.88838,48939
34.89650,47576
34.90463,48144
34.91275,49643
34.92087,51516
34.92900,48684
34.93712,49842
34.94525,51518
34.95337,53558
34.96148,52031
34.96962,55508
34.97773,65210
34.98587,64191
34.99398,64271
35.00210,67930
35.01023,65323
35.01835,57646
35.02647,52264
35.03460,50248
35.04272,52095
35.05085,49791
35.05897,53390
35.06708,50223
35.07522,50691
35.08333,54493
35.09147,46427
35.09958,51645
35.10770,54825
35.11583,49374
35.12395,50293
35.13208,52262
35.14020,52413
35.14832,48868
35.15645,50271
35.16457,56805
35.17268,53625
35.18082,49000
35.18893,51531
35.19707,54359
35.20518,48597
35.21330,54265
35.22143,44637
35.22955,47632
35.23768,43789
35.24580,45284
35.25392,48775
35.26205,48639
35.27017,48096
35.27828,46529
35.28642,50003
35.29453,50741
35.30267,51653
35.31078,52943
35.31890,48374
35.32703,48419
35.33515,47123
35.34328,48635
35.35140,48469
35.35952,47557
35.36765,48568
35.37577,48243
35.38390,44751
35.39202,47342
35.40013,49783
35.40827,45713
35.41638,51822
35.42450,45284
35.43263,46240
35.44075,46150
35.44888,52217
35.45700,53769
35.46512,49063
35.47325,54894
35.48137,55115
35.48950,51731
35.49762,61425
35.50573,53111
35.51387,57523
35.52198,53152
35.53012,49582
35.53823,45959
35.54635,49540
35.55448,50603
35.56260,48807
35.57072,53497
35.57885,50884
35.58697,49124
35.59510,47515
35.60322,51591
35.61133,60325
35.61947,50012
35.62758,51165
35.63572,51619
35.64383,46508
35.65195,50879
35.66008,56141
35.66820,45399
35.67632,47685
35.68445,53533
35.69257,57534
35.70070,54051
35.70882,52910
35.71693,56758
35.72507,53517
35.73318,56917
35.74132,52958
35.74943,49902
35.75755,47873
35.76568,49651
35.77380,49995
35.78193,52904
35.79005,54267
35.79817,53341
35.80630,55593
35.81442,51375
35.82253,53277
35.83067,44619
35.83878,49445
35.84692,50849
35.85503,53384
35.86315,50860
35.87128,51857
35.87940,52453
35.88753,53489
35.89565,48004
35.90377,48974
35.91190,52397
35.92002,48514
35.92815,51500
35.93627,44676
35.94438,48932
35.95252,49355
35.96063,47052
35.96875,47775
35.97688,47657
35.98500,49536
35.99313,50014
36.00125,51222
36.00937,55059
36.01750,50961
36.02562,57487
36.03375,54292
36.04187,58621
36.04998,53496
36.05812,51257
36.06623,57970
36.07435,58541
36.08248,54728
36.09060,48040
36.09873,53551
36.10685,51132
36.11497,53194
36.12310,53034
36.13122,52111
36.13935,54023
36.14747,54904
36.15558,55589
36.16372,55143
36.17183,50985
36.17997,52763
36.18808,48954
36.19620,53508
36.20433,50472
36.21245,48727
36.22057,50027
36.22870,51522
36.23682,52518
36.24495,51826
36.25307,51834
36.26118,53744
36.26932,48280
36.27743,48195
36.28557,51783
36.29368,47793
36.30180,52221
36.30993,49640
36.31805,52931
36.32617,58593
36.33430,60523
36.34242,58715
36.35055,60472
36.35867,56263
36.36678,52060
36.37492,53679
36.38303,54555
36.39117,51693
36.39928,53701
36.40740,54852
36.41553,51526
36.42365,52856
36.43178,58902
36.43990,58603
36.44802,55717
36.45615,56474
36.46427,49038
36.47238,55000
36.48052,52128
36.48863,50395
36.49677,52345
36.50488,51055
36.51300,49191
36.52113,50684
36.52925,51786
36.53738,49747
36.54550,49533
36.55362,54493
36.56175,52403
36.56987,55845
36.57800,50700
36.58612,54099
36.59423,52083
36.60237,53557
36.61048,56641
36.61860,51261
36.62673,54537
36.63485,51650
36.64298,57904
36.65110,52322
36.65922,55184
36.66735,59379
36.67547,53714
36.68360,56681
36.69172,56078
36.69983,54897
36.70797,56223
36.71608,62044
36.72420,53283
36.73233,54945
36.74045,54389
36.74858,50680
36.75670,53541
36.76482,54756
36.77295,49914
36.78107,51751
36.78920,55018
36.79732,50978
36.80543,51396
36.81357,51035
36.82168,50790
36.82982,55180
36.83793,55769
36.84605,53991
36.85418,52252
36.86230,57757
36.87042,49844
36.87855,52869
36.88667,48758
36.89480,57558
36.90292,54490
36.91103,48974
36.91917,47966
36.92728,51935
36.93542,48563
36.94353,54086
36.95165,54119
36.95978,51071
36.96790,57147
36.97603,55887
36.98415,56202
36.99227,50291
37.00040,56240
37.00852,56774
37.01663,60429
37.02477,54713
37.03288,52751
37.04102,46248
37.04913,49950
37.05725,56562
37.06538,54080
37.07350,56499
37.08163,57601
37.08975,54159
37.09787,50270
37.10600,54845
37.11412,53163
37.12223,49113
37.13037,54599
37.13848,61036
37.14662,53158
37.15473,52350
37.16285,52632
37.17098,55982
37.17910,56054
37.18723,56300
37.19535,55263
37.20347,59823
37.21160,58863
37.21972,61659
37.22785,65316
37.23597,54372
37.24408,59796
37.25222,60448
37.26033,57265
37.26845,62948
37.27658,67527
37.28470,62819
37.29283,61490
37.30095,56407
37.30907,60782
37.31720,61743
37.32532,60672
37.33345,58294
37.34157,63112
37.34968,69697
37.35782,73199
37.36593,70886
37.37405,78046
37.38218,84918
37.39030,80058
37.39843,79229
37.40655,73339
37.41467,69236
37.42280,74157
37.43092,74261
37.43905,68833
37.44717,67781
37.45528,64654
37.46342,66742
37.47153,63470
37.47967,71268
37.48778,69720
