C:\MassHunter\GCMS\1\data\JTB-E02\BACandBLUE\JTB-E18-015-10.D Wed Jun 26 12:30:09 2019
Start of data points
2.09522	47948
2.10333	45278
2.11147	51475
2.11958	47617
2.12770	48561
2.13583	49897
2.14395	49328
2.15207	53211
2.16020	55516
2.16832	56109
2.17645	57859
2.18457	57978
2.19268	64777
2.20082	184621
2.20893	354275
2.21707	375613
2.22518	474215
2.23330	391835
2.24143	263064
2.24955	199999
2.25768	192600
2.26580	247540
2.27392	226240
2.28205	208048
2.29017	174498
2.29828	140807
2.30642	133731
2.31453	124891
2.32267	125392
2.33078	118253
2.33890	114954
2.34703	106744
2.35515	107571
2.36328	105889
2.37140	92235
2.37952	100590
2.38765	98598
2.39577	91113
2.40388	88849
2.41202	86885
2.42013	97613
2.42827	99635
2.43638	100814
2.44450	100481
2.45263	98233
2.46075	91040
2.46888	88793
2.47700	92028
2.48512	95438
2.49325	113657
2.50137	116197
2.50950	134545
2.51762	126825
2.52573	117439
2.53387	133986
2.54198	243026
2.55010	320611
2.55823	370330
2.56635	367923
2.57448	266355
2.58260	191644
2.59072	154830
2.59885	129469
2.60697	120834
2.61510	115011
2.62322	103756
2.63133	99900
2.63947	95764
2.64758	92904
2.65572	95007
2.66383	92961
2.67195	91759
2.68008	90534
2.68820	84370
2.69632	85389
2.70445	83633
2.71257	112579
2.72070	151767
2.72882	168691
2.73693	185645
2.74507	174644
2.75318	152663
2.76132	140982
2.76943	141164
2.77755	135668
2.78568	128525
2.79380	106584
2.80192	100130
2.81005	100470
2.81817	95156
2.82630	88620
2.83442	91717
2.84253	83170
2.85067	83566
2.85878	79725
2.86692	81699
2.87503	80236
2.88315	74754
2.89128	79853
2.89940	81595
2.90753	81641
2.91565	81076
2.92377	81091
2.93190	84542
2.94002	85903
2.94813	87948
2.95627	84740
2.96438	81403
2.97252	76288
2.98063	75202
2.98875	81760
2.99688	80630
3.00500	76570
3.01313	102016
3.02125	253341
3.02937	642581
3.03750	1327542
3.04562	2386949
3.05375	3051120
3.06187	3455981
3.06998	3143429
3.07812	2253224
3.08623	1608405
3.09435	1224311
3.10248	998499
3.11060	837107
3.11873	797195
3.12685	981490
3.13497	1227652
3.14310	1447107
3.15122	1544741
3.15935	1308458
3.16747	1022097
3.17558	811566
3.18372	706814
3.19183	620238
3.19995	533053
3.20808	474946
3.21620	425340
3.22433	449631
3.23245	812542
3.24057	2024449
3.24870	4154062
3.25682	5914670
3.26495	6373309
3.27307	5423409
3.28118	3972569
3.28932	2751416
3.29743	2030816
3.30557	1589409
3.31368	1292904
3.32180	1111641
3.32993	952070
3.33805	872597
3.34617	775584
3.35430	693522
3.36242	635361
3.37055	592980
3.37867	560883
3.38678	527177
3.39492	492637
3.40303	469188
3.41117	472674
3.41928	441041
3.42740	440571
3.43553	429193
3.44365	414173
3.45177	382831
3.45990	378672
3.46802	359435
3.47615	371069
3.48427	370677
3.49238	364433
3.50052	355462
3.50863	335313
3.51677	326468
3.52488	316283
3.53300	309034
3.54113	303698
3.54925	299597
3.55738	298336
3.56550	294505
3.57362	301124
3.58175	302771
3.58987	303587
3.59798	310577
3.60612	582907
3.61423	1706516
3.62237	3590262
3.63048	4968673
3.63860	5366659
3.64673	4531527
3.65485	3225085
3.66298	2361787
3.67110	1867928
3.67922	1599640
3.68735	1372144
3.69547	1223710
3.70360	1117191
3.71172	1031388
3.71983	957868
3.72797	895253
3.73608	845089
3.74420	901009
3.75233	1156553
3.76045	1600876
3.76858	1936068
3.77670	1988638
3.78482	1771240
3.79295	1407823
3.80107	1145982
3.80920	991430
3.81732	888471
3.82543	808465
3.83357	741187
3.84168	707533
3.84980	679096
3.85793	673526
3.86605	728216
3.87418	814457
3.88230	885719
3.89042	908583
3.89855	1119645
3.90667	1641156
3.91480	2299754
3.92292	2538731
3.93103	2272546
3.93917	1928539
3.94728	2695683
3.95542	5107559
3.96353	7895730
3.97165	8968487
3.97978	7689315
3.98790	5159675
3.99602	3066825
4.00415	1930558
4.01227	1391112
4.02040	1084405
4.02852	917950
4.03663	802075
4.04477	721995
4.05288	655232
4.06102	614067
4.06913	565094
4.07725	533295
4.08538	550510
4.09350	640494
4.10163	747284
4.10975	828981
4.11787	824454
4.12600	741549
4.13412	643536
4.14223	582177
4.15037	564870
4.15848	935621
4.16662	2612409
4.17473	6131340
4.18285	1.008806E+07
4.19098	1.282286E+07
4.19910	1.396818E+07
4.20723	1.25328E+07
4.21535	9085925
4.22347	5811772
4.23160	3927818
4.23972	2819397
4.24783	2216560
4.25597	1852421
4.26408	1568419
4.27222	1371339
4.28033	1215205
4.28845	1124293
4.29658	1039187
4.30470	985697
4.31283	936698
4.32095	897850
4.32907	833423
4.33720	769882
4.34532	693463
4.35345	655601
4.36157	595202
4.36968	568668
4.37782	545382
4.38593	523279
4.39405	506185
4.40218	495905
4.41030	486936
4.41843	469306
4.42655	451769
4.43467	446241
4.44280	423473
4.45092	411643
4.45905	405712
4.46717	386328
4.47528	382017
4.48342	376046
4.49153	364100
4.49965	360271
4.50778	360593
4.51590	354979
4.52403	346556
4.53215	342361
4.54027	343117
4.54840	327851
4.55652	320445
4.56465	325357
4.57277	359680
4.58088	452989
4.58902	653543
4.59713	834620
4.60527	889215
4.61338	789037
4.62150	637061
4.62963	501652
4.63775	425477
4.64587	396467
4.65400	359568
4.66212	345539
4.67025	317042
4.67837	298954
4.68648	292558
4.69462	287438
4.70273	275817
4.71087	277594
4.71898	277308
4.72710	268091
4.73523	260362
4.74335	257019
4.75148	277011
4.75960	297791
4.76772	332789
4.77585	333851
4.78397	324852
4.79208	324060
4.80022	333281
4.80833	333863
4.81647	322186
4.82458	308859
4.83270	284382
4.84083	284959
4.84895	260486
4.85708	258864
4.86520	255574
4.87332	246801
4.88145	250191
4.88957	273715
4.89770	388876
4.90582	803197
4.91393	1659600
4.92207	2774250
4.93018	3653248
4.93830	3654814
4.94643	3013749
4.95455	2245898
4.96268	1612847
4.97080	1215069
4.97892	1032685
4.98705	1020697
4.99517	1185830
5.00330	1376449
5.01142	1389629
5.01953	1247853
5.02767	1052089
5.03578	890547
5.04390	770899
5.05203	703933
5.06015	654800
5.06828	617522
5.07640	586752
5.08452	551992
5.09265	529304
5.10077	497439
5.10890	500475
5.11702	534203
5.12513	566137
5.13327	585446
5.14138	557726
5.14952	529212
5.15763	513087
5.16575	532908
5.17388	551786
5.18200	549494
5.19012	501048
5.19825	463815
5.20637	445270
5.21450	399865
5.22262	381035
5.23073	355810
5.23887	338447
5.24698	323702
5.25512	325181
5.26323	318541
5.27135	307998
5.27948	299608
5.28760	326416
5.29572	350201
5.30385	367191
5.31197	377049
5.32010	355419
5.32822	323021
5.33633	303263
5.34447	297300
5.35258	299618
5.36072	305405
5.36883	304117
5.37695	295106
5.38508	281900
5.39320	271809
5.40133	263945
5.40945	274189
5.41757	280422
5.42570	276698
5.43382	271878
5.44193	259824
5.45007	257153
5.45818	249838
5.46632	241213
5.47443	236389
5.48255	257886
5.49068	261894
5.49880	249375
5.50693	240959
5.51505	249106
5.52317	264125
5.53130	298800
5.53942	320127
5.54755	329176
5.55567	304285
5.56378	270910
5.57192	253005
5.58003	245996
5.58815	244580
5.59628	252485
5.60440	260103
5.61253	275202
5.62065	251725
5.62877	241349
5.63690	245741
5.64502	246049
5.65315	267618
5.66127	296510
5.66938	299958
5.67752	294293
5.68563	281977
5.69375	256542
5.70188	238050
5.71000	226361
5.71813	223222
5.72625	212963
5.73437	206491
5.74250	209285
5.75062	208716
5.75875	198156
5.76687	199327
5.77498	200422
5.78312	197690
5.79123	199324
5.79937	199804
5.80748	204928
5.81560	205231
5.82373	200351
5.83185	191722
5.83997	193338
5.84810	190139
5.85622	188925
5.86435	184505
5.87247	192987
5.88058	188957
5.88872	188982
5.89683	185428
5.90497	184769
5.91308	176656
5.92120	163307
5.92933	171940
5.93745	198150
5.94558	223423
5.95370	253550
5.96182	278055
5.96995	281079
5.97807	272264
5.98618	247405
5.99432	227173
6.00243	196006
6.01057	167108
6.01868	162440
6.02680	154636
6.03493	144654
6.04305	141885
6.05118	141241
6.05930	137410
6.06742	141905
6.07555	143165
6.08367	157300
6.09178	205824
6.09992	301706
6.10803	431109
6.11617	542803
6.12428	516653
6.13240	436458
6.14053	337783
6.14865	272808
6.15678	242236
6.16490	225991
6.17302	216953
6.18115	206862
6.18927	210229
6.19740	205125
6.20552	203554
6.21363	194605
6.22177	197062
6.22988	202010
6.23800	205629
6.24613	192924
6.25425	191820
6.26238	188422
6.27050	184973
6.27862	194258
6.28675	196179
6.29487	192493
6.30300	190871
6.31112	195480
6.31923	189876
6.32737	195193
6.33548	198934
6.34360	188042
6.35173	188605
6.35985	190957
6.36798	190544
6.37610	190912
6.38422	190660
6.39235	189446
6.40047	183010
6.40860	185662
6.41672	184912
6.42483	187984
6.43297	199172
6.44108	182880
6.44922	189785
6.45733	198095
6.46545	191411
6.47358	194311
6.48170	189634
6.48982	196109
6.49795	207591
6.50607	204594
6.51420	197053
6.52232	200302
6.53043	214017
6.53857	231931
6.54668	258720
6.55482	285562
6.56293	269782
6.57105	251309
6.57918	227047
6.58730	219215
6.59543	217719
6.60355	214630
6.61167	224177
6.61980	342835
6.62792	657329
6.63603	1159056
6.64417	1568816
6.65228	1611916
6.66042	1284344
6.66853	881222
6.67665	588050
6.68478	439595
6.69290	352075
6.70103	304860
6.70915	271415
6.71727	254145
6.72540	231890
6.73352	217144
6.74163	209520
6.74977	194982
6.75788	193643
6.76602	191562
6.77413	174055
6.78225	170730
6.79038	162290
6.79850	156884
6.80663	155281
6.81475	149617
6.82287	162762
6.83100	171518
6.83912	173298
6.84725	184358
6.85537	170045
6.86348	149164
6.87162	115320
6.87973	100618
6.88785	92197
6.89598	89738
6.90410	83280
6.91223	97577
6.92035	104978
6.92847	109871
6.93660	126605
6.94472	147727
6.95285	172239
6.96097	175651
6.96908	155087
6.97722	136452
6.98533	118620
6.99347	109334
7.00158	105790
7.00970	101007
7.01783	97740
7.02595	90421
7.03407	88522
7.04220	96360
7.05032	98369
7.05845	101327
7.06657	91727
7.07468	91681
7.08282	87386
7.09093	90211
7.09907	85244
7.10718	87937
7.11530	100893
7.12343	124888
7.13155	165259
7.13967	199544
7.14780	215901
7.15592	299241
7.16405	575195
7.17217	1048265
7.18028	1545132
7.18842	1680260
7.19653	1375752
7.20467	881943
7.21278	455115
7.22090	243101
7.22903	142180
7.23715	109352
7.24528	106321
7.25340	104260
7.26152	101701
7.26965	92969
7.27777	92281
7.28588	93463
7.29402	91571
7.30213	95561
7.31027	98561
7.31838	104775
7.32650	107566
7.33463	109212
7.34275	101888
7.35088	103335
7.35900	101328
7.36712	96625
7.37525	93215
7.38337	98891
7.39148	107702
7.39962	103498
7.40773	104728
7.41587	102199
7.42398	94403
7.43210	90033
7.44023	85871
7.44835	83251
7.45648	82308
7.46460	80402
7.47272	73374
7.48085	75219
7.48897	85414
7.49710	79937
7.50522	87589
7.51333	104483
7.52147	143617
7.52958	228789
7.53770	337202
7.54583	461718
7.55395	551002
7.56208	576110
7.57020	499412
7.57832	393866
7.58645	276288
7.59457	190977
7.60270	141401
7.61082	112237
7.61893	96459
7.62707	86717
7.63518	86711
7.64332	86233
7.65143	74033
7.65955	76452
7.66768	74360
7.67580	71285
7.68392	66314
7.69205	74345
7.70017	74830
7.70830	80132
7.71642	80731
7.72453	81223
7.73267	84117
7.74078	82304
7.74892	82624
7.75703	82419
7.76515	79795
7.77328	85244
7.78140	89830
7.78952	90218
7.79765	93805
7.80577	91931
7.81390	85067
7.82202	79420
7.83013	74257
7.83827	75211
7.84638	75698
7.85452	82611
7.86263	93341
7.87075	95299
7.87888	106804
7.88700	107056
7.89513	107245
7.90325	106124
7.91137	115335
7.91950	138644
7.92762	150354
7.93573	145902
7.94387	124127
7.95198	109311
7.96012	87471
7.96823	76902
7.97635	68649
7.98448	66999
7.99260	62623
8.00073	64446
8.00885	59538
8.01697	61323
8.02510	62772
8.03322	62853
8.04135	59933
8.04947	62819
8.05758	59705
8.06572	61266
8.07383	61073
8.08195	65041
8.09008	57969
8.09820	65426
8.10633	62948
8.11445	77077
8.12257	87192
8.13070	95911
8.13882	99901
8.14695	91780
8.15507	85088
8.16318	76046
8.17132	64996
8.17943	62737
8.18755	57200
8.19568	58693
8.20380	62275
8.21193	59603
8.22005	59982
8.22817	58641
8.23630	54863
8.24442	53970
8.25255	53350
8.26067	59032
8.26878	55910
8.27692	55393
8.28503	55561
8.29317	59001
8.30128	60057
8.30940	61632
8.31753	61151
8.32565	61233
8.33377	67075
8.34190	59209
8.35002	56477
8.35815	56377
8.36627	58721
8.37438	54226
8.38252	57716
8.39063	56952
8.39877	55219
8.40688	52822
8.41500	51511
8.42313	53431
8.43125	50157
8.43938	51194
8.44750	51847
8.45562	48288
8.46375	48330
8.47187	53763
8.47998	57160
8.48812	79807
8.49623	131949
8.50437	236917
8.51248	327047
8.52060	355504
8.52873	294297
8.53685	195821
8.54498	131971
8.55310	88820
8.56122	75118
8.56935	68094
8.57747	70942
8.58558	72456
8.59372	75498
8.60183	70780
8.60997	77474
8.61808	77185
8.62620	68334
8.63433	67508
8.64245	61126
8.65058	58043
8.65870	59647
8.66682	62555
8.67495	63330
8.68307	66897
8.69120	67477
8.69932	64638
8.70743	68495
8.71557	60186
8.72368	62803
8.73180	64604
8.73993	74431
8.74805	128853
8.75618	258303
8.76430	528318
8.77242	842325
8.78055	1096731
8.78867	1107500
8.79680	881256
8.80492	626794
8.81303	420949
8.82117	317018
8.82928	270988
8.83740	231532
8.84553	202862
8.85365	190610
8.86178	170367
8.86990	158984
8.87802	140017
8.88615	145184
8.89427	132844
8.90240	141406
8.91052	154917
8.91863	156399
8.92677	157523
8.93488	143783
8.94302	134620
8.95113	131072
8.95925	121046
8.96738	126670
8.97550	122310
8.98362	121152
8.99175	120114
8.99987	114450
9.00800	106721
9.01612	105219
9.02423	100428
9.03237	97533
9.04048	91062
9.04862	92893
9.05673	89174
9.06485	92774
9.07298	97198
9.08110	100619
9.08923	111248
9.09735	125063
9.10547	139779
9.11360	137018
9.12172	135452
9.12983	125807
9.13797	109402
9.14608	102598
9.15422	98952
9.16233	92398
9.17045	92201
9.17858	90872
9.18670	92586
9.19483	86077
9.20295	88987
9.21107	83232
9.21920	91307
9.22732	83954
9.23543	86033
9.24357	84791
9.25168	79610
9.25982	79425
9.26793	79080
9.27605	75054
9.28418	80650
9.29230	73942
9.30043	79667
9.30855	74774
9.31667	77892
9.32480	75776
9.33292	75242
9.34105	74019
9.34917	70156
9.35728	71047
9.36542	71824
9.37353	70252
9.38165	70629
9.38978	73876
9.39790	85817
9.40603	91190
9.41415	110098
9.42227	128486
9.43040	143765
9.43852	145364
9.44665	139101
9.45477	124236
9.46288	110527
9.47102	87999
9.47913	81927
9.48727	83266
9.49538	91166
9.50350	95643
9.51163	104795
9.51975	110127
9.52787	102136
9.53600	90054
9.54412	86541
9.55225	84500
9.56037	91836
9.56848	113977
9.57662	145612
9.58473	170053
9.59287	176483
9.60098	151815
9.60910	109404
9.61723	85578
9.62535	67930
9.63347	56291
9.64160	61768
9.64972	56085
9.65785	60361
9.66597	55559
9.67408	51759
9.68222	50982
9.69033	52266
9.69847	49784
9.70658	49534
9.71470	45417
9.72283	50024
9.73095	47764
9.73908	46587
9.74720	47129
9.75532	46358
9.76345	42813
9.77157	45116
9.77968	45245
9.78782	41743
9.79593	45616
9.80407	46500
9.81218	47205
9.82030	43991
9.82843	44939
9.83655	46491
9.84468	42170
9.85280	47515
9.86092	47091
9.86905	47641
9.87717	48012
9.88528	45398
9.89342	42354
9.90153	46158
9.90967	50358
9.91778	59754
9.92590	73169
9.93403	93021
9.94215	104006
9.95028	113340
9.95840	107401
9.96652	108046
9.97465	94820
9.98277	82891
9.99090	75095
9.99902	70921
10.00713	67131
10.01527	59516
10.02338	61208
10.03150	61013
10.03963	58236
10.04775	58238
10.05588	61048
10.06400	63969
10.07212	60332
10.08025	53433
10.08837	53883
10.09650	54655
10.10462	53682
10.11273	52163
10.12087	51445
10.12898	55156
10.13712	49818
10.14523	48316
10.15335	48027
10.16148	46790
10.16960	46231
10.17772	44864
10.18585	45817
10.19397	44908
10.20210	43730
10.21022	48043
10.21833	49721
10.22647	55668
10.23458	71253
10.24272	132733
10.25083	323807
10.25895	728189
10.26708	1428441
10.27520	2357364
10.28333	3442149
10.29145	5104485
10.29957	7514741
10.30770	1.080767E+07
10.31582	1.333458E+07
10.32393	1.334691E+07
10.33207	1.018353E+07
10.34018	6344398
10.34832	3436668
10.35643	2111139
10.36455	1585234
10.37268	1338434
10.38080	1085276
10.38893	868136
10.39705	664340
10.40517	519423
10.41330	426531
10.42142	380251
10.42953	359304
10.43767	326977
10.44578	295994
10.45392	264499
10.46203	233625
10.47015	215804
10.47828	202884
10.48640	183724
10.49453	177287
10.50265	169741
10.51077	162169
10.51890	160157
10.52702	162357
10.53515	154730
10.54327	150946
10.55138	148474
10.55952	146927
10.56763	138610
10.57575	134036
10.58388	130205
10.59200	118331
10.60013	112313
10.60825	105164
10.61637	109090
10.62450	102634
10.63262	97514
10.64075	96748
10.64887	94675
10.65698	92067
10.66512	88816
10.67323	86471
10.68135	91151
10.68948	86800
10.69760	89112
10.70573	86563
10.71385	88171
10.72197	90398
10.73010	89905
10.73822	90585
10.74635	82979
10.75447	81370
10.76258	76735
10.77072	78667
10.77883	73975
10.78697	68608
10.79508	77745
10.80320	75910
10.81133	80097
10.81945	77238
10.82757	74054
10.83570	71817
10.84382	66130
10.85195	62608
10.86007	65328
10.86818	66559
10.87632	62652
10.88443	60400
10.89257	57031
10.90068	61529
10.90880	61956
10.91693	59614
10.92505	57233
10.93318	61605
10.94130	60754
10.94942	57830
10.95755	58531
10.96567	58012
10.97378	60154
10.98192	59428
10.99003	59129
10.99817	56573
11.00628	57890
11.01440	56007
11.02253	52223
11.03065	54777
11.03878	50977
11.04690	51460
11.05502	56675
11.06315	55108
11.07127	58021
11.07938	61913
11.08752	63847
11.09563	58958
11.10377	57723
11.11188	55312
11.12000	52717
11.12813	51511
11.13625	49192
11.14438	46701
11.15250	45234
11.16062	48845
11.16875	54272
11.17687	54070
11.18500	56355
11.19312	56171
11.20123	52876
11.20937	52302
11.21748	48808
11.22560	42772
11.23373	41112
11.24185	40540
11.24998	44115
11.25810	39548
11.26622	40560
11.27435	42736
11.28247	42222
11.29060	51774
11.29872	63610
11.30683	116395
11.31497	211196
11.32308	354470
11.33122	539201
11.33933	702089
11.34745	754841
11.35558	701394
11.36370	542084
11.37182	430031
11.37995	329244
11.38807	263805
11.39620	214894
11.40432	167988
11.41243	135613
11.42057	121012
11.42868	98115
11.43682	85332
11.44493	76653
11.45305	77687
11.46118	91304
11.46930	119903
11.47742	163670
11.48555	195157
11.49367	208872
11.50180	194805
11.50992	166038
11.51803	141095
11.52617	122356
11.53428	117783
11.54242	95884
11.55053	87426
11.55865	87353
11.56678	90702
11.57490	87472
11.58303	102792
11.59115	119191
11.59927	137552
11.60740	152031
11.61552	145672
11.62363	124692
11.63177	102864
11.63988	87113
11.64802	73134
11.65613	63908
11.66425	58378
11.67238	58291
11.68050	62667
11.68863	59910
11.69675	62325
11.70487	61843
11.71300	63895
11.72112	59038
11.72923	60527
11.73737	50296
11.74548	54277
11.75362	51070
11.76173	52022
11.76985	51299
11.77798	48341
11.78610	47969
11.79423	51222
11.80235	51151
11.81047	49586
11.81860	46829
11.82672	53380
11.83485	49042
11.84297	46997
11.85108	45839
11.85922	44400
11.86733	46885
11.87545	46401
11.88358	45451
11.89170	42542
11.89983	46494
11.90795	47760
11.91607	49710
11.92420	52568
11.93232	50828
11.94045	50587
11.94857	45478
11.95668	47354
11.96482	52681
11.97293	74607
11.98107	97901
11.98918	142603
11.99730	178441
12.00543	184481
12.01355	164863
12.02167	130154
12.02980	99894
12.03792	75751
12.04605	75063
12.05417	65739
12.06228	61284
12.07042	59517
12.07853	67527
12.08667	60602
12.09478	57823
12.10290	63057
12.11103	63632
12.11915	66838
12.12727	68212
12.13540	75008
12.14352	65848
12.15165	65367
12.15977	59916
12.16788	59721
12.17602	56216
12.18413	53889
12.19227	54308
12.20038	54765
12.20850	51339
12.21663	46813
12.22475	48248
12.23288	47887
12.24100	46327
12.24912	48601
12.25725	47617
12.26537	46699
12.27348	47956
12.28162	45289
12.28973	45844
12.29787	45144
12.30598	44709
12.31410	39723
12.32223	42339
12.33035	40473
12.33848	44531
12.34660	40312
12.35472	41078
12.36285	42084
12.37097	42273
12.37910	45291
12.38722	53460
12.39533	72302
12.40347	90694
12.41158	113156
12.41970	122485
12.42783	116706
12.43595	99376
12.44408	84715
12.45220	75690
12.46032	65294
12.46845	61271
12.47657	56625
12.48470	55739
12.49282	54347
12.50093	55993
12.50907	53140
12.51718	54951
12.52530	68964
12.53343	92032
12.54155	121654
12.54968	134238
12.55780	138960
12.56592	126883
12.57405	103609
12.58217	84520
12.59030	73371
12.59842	66312
12.60653	63884
12.61467	61193
12.62278	54931
12.63092	51313
12.63903	51195
12.64715	50370
12.65528	47204
12.66340	46633
12.67152	45151
12.67965	45611
12.68777	39971
12.69590	46104
12.70402	43545
12.71213	41476
12.72027	46483
12.72838	52468
12.73652	48054
12.74463	50995
12.75275	48493
12.76088	44988
12.76900	42356
12.77713	39757
12.78525	38552
12.79337	38567
12.80150	37614
12.80962	36530
12.81773	36843
12.82587	37533
12.83398	36345
12.84212	34924
12.85023	35949
12.85835	33500
12.86648	35140
12.87460	32266
12.88273	34564
12.89085	34823
12.89897	33623
12.90710	33901
12.91522	29661
12.92333	30365
12.93147	40227
12.93958	41863
12.94772	51790
12.95583	64288
12.96395	83305
12.97208	90641
12.98020	93797
12.98833	83806
12.99645	63346
13.00457	51068
13.01270	49798
13.02082	46988
13.02895	42916
13.03707	44373
13.04518	40237
13.05332	39446
13.06143	42813
13.06955	39921
13.07768	35766
13.08580	42186
13.09393	39357
13.10205	40719
13.11017	38526
13.11830	42060
13.12642	35946
13.13455	36647
13.14267	36020
13.15078	36674
13.15892	34900
13.16703	42607
13.17515	40405
13.18328	39406
13.19140	40510
13.19953	41941
13.20765	45328
13.21577	39438
13.22390	42636
13.23202	42147
13.24015	40293
13.24827	38022
13.25638	38253
13.26452	37753
13.27263	37005
13.28077	36179
13.28888	32225
13.29700	35361
13.30513	34789
13.31325	36577
13.32137	36554
13.32950	31979
13.33762	31926
13.34575	31775
13.35387	33562
13.36198	31765
13.37012	33472
13.37823	31640
13.38637	32933
13.39448	32470
13.40260	28137
13.41073	31405
13.41885	32550
13.42698	29773
13.43510	30673
13.44322	32034
13.45135	33299
13.45947	33753
13.46758	31833
13.47572	31186
13.48383	34422
13.49197	32890
13.50008	35502
13.50820	33430
13.51633	32697
13.52445	41361
13.53258	36436
13.54070	32453
13.54882	31470
13.55695	31613
13.56507	33966
13.57318	38300
13.58132	51365
13.58943	61733
13.59757	92909
13.60568	122643
13.61380	146410
13.62193	152447
13.63005	133699
13.63818	102418
13.64630	74033
13.65442	56513
13.66255	46953
13.67067	42096
13.67880	40067
13.68692	39293
13.69503	40318
13.70317	43495
13.71128	39756
13.71940	43660
13.72753	77612
13.73565	141977
13.74378	314416
13.75190	632236
13.76002	1070417
13.76815	1425802
13.77627	1573120
13.78440	1410845
13.79252	1088888
13.80063	804403
13.80877	580111
13.81688	502502
13.82502	490795
13.83313	507448
13.84125	500672
13.84938	465394
13.85750	402319
13.86562	322435
13.87375	256054
13.88187	209202
13.89000	177980
13.89812	148669
13.90623	149774
13.91437	126604
13.92248	124500
13.93062	116665
13.93873	119525
13.94685	111533
13.95498	115502
13.96310	120007
13.97122	121021
13.97935	122882
13.98747	120701
13.99560	124318
14.00372	111308
14.01183	106231
14.01997	98857
14.02808	99901
14.03622	88298
14.04433	91992
14.05245	87562
14.06058	82572
14.06870	86868
14.07683	84773
14.08495	81694
14.09307	82633
14.10120	77514
14.10932	87185
14.11743	77891
14.12557	81338
14.13368	76542
14.14182	81223
14.14993	79428
14.15805	81991
14.16618	90678
14.17430	119456
14.18243	166101
14.19055	239601
14.19867	324941
14.20680	367750
14.21492	358100
14.22303	315070
14.23117	244896
14.23928	210890
14.24742	176487
14.25553	166749
14.26365	141624
14.27178	125721
14.27990	117097
14.28803	107639
14.29615	105306
14.30427	96511
14.31240	88920
14.32052	89924
14.32865	86532
14.33677	84702
14.34488	78274
14.35302	78410
14.36113	69948
14.36925	67693
14.37738	66473
14.38550	89355
14.39363	146809
14.40175	229917
14.40987	361663
14.41800	433437
14.42612	424672
14.43425	359131
14.44237	251016
14.45048	179584
14.45862	124314
14.46673	107227
14.47487	86209
14.48298	82559
14.49110	78616
14.49923	69326
14.50735	72898
14.51547	74015
14.52360	69516
14.53172	67314
14.53985	63321
14.54797	58632
14.55608	58280
14.56422	53703
14.57233	53363
14.58047	52328
14.58858	47086
14.59670	50898
14.60483	51899
14.61295	49030
14.62108	43712
14.62920	45009
14.63732	44794
14.64545	46009
14.65357	51815
14.66168	47646
14.66982	45688
14.67793	42565
14.68607	43002
14.69418	48207
14.70230	44008
14.71043	44798
14.71855	47872
14.72668	48366
14.73480	46192
14.74292	48537
14.75105	50198
14.75917	55690
14.76728	54431
14.77542	56239
14.78353	86643
14.79167	167390
14.79978	367384
14.80790	821377
14.81603	1510009
14.82415	2193333
14.83228	2521843
14.84040	2372773
14.84852	1860331
14.85665	1257594
14.86477	789944
14.87290	521665
14.88102	369285
14.88913	286570
14.89727	242955
14.90538	197602
14.91350	175760
14.92163	169291
14.92975	146592
14.93788	137362
14.94600	131780
14.95412	126868
14.96225	115580
14.97037	113980
14.97850	111773
14.98662	102007
14.99473	92889
15.00287	96105
15.01098	92322
15.01910	84612
15.02723	86769
15.03535	82230
15.04348	78299
15.05160	77916
15.05972	77195
15.06785	72012
15.07597	73406
15.08410	64750
15.09222	71059
15.10033	68823
15.10847	69159
15.11658	67932
15.12472	76871
15.13283	76053
15.14095	80596
15.14908	81778
15.15720	79048
15.16532	73624
15.17345	63100
15.18157	55642
15.18970	55433
15.19782	54586
15.20593	51567
15.21407	47959
15.22218	51040
15.23032	45594
15.23843	47511
15.24655	42258
15.25468	42333
15.26280	42846
15.27093	41348
15.27905	44399
15.28717	42488
15.29530	42116
15.30342	41858
15.31153	39070
15.31967	39162
15.32778	40547
15.33592	39336
15.34403	40920
15.35215	41722
15.36028	41622
15.36840	40937
15.37653	40210
15.38465	38384
15.39277	38434
15.40090	43468
15.40902	39445
15.41713	44267
15.42527	39806
15.43338	42233
15.44152	37444
15.44963	40462
15.45775	39232
15.46588	45535
15.47400	60139
15.48213	82472
15.49025	101205
15.49837	134922
15.50650	159114
15.51462	169611
15.52275	178225
15.53087	192711
15.53898	204911
15.54712	207908
15.55523	206057
15.56335	190569
15.57148	150377
15.57960	112783
15.58773	88741
15.59585	69085
15.60397	60375
15.61210	53299
15.62022	49046
15.62835	46390
15.63647	47583
15.64458	44910
15.65272	46373
15.66083	46707
15.66897	38557
15.67708	40482
15.68520	37480
15.69333	39248
15.70145	40772
15.70957	37759
15.71770	37208
15.72582	39393
15.73395	46126
15.74207	50242
15.75018	61334
15.75832	88655
15.76643	133589
15.77457	200085
15.78268	271001
15.79080	291547
15.79893	275564
15.80705	224944
15.81517	157422
15.82330	113548
15.83142	92674
15.83955	75783
15.84767	70664
15.85578	62229
15.86392	64603
15.87203	58767
15.88017	56266
15.88828	60174
15.89640	57256
15.90453	49968
15.91265	56673
15.92078	52216
15.92890	51670
15.93702	51115
15.94515	55756
15.95327	67309
15.96138	76853
15.96952	83177
15.97763	102130
15.98577	100399
15.99388	92032
16.00200	80816
16.01013	73252
16.01825	75139
16.02638	68364
16.03450	68243
16.04262	66616
16.05075	61137
16.05887	56803
16.06698	55742
16.07512	52508
16.08323	51277
16.09137	51141
16.09948	46375
16.10760	49146
16.11573	46499
16.12385	49587
16.13198	51011
16.14010	54977
16.14822	55527
16.15635	56827
16.16447	53039
16.17260	51278
16.18072	49060
16.18883	48942
16.19697	45644
16.20508	41672
16.21320	46795
16.22133	47861
16.22945	46423
16.23758	45952
16.24570	44630
16.25382	42165
16.26195	36439
16.27007	45703
16.27820	45787
16.28632	43684
16.29443	45941
16.30257	51691
16.31068	51221
16.31882	49274
16.32693	47002
16.33505	47335
16.34318	51356
16.35130	59177
16.35942	76170
16.36755	90173
16.37567	105162
16.38380	99233
16.39192	88832
16.40003	79073
16.40817	65108
16.41628	59257
16.42442	56575
16.43253	50101
16.44065	51445
16.44878	57808
16.45690	63064
16.46502	77103
16.47315	95203
16.48127	104295
16.48940	111348
16.49752	101660
16.50563	90014
16.51377	70494
16.52188	59685
16.53002	56758
16.53813	53669
16.54625	52451
16.55438	50220
16.56250	50162
16.57063	52141
16.57875	51990
16.58687	55163
16.59500	64910
16.60312	76142
16.61123	79501
16.61937	81242
16.62748	83422
16.63562	75589
16.64373	69275
16.65185	57308
16.65998	50677
16.66810	50182
16.67623	52228
16.68435	43600
16.69247	44971
16.70060	44742
16.70872	43211
16.71685	45962
16.72497	42681
16.73308	44189
16.74122	41424
16.74933	43764
16.75745	43579
16.76558	43137
16.77370	45631
16.78183	45207
16.78995	44322
16.79807	37588
16.80620	38743
16.81432	38169
16.82245	37535
16.83057	37780
16.83868	41209
16.84682	40603
16.85493	37960
16.86305	39416
16.87118	35976
16.87930	36467
16.88743	30860
16.89555	34754
16.90367	37323
16.91180	34550
16.91992	36722
16.92805	34608
16.93617	39751
16.94428	37610
16.95242	39628
16.96053	38388
16.96867	39959
16.97678	36849
16.98490	35414
16.99303	39055
17.00115	37849
17.00927	38099
17.01740	39593
17.02552	40439
17.03365	42629
17.04177	50612
17.04988	46968
17.05802	49774
17.06613	48238
17.07427	49763
17.08238	45277
17.09050	42512
17.09863	44625
17.10675	39200
17.11487	44860
17.12300	47332
17.13112	44677
17.13925	41857
17.14737	44372
17.15548	42823
17.16362	42475
17.17173	40662
17.17987	42209
17.18798	43961
17.19610	34997
17.20423	37354
17.21235	35033
17.22048	36421
17.22860	37318
17.23672	36393
17.24485	36219
17.25297	41572
17.26108	38838
17.26922	35452
17.27733	32022
17.28547	36729
17.29358	37512
17.30170	34640
17.30983	37576
17.31795	37341
17.32608	40588
17.33420	45017
17.34232	56533
17.35045	59343
17.35857	62954
17.36670	61625
17.37482	60176
17.38293	59383
17.39107	54751
17.39918	54379
17.40730	53516
17.41543	52176
17.42355	48913
17.43168	50900
17.43980	50106
17.44792	51440
17.45605	51303
17.46417	46563
17.47230	43917
17.48042	43726
17.48853	40612
17.49667	41037
17.50478	38394
17.51290	41722
17.52103	41191
17.52915	42341
17.53728	40073
17.54540	44431
17.55352	58805
17.56165	77711
17.56977	132528
17.57790	224934
17.58602	408967
17.59413	665131
17.60227	956527
17.61038	1112991
17.61852	1055549
17.62663	856621
17.63475	600833
17.64288	403649
17.65100	266281
17.65912	204419
17.66725	167963
17.67537	138380
17.68350	125596
17.69162	115121
17.69973	110099
17.70787	97045
17.71598	87464
17.72412	80443
17.73223	75237
17.74035	72009
17.74848	69092
17.75660	67508
17.76473	60607
17.77285	60770
17.78097	63583
17.78910	63005
17.79722	66235
17.80533	80478
17.81347	94787
17.82158	119175
17.82972	129862
17.83783	133959
17.84595	126464
17.85408	113600
17.86220	103597
17.87033	97419
17.87845	92150
17.88657	78920
17.89470	75487
17.90282	67299
17.91093	60036
17.91907	57801
17.92718	54120
17.93532	54831
17.94343	52930
17.95155	49315
17.95968	51914
17.96780	49047
17.97593	46114
17.98405	48822
17.99217	46933
18.00030	50254
18.00842	51481
18.01655	57850
18.02467	64821
18.03278	71707
18.04092	78124
18.04903	83009
18.05715	90915
18.06528	105466
18.07340	138674
18.08153	190167
18.08965	252751
18.09777	296055
18.10590	298301
18.11402	259322
18.12215	216629
18.13027	179775
18.13838	163244
18.14652	154366
18.15463	138606
18.16277	129114
18.17088	113689
18.17900	114958
18.18713	107573
18.19525	98077
18.20337	96839
18.21150	88694
18.21962	84177
18.22775	81504
18.23587	75644
18.24398	75634
18.25212	75012
18.26023	74646
18.26837	67165
18.27648	67151
18.28460	60331
18.29273	53081
18.30085	48750
18.30897	48964
18.31710	46888
18.32522	43758
18.33335	44859
18.34147	44687
18.34958	46484
18.35772	42429
18.36583	41217
18.37397	43723
18.38208	42732
18.39020	44973
18.39833	47594
18.40645	49479
18.41458	62774
18.42270	100603
18.43082	143623
18.43895	198339
18.44707	253449
18.45518	312392
18.46332	392377
18.47143	477096
18.47957	558118
18.48768	593413
18.49580	587101
18.50393	496993
18.51205	437113
18.52018	364714
18.52830	322506
18.53642	302586
18.54455	285889
18.55267	281114
18.56078	277982
18.56892	283042
18.57703	265739
18.58517	266079
18.59328	261916
18.60140	263389
18.60953	263783
18.61765	266036
18.62578	272031
18.63390	270685
18.64202	261263
18.65015	254677
18.65827	249491
18.66640	237088
18.67452	240835
18.68263	233385
18.69077	221678
18.69888	229735
18.70700	218808
18.71513	226735
18.72325	216886
18.73138	208078
18.73950	204867
18.74762	211961
18.75575	199564
18.76387	200273
18.77200	195534
18.78012	198279
18.78823	193501
18.79637	204656
18.80448	193409
18.81262	196265
18.82073	193532
18.82885	183865
18.83698	187301
18.84510	182955
18.85322	186548
18.86135	179483
18.86947	189203
18.87760	175685
18.88572	179094
18.89383	178700
18.90197	175849
18.91008	178420
18.91822	183078
18.92633	178229
18.93445	179388
18.94258	179875
18.95070	177522
18.95882	184353
18.96695	184129
18.97507	175908
18.98320	176840
18.99132	165297
18.99943	165776
19.00757	157103
19.01568	158947
19.02382	166354
19.03193	147515
19.04005	150568
19.04818	151999
19.05630	162628
19.06443	184586
19.07255	242247
19.08067	376914
19.08880	585905
19.09692	864872
19.10503	1077135
19.11317	1141760
19.12128	1047699
19.12942	816468
19.13753	593875
19.14565	417617
19.15378	299562
19.16190	245926
19.17003	204259
19.17815	192269
19.18627	173608
19.19440	165436
19.20252	164423
19.21065	151872
19.21877	152525
19.22688	147954
19.23502	143917
19.24313	139402
19.25125	139252
19.25938	136489
19.26750	138024
19.27563	135330
19.28375	133495
19.29187	131444
19.30000	140170
19.30812	139269
19.31625	136032
19.32437	137703
19.33248	130279
19.34062	136041
19.34873	138599
19.35685	162283
19.36498	182217
19.37310	207285
19.38123	203358
19.38935	196695
19.39747	179191
19.40560	159094
19.41372	149815
19.42185	135088
19.42997	124745
19.43808	126872
19.44622	124100
19.45433	120357
19.46247	120484
19.47058	121805
19.47870	132019
19.48683	169609
19.49495	205436
19.50307	254880
19.51120	283450
19.51932	283188
19.52745	249837
19.53557	208126
19.54368	167291
19.55182	144526
19.55993	130416
19.56807	118890
19.57618	119737
19.58430	109574
19.59243	105543
19.60055	101019
19.60868	100307
19.61680	106524
19.62492	99880
19.63305	101008
19.64117	117799
19.64928	156843
19.65742	175932
19.66553	219687
19.67367	261195
19.68178	276350
19.68990	278152
19.69803	255490
19.70615	232821
19.71428	213035
19.72240	180950
19.73052	164287
19.73865	149955
19.74677	130658
19.75488	120888
19.76302	121342
19.77113	122695
19.77927	126147
19.78738	133372
19.79550	139667
19.80363	155911
19.81175	165941
19.81988	156621
19.82800	135800
19.83612	126668
19.84425	113624
19.85237	116690
19.86050	136268
19.86862	215459
19.87673	373017
19.88487	621561
19.89298	968874
19.90110	1250659
19.90923	1345960
19.91735	1270037
19.92548	1074634
19.93360	923172
19.94172	733185
19.94985	633404
19.95797	552513
19.96610	507064
19.97422	485940
19.98233	455506
19.99047	411815
19.99858	400735
20.00672	388768
20.01483	376735
20.02295	359459
20.03108	349824
20.03920	308780
20.04732	286593
20.05545	257907
20.06357	228102
20.07170	194899
20.07982	182360
20.08793	171965
20.09607	166940
20.10418	159870
20.11232	149654
20.12043	137419
20.12855	127632
20.13668	118924
20.14480	117756
20.15292	113013
20.16105	118890
20.16917	130994
20.17730	148754
20.18542	168431
20.19353	174450
20.20167	191989
20.20978	190226
20.21792	172144
20.22603	156618
20.23415	135398
20.24228	135698
20.25040	139295
20.25853	166803
20.26665	195699
20.27477	226247
20.28290	252937
20.29102	269682
20.29913	263673
20.30727	225945
20.31538	185557
20.32352	157012
20.33163	145394
20.33975	122674
20.34788	112119
20.35600	103474
20.36413	94954
20.37225	86866
20.38037	86865
20.38850	77632
20.39662	80028
20.40473	80033
20.41287	77453
20.42098	79674
20.42912	83546
20.43723	87000
20.44535	87700
20.45348	99660
20.46160	85023
20.46973	86426
20.47785	82675
20.48597	77167
20.49410	75607
20.50222	71896
20.51035	73628
20.51847	68426
20.52658	69080
20.53472	67901
20.54283	69424
20.55095	68584
20.55908	70772
20.56720	69202
20.57533	66879
20.58345	67658
20.59157	72185
20.59970	61893
20.60782	65890
20.61595	66184
20.62407	63655
20.63218	62320
20.64032	66958
20.64843	65144
20.65657	71109
20.66468	70763
20.67280	68644
20.68093	71923
20.68905	65423
20.69717	63128
20.70530	63653
20.71342	58631
20.72155	57121
20.72967	59696
20.73778	59137
20.74592	62152
20.75403	65495
20.76217	66752
20.77028	72015
20.77840	84525
20.78653	107696
20.79465	150563
20.80277	222143
20.81090	316539
20.81902	395111
20.82715	430341
20.83527	397541
20.84338	320214
20.85152	222271
20.85963	151126
20.86777	104937
20.87588	88441
20.88400	78866
20.89213	75845
20.90025	75250
20.90838	77829
20.91650	75874
20.92462	72932
20.93275	74716
20.94087	69527
20.94898	75492
20.95712	74437
20.96523	64875
20.97337	66656
20.98148	63698
20.98960	66371
20.99773	65928
21.00585	64947
21.01398	63426
21.02210	63568
21.03022	64035
21.03835	61118
21.04647	62763
21.05460	62286
21.06272	63656
21.07083	59171
21.07897	63384
21.08708	60406
21.09520	66006
21.10333	58865
21.11145	57099
21.11958	59022
21.12770	58734
21.13582	62173
21.14395	71341
21.15207	78573
21.16020	86148
21.16832	102064
21.17643	100937
21.18457	92239
21.19268	86645
21.20080	74635
21.20893	67643
21.21705	66320
21.22518	67029
21.23330	64941
21.24142	63452
21.24955	62604
21.25767	58142
21.26580	61935
21.27392	59140
21.28203	59437
21.29017	54438
21.29828	52373
21.30642	48690
21.31453	51799
21.32265	53624
21.33078	53931
21.33890	50288
21.34702	50008
21.35515	51265
21.36327	51528
21.37140	50004
21.37952	56685
21.38763	54994
21.39577	50444
21.40388	55705
21.41202	54859
21.42013	62287
21.42825	61613
21.43638	54357
21.44450	53422
21.45262	53142
21.46075	52933
21.46887	52684
21.47700	52991
21.48512	52259
21.49323	50312
21.50137	49582
21.50948	47226
21.51762	48138
21.52573	47296
21.53385	47563
21.54198	49352
21.55010	48245
21.55823	48014
21.56635	48545
21.57447	53319
21.58260	58415
21.59072	67137
21.59883	72526
21.60697	75898
21.61508	75259
21.62322	76471
21.63133	76438
21.63945	85177
21.64758	92460
21.65570	91306
21.66383	91542
21.67195	88161
21.68007	95394
21.68820	96564
21.69632	84747
21.70445	82385
21.71257	72591
21.72068	66946
21.72882	61602
21.73693	62414
21.74505	60724
21.75318	58391
21.76130	54822
21.76943	57959
21.77755	57112
21.78567	56384
21.79380	55342
21.80192	56933
21.81005	58476
21.81817	57872
21.82628	65100
21.83442	67105
21.84253	70925
21.85065	75893
21.85878	74954
21.86690	69492
21.87503	60719
21.88315	60109
21.89127	55027
21.89940	56752
21.90752	53622
21.91565	54051
21.92377	53476
21.93188	47339
21.94002	44819
21.94813	48449
21.95627	48691
21.96438	46347
21.97250	40416
21.98063	42810
21.98875	42697
21.99687	38979
22.00500	45136
22.01312	43505
22.02125	46008
22.02937	45436
22.03748	52530
22.04562	57091
22.05373	61547
22.06187	72348
22.06998	72343
22.07810	75959
22.08623	77498
22.09435	78456
22.10248	75048
22.11060	76716
22.11872	75379
22.12685	81603
22.13497	82629
22.14308	77639
22.15122	82478
22.15933	80990
22.16747	82354
22.17558	82666
22.18370	83435
22.19183	78169
22.19995	77098
22.20808	83391
22.21620	76965
22.22432	81808
22.23245	83047
22.24057	84381
22.24868	82310
22.25682	82725
22.26493	74697
22.27307	72044
22.28118	70231
22.28930	72799
22.29743	76167
22.30555	71441
22.31368	79360
22.32180	72858
22.32992	66621
22.33805	68100
22.34617	62961
22.35430	64189
22.36242	59249
22.37053	58156
22.37867	59648
22.38678	65712
22.39490	78998
22.40303	101898
22.41115	127846
22.41928	153369
22.42740	167356
22.43552	160280
22.44365	143808
22.45177	109698
22.45990	91952
22.46802	78037
22.47613	79506
22.48427	79934
22.49238	88352
22.50052	96230
22.50863	108107
22.51675	104231
22.52488	102900
22.53300	85203
22.54112	82826
22.54925	77495
22.55737	76095
22.56550	81408
22.57362	98120
22.58173	103075
22.58987	108634
22.59798	113859
22.60612	117842
22.61423	122809
22.62235	126310
22.63048	125111
22.63860	128468
22.64672	133380
22.65485	141419
22.66297	139767
22.67110	143516
22.67922	138167
22.68733	143549
22.69547	148963
22.70358	153252
22.71172	154159
22.71983	160089
22.72795	162892
22.73608	158908
22.74420	151529
22.75233	152933
22.76045	144181
22.76857	142996
22.77670	146814
22.78482	150775
22.79293	162845
22.80107	179293
22.80918	196300
22.81732	199652
22.82543	197899
22.83355	186567
22.84168	172115
22.84980	164334
22.85793	154318
22.86605	149063
22.87417	154505
22.88230	156969
22.89042	170437
22.89853	187310
22.90667	216831
22.91478	236617
22.92292	259064
22.93103	284874
22.93915	266207
22.94728	246025
22.95540	210120
22.96353	180302
22.97165	160216
22.97977	154458
22.98790	141522
22.99602	129086
23.00415	130814
23.01227	123235
23.02038	116298
23.02852	116439
23.03663	114603
23.04475	119335
23.05288	110034
23.06100	113113
23.06913	109380
23.07725	105246
23.08537	108267
23.09350	106693
23.10162	104681
23.10975	106668
23.11787	100408
23.12598	99121
23.13412	98453
23.14223	94570
23.15037	93992
23.15848	92820
23.16660	95175
23.17473	93544
23.18285	100226
23.19097	90911
23.19910	91343
23.20722	86516
23.21535	90244
23.22347	86525
23.23158	91641
23.23972	95646
23.24783	92305
23.25597	99101
23.26408	96260
23.27220	102132
23.28033	98957
23.28845	103791
23.29657	90900
23.30470	89023
23.31282	91782
23.32095	87986
23.32907	93342
23.33718	102491
23.34532	122214
23.35343	152384
23.36157	180514
23.36968	223888
23.37780	251520
23.38593	286644
23.39405	303524
23.40218	331053
23.41030	335315
23.41842	344765
23.42655	358297
23.43467	353608
23.44278	332021
23.45092	319508
23.45903	300423
23.46717	286532
23.47528	274433
23.48340	248310
23.49153	234029
23.49965	222050
23.50778	208883
23.51590	202430
23.52402	189887
23.53215	181759
23.54027	162459
23.54840	168176
23.55652	160875
23.56463	163053
23.57277	175757
23.58088	203678
23.58900	238978
23.59713	303236
23.60525	324685
23.61338	334017
23.62150	320544
23.62962	271748
23.63775	231209
23.64587	211965
23.65400	216608
23.66212	214298
23.67023	209648
23.67837	208769
23.68648	185750
23.69460	165594
23.70273	142697
23.71085	133473
23.71898	115422
23.72710	107513
23.73522	102995
23.74335	113887
23.75147	141812
23.75960	235734
23.76772	420174
23.77583	714627
23.78397	1113347
23.79208	1434939
23.80022	1631835
23.80833	1632407
23.81645	1460496
23.82458	1194432
23.83270	917987
23.84082	738468
23.84895	578084
23.85707	485401
23.86520	405554
23.87332	344892
23.88143	309730
23.88957	270398
23.89768	262223
23.90582	253963
23.91393	232109
23.92205	217517
23.93018	211350
23.93830	200553
23.94642	178323
23.95455	170179
23.96267	158717
23.97080	147296
23.97892	148743
23.98703	137399
23.99517	136070
24.00328	151623
24.01142	186290
24.01953	247071
24.02765	333579
24.03578	411187
24.04390	400307
24.05203	361470
24.06015	285230
24.06827	205813
24.07640	159512
24.08452	129659
24.09263	110239
24.10077	105133
24.10888	99096
24.11702	94728
24.12513	100958
24.13325	106928
24.14138	103324
24.14950	102600
24.15763	102772
24.16575	105815
24.17387	102567
24.18200	100640
24.19012	99134
24.19825	101428
24.20637	97077
24.21448	95834
24.22262	99482
24.23073	92544
24.23885	86693
24.24698	84353
24.25510	76185
24.26323	75456
24.27135	74823
24.27947	77230
24.28760	72774
24.29572	73889
24.30385	72660
24.31197	72070
24.32008	79120
24.32822	99414
24.33633	123684
24.34447	133886
24.35258	152410
24.36070	162762
24.36883	171741
24.37695	184842
24.38507	213566
24.39320	240975
24.40132	258115
24.40945	255649
24.41757	242187
24.42568	225465
24.43382	203276
24.44193	201822
24.45007	189036
24.45818	191166
24.46630	188650
24.47443	194513
24.48255	199015
24.49067	206565
24.49880	204640
24.50692	208033
24.51505	225001
24.52317	218944
24.53128	225905
24.53942	241861
24.54753	255022
24.55567	274687
24.56378	279787
24.57190	285639
24.58003	265177
24.58815	253102
24.59628	231632
24.60440	218429
24.61252	210891
24.62065	192328
24.62877	201846
24.63688	198989
24.64502	197530
24.65313	198854
24.66127	190360
24.66938	193300
24.67750	188617
24.68563	186610
24.69375	194753
24.70188	192129
24.71000	195110
24.71812	194360
24.72625	194997
24.73437	190775
24.74248	199490
24.75062	194946
24.75873	197411
24.76687	195722
24.77498	201741
24.78310	204892
24.79123	212384
24.79935	197696
24.80748	203058
24.81560	198767
24.82372	198912
24.83185	218958
24.83997	230882
24.84810	270583
24.85622	319767
24.86433	396913
24.87247	504507
24.88058	628285
24.88870	738561
24.89683	823484
24.90495	764487
24.91308	659195
24.92120	522160
24.92932	386646
24.93745	285307
24.94557	232890
24.95370	191473
24.96182	176866
24.96993	173602
24.97807	159525
24.98618	157567
24.99432	152931
25.00243	151607
25.01055	145888
25.01868	138805
25.02680	133044
25.03492	127355
25.04305	118485
25.05117	106921
25.05930	101560
25.06742	93558
25.07553	91585
25.08367	92306
25.09178	103918
25.09992	161245
25.10803	291750
25.11615	595214
25.12428	1161334
25.13240	2069226
25.14052	2941251
25.14865	3549412
25.15677	3485658
25.16490	2887033
25.17302	2097619
25.18113	1279704
25.18927	733739
25.19738	393746
25.20552	239638
25.21363	168300
25.22175	140053
25.22988	122772
25.23800	138387
25.24613	158787
25.25425	204184
25.26237	255727
25.27050	293901
25.27862	318667
25.28673	298058
25.29487	260967
25.30298	209189
25.31112	163603
25.31923	127616
25.32735	109351
25.33548	94494
25.34360	86194
25.35173	81316
25.35985	79195
25.36797	69893
25.37610	71471
25.38422	66834
25.39235	71019
25.40047	69090
25.40858	64154
25.41672	64944
25.42483	63604
25.43295	60710
25.44108	61124
25.44920	74178
25.45733	86803
25.46545	108091
25.47357	148174
25.48170	183198
25.48982	204654
25.49795	211237
25.50607	229731
25.51418	238506
25.52232	235097
25.53043	245161
25.53855	243308
25.54668	239592
25.55480	250480
25.56293	252196
25.57105	255586
25.57917	252144
25.58730	252413
25.59542	257105
25.60355	254055
25.61167	256353
25.61978	252647
25.62792	255918
25.63603	248636
25.64417	248863
25.65228	250081
25.66040	247446
25.66853	242746
25.67665	236575
25.68477	232405
25.69290	225232
25.70102	234424
25.70915	228612
25.71727	219832
25.72538	217705
25.73352	218430
25.74163	219820
25.74977	216198
25.75788	218537
25.76600	216930
25.77413	210352
25.78225	218906
25.79037	208609
25.79850	209197
25.80662	207014
25.81475	206626
25.82287	199699
25.83098	199449
25.83912	205007
25.84723	191049
25.85537	194780
25.86348	184224
25.87160	189683
25.87973	186363
25.88785	186252
25.89598	174005
25.90410	178401
25.91222	170599
25.92035	170576
25.92847	168101
25.93658	168019
25.94472	169303
25.95283	158653
25.96097	152266
25.96908	162564
25.97720	152836
25.98533	151390
25.99345	153778
26.00158	146914
26.00970	148621
26.01782	145683
26.02595	136208
26.03407	139850
26.04220	140066
26.05032	137697
26.05843	138355
26.06657	134414
26.07468	138126
26.08280	138362
26.09093	137835
26.09905	133734
26.10718	132484
26.11530	136949
26.12342	131839
26.13155	133381
26.13967	133028
26.14780	138344
26.15592	131480
26.16403	131945
26.17217	129538
26.18028	126973
26.18840	124426
26.19653	118904
26.20465	120269
26.21278	112613
26.22090	108837
26.22902	111372
26.23715	112692
26.24527	104612
26.25340	108592
26.26152	109639
26.26963	102065
26.27777	98156
26.28588	97538
26.29402	102526
26.30213	98764
26.31025	98730
26.31838	91646
26.32650	94649
26.33462	94578
26.34275	90983
26.35087	95447
26.35900	94961
26.36712	94392
26.37523	105563
26.38337	118512
26.39148	129724
26.39962	136759
26.40773	145593
26.41585	144540
26.42398	124162
26.43210	120891
26.44023	108170
26.44835	94480
26.45647	92934
26.46460	87504
26.47272	86946
26.48083	88463
26.48897	83789
26.49708	81640
26.50522	82680
26.51333	81372
26.52145	74631
26.52958	76868
26.53770	73822
26.54583	73741
26.55395	73893
26.56207	73024
26.57020	69879
26.57832	72099
26.58643	66733
26.59457	68635
26.60268	68802
26.61082	67406
26.61893	65710
26.62705	70434
26.63518	65955
26.64330	67574
26.65143	68521
26.65955	75579
26.66767	72994
26.67580	76508
26.68392	75716
26.69205	74675
26.70017	65732
26.70828	65224
26.71642	66834
26.72453	61581
26.73265	62620
26.74078	60760
26.74890	62691
26.75703	63375
26.76515	57864
26.77327	61816
26.78140	66927
26.78952	66718
26.79765	73611
26.80577	67680
26.81388	72095
26.82202	69734
26.83013	70366
26.83825	61509
26.84638	64578
26.85450	63304
26.86263	61696
26.87075	60090
26.87887	58147
26.88700	55121
26.89512	52457
26.90325	52695
26.91137	52378
26.91948	54414
26.92762	51079
26.93573	52070
26.94387	51936
26.95198	55739
26.96010	58671
26.96823	65598
26.97635	81107
26.98447	100280
26.99260	136507
27.00072	180676
27.00885	243080
27.01697	316065
27.02508	377584
27.03322	400079
27.04133	398298
27.04947	358315
27.05758	306475
27.06570	272049
27.07383	227033
27.08195	194561
27.09008	177452
27.09820	153633
27.10632	146699
27.11445	136221
27.12257	128142
27.13068	121073
27.13882	120286
27.14693	108747
27.15507	109928
27.16318	100318
27.17130	105376
27.17943	106079
27.18755	99826
27.19568	100855
27.20380	100178
27.21192	97954
27.22005	92922
27.22817	85366
27.23628	84637
27.24442	82153
27.25253	83619
27.26067	74383
27.26878	71751
27.27690	72747
27.28503	73041
27.29315	71124
27.30128	67838
27.30940	67657
27.31752	62741
27.32565	62350
27.33377	66094
27.34190	61749
27.35002	63752
27.35813	63946
27.36627	72619
27.37438	68085
27.38250	62250
27.39063	66985
27.39875	65295
27.40688	62414
27.41500	60732
27.42312	59864
27.43125	59925
27.43937	63023
27.44750	57173
27.45562	56182
27.46373	53421
27.47187	54922
27.47998	55225
27.48812	55359
27.49623	50563
27.50435	56104
27.51248	53298
27.52060	63340
27.52872	63522
27.53685	60635
27.54497	61776
27.55310	58600
27.56122	61334
27.56933	60256
27.57747	65145
27.58558	75518
27.59372	80211
27.60183	93538
27.60995	84056
27.61808	82291
27.62620	73271
27.63432	66487
27.64245	61531
27.65057	53519
27.65870	58128
27.66682	54840
27.67493	55140
27.68307	61500
27.69118	64685
27.69932	66758
27.70743	63540
27.71555	60343
27.72368	58744
27.73180	54932
27.73993	52531
27.74805	49272
27.75617	50125
27.76430	48072
27.77242	54393
27.78053	51260
27.78867	53768
27.79678	55232
27.80492	53680
27.81303	53475
27.82115	51110
27.82928	46383
27.83740	50170
27.84553	45484
27.85365	48390
27.86177	48625
27.86990	48681
27.87802	49072
27.88615	45067
27.89427	49509
27.90238	48758
27.91052	44344
27.91863	45915
27.92675	42889
27.93488	44442
27.94300	44328
27.95113	44879
27.95925	46522
27.96737	42800
27.97550	46083
27.98362	42296
27.99175	45635
27.99987	45991
28.00798	50765
28.01612	56635
28.02423	64088
28.03235	72310
28.04048	82316
28.04860	90079
28.05673	91151
28.06485	94633
28.07297	79657
28.08110	73183
28.08922	63450
28.09735	58698
28.10547	52784
28.11358	47866
28.12172	52783
28.12983	47248
28.13797	49667
28.14608	45896
28.15420	42169
28.16233	43591
28.17045	42655
28.17857	48301
28.18670	55589
28.19482	62427
28.20295	71572
28.21107	80965
28.21918	84101
28.22732	86134
28.23543	85001
28.24357	80765
28.25168	74643
28.25980	59963
28.26793	55198
28.27605	52256
28.28417	50887
28.29230	56514
28.30042	58440
28.30855	60913
28.31667	73835
28.32478	81957
28.33292	90604
28.34103	106213
28.34917	119616
28.35728	132228
28.36540	142480
28.37353	150972
28.38165	169020
28.38978	167614
28.39790	177068
28.40602	170348
28.41415	170546
28.42227	160721
28.43038	145852
28.43852	141544
28.44663	135537
28.45477	125362
28.46288	115445
28.47100	116254
28.47913	111619
28.48725	102162
28.49538	100897
28.50350	93189
28.51162	90610
28.51975	87788
28.52787	85228
28.53600	78884
28.54412	73863
28.55223	73941
28.56037	69685
28.56848	66377
28.57660	66212
28.58473	67900
28.59285	72761
28.60098	61523
28.60910	67230
28.61722	68186
28.62535	65835
28.63347	67828
28.64160	66077
28.64972	67414
28.65783	70567
28.66597	74055
28.67408	73421
28.68220	69843
28.69033	64878
28.69845	61793
28.70658	62396
28.71470	62460
28.72282	59069
28.73095	56160
28.73907	63978
28.74720	65909
28.75532	71186
28.76343	82301
28.77157	84455
28.77968	87006
28.78782	83533
28.79593	74317
28.80405	65847
28.81218	70392
28.82030	71906
28.82842	65595
28.83655	62227
28.84467	57899
28.85280	62012
28.86092	61943
28.86903	62109
28.87717	67625
28.88528	72452
28.89342	78126
28.90153	76249
28.90965	78092
28.91778	78885
28.92590	71806
28.93403	63817
28.94215	67254
28.95027	66461
28.95840	63348
28.96652	62292
28.97463	61002
28.98277	62375
28.99088	53872
28.99902	51193
29.00713	53565
29.01525	50089
29.02338	48466
29.03150	49752
29.03963	50740
29.04775	51295
29.05587	50359
29.06400	54671
29.07212	55477
29.08023	55450
29.08837	55266
29.09648	57899
29.10462	54956
29.11273	51978
29.12085	54897
29.12898	48183
29.13710	47645
29.14523	47855
29.15335	48080
29.16147	50422
29.16960	49612
29.17772	56082
29.18585	60740
29.19397	76547
29.20208	84092
29.21022	102345
29.21833	111584
29.22645	116421
29.23458	110727
29.24270	99147
29.25083	90937
29.25895	92472
29.26707	98808
29.27520	89399
29.28332	86349
29.29145	83055
29.29957	71222
29.30768	67335
29.31582	60640
29.32393	49406
29.33205	50729
29.34018	47611
29.34830	45987
29.35643	48664
29.36455	48855
29.37267	44369
29.38080	44219
29.38892	45031
29.39705	47876
29.40517	46031
29.41328	46086
29.42142	45698
29.42953	46754
29.43767	48783
29.44578	46629
29.45390	45952
29.46203	44660
29.47015	43703
29.47827	47564
29.48640	47901
29.49452	51933
29.50265	48624
29.51077	46178
29.51888	46981
29.52702	49020
29.53513	48474
29.54327	45204
29.55138	47259
29.55950	48223
29.56763	45325
29.57575	41962
29.58388	44999
29.59200	43546
29.60012	43705
29.60825	41401
29.61637	44964
29.62448	42340
29.63262	43638
29.64073	40792
29.64887	40877
29.65698	43389
29.66510	50598
29.67323	48461
29.68135	47929
29.68948	52317
29.69760	55308
29.70572	54727
29.71385	50756
29.72197	50013
29.73010	47373
29.73822	45531
29.74633	50248
29.75447	45002
29.76258	39473
29.77070	43200
29.77883	42074
29.78695	40954
29.79508	42098
29.80320	44760
29.81132	40891
29.81945	39317
29.82757	36854
29.83570	40060
29.84382	39833
29.85193	42271
29.86007	44195
29.86818	60784
29.87630	81673
29.88443	110582
29.89255	146666
29.90068	175275
29.90880	187358
29.91692	163219
29.92505	133102
29.93317	104154
29.94130	80015
29.94942	75832
29.95753	60365
29.96567	63310
29.97378	65657
29.98192	70634
29.99003	81539
29.99815	86187
30.00628	91972
30.01440	98214
30.02252	97254
30.03065	101603
30.03877	99623
30.04690	100830
30.05502	101709
30.06313	102842
30.07127	99157
30.07938	104513
30.08752	99322
30.09563	94764
30.10375	94847
30.11188	89919
30.12000	90516
30.12812	89854
30.13625	84610
30.14437	88824
30.15250	81896
30.16062	75708
30.16873	79083
30.17687	79566
30.18498	77572
30.19312	78188
30.20123	78396
30.20935	72256
30.21748	72435
30.22560	68173
30.23373	66682
30.24185	61785
30.24997	57849
30.25810	56765
30.26622	54238
30.27433	54535
30.28247	51591
30.29058	57228
30.29872	53312
30.30683	55757
30.31495	54472
30.32308	51175
30.33120	50823
30.33933	57820
30.34745	49188
30.35557	54357
30.36370	55909
30.37182	52408
30.37995	51678
30.38807	49079
30.39618	47030
30.40432	47810
30.41243	51211
30.42055	48874
30.42868	47580
30.43680	40359
30.44493	44776
30.45305	45367
30.46117	48951
30.46930	41264
30.47742	46995
30.48555	47351
30.49367	43582
30.50178	41516
30.50992	50526
30.51803	50230
30.52615	46998
30.53428	40942
30.54240	46523
30.55053	43957
30.55865	45454
30.56677	43088
30.57490	44654
30.58302	46571
30.59115	45742
30.59927	46274
30.60738	45606
30.61552	42802
30.62363	44955
30.63177	41786
30.63988	41847
30.64800	43071
30.65613	41911
30.66425	39780
30.67237	42561
30.68050	41868
30.68862	42663
30.69675	45915
30.70487	41200
30.71298	38018
30.72112	42356
30.72923	39531
30.73737	44358
30.74548	46878
30.75360	40525
30.76173	44131
30.76985	48802
30.77798	52346
30.78610	66525
30.79422	85813
30.80235	106513
30.81047	120453
30.81858	117372
30.82672	115220
30.83483	100691
30.84297	80602
30.85108	72872
30.85920	56675
30.86733	51214
30.87545	48376
30.88358	46516
30.89170	51780
30.89982	53438
30.90795	57257
30.91607	57015
30.92418	56729
30.93232	55937
30.94043	59074
30.94857	59363
30.95668	58658
30.96480	58681
30.97293	58667
30.98105	58734
30.98918	56627
30.99730	57206
31.00542	59948
31.01355	59370
31.02167	60834
31.02980	63791
31.03792	60533
31.04603	65021
31.05417	65728
31.06228	63530
31.07040	64908
31.07853	68556
31.08665	76049
31.09478	82400
31.10290	85791
31.11102	88886
31.11915	85498
31.12727	83856
31.13540	75534
31.14352	72260
31.15163	78426
31.15977	71638
31.16788	72395
31.17600	69373
31.18413	74089
31.19225	88837
31.20038	101448
31.20850	114161
31.21662	133956
31.22475	140772
31.23287	148818
31.24100	129573
31.24912	116018
31.25723	96212
31.26537	83029
31.27348	73774
31.28162	66710
31.28973	59689
31.29785	61702
31.30598	65661
31.31410	57479
31.32222	59989
31.33035	63149
31.33847	62209
31.34660	64400
31.35472	60523
31.36283	59172
31.37097	63645
31.37908	64883
31.38722	61228
31.39533	69973
31.40345	67507
31.41158	62080
31.41970	61061
31.42783	59171
31.43595	56011
31.44407	59936
31.45220	59297
31.46032	53316
31.46843	57038
31.47657	58853
31.48468	56700
31.49282	60146
31.50093	56610
31.50905	59530
31.51718	59050
31.52530	58685
31.53343	62236
31.54155	60673
31.54967	61290
31.55780	59956
31.56592	59175
31.57403	60786
31.58217	59570
31.59028	56349
31.59842	51439
31.60653	54737
31.61465	54435
31.62278	52229
31.63090	50869
31.63903	55123
31.64715	56004
31.65527	57092
31.66340	52875
31.67152	56687
31.67965	54767
31.68777	56129
31.69588	55720
31.70402	51349
31.71213	52413
31.72025	48219
31.72838	50301
31.73650	54868
31.74463	50393
31.75275	48759
31.76087	48896
31.76900	53577
31.77712	48095
31.78525	46860
31.79337	49633
31.80148	46829
31.80962	48349
31.81773	48649
31.82587	52202
31.83398	49207
31.84210	49961
31.85023	53628
31.85835	50415
31.86647	51063
31.87460	54114
31.88272	53332
31.89085	55956
31.89897	63919
31.90708	67295
31.91522	76594
31.92333	76358
31.93147	79642
31.93958	84462
31.94770	84633
31.95583	87396
31.96395	95999
31.97207	88844
31.98020	97490
31.98832	103322
31.99645	96087
32.00457	95220
32.01268	100025
32.02082	94091
32.02893	89614
32.03707	91682
32.04518	84607
32.05330	79377
32.06143	83175
32.06955	82260
32.07768	74263
32.08580	72494
32.09392	70896
32.10205	74133
32.11017	66664
32.11828	66536
32.12642	60754
32.13453	61683
32.14267	56813
32.15078	61101
32.15890	59378
32.16703	55531
32.17515	55277
32.18328	55597
32.19140	55494
32.19952	59981
32.20765	55401
32.21577	51884
32.22390	55124
32.23202	54110
32.24013	53666
32.24827	54400
32.25638	57457
32.26450	52563
32.27263	54686
32.28075	59892
32.28888	52754
32.29700	53947
32.30512	50762
32.31325	50497
32.32137	48729
32.32950	47765
32.33762	52490
32.34573	51195
32.35387	54514
32.36198	50290
32.37010	48981
32.37823	52848
32.38635	44461
32.39448	53319
32.40260	45985
32.41072	47368
32.41885	48204
32.42697	50018
32.43510	43599
32.44322	43611
32.45133	46947
32.45947	46597
32.46758	44165
32.47572	45083
32.48383	45843
32.49195	46721
32.50008	46252
32.50820	46865
32.51632	42559
32.52445	42749
32.53257	45780
32.54070	45056
32.54882	45659
32.55693	45850
32.56507	53937
32.57318	45045
32.58132	48204
32.58943	44455
32.59755	44771
32.60568	43887
32.61380	42857
32.62192	43785
32.63005	44824
32.63817	50232
32.64630	51963
32.65442	56442
32.66253	62018
32.67067	62926
32.67878	68398
32.68692	55803
32.69503	56395
32.70315	53168
32.71128	49816
32.71940	47195
32.72753	47593
32.73565	46208
32.74377	48842
32.75190	49150
32.76002	42172
32.76813	46470
32.77627	43184
32.78438	47037
32.79252	46572
32.80063	45366
32.80875	44273
32.81688	41857
32.82500	42269
32.83313	39351
32.84125	44922
32.84937	44906
32.85750	45185
32.86562	43806
32.87375	43417
32.88187	49513
32.88998	47603
32.89812	50591
32.90623	46755
32.91435	49482
32.92248	54639
32.93060	48257
32.93873	43219
32.94685	44543
32.95497	46223
32.96310	46224
32.97122	48678
32.97935	50492
32.98747	60743
32.99558	64304
33.00372	68711
33.01183	71132
33.01995	65342
33.02808	61353
33.03620	58731
33.04433	56201
33.05245	52624
33.06057	57237
33.06870	56665
33.07682	54183
33.08495	65285
33.09307	67508
33.10118	75718
33.10932	75504
33.11743	77838
33.12557	76718
33.13368	70523
33.14180	68551
33.14993	59635
33.15805	53546
33.16617	54768
33.17430	51308
33.18242	51176
33.19055	49777
33.19867	51081
33.20678	49223
33.21492	48087
33.22303	47531
33.23117	48440
33.23928	46505
33.24740	44934
33.25553	47764
33.26365	46828
33.27178	47871
33.27990	46218
33.28802	44795
33.29615	44800
33.30427	48487
33.31238	40268
33.32052	45601
33.32863	45026
33.33677	47868
33.34488	45633
33.35300	48414
33.36113	51155
33.36925	57465
33.37738	51870
33.38550	51970
33.39362	50285
33.40175	48778
33.40987	44354
33.41798	45292
33.42612	41530
33.43423	43984
33.44237	46373
33.45048	46995
33.45860	43409
33.46673	41776
33.47485	41752
33.48298	41139
33.49110	48051
33.49922	43782
33.50735	47777
33.51547	42093
33.52360	42909
33.53172	51333
33.53983	47362
33.54797	48542
33.55608	50393
33.56420	59704
33.57233	59292
33.58045	54051
33.58858	45972
33.59670	43986
33.60482	47231
33.61295	48144
33.62107	46171
33.62920	44241
33.63732	44520
33.64543	49626
33.65357	47661
33.66168	51453
33.66980	50185
33.67793	46270
33.68605	50460
33.69418	43476
33.70230	42267
33.71042	45029
33.71855	44118
33.72667	42905
33.73480	42606
33.74292	43703
33.75103	43873
33.75917	41333
33.76728	44696
33.77542	40796
33.78353	41773
33.79165	42003
33.79978	43200
33.80790	43814
33.81602	44332
33.82415	44695
33.83227	43788
33.84040	44104
33.84852	48951
33.85663	44043
33.86477	46103
33.87288	46743
33.88102	43224
33.88913	43989
33.89725	46973
33.90538	44858
33.91350	49325
33.92163	50787
33.92975	46974
33.93787	44954
33.94600	44792
33.95412	41249
33.96223	44326
33.97037	45261
33.97848	47527
33.98662	44371
33.99473	43801
34.00285	43399
34.01098	43504
34.01910	42788
34.02723	43711
34.03535	46166
34.04347	42529
34.05160	48013
34.05972	45911
34.06783	45432
34.07597	44937
34.08408	42307
34.09222	46063
34.10033	42808
34.10845	47182
34.11658	46116
34.12470	45080
34.13283	46707
34.14095	50537
34.14907	47014
34.15720	49531
34.16532	47984
34.17345	46039
34.18157	47765
34.18968	45867
34.19782	46599
34.20593	41945
34.21405	46042
34.22218	46608
34.23030	46520
34.23843	46373
34.24655	47567
34.25467	46392
34.26280	44784
34.27092	46445
34.27905	46193
34.28717	44258
34.29528	44036
34.30342	44858
34.31153	43557
34.31967	41942
34.32778	45063
34.33590	47511
34.34403	44815
34.35215	45200
34.36027	43677
34.36840	45416
34.37652	47300
34.38465	42800
34.39277	44997
34.40088	46996
34.40902	48194
34.41713	47449
34.42527	42933
34.43338	45005
34.44150	42704
34.44963	46582
34.45775	43237
34.46587	46254
34.47400	43490
34.48212	47052
34.49025	45517
34.49837	52045
34.50648	50360
34.51462	57087
34.52273	64120
34.53087	69357
34.53898	77088
34.54710	86114
34.55523	85137
34.56335	89535
34.57148	87937
34.57960	90885
34.58772	86185
34.59585	76417
34.60397	73961
34.61208	70997
34.62022	69546
34.62833	70241
34.63647	57744
34.64458	61846
34.65270	58120
34.66083	61386
34.66895	58885
34.67708	58946
34.68520	56591
34.69332	55144
34.70145	54756
34.70957	53779
34.71768	55901
34.72582	51196
34.73393	55949
34.74207	54809
34.75018	50223
34.75830	54060
34.76643	52583
34.77455	56910
34.78268	52506
34.79080	57049
34.79892	55563
34.80705	57648
34.81517	52369
34.82330	48788
34.83142	51532
34.83953	54842
34.84767	53220
34.85578	51537
34.86390	52743
34.87203	51332
34.88015	51184
34.88828	50686
34.89640	48223
34.90452	49097
34.91265	52733
34.92077	51956
34.92890	53951
34.93702	56353
34.94513	57936
34.95327	59172
34.96138	62240
34.96952	61833
34.97763	64646
34.98575	59933
34.99388	58374
35.00200	57378
35.01012	61377
35.01825	52566
35.02637	50840
35.03450	45394
35.04262	47619
35.05073	50688
35.05887	49084
35.06698	51162
35.07512	49636
35.08323	48278
35.09135	48768
35.09948	53184
35.10760	47033
35.11573	48271
35.12385	46858
35.13197	51124
35.14010	51350
35.14822	50367
35.15633	46186
35.16447	55326
35.17258	51082
35.18072	52721
35.18883	46208
35.19695	47614
35.20508	46250
35.21320	48775
35.22133	53316
35.22945	49870
35.23757	48591
35.24570	49156
35.25382	48345
35.26193	49879
35.27007	47049
35.27818	51709
35.28632	55446
35.29443	49524
35.30255	45868
35.31068	47876
35.31880	47644
35.32693	42927
35.33505	48382
35.34317	43053
35.35130	48801
35.35942	47701
35.36755	47446
35.37567	48601
35.38378	49468
35.39192	53583
35.40003	51298
35.40815	53342
35.41628	66026
35.42440	63270
35.43253	65554
35.44065	66525
35.44877	63845
35.45690	57803
35.46502	56679
35.47315	55455
35.48127	56961
35.48938	51009
35.49752	53253
35.50563	57458
35.51375	52695
35.52188	58594
35.53000	53632
35.53813	50070
35.54625	48350
35.55437	45132
35.56250	49482
35.57062	53400
35.57875	48820
35.58687	47868
35.59498	47942
35.60312	51292
35.61123	49854
35.61937	50075
35.62748	47895
35.63560	50520
35.64373	51438
35.65185	50115
35.65997	55352
35.66810	52782
35.67622	52461
35.68435	57722
35.69247	55350
35.70058	53882
35.70872	50423
35.71683	49159
35.72497	53782
35.73308	56831
35.74120	50193
35.74933	57286
35.75745	60430
35.76558	59986
35.77370	61370
35.78182	59359
35.78995	54016
35.79807	53786
35.80618	53160
35.81432	50223
35.82243	54677
35.83057	51918
35.83868	47543
35.84680	53806
35.85493	52351
35.86305	51629
35.87118	50932
35.87930	50734
35.88742	51427
35.89555	52027
35.90367	46625
35.91178	47195
35.91992	49340
35.92803	48078
35.93617	47295
35.94428	54694
35.95240	53068
35.96053	50845
35.96865	47875
35.97678	46988
35.98490	51153
35.99302	50864
36.00115	54530
36.00927	58358
36.01740	55214
36.02552	57320
36.03363	53805
36.04177	54389
36.04988	50582
36.05800	50512
36.06613	49941
36.07425	52416
36.08238	53900
36.09050	51490
36.09862	51913
36.10675	52614
36.11487	53597
36.12300	51999
36.13112	57208
36.13923	55386
36.14737	54894
36.15548	59980
36.16362	53990
36.17173	53146
36.17985	55721
36.18798	53663
36.19610	50050
36.20422	50039
36.21235	53577
36.22047	51838
36.22860	48512
36.23672	48386
36.24483	51439
36.25297	50138
36.26108	53535
36.26922	52155
36.27733	51839
36.28545	53367
36.29358	60164
36.30170	65267
36.30982	67471
36.31795	67185
36.32607	63113
36.33420	60401
36.34232	61267
36.35043	55149
36.35857	52476
36.36668	50880
36.37482	57058
36.38293	57920
36.39105	55647
36.39918	55183
36.40730	55534
36.41543	57391
36.42355	54432
36.43167	55881
36.43980	53979
36.44792	52961
36.45603	54010
36.46417	53582
36.47228	50722
36.48042	50592
36.48853	56196
36.49665	53935
36.50478	52334
36.51290	53945
36.52103	54827
36.52915	53660
36.53727	56000
36.54540	56616
36.55352	61076
36.56163	57305
36.56977	54275
36.57788	58714
36.58602	53339
36.59413	55348
36.60225	56680
36.61038	57295
36.61850	57146
36.62663	59118
36.63475	56529
36.64287	60656
36.65100	62262
36.65912	57040
36.66725	56068
36.67537	55983
36.68348	55150
36.69162	58569
36.69973	52909
36.70785	59217
36.71598	59048
36.72410	62269
36.73223	54346
36.74035	58981
36.74847	60349
36.75660	58849
36.76472	57316
36.77285	59636
36.78097	54904
36.78908	61296
36.79722	60394
36.80533	53239
36.81347	53263
36.82158	59708
36.82970	57246
36.83783	57106
36.84595	57725
36.85407	54040
36.86220	56414
36.87032	55861
36.87845	55583
36.88657	54615
36.89468	55706
36.90282	56856
36.91093	55303
36.91907	55948
36.92718	55842
36.93530	59208
36.94343	64194
36.95155	64578
36.95967	70643
36.96780	74035
36.97592	75614
36.98405	72938
36.99217	66346
37.00028	66575
37.00842	64906
37.01653	62183
37.02467	60586
37.03278	57266
37.04090	62109
37.04903	58979
37.05715	59484
37.06528	58733
37.07340	57888
37.08152	64000
37.08965	59971
37.09777	63141
37.10588	60178
37.11402	59182
37.12213	61484
37.13027	58286
37.13838	54461
37.14650	57006
37.15463	58403
37.16275	57299
37.17088	58337
37.17900	61892
37.18712	55832
37.19525	59343
37.20337	59095
37.21150	61275
37.21962	60200
37.22773	56717
37.23587	62575
37.24398	58228
37.25210	59400
37.26023	58148
37.26835	58300
37.27648	52137
37.28460	56874
37.29272	60591
37.30085	60903
37.30897	63345
37.31710	68321
37.32522	72745
37.33333	82086
37.34147	94667
37.34958	91978
37.35770	93153
37.36583	87935
37.37395	90700
37.38208	85846
37.39020	85971
37.39832	80999
37.40645	75759
37.41457	81147
37.42270	73919
37.43082	72679
37.43893	73115
37.44707	70856
37.45518	70901
37.46332	70538
37.47143	69065
37.47955	71409
37.48768	71600
