Z:\data\JTB-E02\BACandBLUE\JTB-E18-005-12.D Wed Apr 10 16:56:35 2019
Start of data points
2.09537,64815
2.10348,69347
2.11162,64867
2.11973,64959
2.12785,63730
2.13598,69117
2.14410,64657
2.15223,66241
2.16035,64352
2.16847,62670
2.17660,59030
2.18472,61342
2.19285,60405
2.20097,58918
2.20908,59828
2.21722,58111
2.22533,58918
2.23345,57228
2.24158,55090
2.24970,48518
2.25783,54225
2.26595,96528
2.27407,1096339
2.28220,4484959
2.29032,3859482
2.29845,1563534
2.30657,924618
2.31468,701403
2.32282,595438
2.33093,509190
2.33905,459344
2.34718,414203
2.35530,359822
2.36343,332834
2.37155,303128
2.37967,289425
2.38780,278411
2.39592,260826
2.40405,242434
2.41217,239895
2.42028,220173
2.42842,222358
2.43653,215266
2.44467,201146
2.45278,200986
2.46090,198726
2.46903,195522
2.47715,189963
2.48527,183525
2.49340,180210
2.50152,185100
2.50965,184886
2.51777,177595
2.52588,170043
2.53402,173780
2.54213,159434
2.55027,172096
2.55838,329189
2.56650,862050
2.57463,915702
2.58275,618057
2.59087,465968
2.59900,379577
2.60712,340067
2.61525,418737
2.62337,434881
2.63148,370185
2.63962,311570
2.64773,276274
2.65587,249840
2.66398,229108
2.67210,211004
2.68023,207036
2.68835,203615
2.69648,194699
2.70460,185914
2.71272,182914
2.72085,182837
2.72897,174244
2.73708,166798
2.74522,168768
2.75333,166498
2.76147,162220
2.76958,164486
2.77770,231763
2.78583,1035759
2.79395,2492591
2.80208,2324777
2.81020,1495869
2.81832,1115602
2.82645,919542
2.83457,792956
2.84270,698267
2.85082,592961
2.85893,517550
2.86707,458442
2.87518,420074
2.88330,374393
2.89143,344754
2.89955,314862
2.90768,299563
2.91580,270550
2.92392,258361
2.93205,238312
2.94017,232146
2.94830,227393
2.95642,216077
2.96453,217364
2.97267,216934
2.98078,214536
2.98890,235057
2.99703,402420
3.00515,634602
3.01328,598407
3.02140,505997
3.02952,422933
3.03765,369207
3.04577,338472
3.05390,312267
3.06202,334812
3.07013,381925
3.07827,384191
3.08638,333036
3.09452,358653
3.10263,461129
3.11075,786436
3.11888,1059245
3.12700,917980
3.13512,676275
3.14325,559343
3.15137,486728
3.15950,434569
3.16762,406150
3.17573,417349
3.18387,489848
3.19198,829194
3.20012,1513364
3.20823,1622931
3.21635,1253968
3.22448,994713
3.23260,853318
3.24073,740005
3.24885,653985
3.25697,582334
3.26510,534977
3.27322,479240
3.28133,450111
3.28947,460295
3.29758,759748
3.30572,1841810
3.31383,3723774
3.32195,5159639
3.33008,5202424
3.33820,4543995
3.34633,3901462
3.35445,3318732
3.36257,2900699
3.37070,2564576
3.37882,2277955
3.38693,2063169
3.39507,1896393
3.40318,1723859
3.41132,1601498
3.41943,1555374
3.42755,1504937
3.43568,1425209
3.44380,1317985
3.45193,1223711
3.46005,1112143
3.46817,1050505
3.47630,1008073
3.48442,956689
3.49255,924814
3.50067,879815
3.50878,837345
3.51692,817480
3.52503,843138
3.53315,935514
3.54128,968596
3.54940,896386
3.55753,825704
3.56565,774038
3.57377,738500
3.58190,697239
3.59002,686416
3.59815,678745
3.60627,635972
3.61438,609686
3.62252,594930
3.63063,607058
3.63875,642215
3.64688,648865
3.65500,638590
3.66313,796779
3.67125,2539165
3.67937,8320102
3.68750,1.439323E+07
3.69562,1.424893E+07
3.70375,1.030098E+07
3.71187,7352960
3.71998,5925933
3.72812,5067566
3.73623,4408944
3.74437,3951529
3.75248,3549824
3.76060,3225916
3.76873,2992306
3.77685,2719555
3.78497,2564207
3.79310,2381187
3.80122,2246279
3.80935,2122428
3.81747,1993093
3.82558,1906707
3.83372,1816687
3.84183,1731250
3.84997,1632491
3.85808,1573949
3.86620,1499568
3.87433,1421421
3.88245,1375906
3.89058,1323096
3.89870,1277365
3.90682,1222616
3.91495,1186376
3.92307,1222046
3.93118,1342943
3.93932,1399245
3.94743,1393326
3.95557,1392171
3.96368,1717510
3.97180,2202836
3.97993,2300816
3.98805,1923892
3.99618,1562526
4.00430,1476585
4.01242,1829390
4.02055,2347636
4.02867,2383402
4.03678,1938379
4.04492,1500885
4.05303,1244047
4.06117,1090785
4.06928,992702
4.07740,919753
4.08553,866765
4.09365,841433
4.10178,808549
4.10990,780607
4.11802,761006
4.12615,763384
4.13427,1160928
4.14240,2760465
4.15052,5881424
4.15863,8135370
4.16677,7475923
4.17488,5164735
4.18300,3327076
4.19113,2376842
4.19925,1811457
4.20738,1543559
4.21550,2167001
4.22362,5347933
4.23175,1.161232E+07
4.23987,1.750676E+07
4.24800,1.937248E+07
4.25612,1.640949E+07
4.26423,1.126647E+07
4.27237,7648164
4.28048,5453409
4.28862,4047368
4.29673,3172095
4.30485,2502594
4.31298,2061343
4.32110,1770252
4.32922,1543468
4.33735,1385207
4.34547,1259990
4.35360,1164896
4.36172,1123668
4.36983,1156974
4.37797,1156410
4.38608,1099813
4.39422,979011
4.40233,869667
4.41045,803463
4.41858,749101
4.42670,719205
4.43482,684223
4.44295,655472
4.45107,624774
4.45920,613061
4.46732,602402
4.47543,595453
4.48357,648987
4.49168,715389
4.49982,742754
4.50793,704575
4.51605,650639
4.52418,600328
4.53230,570414
4.54043,559250
4.54855,545349
4.55667,559240
4.56480,538206
4.57292,522868
4.58103,505589
4.58917,492138
4.59728,472855
4.60542,472268
4.61353,470813
4.62165,476922
4.62978,529700
4.63790,697693
4.64603,915929
4.65415,1028297
4.66227,954270
4.67040,827413
4.67852,703444
4.68665,667896
4.69477,623109
4.70288,574264
4.71102,527740
4.71913,490534
4.72725,472761
4.73538,456361
4.74350,445645
4.75163,433709
4.75975,424620
4.76787,402997
4.77600,404188
4.78412,393426
4.79225,402165
4.80037,406071
4.80848,415339
4.81662,412884
4.82473,407180
4.83285,419235
4.84098,410817
4.84910,399528
4.85723,400432
4.86535,398072
4.87347,385203
4.88160,398181
4.88972,391362
4.89785,395655
4.90597,379106
4.91408,379957
4.92222,372324
4.93033,381887
4.93847,431364
4.94658,660487
4.95470,1286171
4.96283,2318411
4.97095,3368037
4.97907,3822630
4.98720,3519785
4.99532,2876434
5.00345,2317737
5.01157,1894013
5.01968,1650263
5.02782,1463340
5.03593,1394095
5.04407,1361769
5.05218,1340977
5.06030,1256826
5.06843,1169822
5.07655,1094311
5.08467,1041176
5.09280,990146
5.10092,944737
5.10905,893727
5.11717,862026
5.12528,823910
5.13342,793598
5.14153,762286
5.14967,762019
5.15778,760388
5.16590,814155
5.17403,858941
5.18215,878355
5.19028,848080
5.19840,842230
5.20652,854096
5.21465,892504
5.22277,907149
5.23088,841422
5.23902,801411
5.24713,735182
5.25527,698474
5.26338,649291
5.27150,600923
5.27963,579393
5.28775,543482
5.29588,544388
5.30400,528504
5.31212,519789
5.32025,501636
5.32837,496105
5.33650,488256
5.34462,486957
5.35273,478681
5.36087,478474
5.36898,481614
5.37710,473047
5.38523,489524
5.39335,514417
5.40148,571386
5.40960,596435
5.41772,583496
5.42585,551194
5.43397,508100
5.44210,483282
5.45022,515248
5.45833,538147
5.46647,575103
5.47458,579382
5.48270,527420
5.49083,489536
5.49895,452580
5.50708,418466
5.51520,419242
5.52332,407966
5.53145,409228
5.53957,395749
5.54770,397318
5.55582,442134
5.56393,546818
5.57207,760126
5.58018,990397
5.58832,1059715
5.59643,970271
5.60455,816109
5.61268,669094
5.62080,560355
5.62892,521733
5.63705,486019
5.64517,463732
5.65330,451065
5.66142,432189
5.66953,437115
5.67767,500266
5.68578,670773
5.69392,931701
5.70203,1132846
5.71015,1113239
5.71828,958817
5.72640,798737
5.73453,671875
5.74265,592681
5.75077,547354
5.75890,511012
5.76702,491275
5.77513,451369
5.78327,445572
5.79138,435948
5.79952,426402
5.80763,413123
5.81575,409730
5.82388,418877
5.83200,443061
5.84013,480153
5.84825,538979
5.85637,543279
5.86450,516518
5.87262,513473
5.88073,495221
5.88887,476874
5.89698,466975
5.90512,451247
5.91323,408503
5.92135,363517
5.92948,370190
5.93760,371755
5.94573,366413
5.95385,372591
5.96197,372939
5.97010,375926
5.97822,396889
5.98635,430648
5.99447,459107
6.00258,461412
6.01072,442678
6.01883,395977
6.02695,373660
6.03508,356652
6.04320,342856
6.05133,325671
6.05945,311047
6.06757,300464
6.07570,295907
6.08382,280640
6.09195,272182
6.10007,270940
6.10818,274596
6.11632,261208
6.12443,275055
6.13255,298885
6.14068,377733
6.14880,501070
6.15693,573030
6.16505,567605
6.17317,510796
6.18130,447298
6.18942,393072
6.19755,377032
6.20567,353428
6.21378,325946
6.22192,316472
6.23003,304009
6.23817,299808
6.24628,304694
6.25440,318939
6.26253,358248
6.27065,373072
6.27877,366516
6.28690,347186
6.29502,324357
6.30315,305853
6.31127,290673
6.31938,300986
6.32752,296572
6.33563,301318
6.34377,278176
6.35188,269111
6.36000,255805
6.36813,258302
6.37625,258918
6.38438,265070
6.39250,261240
6.40062,257770
6.40875,253197
6.41687,241242
6.42498,242254
6.43312,235417
6.44123,241325
6.44937,235054
6.45748,235422
6.46560,241773
6.47373,238191
6.48185,239712
6.48998,239382
6.49810,237954
6.50622,237358
6.51435,234431
6.52247,245719
6.53058,250510
6.53872,242120
6.54683,232690
6.55497,245026
6.56308,278404
6.57120,368577
6.57933,561012
6.58745,743244
6.59558,791858
6.60370,687842
6.61182,529381
6.61995,404510
6.62807,350525
6.63620,309004
6.64432,295184
6.65243,335764
6.66057,467531
6.66868,712051
6.67680,944206
6.68493,954270
6.69305,870402
6.70118,662646
6.70930,514774
6.71742,436632
6.72555,388656
6.73367,346131
6.74180,321671
6.74992,298549
6.75803,281172
6.76617,277893
6.77428,262436
6.78242,248205
6.79053,255868
6.79865,244978
6.80678,255458
6.81490,286272
6.82302,333831
6.83115,372232
6.83927,406988
6.84740,404814
6.85552,357301
6.86363,295859
6.87177,238702
6.87988,201081
6.88802,187087
6.89613,173291
6.90425,164297
6.91238,166539
6.92050,154703
6.92862,148235
6.93675,153232
6.94487,145702
6.95300,145432
6.96112,156404
6.96923,172501
6.97737,193538
6.98548,214783
6.99362,222908
7.00173,217905
7.00985,198773
7.01798,182427
7.02610,161831
7.03423,151828
7.04235,146401
7.05047,160414
7.05860,189220
7.06672,224842
7.07483,270411
7.08297,299160
7.09108,313201
7.09922,283828
7.10733,253805
7.11545,216296
7.12358,178411
7.13170,171857
7.13983,168474
7.14795,182513
7.15607,232870
7.16420,279730
7.17232,333804
7.18043,334683
7.18857,326429
7.19668,453359
7.20482,997839
7.21293,2239987
7.22105,4063884
7.22918,5362699
7.23730,5242535
7.24543,3909018
7.25355,2485814
7.26167,1416011
7.26980,767435
7.27792,422938
7.28605,277212
7.29417,238650
7.30228,218477
7.31042,210234
7.31853,218597
7.32665,217450
7.33478,246257
7.34290,261579
7.35103,270552
7.35915,278883
7.36727,256643
7.37540,241357
7.38352,220031
7.39165,204369
7.39977,187669
7.40788,193781
7.41602,184522
7.42413,175317
7.43227,171365
7.44038,174976
7.44850,174579
7.45663,176422
7.46475,173203
7.47287,170572
7.48100,167919
7.48912,165143
7.49725,157320
7.50537,158350
7.51348,159398
7.52162,172449
7.52973,252284
7.53787,467108
7.54598,943879
7.55410,1805443
7.56223,2886180
7.57035,4020849
7.57848,4670379
7.58660,4623614
7.59472,3873609
7.60285,2953282
7.61097,2049722
7.61908,1392096
7.62722,971508
7.63533,712301
7.64347,551122
7.65158,443533
7.65970,376859
7.66783,314238
7.67595,271223
7.68408,246035
7.69220,216070
7.70032,193802
7.70845,184613
7.71657,177312
7.72468,197388
7.73282,206190
7.74093,237446
7.74907,270739
7.75718,304185
7.76530,325070
7.77343,327021
7.78155,320922
7.78968,311801
7.79780,295970
7.80592,285567
7.81405,282222
7.82217,284903
7.83030,264445
7.83842,256427
7.84653,279383
7.85467,318656
7.86278,407955
7.87090,548025
7.87903,776031
7.88715,1107411
7.89528,1458162
7.90340,1611212
7.91152,1508698
7.91965,1202338
7.92777,861337
7.93590,621511
7.94402,486044
7.95213,414165
7.96027,367381
7.96838,326020
7.97650,280666
7.98463,246234
7.99275,221700
8.00088,214795
8.00900,217175
8.01712,227099
8.02525,238283
8.03337,239619
8.04150,230372
8.04962,226243
8.05773,221762
8.06587,215872
8.07398,211855
8.08212,214051
8.09023,211558
8.09835,202120
8.10648,200211
8.11460,191935
8.12272,197213
8.13085,192496
8.13897,201071
8.14710,206856
8.15522,210429
8.16333,213307
8.17147,199624
8.17958,194707
8.18772,182036
8.19583,180969
8.20395,172271
8.21208,169522
8.22020,163364
8.22833,161900
8.23645,171373
8.24457,165104
8.25270,159451
8.26082,159914
8.26893,153572
8.27707,152183
8.28518,147160
8.29332,144627
8.30143,149976
8.30955,150229
8.31768,152888
8.32580,156220
8.33393,158628
8.34205,156349
8.35017,158809
8.35830,153294
8.36642,141845
8.37453,138230
8.38267,139796
8.39078,137511
8.39892,133971
8.40703,127602
8.41515,122922
8.42328,125611
8.43140,122818
8.43953,123436
8.44765,124516
8.45577,124007
8.46390,125325
8.47202,125454
8.48015,125280
8.48827,121091
8.49638,127889
8.50452,132580
8.51263,183608
8.52075,386714
8.52888,977936
8.53700,1994014
8.54513,3105975
8.55325,3726828
8.56137,3323091
8.56950,2262165
8.57762,1294633
8.58575,746234
8.59387,482736
8.60198,391706
8.61012,362446
8.61823,332429
8.62637,314947
8.63448,300641
8.64260,272346
8.65073,257626
8.65885,251417
8.66697,230029
8.67510,218585
8.68322,208890
8.69135,199274
8.69947,196690
8.70758,191401
8.71572,187370
8.72383,182039
8.73197,172647
8.74008,185128
8.74820,167115
8.75633,190115
8.76445,232729
8.77257,318324
8.78070,538410
8.78882,844457
8.79695,1152070
8.80507,1229071
8.81318,1126297
8.82132,898770
8.82943,691930
8.83757,570194
8.84568,516857
8.85380,497352
8.86193,472927
8.87005,448371
8.87818,426423
8.88630,396299
8.89442,387062
8.90255,364268
8.91067,344731
8.91878,334275
8.92692,330590
8.93503,322508
8.94317,347917
8.95128,332657
8.95940,330011
8.96753,302739
8.97565,293007
8.98378,305151
8.99190,280729
9.00002,295623
9.00815,282891
9.01627,269374
9.02438,256707
9.03252,251188
9.04063,236734
9.04877,237594
9.05688,221738
9.06500,218850
9.07313,221748
9.08125,218866
9.08938,226465
9.09750,217169
9.10562,237659
9.11375,259529
9.12187,285468
9.13000,306860
9.13812,294868
9.14623,286676
9.15437,285703
9.16248,278254
9.17060,268730
9.17873,254717
9.18685,237632
9.19498,226116
9.20310,220787
9.21122,219663
9.21935,210102
9.22747,209704
9.23560,196844
9.24372,200762
9.25183,203102
9.25997,203551
9.26808,195651
9.27622,190270
9.28433,187845
9.29245,190906
9.30058,183634
9.30870,177858
9.31682,171848
9.32495,168116
9.33307,167719
9.34120,166658
9.34932,161749
9.35743,175478
9.36557,164428
9.37368,161847
9.38182,170005
9.38993,157221
9.39805,162124
9.40618,170602
9.41430,193374
9.42242,224443
9.43055,276901
9.43867,360318
9.44680,442775
9.45492,500046
9.46303,480303
9.47117,440078
9.47928,356471
9.48742,282940
9.49553,229371
9.50365,203532
9.51178,197192
9.51990,203008
9.52803,206012
9.53615,214067
9.54427,224358
9.55240,220943
9.56052,211609
9.56863,201249
9.57677,187264
9.58488,175122
9.59302,152997
9.60113,136575
9.60925,134251
9.61738,130574
9.62550,126480
9.63363,124808
9.64175,121954
9.64987,114866
9.65800,119601
9.66612,114401
9.67425,114729
9.68237,113392
9.69048,108966
9.69862,103841
9.70673,107046
9.71485,102134
9.72298,105673
9.73110,102377
9.73923,106091
9.74735,106033
9.75547,102224
9.76360,97475
9.77172,94480
9.77985,103161
9.78797,99358
9.79608,98324
9.80422,96965
9.81233,95397
9.82045,94300
9.82858,92364
9.83670,95030
9.84483,97140
9.85295,104563
9.86107,114366
9.86920,122149
9.87732,126199
9.88545,115045
9.89357,111426
9.90168,102553
9.90982,97518
9.91793,95218
9.92607,95888
9.93418,106903
9.94230,129348
9.95043,171919
9.95855,212485
9.96667,240250
9.97480,255359
9.98292,246517
9.99105,224053
9.99917,201507
10.00728,194769
10.01542,186520
10.02353,205595
10.03167,180077
10.03978,171827
10.04790,160822
10.05603,163431
10.06415,159580
10.07228,156919
10.08040,152837
10.08852,156833
10.09665,155593
10.10477,152696
10.11288,141711
10.12102,131701
10.12913,137785
10.13727,127174
10.14538,121712
10.15350,120167
10.16163,123654
10.16975,117843
10.17788,112317
10.18600,107578
10.19412,115897
10.20225,107493
10.21037,112107
10.21848,110399
10.22662,101283
10.23473,107765
10.24287,122236
10.25098,146203
10.25910,245943
10.26723,587950
10.27535,1582033
10.28348,3621740
10.29160,6892163
10.29972,1.069016E+07
10.30785,1.433918E+07
10.31597,1.813912E+07
10.32410,2.20261E+07
10.33222,2.730108E+07
10.34033,3.347584E+07
10.34847,3.999293E+07
10.35658,4.419186E+07
10.36470,4.242615E+07
10.37283,3.247331E+07
10.38095,1.883401E+07
10.38908,1.028414E+07
10.39720,6823255
10.40532,4940607
10.41345,3754242
10.42157,2873381
10.42970,2351020
10.43782,2079632
10.44593,1967070
10.45407,1992993
10.46218,2038489
10.47030,1961480
10.47843,1847968
10.48655,1627705
10.49468,1455989
10.50280,1281335
10.51092,1165118
10.51905,1072318
10.52717,1001861
10.53530,937655
10.54342,895309
10.55153,843592
10.55967,796823
10.56778,762689
10.57592,730217
10.58403,694397
10.59215,662851
10.60028,637546
10.60840,608769
10.61652,588350
10.62465,564747
10.63277,551593
10.64090,529657
10.64902,501052
10.65713,485064
10.66527,462626
10.67338,452530
10.68152,447874
10.68963,435940
10.69775,422588
10.70588,428814
10.71400,423799
10.72213,407565
10.73025,412444
10.73837,395838
10.74650,375732
10.75462,363574
10.76273,348135
10.77087,331078
10.77898,332660
10.78712,323862
10.79523,310440
10.80335,308984
10.81148,310965
10.81960,312899
10.82773,321206
10.83585,304599
10.84397,293689
10.85210,277741
10.86022,270173
10.86833,268140
10.87647,259143
10.88458,247724
10.89272,240828
10.90083,240115
10.90895,238329
10.91708,233712
10.92520,223668
10.93333,232175
10.94145,228607
10.94957,233160
10.95770,237209
10.96582,240600
10.97395,272021
10.98207,284232
10.99018,301350
10.99832,287660
11.00643,280845
11.01455,268655
11.02268,250176
11.03080,249747
11.03893,234601
11.04705,216131
11.05517,220873
11.06330,212008
11.07142,214436
11.07955,219965
11.08767,214526
11.09578,219745
11.10392,223537
11.11203,219682
11.12017,215620
11.12828,210226
11.13640,195566
11.14453,176103
11.15265,168989
11.16077,163492
11.16890,163429
11.17702,156221
11.18515,161920
11.19327,161369
11.20138,164758
11.20952,157184
11.21763,153822
11.22577,147512
11.23388,146706
11.24200,139983
11.25013,137428
11.25825,125094
11.26637,122670
11.27450,119866
11.28262,112418
11.29075,124110
11.29887,133893
11.30698,179866
11.31512,296072
11.32323,570718
11.33137,1057950
11.33948,1731011
11.34760,2375161
11.35573,2746435
11.36385,2636089
11.37198,2240457
11.38010,1727457
11.38822,1318856
11.39635,1089536
11.40447,970294
11.41258,916619
11.42072,845005
11.42883,772704
11.43697,689756
11.44508,588643
11.45320,518169
11.46133,467968
11.46945,429189
11.47758,402016
11.48570,398755
11.49382,412453
11.50195,425126
11.51007,458602
11.51818,464216
11.52632,440774
11.53443,425091
11.54257,381733
11.55068,353591
11.55880,335391
11.56693,325010
11.57505,300911
11.58318,301830
11.59130,288626
11.59942,280066
11.60755,296560
11.61567,322899
11.62380,342487
11.63192,341827
11.64003,316846
11.64817,293824
11.65628,262699
11.66440,247090
11.67253,226244
11.68065,230891
11.68878,211173
11.69690,214739
11.70502,219705
11.71315,217065
11.72127,197043
11.72940,190902
11.73752,179413
11.74563,175240
11.75377,166454
11.76188,160175
11.77002,156325
11.77813,158870
11.78625,146243
11.79438,145941
11.80250,146422
11.81062,140772
11.81875,139836
11.82687,129668
11.83500,135706
11.84312,134479
11.85123,125309
11.85937,129420
11.86748,125757
11.87562,127708
11.88373,128487
11.89185,126510
11.89998,134087
11.90810,150102
11.91623,185470
11.92435,247401
11.93247,308305
11.94060,341642
11.94872,346575
11.95683,300572
11.96497,250462
11.97308,254360
11.98122,368620
11.98933,728479
11.99745,1508764
12.00558,2665433
12.01370,3827212
12.02183,4755578
12.02995,4706877
12.03807,3764878
12.04620,2920815
12.05432,2315594
12.06243,1869858
12.07057,1502730
12.07868,1340941
12.08682,1243232
12.09493,1185403
12.10305,1124047
12.11118,1109880
12.11930,1166186
12.12743,1196384
12.13555,1304441
12.14367,1378162
12.15180,1350985
12.15992,1273725
12.16805,1127501
12.17617,974494
12.18428,900947
12.19242,860321
12.20053,828215
12.20865,824801
12.21678,793347
12.22490,793760
12.23303,732636
12.24115,674229
12.24927,689573
12.25740,681988
12.26552,672520
12.27365,636330
12.28177,608495
12.28988,608044
12.29802,560408
12.30613,539404
12.31425,520505
12.32238,505539
12.33050,503900
12.33863,488461
12.34675,471203
12.35487,478833
12.36300,447951
12.37112,450268
12.37925,443876
12.38737,426883
12.39548,427491
12.40362,420938
12.41173,418546
12.41987,443488
12.42798,437380
12.43610,443591
12.44423,447838
12.45235,427706
12.46047,404975
12.46860,399947
12.47672,381673
12.48485,363407
12.49297,372390
12.50108,381408
12.50922,369343
12.51733,384456
12.52547,373330
12.53358,374563
12.54170,362521
12.54983,357094
12.55795,336946
12.56608,320854
12.57420,323246
12.58232,329947
12.59045,317000
12.59857,305910
12.60668,301259
12.61482,292312
12.62293,283902
12.63107,279374
12.63918,277468
12.64730,276936
12.65543,280723
12.66355,258504
12.67168,237482
12.67980,219945
12.68792,203255
12.69605,173351
12.70417,160432
12.71228,152066
12.72042,145209
12.72853,138763
12.73667,140660
12.74478,140754
12.75290,144626
12.76103,136752
12.76915,141705
12.77728,124201
12.78540,128065
12.79352,119268
12.80165,124701
12.80977,123475
12.81790,121244
12.82602,119969
12.83413,114587
12.84227,111520
12.85038,110451
12.85850,103313
12.86663,104476
12.87475,100671
12.88288,99197
12.89100,105615
12.89912,105745
12.90725,103956
12.91537,106438
12.92350,103009
12.93162,102229
12.93973,101019
12.94787,109030
12.95598,111003
12.96412,132299
12.97223,156264
12.98035,190840
12.98848,219381
12.99660,224934
13.00472,214815
13.01285,184752
13.02097,158585
13.02910,146564
13.03722,133947
13.04533,128617
13.05347,124459
13.06158,125273
13.06972,118298
13.07783,116403
13.08595,108443
13.09408,110849
13.10220,117502
13.11032,111261
13.11845,107943
13.12657,104599
13.13470,104218
13.14282,102941
13.15093,100718
13.15907,102166
13.16718,98519
13.17532,107468
13.18343,106388
13.19155,107434
13.19968,113437
13.20780,112237
13.21593,119335
13.22405,120452
13.23217,118443
13.24030,119208
13.24842,107989
13.25653,111465
13.26467,107445
13.27278,101769
13.28092,105720
13.28903,104567
13.29715,98227
13.30528,99696
13.31340,90688
13.32153,91574
13.32965,95951
13.33777,95030
13.34590,90786
13.35402,91000
13.36213,93230
13.37027,90791
13.37838,89316
13.38652,96459
13.39463,86229
13.40275,91393
13.41088,93590
13.41900,89060
13.42713,91238
13.43525,97454
13.44337,90176
13.45150,91834
13.45962,93456
13.46775,87546
13.47587,95998
13.48398,100386
13.49212,97012
13.50023,94791
13.50835,95980
13.51648,93566
13.52460,96638
13.53273,93212
13.54085,88367
13.54897,94467
13.55710,89303
13.56522,85382
13.57335,99593
13.58147,98516
13.58958,108197
13.59772,125156
13.60583,150960
13.61397,183202
13.62208,206080
13.63020,224586
13.63833,208074
13.64645,180773
13.65457,155628
13.66270,135828
13.67082,115842
13.67895,114661
13.68707,106689
13.69518,101360
13.70332,104812
13.71143,102080
13.71957,103996
13.72768,101035
13.73580,116671
13.74393,151566
13.75205,264973
13.76017,541680
13.76830,980032
13.77642,1670565
13.78455,2253168
13.79267,2532142
13.80078,2491883
13.80892,2320450
13.81703,1870939
13.82517,1562059
13.83328,1433181
13.84140,1303621
13.84953,1239621
13.85765,1192987
13.86578,1086959
13.87390,985087
13.88202,918693
13.89015,788988
13.89827,726890
13.90638,631881
13.91452,583992
13.92263,550654
13.93077,507373
13.93888,493975
13.94700,489845
13.95513,534173
13.96325,645591
13.97138,877973
13.97950,1288761
13.98762,1592194
13.99575,1745622
14.00387,1599366
14.01200,1486438
14.02012,1154309
14.02823,937860
14.03637,849937
14.04448,709361
14.05260,656622
14.06073,613851
14.06885,594532
14.07698,596126
14.08510,579482
14.09322,535984
14.10135,505544
14.10947,495133
14.11760,480503
14.12572,473364
14.13383,530292
14.14197,553831
14.15008,633812
14.15820,714767
14.16633,766005
14.17445,777218
14.18258,736232
14.19070,691736
14.19882,719068
14.20695,770201
14.21507,828724
14.22320,861740
14.23132,856184
14.23943,737835
14.24757,674150
14.25568,577732
14.26382,545833
14.27193,495018
14.28005,445303
14.28818,415809
14.29630,384175
14.30442,368702
14.31255,357617
14.32067,346428
14.32880,322689
14.33692,336418
14.34503,314254
14.35317,298595
14.36128,274482
14.36942,264887
14.37753,246017
14.38565,228481
14.39378,218968
14.40190,224891
14.41003,218151
14.41815,212946
14.42627,212718
14.43440,219285
14.44252,196937
14.45063,185834
14.45877,163362
14.46688,160908
14.47502,166115
14.48313,154340
14.49125,153173
14.49938,151158
14.50750,163210
14.51563,172661
14.52375,216780
14.53187,227540
14.54000,234596
14.54812,245882
14.55623,210463
14.56437,194524
14.57248,187420
14.58062,180693
14.58873,153074
14.59685,152971
14.60498,148656
14.61310,139770
14.62123,137425
14.62935,130646
14.63747,126301
14.64560,123140
14.65372,118183
14.66185,118013
14.66997,122229
14.67808,118980
14.68622,117464
14.69433,116032
14.70245,113782
14.71058,116835
14.71870,114677
14.72683,121473
14.73495,118522
14.74307,124928
14.75120,143493
14.75932,145191
14.76745,153883
14.77557,156180
14.78368,154373
14.79182,174584
14.79993,267206
14.80805,547004
14.81618,1174899
14.82430,2272835
14.83243,3480948
14.84055,4318483
14.84867,4500720
14.85680,4001174
14.86492,3091162
14.87305,2224803
14.88117,1572038
14.88928,1161092
14.89742,933783
14.90553,811845
14.91367,697924
14.92178,613920
14.92990,562249
14.93803,521819
14.94615,490631
14.95427,444431
14.96240,429253
14.97052,394572
14.97865,376435
14.98677,354495
14.99488,339868
15.00302,322829
15.01113,311676
15.01927,284106
15.02738,284680
15.03550,280544
15.04363,265810
15.05175,257160
15.05988,254721
15.06800,246873
15.07612,241164
15.08425,224683
15.09237,222424
15.10048,212610
15.10862,206231
15.11673,197060
15.12487,196815
15.13298,191823
15.14110,215595
15.14923,208926
15.15735,204557
15.16548,193207
15.17360,181615
15.18172,157586
15.18985,144330
15.19797,137012
15.20608,130303
15.21422,123101
15.22233,120138
15.23047,116030
15.23858,115891
15.24670,107669
15.25483,107996
15.26295,104881
15.27108,110239
15.27920,101465
15.28732,99685
15.29545,101998
15.30357,96492
15.31170,99574
15.31982,100949
15.32793,94994
15.33607,92483
15.34418,92241
15.35230,92853
15.36043,93629
15.36855,92412
15.37668,90345
15.38480,94773
15.39292,91548
15.40105,91407
15.40917,86686
15.41730,89351
15.42542,90757
15.43353,95543
15.44167,96607
15.44978,92692
15.45792,96030
15.46603,106123
15.47415,119320
15.48228,155718
15.49040,210428
15.49852,289533
15.50665,366557
15.51477,434294
15.52290,449712
15.53102,440066
15.53913,415055
15.54727,368450
15.55538,332663
15.56352,287336
15.57163,255657
15.57975,225651
15.58788,202212
15.59600,186502
15.60412,171565
15.61225,154976
15.62037,152451
15.62850,146390
15.63662,140314
15.64473,140106
15.65287,132896
15.66098,125294
15.66912,128767
15.67723,117647
15.68535,117172
15.69348,109975
15.70160,111907
15.70973,106270
15.71785,103302
15.72597,110396
15.73410,103080
15.74222,103346
15.75033,107845
15.75847,127263
15.76658,167959
15.77472,236549
15.78283,345379
15.79095,499185
15.79908,631316
15.80720,668002
15.81533,619143
15.82345,525840
15.83157,415662
15.83970,321951
15.84782,279455
15.85593,232077
15.86407,209578
15.87218,191558
15.88032,188733
15.88843,174781
15.89655,168898
15.90468,160342
15.91280,154247
15.92093,152934
15.92905,152016
15.93717,141362
15.94530,146765
15.95342,147941
15.96155,164792
15.96967,195317
15.97778,226113
15.98592,263106
15.99403,277101
16.00215,279180
16.01028,266318
16.01840,253474
16.02653,228848
16.03465,210672
16.04277,202027
16.05090,199477
16.05902,180087
16.06715,167866
16.07527,161882
16.08338,150783
16.09152,148855
16.09963,153473
16.10777,174139
16.11588,202537
16.12400,244691
16.13213,273648
16.14025,302643
16.14837,304036
16.15650,256799
16.16462,227593
16.17275,198810
16.18087,176769
16.18898,163947
16.19712,151706
16.20523,146705
16.21337,135016
16.22148,131616
16.22960,126991
16.23773,126771
16.24585,129339
16.25397,123989
16.26210,124968
16.27022,119268
16.27835,119937
16.28647,118785
16.29458,128337
16.30272,131843
16.31083,137308
16.31897,133015
16.32708,128369
16.33520,123804
16.34333,129592
16.35145,127361
16.35958,129867
16.36770,150694
16.37582,187987
16.38395,226967
16.39207,273358
16.40018,296142
16.40832,305245
16.41643,280010
16.42457,245843
16.43268,203382
16.44080,180189
16.44893,169201
16.45705,173147
16.46518,204973
16.47330,293976
16.48142,474132
16.48955,692254
16.49767,849854
16.50580,916929
16.51392,807770
16.52203,629253
16.53017,463247
16.53828,345190
16.54640,282352
16.55453,233817
16.56265,215027
16.57078,196519
16.57890,186858
16.58702,174674
16.59515,167744
16.60327,165896
16.61140,158652
16.61952,162233
16.62763,158668
16.63577,155324
16.64388,155078
16.65200,156866
16.66013,146612
16.66825,137589
16.67638,134009
16.68450,129453
16.69262,131429
16.70075,122936
16.70887,124302
16.71700,116031
16.72512,115358
16.73323,110515
16.74137,106315
16.74948,102188
16.75762,101996
16.76573,104532
16.77385,109514
16.78198,107834
16.79010,109811
16.79822,101292
16.80635,109724
16.81447,99362
16.82260,96763
16.83072,102324
16.83883,95585
16.84697,92309
16.85508,101098
16.86322,99016
16.87133,98868
16.87945,100357
16.88758,100521
16.89570,98403
16.90382,93206
16.91195,94389
16.92007,92459
16.92820,94095
16.93632,88997
16.94443,93551
16.95257,95050
16.96068,94763
16.96882,97992
16.97693,95000
16.98505,92095
16.99318,86968
17.00130,90511
17.00943,91299
17.01755,93274
17.02567,88447
17.03380,88573
17.04192,89958
17.05003,91153
17.05817,97886
17.06628,92606
17.07442,91701
17.08253,98860
17.09065,100758
17.09878,106506
17.10690,117277
17.11503,142500
17.12315,155751
17.13127,172522
17.13940,184795
17.14752,196691
17.15565,189686
17.16377,171753
17.17188,166654
17.18002,153455
17.18813,135387
17.19625,133940
17.20438,114500
17.21250,114265
17.22063,102570
17.22875,104841
17.23687,100505
17.24500,93021
17.25312,93529
17.26125,100576
17.26937,96055
17.27748,92708
17.28562,94488
17.29373,93948
17.30187,93248
17.30998,92943
17.31810,97290
17.32623,110398
17.33435,124366
17.34247,146299
17.35060,162529
17.35872,160417
17.36685,166367
17.37497,153669
17.38308,153729
17.39122,151157
17.39933,139777
17.40747,137226
17.41558,138999
17.42370,143098
17.43183,141169
17.43995,136774
17.44807,141094
17.45620,131277
17.46432,132426
17.47245,119140
17.48057,116002
17.48868,111933
17.49682,102288
17.50493,103184
17.51307,94302
17.52118,94544
17.52930,101375
17.53743,95733
17.54555,95519
17.55368,94117
17.56180,92993
17.56992,96290
17.57805,102276
17.58617,106919
17.59428,127349
17.60242,169631
17.61053,348803
17.61867,3714442
17.62678,2.355378E+07
17.63490,3.083049E+07
17.64303,3.057853E+07
17.65115,2.944597E+07
17.65928,2.850748E+07
17.66740,2.664358E+07
17.67552,2.548029E+07
17.68365,2.418049E+07
17.69177,2.267964E+07
17.69988,2.159171E+07
17.70802,2.012532E+07
17.71613,1.890523E+07
17.72427,1.769067E+07
17.73238,1.652345E+07
17.74050,1.565716E+07
17.74863,1.469353E+07
17.75675,1.37827E+07
17.76488,1.255751E+07
17.77300,1.188245E+07
17.78112,1.077076E+07
17.78925,9965708
17.79737,9315281
17.80550,8955237
17.81362,8510081
17.82173,7971842
17.82987,7423253
17.83798,6996685
17.84610,6579168
17.85423,6308243
17.86235,6135480
17.87048,5905466
17.87860,5456862
17.88672,5137846
17.89485,4958002
17.90297,4745536
17.91110,4487055
17.91922,4264848
17.92733,4047527
17.93547,3955489
17.94358,3736667
17.95172,3629993
17.95983,3482500
17.96795,3347727
17.97608,3237181
17.98420,3138153
17.99232,2993525
18.00045,2895424
18.00857,2776797
18.01670,2729868
18.02482,2627231
18.03293,2571748
18.04107,2496299
18.04918,2435522
18.05732,2379758
18.06543,2315063
18.07355,2215673
18.08168,2107862
18.08980,2097351
18.09792,2014593
18.10605,1965054
18.11417,1935734
18.12230,1888226
18.13042,1845910
18.13853,1805167
18.14667,1773609
18.15478,1703278
18.16292,1629503
18.17103,1602489
18.17915,1543956
18.18728,1536189
18.19540,1493180
18.20353,1436237
18.21165,1398653
18.21977,1349566
18.22790,1308674
18.23602,1269801
18.24413,1221694
18.25227,1190990
18.26038,1180372
18.26852,1139662
18.27663,1135672
18.28475,1117326
18.29288,1081398
18.30100,1031561
18.30913,1019377
18.31725,970694
18.32537,976766
18.33350,943099
18.34162,912968
18.34975,886633
18.35787,883769
18.36598,874607
18.37412,843776
18.38223,834324
18.39035,804686
18.39848,814678
18.40660,787590
18.41473,779812
18.42285,770945
18.43097,773872
18.43910,781445
18.44722,777502
18.45535,792111
18.46347,800698
18.47158,842445
18.47972,862812
18.48783,868540
18.49595,896492
18.50408,854869
18.51220,820437
18.52033,763793
18.52845,717126
18.53657,695787
18.54470,657410
18.55282,638915
18.56095,623971
18.56907,610708
18.57718,610700
18.58532,579203
18.59343,583911
18.60157,595841
18.60968,583264
18.61780,598051
18.62593,603069
18.63405,607207
18.64217,597861
18.65030,571262
18.65842,556133
18.66655,553503
18.67467,523126
18.68278,519660
18.69092,503627
18.69903,491462
18.70717,479893
18.71528,479441
18.72340,452168
18.73153,465504
18.73965,451483
18.74777,450517
18.75590,450965
18.76402,445254
18.77215,433033
18.78027,431259
18.78838,423449
18.79652,413409
18.80463,423130
18.81277,413904
18.82088,414925
18.82900,402444
18.83713,406784
18.84525,401678
18.85338,395200
18.86150,397315
18.86962,385283
18.87775,387090
18.88587,394521
18.89398,390803
18.90212,371437
18.91023,378504
18.91837,374225
18.92648,388461
18.93460,399352
18.94273,413460
18.95085,454683
18.95898,490444
18.96710,540869
18.97522,552922
18.98335,538586
18.99147,489118
18.99960,479486
19.00772,431893
19.01583,413482
19.02397,400389
19.03208,380465
19.04020,375732
19.04833,365666
19.05645,354943
19.06458,366140
19.07270,359884
19.08082,365809
19.08895,414093
19.09707,483633
19.10520,572091
19.11332,641115
19.12143,662988
19.12957,629564
19.13768,558910
19.14580,507660
19.15393,459467
19.16205,431214
19.17018,400167
19.17830,380412
19.18642,367827
19.19455,362783
19.20267,358675
19.21080,343564
19.21892,330298
19.22703,321828
19.23517,312775
19.24328,307901
19.25142,291332
19.25953,293223
19.26765,279526
19.27578,295883
19.28390,287660
19.29202,287251
19.30015,297977
19.30827,300115
19.31640,296732
19.32452,295015
19.33263,293242
19.34077,288093
19.34888,285566
19.35702,293988
19.36513,316643
19.37325,349686
19.38138,368448
19.38950,380702
19.39763,368562
19.40575,360200
19.41387,344967
19.42200,325514
19.43012,320738
19.43823,303054
19.44637,295967
19.45448,291399
19.46262,287154
19.47073,296260
19.47885,282042
19.48698,292773
19.49510,316323
19.50323,337963
19.51135,387625
19.51947,439161
19.52760,479907
19.53572,489209
19.54383,440395
19.55197,388772
19.56008,335254
19.56822,301470
19.57633,273204
19.58445,266649
19.59258,254357
19.60070,247000
19.60883,236645
19.61695,238632
19.62507,245162
19.63320,256525
19.64132,316251
19.64945,416786
19.65757,605090
19.66568,855206
19.67382,1092259
19.68193,1284098
19.69005,1322218
19.69818,1241024
19.70630,1070385
19.71443,894783
19.72255,718678
19.73067,588355
19.73880,517796
19.74692,465411
19.75505,423169
19.76317,390772
19.77128,368957
19.77942,344440
19.78753,336347
19.79567,326872
19.80378,339250
19.81190,364945
19.82003,345759
19.82815,343074
19.83627,321950
19.84440,300217
19.85252,284120
19.86065,270542
19.86877,264383
19.87688,265175
19.88502,273192
19.89313,290771
19.90127,308177
19.90938,325567
19.91750,330105
19.92563,331685
19.93375,328943
19.94187,309192
19.95000,295772
19.95812,290264
19.96625,261654
19.97437,254829
19.98248,252940
19.99062,256661
19.99873,244595
20.00687,253761
20.01498,248709
20.02310,247798
20.03123,260886
20.03935,261426
20.04748,255989
20.05560,261353
20.06372,257748
20.07185,264820
20.07997,299517
20.08808,339796
20.09622,365056
20.10433,372221
20.11247,365724
20.12058,350050
20.12870,326025
20.13683,300427
20.14495,296338
20.15308,318302
20.16120,391877
20.16932,519504
20.17745,755505
20.18557,1067213
20.19368,1439640
20.20182,1808664
20.20993,1994640
20.21807,2038223
20.22618,1844359
20.23430,1546087
20.24243,1292969
20.25055,1145178
20.25868,1139838
20.26680,1262514
20.27492,1446869
20.28305,1726207
20.29117,1845284
20.29930,1859974
20.30742,1716608
20.31553,1438699
20.32367,1142984
20.33178,897878
20.33990,684605
20.34803,563909
20.35615,452986
20.36428,406845
20.37240,356882
20.38052,320959
20.38865,298423
20.39677,280970
20.40490,278983
20.41302,271336
20.42113,277217
20.42927,279411
20.43738,283214
20.44552,299477
20.45363,314485
20.46175,320700
20.46988,319771
20.47800,309810
20.48612,288691
20.49425,259805
20.50237,250909
20.51050,236567
20.51862,222338
20.52673,208480
20.53487,203436
20.54298,199913
20.55112,193918
20.55923,190522
20.56735,187286
20.57548,187941
20.58360,189261
20.59172,183046
20.59985,173609
20.60797,184388
20.61610,180023
20.62422,173000
20.63233,182906
20.64047,179482
20.64858,175970
20.65672,171947
20.66483,176800
20.67295,176534
20.68108,174398
20.68920,171926
20.69733,171139
20.70545,170645
20.71357,162911
20.72170,156429
20.72982,162413
20.73793,160788
20.74607,159558
20.75418,160056
20.76232,165796
20.77043,172453
20.77855,177037
20.78668,191908
20.79480,226097
20.80293,279322
20.81105,357676
20.81917,459464
20.82730,532014
20.83542,523222
20.84355,477486
20.85167,409968
20.85978,320315
20.86792,259774
20.87603,224453
20.88415,202899
20.89228,200705
20.90040,189868
20.90853,186381
20.91665,183658
20.92477,187930
20.93290,192522
20.94102,192382
20.94915,202561
20.95727,200990
20.96538,198469
20.97352,191162
20.98163,188912
20.98975,181363
20.99788,168262
21.00600,168043
21.01413,162144
21.02225,161143
21.03037,159293
21.03850,162274
21.04662,168060
21.05475,162781
21.06287,162955
21.07098,164872
21.07912,166577
21.08723,164426
21.09537,161185
21.10348,162492
21.11160,153052
21.11973,156520
21.12785,158335
21.13597,167116
21.14410,194147
21.15222,234389
21.16035,294840
21.16847,326464
21.17658,353354
21.18472,345297
21.19283,312942
21.20097,278045
21.20908,243385
21.21720,218452
21.22533,202043
21.23345,189582
21.24157,178439
21.24970,176357
21.25782,165420
21.26595,165837
21.27407,159577
21.28218,160561
21.29032,159894
21.29843,153870
21.30657,158847
21.31468,145827
21.32280,154297
21.33093,145680
21.33905,151719
21.34718,148625
21.35530,146329
21.36342,143970
21.37155,151639
21.37967,152424
21.38778,156175
21.39592,164504
21.40403,199237
21.41217,226907
21.42028,274247
21.42840,311339
21.43653,305918
21.44465,293089
21.45278,261588
21.46090,225025
21.46902,200714
21.47715,189012
21.48527,177677
21.49340,168149
21.50152,167157
21.50963,164336
21.51777,161149
21.52588,160741
21.53400,160587
21.54213,163473
21.55025,155283
21.55838,156462
21.56650,144188
21.57462,145961
21.58275,142519
21.59087,151237
21.59900,148691
21.60712,155986
21.61523,159509
21.62337,164245
21.63148,180664
21.63960,207644
21.64773,225507
21.65585,229759
21.66398,237584
21.67210,233081
21.68022,217320
21.68835,206251
21.69647,198746
21.70460,179613
21.71272,171903
21.72083,163881
21.72897,152406
21.73708,151809
21.74522,152906
21.75333,147248
21.76145,145423
21.76958,144993
21.77770,152723
21.78582,156539
21.79395,167586
21.80207,174457
21.81020,188217
21.81832,192519
21.82643,202667
21.83457,209018
21.84268,227145
21.85082,231841
21.85893,232143
21.86705,218546
21.87518,196275
21.88330,174933
21.89143,159096
21.89955,151019
21.90767,141065
21.91580,140152
21.92392,129605
21.93203,128054
21.94017,126612
21.94828,127416
21.95642,124775
21.96453,120842
21.97265,113255
21.98078,118652
21.98890,108947
21.99703,106993
22.00515,111069
22.01327,110576
22.02140,112732
22.02952,113605
22.03763,117524
22.04577,118391
22.05388,121971
22.06202,136157
22.07013,132378
22.07825,144605
22.08638,148162
22.09450,163238
22.10263,173410
22.11075,167086
22.11887,163879
22.12700,167804
22.13512,159007
22.14325,161447
22.15137,156679
22.15948,154108
22.16762,148790
22.17573,143979
22.18385,139637
22.19198,136867
22.20010,133735
22.20823,131499
22.21635,128201
22.22447,129754
22.23260,129168
22.24072,124507
22.24885,127526
22.25697,129106
22.26508,120495
22.27322,121533
22.28133,113228
22.28945,116064
22.29758,116163
22.30570,119052
22.31383,119848
22.32195,117833
22.33007,126393
22.33820,117933
22.34632,111614
22.35445,109442
22.36257,113606
22.37068,111709
22.37882,109179
22.38693,111728
22.39507,119180
22.40318,127196
22.41130,150277
22.41943,174154
22.42755,194549
22.43567,213094
22.44380,210443
22.45192,206849
22.46005,198633
22.46817,190898
22.47628,177725
22.48442,169256
22.49253,166985
22.50067,158305
22.50878,159145
22.51690,160947
22.52503,153603
22.53315,152838
22.54128,151708
22.54940,158556
22.55752,150932
22.56565,155006
22.57377,145755
22.58188,147741
22.59002,141300
22.59813,139457
22.60627,136344
22.61438,132308
22.62250,134906
22.63063,126814
22.63875,132806
22.64688,127848
22.65500,132777
22.66312,130828
22.67125,126280
22.67937,134984
22.68750,136602
22.69562,139696
22.70373,152860
22.71187,159652
22.71998,171808
22.72810,184162
22.73623,180233
22.74435,171846
22.75248,171792
22.76060,164113
22.76872,160519
22.77685,161446
22.78497,162513
22.79310,178781
22.80122,203524
22.80933,225708
22.81747,252909
22.82558,256229
22.83370,259694
22.84183,235098
22.84995,219078
22.85808,207033
22.86620,189234
22.87432,195217
22.88245,186774
22.89057,210799
22.89870,228856
22.90682,244338
22.91493,260282
22.92307,279972
22.93118,304182
22.93932,306987
22.94743,299311
22.95555,288303
22.96368,258135
22.97180,246234
22.97992,220612
22.98805,211726
22.99617,202449
23.00430,187096
23.01242,174073
23.02053,175579
23.02867,171079
23.03678,172085
23.04492,147839
23.05303,140462
23.06115,145476
23.06928,144231
23.07740,146655
23.08552,154419
23.09365,157468
23.10177,164230
23.10990,161134
23.11802,161054
23.12613,155301
23.13427,160765
23.14238,151518
23.15052,153393
23.15863,147744
23.16675,161109
23.17488,151830
23.18300,151713
23.19113,156543
23.19925,148741
23.20737,157263
23.21550,154948
23.22362,154940
23.23173,154063
23.23987,152227
23.24798,153834
23.25612,150699
23.26423,161078
23.27235,160175
23.28048,166859
23.28860,165659
23.29673,156795
23.30485,148869
23.31297,149763
23.32110,149308
23.32922,155241
23.33735,159891
23.34547,175881
23.35358,196810
23.36172,225125
23.36983,238450
23.37795,245003
23.38608,253972
23.39420,233147
23.40233,215904
23.41045,196250
23.41857,176394
23.42670,166783
23.43482,154553
23.44295,152746
23.45107,143141
23.45918,141781
23.46732,135415
23.47543,132867
23.48355,131559
23.49168,133731
23.49980,143425
23.50793,136525
23.51605,134983
23.52417,139257
23.53230,137007
23.54042,136164
23.54855,138261
23.55667,141063
23.56478,145053
23.57292,163008
23.58103,191369
23.58917,230580
23.59728,282954
23.60540,324372
23.61353,360244
23.62165,352940
23.62977,320939
23.63790,278177
23.64602,247189
23.65415,207466
23.66227,181326
23.67038,166971
23.67852,153251
23.68663,149736
23.69477,142564
23.70288,139453
23.71100,132777
23.71913,136440
23.72725,129792
23.73538,137392
23.74350,168644
23.75162,276118
23.75975,592820
23.76787,1348377
23.77598,2953593
23.78412,4965854
23.79223,6755510
23.80037,7558966
23.80848,7272827
23.81660,6016200
23.82473,4421097
23.83285,3142152
23.84098,2248362
23.84910,1638151
23.85722,1284778
23.86535,1050968
23.87347,866965
23.88158,762706
23.88972,674624
23.89783,609510
23.90597,567641
23.91408,527573
23.92220,501798
23.93033,469427
23.93845,461519
23.94658,440444
23.95470,399228
23.96282,391002
23.97095,377596
23.97907,356801
23.98720,345470
23.99532,348647
24.00343,396207
24.01157,586658
24.01968,977470
24.02780,1622713
24.03593,2324213
24.04405,2702298
24.05218,2670888
24.06030,2197111
24.06842,1576304
24.07655,1021993
24.08467,664169
24.09280,458050
24.10092,356022
24.10903,303423
24.11717,283069
24.12528,254237
24.13340,265595
24.14153,287732
24.14965,310795
24.15778,322541
24.16590,330933
24.17402,334618
24.18215,311976
24.19027,279228
24.19840,268486
24.20652,258201
24.21463,243822
24.22277,238243
24.23088,241147
24.23902,229569
24.24713,219272
24.25525,217914
24.26338,199509
24.27150,189890
24.27962,184626
24.28775,179286
24.29587,176131
24.30400,176104
24.31212,168721
24.32023,181001
24.32837,173360
24.33648,174527
24.34462,169689
24.35273,165508
24.36085,157749
24.36898,163966
24.37710,159498
24.38523,164005
24.39335,194825
24.40147,201777
24.40960,224937
24.41772,242422
24.42583,237910
24.43397,220436
24.44208,204926
24.45022,182711
24.45833,163058
24.46645,160197
24.47458,150840
24.48270,154035
24.49083,158149
24.49895,156840
24.50707,162009
24.51520,173119
24.52332,178732
24.53143,187835
24.53957,188776
24.54768,194325
24.55582,189358
24.56393,184729
24.57205,188715
24.58018,190226
24.58830,175791
24.59643,169555
24.60455,168522
24.61267,157198
24.62080,151389
24.62892,152758
24.63705,151195
24.64517,151215
24.65328,157972
24.66142,153555
24.66953,149851
24.67765,155862
24.68578,152325
24.69390,152156
24.70203,143681
24.71015,139322
24.71827,143824
24.72640,141166
24.73452,151233
24.74265,168521
24.75077,164775
24.75888,174595
24.76702,186833
24.77513,190700
24.78327,196606
24.79138,202579
24.79950,209582
24.80763,202005
24.81575,212842
24.82387,211361
24.83200,213103
24.84012,231573
24.84825,243100
24.85637,278268
24.86448,325062
24.87262,393466
24.88073,494331
24.88887,606398
24.89698,697465
24.90510,745966
24.91323,681548
24.92135,603807
24.92947,476877
24.93760,390392
24.94572,311366
24.95385,278914
24.96197,247107
24.97008,227666
24.97822,218968
24.98633,219579
24.99447,207015
25.00258,212864
25.01070,205601
25.01883,209881
25.02695,207069
25.03508,205192
25.04320,207053
25.05132,203963
25.05945,203648
25.06757,194077
25.07568,198079
25.08382,208929
25.09193,210031
25.10007,232353
25.10818,266264
25.11630,388677
25.12443,637511
25.13255,1082789
25.14068,1707801
25.14880,2273941
25.15692,2681696
25.16505,2656303
25.17317,2322065
25.18130,1844784
25.18942,1357352
25.19753,977781
25.20567,688305
25.21378,509515
25.22190,411190
25.23003,348586
25.23815,357757
25.24628,446589
25.25440,599364
25.26252,897342
25.27065,1230655
25.27877,1511607
25.28690,1650556
25.29502,1572991
25.30313,1249419
25.31127,891105
25.31938,616546
25.32750,416893
25.33563,324325
25.34375,258734
25.35188,230608
25.36000,213956
25.36812,212982
25.37625,196514
25.38437,187964
25.39250,190722
25.40062,187465
25.40873,182227
25.41687,180632
25.42498,186031
25.43312,181593
25.44123,181286
25.44935,182413
25.45748,175664
25.46560,184808
25.47372,180261
25.48185,181519
25.48997,186541
25.49810,184614
25.50622,184462
25.51433,184920
25.52247,171137
25.53058,169507
25.53872,161587
25.54683,167387
25.55495,161468
25.56308,163189
25.57120,159407
25.57932,157052
25.58745,163168
25.59557,156193
25.60370,157202
25.61182,160367
25.61993,161041
25.62807,166395
25.63618,172231
25.64432,189352
25.65243,196834
25.66055,192357
25.66868,195212
25.67680,175578
25.68493,171299
25.69305,164235
25.70117,146084
25.70930,142690
25.71742,137661
25.72553,136432
25.73367,127669
25.74178,126206
25.74992,131814
25.75803,133971
25.76615,140601
25.77428,168040
25.78240,209576
25.79053,243223
25.79865,258836
25.80677,246809
25.81490,220091
25.82302,179676
25.83115,160063
25.83927,144729
25.84738,139052
25.85552,136449
25.86363,131296
25.87175,129740
25.87988,125456
25.88800,127203
25.89613,117303
25.90425,116119
25.91237,113565
25.92050,112427
25.92862,113624
25.93675,115366
25.94487,122044
25.95298,131553
25.96112,128782
25.96923,122197
25.97735,125463
25.98548,113368
25.99360,108387
26.00173,112318
26.00985,111643
26.01797,101348
26.02610,106111
26.03422,103003
26.04235,102170
26.05047,107781
26.05858,106971
26.06672,105500
26.07483,109755
26.08297,117090
26.09108,122562
26.09920,130583
26.10733,143129
26.11545,157282
26.12357,155096
26.13170,155760
26.13982,163169
26.14795,169857
26.15607,179862
26.16418,173324
26.17232,178526
26.18043,173014
26.18857,175424
26.19668,169428
26.20480,167440
26.21293,169435
26.22105,155406
26.22918,169622
26.23730,159224
26.24542,163843
26.25355,162072
26.26167,156444
26.26978,161912
26.27792,162740
26.28603,158104
26.29417,166012
26.30228,167748
26.31040,164558
26.31853,164260
26.32665,162059
26.33478,157799
26.34290,155595
26.35102,150892
26.35915,159358
26.36727,172971
26.37538,193444
26.38352,221904
26.39163,258416
26.39977,307571
26.40788,335905
26.41600,339286
26.42413,344230
26.43225,306417
26.44038,277931
26.44850,233445
26.45662,206155
26.46475,198935
26.47287,183078
26.48100,185186
26.48912,172055
26.49723,170523
26.50537,158624
26.51348,156282
26.52160,153565
26.52973,150932
26.53785,148279
26.54598,148982
26.55410,148993
26.56222,144215
26.57035,138790
26.57847,140874
26.58660,135025
26.59472,135929
26.60283,138935
26.61097,132228
26.61908,132700
26.62720,133615
26.63533,130676
26.64345,135110
26.65158,127881
26.65970,139985
26.66782,133550
26.67595,136629
26.68407,139040
26.69220,140851
26.70032,135196
26.70843,135303
26.71657,132362
26.72468,132442
26.73282,130558
26.74093,128772
26.74905,131241
26.75718,130152
26.76530,131189
26.77342,132335
26.78155,130316
26.78967,133034
26.79780,134902
26.80592,137313
26.81403,137860
26.82217,140313
26.83028,147195
26.83842,142998
26.84653,139520
26.85465,132886
26.86278,131220
26.87090,133278
26.87903,132936
26.88715,131963
26.89527,128734
26.90340,136443
26.91152,134374
26.91963,128900
26.92777,127774
26.93588,125455
26.94402,125669
26.95213,131395
26.96025,147025
26.96838,175637
26.97650,271961
26.98463,468721
26.99275,856721
27.00087,1524318
27.00900,2529314
27.01712,3710695
27.02523,4530945
27.03337,4700002
27.04148,4106242
27.04962,3331129
27.05773,2644488
27.06585,1955195
27.07398,1487639
27.08210,1130608
27.09023,894296
27.09835,745718
27.10647,632789
27.11460,551361
27.12272,490836
27.13085,462059
27.13897,426189
27.14708,410474
27.15522,374761
27.16333,354027
27.17145,344281
27.17958,343167
27.18770,357478
27.19583,350022
27.20395,342123
27.21207,319321
27.22020,303923
27.22832,287662
27.23645,264746
27.24457,255523
27.25268,242650
27.26082,227993
27.26893,225637
27.27707,210194
27.28518,209090
27.29330,212604
27.30143,203344
27.30955,195099
27.31767,202322
27.32580,191575
27.33392,187921
27.34205,180992
27.35017,175928
27.35828,183426
27.36642,182512
27.37453,190109
27.38267,186176
27.39078,184310
27.39890,179360
27.40703,174995
27.41515,171735
27.42327,165066
27.43140,155094
27.43952,151046
27.44765,150391
27.45577,147782
27.46388,148711
27.47202,145369
27.48013,145390
27.48827,141503
27.49638,141776
27.50450,137753
27.51263,129107
27.52075,136161
27.52888,137570
27.53700,141024
27.54512,140121
27.55325,137078
27.56137,137056
27.56948,139714
27.57762,139607
27.58573,146435
27.59387,154296
27.60198,164526
27.61010,165125
27.61823,161337
27.62635,152312
27.63448,145078
27.64260,137163
27.65072,130879
27.65885,132740
27.66697,123768
27.67508,131241
27.68322,129174
27.69133,125276
27.69947,128504
27.70758,122113
27.71570,120307
27.72383,124028
27.73195,119168
27.74008,115501
27.74820,116539
27.75632,127968
27.76445,132519
27.77257,154547
27.78070,187806
27.78882,212347
27.79693,228983
27.80507,234869
27.81318,220606
27.82130,186863
27.82943,151370
27.83755,141369
27.84568,123035
27.85380,121863
27.86192,117222
27.87005,114261
27.87817,116175
27.88630,114852
27.89442,112829
27.90253,113291
27.91067,109259
27.91878,105672
27.92692,104748
27.93503,105596
27.94315,108683
27.95128,107942
27.95940,104360
27.96752,102870
27.97565,105800
27.98377,105008
27.99190,108473
28.00002,107529
28.00813,116090
28.01627,117055
28.02438,115586
28.03252,120532
28.04063,124202
28.04875,121024
28.05688,123111
28.06500,123977
28.07313,124153
28.08125,122609
28.08937,123662
28.09750,118016
28.10562,112641
28.11373,109953
28.12187,109467
28.12998,112331
28.13812,101988
28.14623,100767
28.15435,101902
28.16248,101717
28.17060,99588
28.17873,101867
28.18685,107102
28.19497,111424
28.20310,121732
28.21122,134998
28.21933,141760
28.22747,156846
28.23558,162597
28.24372,152677
28.25183,146582
28.25995,131166
28.26808,124133
28.27620,115275
28.28433,108290
28.29245,113357
28.30057,109218
28.30870,108077
28.31682,124306
28.32495,128822
28.33307,137893
28.34118,165460
28.34932,196003
28.35743,219659
28.36555,252297
28.37368,274527
28.38180,289540
28.38993,308482
28.39805,320771
28.40617,311404
28.41430,293771
28.42242,290343
28.43055,255776
28.43867,235319
28.44678,231935
28.45492,206695
28.46303,197637
28.47115,188363
28.47928,182717
28.48740,165669
28.49553,177265
28.50365,170040
28.51177,161566
28.51990,163543
28.52802,162327
28.53615,153402
28.54427,146012
28.55238,140147
28.56052,137026
28.56863,128282
28.57677,133616
28.58488,130110
28.59300,127905
28.60113,139822
28.60925,130808
28.61737,134073
28.62550,131156
28.63362,133884
28.64175,141503
28.64987,142379
28.65798,144704
28.66612,143641
28.67423,133190
28.68237,142412
28.69048,130030
28.69860,130220
28.70673,125340
28.71485,117682
28.72298,119969
28.73110,122151
28.73922,124682
28.74735,119128
28.75547,119328
28.76358,129566
28.77172,132778
28.77983,147423
28.78797,151531
28.79608,154008
28.80420,152846
28.81233,150305
28.82045,142036
28.82858,133635
28.83670,132940
28.84482,128285
28.85295,121317
28.86107,117997
28.86918,113879
28.87732,111564
28.88543,120597
28.89357,116152
28.90168,125029
28.90980,122661
28.91793,119872
28.92605,123673
28.93418,118029
28.94230,128411
28.95042,131610
28.95855,129853
28.96667,126282
28.97480,125908
28.98292,124005
28.99103,120123
28.99917,111545
29.00728,119656
29.01540,107025
29.02353,109736
29.03165,103778
29.03978,109285
29.04790,107013
29.05602,111200
29.06415,118460
29.07227,125596
29.08040,132570
29.08852,139693
29.09663,141853
29.10477,134871
29.11288,121550
29.12102,114453
29.12913,112535
29.13725,106100
29.14538,98354
29.15350,103738
29.16162,105415
29.16975,101002
29.17787,102590
29.18600,102425
29.19412,108458
29.20223,112587
29.21037,123903
29.21848,135711
29.22662,141855
29.23473,160404
29.24285,188758
29.25098,233106
29.25910,291092
29.26722,349733
29.27535,378953
29.28347,374921
29.29160,339069
29.29972,282388
29.30783,211668
29.31597,167798
29.32408,144811
29.33222,126707
29.34033,121466
29.34845,116526
29.35658,106324
29.36470,107259
29.37283,104294
29.38095,102617
29.38907,105286
29.39720,98302
29.40532,99297
29.41343,101657
29.42157,101539
29.42968,98330
29.43782,101621
29.44593,110129
29.45405,102860
29.46218,96813
29.47030,99422
29.47843,99848
29.48655,106809
29.49467,104133
29.50280,105967
29.51092,111420
29.51903,110843
29.52717,111755
29.53528,103767
29.54342,100861
29.55153,99027
29.55965,95592
29.56778,99285
29.57590,99936
29.58403,99616
29.59215,93618
29.60027,95748
29.60840,95826
29.61652,97504
29.62465,99843
29.63277,102340
29.64088,102792
29.64902,93392
29.65713,101117
29.66525,93928
29.67338,85933
29.68150,87095
29.68963,89089
29.69775,87903
29.70587,93837
29.71400,88970
29.72212,88602
29.73025,89262
29.73837,92951
29.74648,88774
29.75462,89062
29.76273,87826
29.77087,85733
29.77898,87507
29.78710,83270
29.79523,85046
29.80335,83415
29.81147,81446
29.81960,84597
29.82772,87727
29.83585,89554
29.84397,92041
29.85208,87522
29.86022,89433
29.86833,97062
29.87647,108206
29.88458,116484
29.89270,136371
29.90083,161887
29.90895,168343
29.91707,168502
29.92520,149082
29.93332,134261
29.94145,112334
29.94957,101383
29.95768,98126
29.96582,96398
29.97393,102515
29.98207,111152
29.99018,116873
29.99830,125968
30.00643,133049
30.01455,139278
30.02268,154104
30.03080,151699
30.03892,161689
30.04705,163480
30.05517,155369
30.06328,161540
30.07142,163022
30.07953,156744
30.08767,155516
30.09578,153214
30.10390,139686
30.11203,142636
30.12015,137468
30.12828,137823
30.13640,133450
30.14452,131357
30.15265,126702
30.16077,125310
30.16890,119982
30.17702,117524
30.18513,114827
30.19327,116024
30.20138,119380
30.20950,117958
30.21763,117389
30.22575,112360
30.23388,113256
30.24200,106555
30.25012,108381
30.25825,107056
30.26637,98720
30.27450,93556
30.28262,99881
30.29073,96419
30.29887,95855
30.30698,94822
30.31510,99872
30.32323,91770
30.33135,97730
30.33948,93458
30.34760,99467
30.35572,93663
30.36385,88192
30.37197,92076
30.38010,88401
30.38822,87826
30.39633,87070
30.40447,84745
30.41258,81729
30.42072,83573
30.42883,88486
30.43695,85009
30.44508,85019
30.45320,87550
30.46132,86639
30.46945,89722
30.47757,91169
30.48570,93957
30.49382,94543
30.50193,100162
30.51007,103255
30.51818,98133
30.52632,98231
30.53443,100203
30.54255,86524
30.55068,87933
30.55880,91442
30.56693,88564
30.57505,83084
30.58317,84443
30.59130,85342
30.59942,84592
30.60753,80011
30.61567,86489
30.62378,89859
30.63192,87276
30.64003,88510
30.64815,80857
30.65628,90213
30.66440,84959
30.67253,82347
30.68065,84428
30.68877,80688
30.69690,85283
30.70502,80103
30.71313,84335
30.72127,79660
30.72938,85053
30.73752,85321
30.74563,83687
30.75375,81528
30.76188,81509
30.77000,86006
30.77813,87915
30.78625,99840
30.79437,118486
30.80250,137663
30.81062,156047
30.81875,168618
30.82687,165961
30.83498,149728
30.84312,137185
30.85123,116800
30.85935,105593
30.86748,94526
30.87560,94850
30.88373,97239
30.89185,94093
30.89997,94805
30.90810,94259
30.91622,92757
30.92435,90104
30.93247,86282
30.94058,88021
30.94872,90871
30.95683,92138
30.96495,84380
30.97308,87406
30.98120,85406
30.98933,83470
30.99745,84819
31.00557,82737
31.01370,79108
31.02182,88098
31.02995,84887
31.03807,85179
31.04618,82843
31.05432,87984
31.06243,83598
31.07057,92060
31.07868,91337
31.08680,100816
31.09493,112719
31.10305,136471
31.11117,130595
31.11930,130507
31.12742,123533
31.13555,109396
31.14367,108105
31.15178,97539
31.15992,96453
31.16803,94715
31.17617,94094
31.18428,92174
31.19240,102816
31.20053,112982
31.20865,117969
31.21678,133633
31.22490,144153
31.23302,147404
31.24115,140752
31.24927,142861
31.25738,129251
31.26552,114229
31.27363,107765
31.28177,98385
31.28988,93312
31.29800,90294
31.30613,89411
31.31425,84538
31.32238,83223
31.33050,79235
31.33862,83724
31.34675,86059
31.35487,92341
31.36298,83558
31.37112,78061
31.37923,83278
31.38737,83839
31.39548,84776
31.40360,80499
31.41173,82112
31.41985,84250
31.42798,81789
31.43610,83460
31.44422,85424
31.45235,79558
31.46047,86849
31.46860,88457
31.47672,92888
31.48483,93263
31.49297,102073
31.50108,103102
31.50920,105630
31.51733,109207
31.52545,101827
31.53358,103143
31.54170,96636
31.54982,103417
31.55795,110150
31.56607,110438
31.57420,116284
31.58232,111905
31.59043,110942
31.59857,106404
31.60668,106246
31.61482,100020
31.62293,95822
31.63105,94344
31.63918,93415
31.64730,93434
31.65542,92354
31.66355,93799
31.67167,95097
31.67980,99325
31.68792,87814
31.69603,93107
31.70417,88077
31.71228,90652
31.72042,83657
31.72853,89388
31.73665,90454
31.74478,88415
31.75290,87549
31.76102,86003
31.76915,89948
31.77727,92948
31.78540,88954
31.79352,98067
31.80163,88291
31.80977,96623
31.81788,94377
31.82602,91585
31.83413,93456
31.84225,91273
31.85038,90823
31.85850,86957
31.86663,94141
31.87475,94077
31.88287,89166
31.89100,91699
31.89912,95973
31.90723,92025
31.91537,95921
31.92348,92388
31.93162,100634
31.93973,96310
31.94785,106778
31.95598,117094
31.96410,124114
31.97223,128054
31.98035,133688
31.98847,140650
31.99660,133363
32.00472,138652
32.01283,141692
32.02097,138249
32.02908,133931
32.03722,130253
32.04533,123933
32.05345,120579
32.06158,125484
32.06970,119327
32.07783,117766
32.08595,121295
32.09407,110434
32.10220,115982
32.11032,107076
32.11845,112051
32.12657,107696
32.13468,102203
32.14282,97013
32.15093,94486
32.15905,94198
32.16718,96140
32.17530,98529
32.18343,95024
32.19155,95920
32.19967,93120
32.20780,98356
32.21592,90641
32.22405,90567
32.23217,94467
32.24028,94491
32.24842,94738
32.25653,102535
32.26467,107668
32.27278,105593
32.28090,118307
32.28903,113090
32.29715,101870
32.30527,100766
32.31340,93040
32.32152,90758
32.32965,90570
32.33777,91145
32.34588,90443
32.35402,95822
32.36213,96039
32.37027,94487
32.37838,93216
32.38650,84610
32.39463,92414
32.40275,85316
32.41088,89458
32.41900,86374
32.42712,85971
32.43525,81123
32.44337,81939
32.45148,84462
32.45962,82863
32.46773,79625
32.47587,81236
32.48398,84630
32.49210,80546
32.50023,77805
32.50835,73898
32.51648,81505
32.52460,79546
32.53272,78497
32.54085,81166
32.54897,80712
32.55708,79441
32.56522,79768
32.57333,82746
32.58147,81563
32.58958,78496
32.59770,79723
32.60583,78599
32.61395,76641
32.62208,81122
32.63020,76405
32.63832,80622
32.64645,80429
32.65457,85929
32.66270,89287
32.67082,93492
32.67893,93713
32.68707,97797
32.69518,103718
32.70330,108391
32.71143,93461
32.71955,99249
32.72768,96551
32.73580,90514
32.74392,91205
32.75205,90693
32.76017,86018
32.76830,85834
32.77642,82182
32.78453,77973
32.79267,77771
32.80078,76416
32.80890,80036
32.81703,77206
32.82515,79604
32.83328,77894
32.84140,82722
32.84952,79367
32.85765,84280
32.86577,78963
32.87390,75730
32.88202,82034
32.89013,75572
32.89827,83499
32.90638,81050
32.91452,77977
32.92263,77644
32.93075,84631
32.93888,75463
32.94700,84951
32.95512,81599
32.96325,79715
32.97137,86127
32.97950,82472
32.98762,99025
32.99573,113149
33.00387,122065
33.01198,132999
33.02012,138228
33.02823,130603
33.03635,115598
33.04448,105579
33.05260,101462
33.06073,90790
33.06885,93526
33.07697,98621
33.08510,95716
33.09322,107155
33.10133,113187
33.10947,120405
33.11758,120914
33.12572,132734
33.13383,128868
33.14195,126089
33.15008,110406
33.15820,103971
33.16633,97726
33.17445,91131
33.18257,82799
33.19070,83587
33.19882,85377
33.20693,89228
33.21507,88168
33.22318,86155
33.23132,94500
33.23943,89181
33.24755,82313
33.25568,78540
33.26380,83836
33.27193,79386
33.28005,84652
33.28817,80809
33.29630,85006
33.30442,84730
33.31255,82995
33.32067,80154
33.32878,85356
33.33692,83200
33.34503,79164
33.35315,80360
33.36128,83278
33.36940,84223
33.37753,77749
33.38565,83516
33.39377,85953
33.40190,84483
33.41002,88207
33.41815,93180
33.42627,100733
33.43438,98529
33.44252,107100
33.45063,100332
33.45877,96272
33.46688,89096
33.47500,93926
33.48313,86792
33.49125,87069
33.49937,90621
33.50750,85972
33.51562,87691
33.52375,92327
33.53187,88407
33.53998,87386
33.54812,88340
33.55623,85540
33.56437,84130
33.57248,85921
33.58060,81820
33.58873,80855
33.59685,81632
33.60497,81754
33.61310,80399
33.62122,79902
33.62935,81525
33.63747,82317
33.64558,83034
33.65372,81802
33.66183,86419
33.66997,92417
33.67808,87766
33.68620,89635
33.69433,84612
33.70245,85259
33.71058,89160
33.71870,87446
33.72682,89011
33.73495,98705
33.74307,113211
33.75118,112912
33.75932,113006
33.76743,113174
33.77557,111801
33.78368,99891
33.79180,91456
33.79993,86829
33.80805,83386
33.81618,82093
33.82430,81957
33.83242,84422
33.84055,86778
33.84867,95746
33.85678,97333
33.86492,95662
33.87303,100444
33.88117,102191
33.88928,107677
33.89740,105482
33.90553,112775
33.91365,110399
33.92178,118168
33.92990,114942
33.93802,108641
33.94615,108032
33.95427,99950
33.96240,93155
33.97052,91379
33.97863,87795
33.98677,87758
33.99488,83999
34.00300,78148
34.01113,83409
34.01925,89669
34.02738,83830
34.03550,85890
34.04362,84491
34.05175,88788
34.05987,88017
34.06800,86140
34.07612,84898
34.08423,87052
34.09237,81904
34.10048,85616
34.10862,85835
34.11673,78210
34.12485,81287
34.13298,78353
34.14110,78581
34.14922,72238
34.15735,85249
34.16547,82021
34.17360,95966
34.18172,90724
34.18983,96838
34.19797,102443
34.20608,100717
34.21422,100934
34.22233,100713
34.23045,97966
34.23858,89462
34.24670,91903
34.25482,85859
34.26295,87529
34.27107,87870
34.27920,85103
34.28732,83563
34.29543,82696
34.30357,76563
34.31168,80667
34.31982,79650
34.32793,82900
34.33605,79144
34.34418,82754
34.35230,76269
34.36043,80345
34.36855,80324
34.37667,74573
34.38480,81049
34.39292,76237
34.40103,74921
34.40917,82596
34.41728,86091
34.42542,81863
34.43353,75346
34.44165,77453
34.44978,77977
34.45790,76212
34.46603,79831
34.47415,79020
34.48227,78323
34.49040,86160
34.49852,84748
34.50665,80719
34.51477,83702
34.52288,80659
34.53102,85035
34.53913,91699
34.54725,101809
34.55538,110150
34.56350,110541
34.57163,114863
34.57975,119381
34.58787,115107
34.59600,114132
34.60412,117440
34.61225,118024
34.62037,112584
34.62848,119493
34.63662,112963
34.64473,108233
34.65285,114374
34.66098,106063
34.66910,104333
34.67723,102033
34.68535,96683
34.69347,100785
34.70160,94285
34.70972,98471
34.71785,93524
34.72597,88962
34.73408,89816
34.74222,93112
34.75033,88250
34.75847,96055
34.76658,93808
34.77470,90585
34.78283,90558
34.79095,88286
34.79907,90754
34.80720,87561
34.81532,90726
34.82345,89167
34.83157,87409
34.83968,93557
34.84782,91785
34.85593,88067
34.86407,83905
34.87218,85305
34.88030,89015
34.88843,85714
34.89655,85334
34.90467,87929
34.91280,89148
34.92092,88394
34.92905,94607
34.93717,86859
34.94528,91056
34.95342,95966
34.96153,98240
34.96967,96340
34.97778,95820
34.98590,104633
34.99403,104845
35.00215,105877
35.01028,105686
35.01840,105040
35.02652,106414
35.03465,110701
35.04277,110973
35.05088,115513
35.05902,117773
35.06713,111279
35.07527,106058
35.08338,104715
35.09150,99366
35.09963,89972
35.10775,86378
35.11588,90432
35.12400,92539
35.13212,89293
35.14025,84271
35.14837,81597
35.15650,85548
35.16462,84510
35.17273,87502
35.18087,84722
35.18898,86332
35.19710,82984
35.20523,91325
35.21335,82863
35.22148,84488
35.22960,82686
35.23772,95735
35.24585,91754
35.25397,95892
35.26210,95443
35.27022,96731
35.27833,98303
35.28647,101507
35.29458,96058
35.30270,93903
35.31083,91918
35.31895,91480
35.32708,97292
35.33520,91986
35.34332,87229
35.35145,90588
35.35957,94542
35.36770,90125
35.37582,98419
35.38393,102252
35.39207,111638
35.40018,113089
35.40832,123552
35.41643,134264
35.42455,131392
35.43268,142384
35.44080,134785
35.44892,121793
35.45705,118526
35.46517,110469
35.47330,110396
35.48142,96565
35.48953,95873
35.49767,94818
35.50578,93162
35.51392,90555
35.52203,90661
35.53015,91259
35.53828,88698
35.54640,88267
35.55453,91554
35.56265,93209
35.57077,94735
35.57890,87096
35.58702,95145
35.59513,88118
35.60327,84567
35.61138,84833
35.61952,90308
35.62763,85141
35.63575,84408
35.64388,83618
35.65200,86634
35.66013,88345
35.66825,87807
35.67637,91093
35.68450,94293
35.69262,99111
35.70073,103338
35.70887,105960
35.71698,100851
35.72512,97979
35.73323,97704
35.74135,100377
35.74948,108243
35.75760,97381
35.76573,97583
35.77385,94316
35.78197,98890
35.79010,98063
35.79822,100104
35.80635,97596
35.81447,95356
35.82258,93777
35.83072,89701
35.83883,92706
35.84695,91198
35.85508,93374
35.86320,95327
35.87133,92271
35.87945,91019
35.88757,93821
35.89570,91427
35.90382,96283
35.91195,93021
35.92007,86321
35.92818,88787
35.93632,91596
35.94443,87774
35.95257,87908
35.96068,88534
35.96880,89381
35.97693,87462
35.98505,89392
35.99317,86959
36.00130,84985
36.00942,89534
36.01755,87245
36.02567,93292
36.03378,89093
36.04192,94273
36.05003,94759
36.05817,91688
36.06628,96012
36.07440,88076
36.08253,87530
36.09065,92437
36.09877,88774
36.10690,92253
36.11502,87880
36.12315,84050
36.13127,89578
36.13938,89008
36.14752,87611
36.15563,86721
36.16377,83671
36.17188,89385
36.18000,86956
36.18813,85912
36.19625,89371
36.20438,87412
36.21250,85217
36.22062,92690
36.22875,93620
36.23687,96361
36.24498,91701
36.25312,87918
36.26123,91768
36.26937,93150
36.27748,94644
36.28560,90397
36.29373,93442
36.30185,103465
36.30998,90811
36.31810,94252
36.32622,99857
36.33435,100641
36.34247,97333
36.35058,95906
36.35872,89117
36.36683,85071
36.37497,87029
36.38308,87782
36.39120,88993
36.39933,89874
36.40745,92539
36.41558,89971
36.42370,92301
36.43182,94874
36.43995,96642
36.44807,106102
36.45620,110353
36.46432,108250
36.47243,109136
36.48057,110735
36.48868,108871
36.49680,103762
36.50493,112081
36.51305,100797
36.52118,108569
36.52930,106303
36.53742,106653
36.54555,98315
36.55367,98998
36.56180,95516
36.56992,92356
36.57803,88687
36.58617,85679
36.59428,91130
36.60242,87133
36.61053,95729
36.61865,91997
36.62678,95704
36.63490,104604
36.64302,105838
36.65115,110678
36.65927,108954
36.66740,113230
36.67552,108048
36.68363,104621
36.69177,106224
36.69988,101881
36.70802,95422
36.71613,95505
36.72425,92467
36.73238,94263
36.74050,92939
36.74862,88942
36.75675,93590
36.76487,94577
36.77300,87919
36.78112,93003
36.78923,85423
36.79737,86796
36.80548,88689
36.81362,87679
36.82173,81726
36.82985,85196
36.83798,86761
36.84610,84890
36.85423,88509
36.86235,94556
36.87047,85539
36.87860,90496
36.88672,93329
36.89483,92128
36.90297,91170
36.91108,92482
36.91922,91131
36.92733,87995
36.93545,95965
36.94358,91921
36.95170,97700
36.95983,98333
36.96795,105991
36.97607,108873
36.98420,108996
36.99232,100118
37.00045,100581
37.00857,91420
37.01668,99589
37.02482,99625
37.03293,90169
37.04105,96963
37.04918,94847
37.05730,91923
37.06543,99358
37.07355,96285
37.08167,98494
37.08980,100948
37.09792,105045
37.10605,107506
37.11417,103385
37.12228,108556
37.13042,113951
37.13853,112778
37.14665,111586
37.15478,106352
37.16290,108012
37.17103,103810
37.17915,107026
37.18727,99958
37.19540,96357
37.20352,99774
37.21165,94059
37.21977,91947
37.22788,92992
37.23602,90995
37.24413,91001
37.25227,90017
37.26038,90914
37.26850,94716
37.27663,98766
37.28475,96948
37.29287,91802
37.30100,96770
37.30912,96286
37.31725,92493
37.32537,95645
37.33348,99782
37.34162,98904
37.34973,109262
37.35787,107582
37.36598,108952
37.37410,110373
37.38223,111884
37.39035,106784
37.39847,116642
37.40660,111934
37.41472,104528
37.42285,107634
37.43097,105289
37.43908,113539
37.44722,105063
37.45533,104184
37.46347,100881
37.47158,107194
37.47970,104086
37.48783,101108
