Z:\data\JTB-E02\BACandBLUE\JTB-E02-201-17.D Fri Mar 01 16:02:37 2019
Start of data points
2.09518,68663
2.10332,66491
2.11143,69979
2.11955,71080
2.12768,72191
2.13580,68259
2.14393,70095
2.15205,69589
2.16017,66629
2.16830,69740
2.17642,61383
2.18455,66684
2.19267,60055
2.20078,60860
2.20892,61549
2.21703,59333
2.22515,59375
2.23328,56357
2.24140,61421
2.24953,111704
2.25765,659818
2.26577,1491534
2.27390,1122888
2.28202,557393
2.29015,386669
2.29827,317491
2.30638,278976
2.31452,254596
2.32263,239935
2.33077,225147
2.33888,195571
2.34700,182235
2.35513,175622
2.36325,161124
2.37137,152758
2.37950,154021
2.38762,146995
2.39575,142080
2.40387,151913
2.41198,150328
2.42012,136736
2.42823,129858
2.43637,127856
2.44448,128927
2.45260,123659
2.46073,115826
2.46885,117152
2.47698,118819
2.48510,114157
2.49322,112320
2.50135,106978
2.50947,112255
2.51758,106096
2.52572,109329
2.53383,117576
2.54197,152446
2.55008,220237
2.55820,189170
2.56633,148625
2.57445,129892
2.58258,127732
2.59070,140082
2.59882,201333
2.60695,219000
2.61507,182946
2.62318,151288
2.63132,136593
2.63943,122411
2.64757,124910
2.65568,120815
2.66380,120235
2.67193,116569
2.68005,112924
2.68818,104598
2.69630,109693
2.70442,108325
2.71255,102008
2.72067,101820
2.72880,102728
2.73692,95603
2.74503,96771
2.75317,94866
2.76128,140600
2.76940,387458
2.77753,631066
2.78565,467508
2.79378,315129
2.80190,264307
2.81002,234876
2.81815,215157
2.82627,199007
2.83440,168385
2.84252,158492
2.85063,164998
2.85877,162680
2.86688,143789
2.87502,139893
2.88313,134645
2.89125,127947
2.89938,123291
2.90750,116243
2.91562,108176
2.92375,110209
2.93187,108355
2.94000,106324
2.94812,107018
2.95623,102816
2.96437,105658
2.97248,96875
2.98062,102753
2.98873,137254
2.99685,189598
3.00498,192437
3.01310,143071
3.02122,123420
3.02935,111099
3.03747,107479
3.04560,114806
3.05372,120203
3.06183,127602
3.06997,203724
3.07808,549530
3.08622,1612229
3.09433,4511343
3.10245,6724973
3.11058,5352033
3.11870,3445159
3.12683,2542793
3.13495,1974943
3.14307,1586381
3.15120,1348716
3.15932,1136744
3.16743,1079761
3.17557,1270704
3.18368,1787439
3.19182,1781420
3.19993,1311090
3.20805,1022092
3.21618,874215
3.22430,749383
3.23243,657818
3.24055,591836
3.24867,528888
3.25680,471634
3.26492,436367
3.27303,470811
3.28117,740934
3.28928,1769140
3.29742,3453353
3.30553,4280800
3.31365,3625569
3.32178,2574416
3.32990,1837314
3.33803,1451170
3.34615,1213779
3.35427,1036450
3.36240,926950
3.37052,868852
3.37865,809998
3.38677,747701
3.39488,722828
3.40302,673077
3.41113,624513
3.41925,579738
3.42738,543659
3.43550,517714
3.44363,485570
3.45175,464966
3.45987,478452
3.46800,478734
3.47612,457736
3.48425,457132
3.49237,449086
3.50048,416697
3.50862,397399
3.51673,395757
3.52487,404445
3.53298,387719
3.54110,367984
3.54923,334358
3.55735,314163
3.56547,304790
3.57360,289348
3.58172,283705
3.58985,267932
3.59797,272905
3.60608,279767
3.61422,282869
3.62233,296942
3.63047,280397
3.63858,274686
3.64670,413904
3.65483,1835098
3.66295,6984317
3.67107,1.335668E+07
3.67920,1.325482E+07
3.68732,8492250
3.69545,5112841
3.70357,3749025
3.71168,3013264
3.71982,2548927
3.72793,2212257
3.73607,1947325
3.74418,1744872
3.75230,1589746
3.76043,1448953
3.76855,1332392
3.77668,1266893
3.78480,1277974
3.79292,1698964
3.80105,3024792
3.80917,4441803
3.81728,4165723
3.82542,2964955
3.83353,2102515
3.84167,1722898
3.84978,1524822
3.85790,1334081
3.86603,1238340
3.87415,1137087
3.88228,1041095
3.89040,994162
3.89852,946951
3.90665,934218
3.91477,1001602
3.92290,1074165
3.93102,1035012
3.93913,1027912
3.94727,1458904
3.95538,2098846
3.96350,2331207
3.97163,1856757
3.97975,1339603
3.98788,1352329
3.99600,2299381
4.00412,3726582
4.01225,4128569
4.02037,3104488
4.02850,1966122
4.03662,1351044
4.04473,1047576
4.05287,892084
4.06098,774504
4.06910,708561
4.07723,660516
4.08535,600892
4.09348,591846
4.10160,560366
4.10972,535592
4.11785,513898
4.12597,513808
4.13410,515562
4.14222,554744
4.15033,579023
4.15847,568680
4.16658,579062
4.17472,553410
4.18283,494849
4.19095,468346
4.19908,693219
4.20720,2206640
4.21532,6618362
4.22345,1.269464E+07
4.23157,1.623534E+07
4.23970,1.493793E+07
4.24782,1.034265E+07
4.25593,6660825
4.26407,4569671
4.27218,3401195
4.28032,2644329
4.28843,2097421
4.29655,1728589
4.30468,1440058
4.31280,1231785
4.32093,1079524
4.32905,960275
4.33717,872970
4.34530,809830
4.35342,795951
4.36153,746880
4.36967,705661
4.37778,639363
4.38592,584091
4.39403,531494
4.40215,506012
4.41028,479125
4.41840,464679
4.42653,436070
4.43465,418785
4.44277,397325
4.45090,386442
4.45902,372629
4.46713,369847
4.47527,347694
4.48338,360793
4.49152,351479
4.49963,335763
4.50775,344214
4.51588,330399
4.52400,332466
4.53213,318733
4.54025,321148
4.54837,324297
4.55650,310426
4.56462,294720
4.57275,288756
4.58087,280457
4.58898,272662
4.59712,267306
4.60523,269360
4.61335,295118
4.62148,377814
4.62960,526014
4.63773,628726
4.64585,582498
4.65397,483273
4.66210,406093
4.67022,347395
4.67835,317650
4.68647,305208
4.69458,273301
4.70272,258736
4.71083,256079
4.71895,246103
4.72708,236729
4.73520,228403
4.74333,229947
4.75145,235960
4.75957,215279
4.76770,225223
4.77582,254544
4.78395,400966
4.79207,768701
4.80018,1233568
4.80832,1280410
4.81643,1035410
4.82457,760081
4.83268,664851
4.84080,627090
4.84893,555998
4.85705,474444
4.86517,430462
4.87330,379003
4.88142,354526
4.88955,326859
4.89767,318403
4.90578,306181
4.91392,284533
4.92203,296066
4.93017,336203
4.93828,554218
4.94640,1112069
4.95453,1932594
4.96265,2564619
4.97078,2589632
4.97890,2087774
4.98702,1515775
4.99515,1126307
5.00327,864989
5.01138,729459
5.01952,685153
5.02763,729155
5.03577,787699
5.04388,762778
5.05200,680847
5.06013,583482
5.06825,520570
5.07638,488930
5.08450,457533
5.09262,429089
5.10075,409398
5.10887,389561
5.11698,382278
5.12512,358045
5.13323,362398
5.14137,360198
5.14948,401800
5.15760,451188
5.16573,470673
5.17385,468012
5.18198,431354
5.19010,415070
5.19822,417934
5.20635,410549
5.21447,406862
5.22260,391989
5.23072,373550
5.23883,373248
5.24697,346619
5.25508,314737
5.26320,291943
5.27133,273772
5.27945,255595
5.28758,239515
5.29570,243824
5.30382,240395
5.31195,234893
5.32007,261614
5.32820,277883
5.33632,308638
5.34443,318376
5.35257,292686
5.36068,254827
5.36882,242958
5.37693,250585
5.38505,266993
5.39318,270520
5.40130,263235
5.40942,257571
5.41755,238714
5.42567,225545
5.43380,219987
5.44192,222967
5.45003,232773
5.45817,233985
5.46628,237215
5.47442,212280
5.48253,206049
5.49065,198822
5.49878,199085
5.50690,212004
5.51502,228111
5.52315,236406
5.53127,224153
5.53940,212156
5.54752,214905
5.55563,245564
5.56377,298377
5.57188,336911
5.58002,328514
5.58813,293726
5.59625,244256
5.60438,228657
5.61250,210421
5.62063,210713
5.62875,215995
5.63687,213148
5.64500,211883
5.65312,198590
5.66123,197975
5.66937,204201
5.67748,248437
5.68562,300757
5.69373,343537
5.70185,348890
5.70998,293297
5.71810,250056
5.72623,227632
5.73435,203289
5.74247,199799
5.75060,181409
5.75872,182142
5.76683,173479
5.77497,168767
5.78308,157700
5.79122,162607
5.79933,170143
5.80745,165154
5.81558,161958
5.82370,172641
5.83183,170627
5.83995,175248
5.84807,179175
5.85620,175036
5.86432,163193
5.87245,154264
5.88057,158490
5.88868,155851
5.89682,154360
5.90493,158107
5.91305,154137
5.92118,141589
5.92930,136764
5.93743,144164
5.94555,152170
5.95367,199163
5.96180,309723
5.96992,488514
5.97805,724948
5.98617,830858
5.99428,754806
6.00242,581829
6.01053,420494
6.01867,325476
6.02678,266597
6.03490,231665
6.04303,206727
6.05115,194747
6.05927,181882
6.06740,170854
6.07552,170371
6.08365,160745
6.09177,156566
6.09988,151262
6.10802,149674
6.11613,165379
6.12427,210984
6.13238,322489
6.14050,462984
6.14863,525774
6.15675,447987
6.16487,347634
6.17300,278051
6.18112,231992
6.18925,219696
6.19737,212147
6.20548,200172
6.21362,189443
6.22173,180713
6.22987,182569
6.23798,193397
6.24610,181835
6.25423,181638
6.26235,189312
6.27048,187254
6.27860,191096
6.28672,177873
6.29485,178961
6.30297,180191
6.31108,193770
6.31922,195696
6.32733,229645
6.33547,270075
6.34358,292916
6.35170,265165
6.35983,242108
6.36795,212672
6.37608,201651
6.38420,208942
6.39232,194471
6.40045,191234
6.40857,188465
6.41670,185867
6.42482,183998
6.43293,193094
6.44107,191683
6.44918,196535
6.45730,201226
6.46543,196516
6.47355,198464
6.48168,203322
6.48980,206080
6.49792,203342
6.50605,194683
6.51417,206552
6.52230,205076
6.53042,205984
6.53853,201168
6.54667,202460
6.55478,207340
6.56290,225126
6.57103,260197
6.57915,287256
6.58728,301785
6.59540,283932
6.60352,257573
6.61165,230059
6.61977,218900
6.62790,222300
6.63602,215939
6.64413,248757
6.65227,314884
6.66038,438050
6.66852,556974
6.67663,558668
6.68475,451226
6.69288,343123
6.70100,283977
6.70912,254876
6.71725,251296
6.72537,242175
6.73350,200155
6.74162,187111
6.74973,179678
6.75787,162210
6.76598,158727
6.77412,150869
6.78223,149705
6.79035,139913
6.79848,143310
6.80660,133177
6.81472,137330
6.82285,125302
6.83097,134341
6.83910,137790
6.84722,139974
6.85533,147547
6.86347,152152
6.87158,132028
6.87972,120147
6.88783,108758
6.89595,98635
6.90408,96856
6.91220,94759
6.92033,97112
6.92845,90962
6.93657,99517
6.94470,93307
6.95282,106216
6.96093,115932
6.96907,145713
6.97718,163799
6.98532,188914
6.99343,169199
7.00155,149646
7.00968,126968
7.01780,115662
7.02593,105479
7.03405,103000
7.04217,94244
7.05030,97652
7.05842,103753
7.06655,101600
7.07467,102653
7.08278,100731
7.09092,94686
7.09903,90286
7.10715,91622
7.11528,89845
7.12340,96181
7.13153,98279
7.13965,108041
7.14777,149500
7.15590,205600
7.16402,244054
7.17215,237246
7.18027,204713
7.18838,164708
7.19652,148079
7.20463,235044
7.21277,564223
7.22088,1252243
7.22900,2132501
7.23713,2567883
7.24525,2264298
7.25337,1581176
7.26150,938929
7.26962,565117
7.27775,380291
7.28587,240132
7.29398,158577
7.30212,118050
7.31023,112358
7.31837,120745
7.32648,122469
7.33460,124299
7.34273,117125
7.35085,116353
7.35897,107551
7.36710,102867
7.37522,103710
7.38335,106719
7.39147,105982
7.39958,101339
7.40772,98571
7.41583,96261
7.42397,95781
7.43208,99164
7.44020,98744
7.44833,95445
7.45645,99420
7.46458,95940
7.47270,92435
7.48082,96992
7.48895,88095
7.49707,82984
7.50518,87076
7.51332,91212
7.52143,114877
7.52957,167435
7.53768,272433
7.54580,409377
7.55393,547018
7.56205,630326
7.57018,584581
7.57830,495654
7.58642,377464
7.59455,272440
7.60267,194262
7.61078,149825
7.61892,125843
7.62703,109735
7.63517,106494
7.64328,91162
7.65140,92959
7.65953,90189
7.66765,83636
7.67578,81442
7.68390,79428
7.69202,78103
7.70015,81549
7.70827,72145
7.71640,81619
7.72452,77468
7.73263,79649
7.74077,78158
7.74888,77000
7.75700,79189
7.76513,79805
7.77325,82247
7.78138,84651
7.78950,94376
7.79762,92548
7.80575,101685
7.81387,109412
7.82200,101683
7.83012,102286
7.83823,90406
7.84637,84908
7.85448,80569
7.86262,85445
7.87073,81797
7.87885,96103
7.88698,97506
7.89510,100729
7.90322,95329
7.91135,88732
7.91947,106171
7.92760,149283
7.93572,226251
7.94383,306980
7.95197,330611
7.96008,307623
7.96822,247075
7.97633,177342
7.98445,129608
7.99258,103428
8.00070,88118
8.00882,82511
8.01695,80176
8.02507,80806
8.03320,71112
8.04132,72016
8.04943,73965
8.05757,70789
8.06568,73676
8.07382,68325
8.08193,66476
8.09005,65274
8.09818,61491
8.10630,67356
8.11443,69478
8.12255,70510
8.13067,84310
8.13880,84483
8.14692,99384
8.15503,115830
8.16317,108018
8.17128,94593
8.17942,82977
8.18753,78354
8.19565,70492
8.20378,65879
8.21190,67738
8.22003,68448
8.22815,67359
8.23627,65101
8.24440,60852
8.25252,61424
8.26065,59856
8.26877,59189
8.27688,56998
8.28502,57639
8.29313,58229
8.30125,64575
8.30938,66999
8.31750,72941
8.32563,72309
8.33375,72938
8.34187,69788
8.35000,67384
8.35812,64816
8.36625,66648
8.37437,69823
8.38248,72036
8.39062,73214
8.39873,71607
8.40685,64604
8.41498,62409
8.42310,61030
8.43123,57812
8.43935,61996
8.44747,56957
8.45560,56969
8.46372,59574
8.47185,58768
8.47997,60421
8.48808,56525
8.49622,60708
8.50433,61350
8.51247,64486
8.52058,101372
8.52870,204785
8.53683,426142
8.54495,729255
8.55307,908428
8.56120,886631
8.56932,650392
8.57745,399851
8.58557,234158
8.59368,151454
8.60182,118411
8.60993,121689
8.61807,109767
8.62618,101435
8.63430,94186
8.64243,89426
8.65055,83588
8.65867,81042
8.66680,82750
8.67492,79339
8.68305,80080
8.69117,76975
8.69928,78324
8.70742,77817
8.71553,78819
8.72367,77206
8.73178,72240
8.73990,70458
8.74803,66569
8.75615,72535
8.76428,94244
8.77240,149748
8.78052,259186
8.78865,403292
8.79677,531712
8.80488,553573
8.81302,465090
8.82113,350800
8.82927,244265
8.83738,189983
8.84550,165139
8.85363,162343
8.86175,160429
8.86988,154203
8.87800,146810
8.88612,138612
8.89425,131432
8.90237,121449
8.91050,124841
8.91862,126842
8.92673,120945
8.93487,145683
8.94298,158838
8.95110,166351
8.95923,175975
8.96735,147075
8.97548,136975
8.98360,137340
8.99172,129244
8.99985,119595
9.00797,121258
9.01610,107632
9.02422,97273
9.03233,93363
9.04047,94240
9.04858,88884
9.05670,88030
9.06483,90113
9.07295,84898
9.08108,87998
9.08920,90361
9.09732,97302
9.10545,109478
9.11357,117494
9.12170,125293
9.12982,122467
9.13793,114408
9.14607,103781
9.15418,99852
9.16232,88755
9.17043,83532
9.17855,86885
9.18668,84422
9.19480,80866
9.20292,83390
9.21105,81125
9.21917,83617
9.22730,81780
9.23542,80897
9.24353,81652
9.25167,83595
9.25978,77907
9.26792,83609
9.27603,74268
9.28415,81039
9.29228,76515
9.30040,79582
9.30853,82095
9.31665,75630
9.32477,76498
9.33290,73943
9.34102,73870
9.34913,70115
9.35727,71442
9.36538,69792
9.37352,69659
9.38163,71090
9.38975,68980
9.39788,70148
9.40600,79177
9.41413,77448
9.42225,92582
9.43037,108669
9.43850,117203
9.44662,113379
9.45473,116358
9.46287,101500
9.47098,87869
9.47912,79861
9.48723,72366
9.49535,72399
9.50348,85318
9.51160,110289
9.51973,133704
9.52785,153753
9.53597,157725
9.54410,142428
9.55222,116974
9.56035,98353
9.56847,88350
9.57658,75822
9.58472,71526
9.59283,67327
9.60095,73142
9.60908,66421
9.61720,56077
9.62533,58879
9.63345,56156
9.64157,54817
9.64970,52238
9.65782,51972
9.66595,53020
9.67407,58540
9.68218,53276
9.69032,50165
9.69843,52270
9.70655,50489
9.71468,49121
9.72280,45885
9.73093,50342
9.73905,51465
9.74717,49609
9.75530,51636
9.76342,61923
9.77155,50489
9.77967,47780
9.78778,44409
9.79592,55896
9.80403,47438
9.81217,46787
9.82028,45898
9.82840,50012
9.83653,48087
9.84465,52916
9.85277,49427
9.86090,47527
9.86902,53228
9.87715,58634
9.88527,51300
9.89338,51353
9.90152,50637
9.90963,48554
9.91777,46423
9.92588,54072
9.93400,63371
9.94213,82689
9.95025,105928
9.95838,126138
9.96650,141399
9.97462,131452
9.98275,110672
9.99087,87060
9.99898,77235
10.00712,70062
10.01523,70947
10.02337,72119
10.03148,66979
10.03960,65889
10.04773,64117
10.05585,60848
10.06398,57663
10.07210,57605
10.08022,62828
10.08835,61110
10.09647,64317
10.10458,60211
10.11272,59330
10.12083,59714
10.12897,55063
10.13708,53785
10.14520,49372
10.15333,52235
10.16145,55382
10.16958,50906
10.17770,49617
10.18582,52306
10.19395,49134
10.20207,50114
10.21020,50661
10.21832,48374
10.22643,52884
10.23457,56833
10.24268,60574
10.25080,67215
10.25893,86268
10.26705,166524
10.27518,411430
10.28330,945676
10.29142,1839984
10.29955,3018151
10.30767,4604953
10.31580,6868363
10.32392,1.068182E+07
10.33203,1.58598E+07
10.34017,2.100038E+07
10.34828,2.262393E+07
10.35642,1.920511E+07
10.36453,1.271601E+07
10.37265,6569252
10.38078,3128710
10.38890,1664380
10.39702,1098307
10.40515,819688
10.41327,638851
10.42140,532081
10.42952,463197
10.43763,415452
10.44577,369896
10.45388,353722
10.46202,326658
10.47013,298026
10.47825,275763
10.48638,261489
10.49450,246275
10.50262,228834
10.51075,218972
10.51887,205549
10.52700,197606
10.53512,191147
10.54323,184659
10.55137,187023
10.55948,175423
10.56762,169462
10.57573,167103
10.58385,162652
10.59198,152578
10.60010,148932
10.60823,145375
10.61635,135502
10.62447,123819
10.63260,126318
10.64072,116882
10.64883,115035
10.65697,115827
10.66508,116241
10.67322,111760
10.68133,106379
10.68945,111541
10.69758,107469
10.70570,111458
10.71383,109766
10.72195,101936
10.73007,102580
10.73820,101634
10.74632,105255
10.75445,105242
10.76257,103499
10.77068,104824
10.77882,100065
10.78693,97491
10.79505,90730
10.80318,91789
10.81130,92739
10.81943,92839
10.82755,86249
10.83567,80914
10.84380,78226
10.85192,77802
10.86005,74870
10.86817,76960
10.87628,72896
10.88442,81569
10.89253,71850
10.90065,69534
10.90878,76702
10.91690,66946
10.92503,74700
10.93315,70453
10.94127,67256
10.94940,67021
10.95752,62977
10.96565,67553
10.97377,71649
10.98188,69608
10.99002,72449
10.99813,68533
11.00627,67432
11.01438,60768
11.02250,64635
11.03063,62253
11.03875,60918
11.04687,60911
11.05500,62228
11.06312,66266
11.07125,61508
11.07937,68822
11.08748,59117
11.09562,63838
11.10373,68090
11.11187,67327
11.11998,59852
11.12810,58605
11.13623,52597
11.14435,49439
11.15247,51027
11.16060,53368
11.16872,52088
11.17685,49526
11.18497,55630
11.19308,58511
11.20122,58944
11.20933,60088
11.21747,54630
11.22558,51608
11.23370,53331
11.24183,46040
11.24995,45087
11.25808,49495
11.26620,49658
11.27432,45884
11.28245,49279
11.29057,48287
11.29868,50177
11.30682,66573
11.31493,95406
11.32307,148300
11.33118,220936
11.33930,298590
11.34743,363919
11.35555,362783
11.36368,318801
11.37180,248920
11.37992,173192
11.38805,128272
11.39617,109877
11.40430,97997
11.41242,95157
11.42053,90132
11.42867,84563
11.43678,80342
11.44490,76223
11.45303,79183
11.46115,70169
11.46928,74421
11.47740,83532
11.48552,105330
11.49365,140602
11.50177,181134
11.50990,189190
11.51802,175720
11.52613,149622
11.53427,134755
11.54238,125705
11.55050,116894
11.55863,116564
11.56675,102448
11.57488,94543
11.58300,86764
11.59112,84343
11.59925,91134
11.60737,117329
11.61550,161904
11.62362,187693
11.63173,193434
11.63987,176235
11.64798,147126
11.65612,116494
11.66423,89951
11.67235,80463
11.68048,77505
11.68860,72253
11.69672,70081
11.70485,68219
11.71297,70299
11.72110,65894
11.72922,62520
11.73733,60898
11.74547,61062
11.75358,58904
11.76172,58497
11.76983,56629
11.77795,53238
11.78608,55245
11.79420,51426
11.80233,56868
11.81045,57332
11.81857,51907
11.82670,49595
11.83482,52922
11.84293,53714
11.85107,52000
11.85918,48459
11.86732,48639
11.87543,51095
11.88355,51056
11.89168,47152
11.89980,53847
11.90793,48362
11.91605,48410
11.92417,51762
11.93230,57307
11.94042,58029
11.94853,55648
11.95667,56319
11.96478,48531
11.97292,48464
11.98103,47395
11.98915,51527
11.99728,67872
12.00540,71305
12.01353,85223
12.02165,96589
12.02977,91537
12.03790,73401
12.04602,68707
12.05415,54731
12.06227,55182
12.07038,49270
12.07852,50417
12.08663,49508
12.09475,47046
12.10288,50338
12.11100,53151
12.11913,63357
12.12725,77061
12.13537,80266
12.14350,79520
12.15162,84878
12.15975,71188
12.16787,65495
12.17598,53090
12.18412,53120
12.19223,46932
12.20035,49310
12.20848,48074
12.21660,53419
12.22473,56956
12.23285,49397
12.24097,50791
12.24910,52098
12.25722,51539
12.26535,47279
12.27347,53669
12.28158,46502
12.28972,48363
12.29783,47392
12.30597,48097
12.31408,46405
12.32220,44776
12.33033,46668
12.33845,43097
12.34657,42465
12.35470,44845
12.36282,41677
12.37095,46291
12.37907,43035
12.38718,53160
12.39532,47612
12.40343,52211
12.41157,56182
12.41968,71310
12.42780,84713
12.43593,97957
12.44405,97967
12.45218,92635
12.46030,84917
12.46842,74278
12.47655,62555
12.48467,55265
12.49278,57068
12.50092,49756
12.50903,48136
12.51717,51446
12.52528,50041
12.53340,53055
12.54153,57307
12.54965,69253
12.55778,88307
12.56590,103742
12.57402,116081
12.58215,111309
12.59027,100941
12.59840,79812
12.60652,65992
12.61463,60065
12.62277,62600
12.63088,59731
12.63900,54953
12.64713,54225
12.65525,52264
12.66338,47346
12.67150,45747
12.67962,47151
12.68775,42082
12.69587,48086
12.70400,39699
12.71212,41935
12.72023,45878
12.72837,48329
12.73648,51170
12.74460,51806
12.75273,51775
12.76085,49835
12.76898,46487
12.77710,48396
12.78522,43490
12.79335,42612
12.80147,43633
12.80960,38880
12.81772,42437
12.82583,40794
12.83397,40197
12.84208,43144
12.85022,44977
12.85833,40216
12.86645,37723
12.87458,40655
12.88270,37716
12.89082,39080
12.89895,40385
12.90707,35378
12.91520,35185
12.92332,32627
12.93143,36527
12.93957,41324
12.94768,37230
12.95582,43139
12.96393,36089
12.97205,40185
12.98018,45242
12.98830,48165
12.99642,49287
13.00455,44721
13.01267,45542
13.02080,42367
13.02892,38681
13.03703,42326
13.04517,45642
13.05328,37456
13.06142,40600
13.06953,36671
13.07765,39721
13.08578,42818
13.09390,42154
13.10203,43559
13.11015,46004
13.11827,43758
13.12640,47697
13.13452,44421
13.14263,43514
13.15077,40319
13.15888,38709
13.16702,40997
13.17513,43150
13.18325,42413
13.19138,41843
13.19950,48489
13.20763,45436
13.21575,49432
13.22387,46195
13.23200,49496
13.24012,46360
13.24823,43314
13.25637,47973
13.26448,44173
13.27262,41924
13.28073,39584
13.28885,40885
13.29698,40905
13.30510,35093
13.31323,38603
13.32135,35261
13.32947,38243
13.33760,37088
13.34572,37629
13.35385,37875
13.36197,37752
13.37008,34864
13.37822,37510
13.38633,32993
13.39445,32081
13.40258,35396
13.41070,35383
13.41883,36665
13.42695,33333
13.43507,34963
13.44320,36282
13.45132,36094
13.45945,42765
13.46757,36596
13.47568,33892
13.48382,36655
13.49193,34270
13.50007,36877
13.50818,37943
13.51630,40031
13.52443,37911
13.53255,41266
13.54067,40297
13.54880,41359
13.55692,39736
13.56505,40052
13.57317,39658
13.58128,47310
13.58942,40119
13.59753,43974
13.60567,42706
13.61378,48105
13.62190,48360
13.63003,54667
13.63815,56444
13.64628,50220
13.65440,47129
13.66252,42242
13.67065,39217
13.67877,35428
13.68688,35475
13.69502,36896
13.70313,40465
13.71127,35684
13.71938,35478
13.72750,37716
13.73563,34465
13.74375,40940
13.75188,52941
13.76000,66183
13.76812,96679
13.77625,145699
13.78437,200547
13.79248,252402
13.80062,293754
13.80873,311953
13.81687,297500
13.82498,287482
13.83310,267655
13.84123,256161
13.84935,240654
13.85748,219567
13.86560,180826
13.87372,149490
13.88185,121762
13.88997,100262
13.89810,88148
13.90622,77398
13.91433,69310
13.92247,62409
13.93058,62695
13.93870,60558
13.94683,60143
13.95495,64478
13.96308,83700
13.97120,89438
13.97932,125286
13.98745,159863
13.99557,169118
14.00370,172469
14.01182,143603
14.01993,128795
14.02807,108044
14.03618,82392
14.04430,75623
14.05243,67664
14.06055,70737
14.06868,66057
14.07680,61085
14.08492,62439
14.09305,56083
14.10117,56131
14.10930,53320
14.11742,53839
14.12553,60098
14.13367,54138
14.14178,54822
14.14992,47838
14.15803,56323
14.16615,62272
14.17428,58756
14.18240,60258
14.19052,63463
14.19865,76465
14.20677,93787
14.21490,111874
14.22302,149158
14.23113,148054
14.23927,154232
14.24738,154671
14.25552,147728
14.26363,138318
14.27175,129327
14.27988,118055
14.28800,104751
14.29613,98217
14.30425,91987
14.31237,76525
14.32050,78065
14.32862,74888
14.33673,76284
14.34487,83269
14.35298,74292
14.36112,77892
14.36923,73093
14.37735,77367
14.38548,68719
14.39360,53660
14.40173,56170
14.40985,62831
14.41797,65311
14.42610,71160
14.43422,74841
14.44233,72454
14.45047,69702
14.45858,62614
14.46672,51852
14.47483,50180
14.48295,46683
14.49108,46786
14.49920,47029
14.50733,46844
14.51545,44742
14.52357,50768
14.53170,50566
14.53982,48863
14.54795,46941
14.55607,43934
14.56418,44361
14.57232,43419
14.58043,42646
14.58855,40739
14.59668,43983
14.60480,39827
14.61293,43060
14.62105,39351
14.62917,35583
14.63730,41430
14.64542,36185
14.65355,35099
14.66167,40442
14.66978,37840
14.67792,37173
14.68603,37644
14.69417,38749
14.70228,34582
14.71040,38223
14.71853,36540
14.72665,37931
14.73477,43026
14.74290,40344
14.75102,42467
14.75915,47807
14.76727,40944
14.77538,39473
14.78352,48019
14.79163,64442
14.79977,130291
14.80788,324951
14.81600,847026
14.82413,1905500
14.83225,3353766
14.84037,4545350
14.84850,5072895
14.85662,4497102
14.86475,3208439
14.87287,2009133
14.88098,1197082
14.88912,746734
14.89723,527844
14.90537,407634
14.91348,368240
14.92160,307528
14.92973,273422
14.93785,252577
14.94598,220393
14.95410,217589
14.96222,203943
14.97035,185245
14.97847,174009
14.98658,166675
14.99472,153407
15.00283,154806
15.01097,146063
15.01908,149381
15.02720,132116
15.03533,128655
15.04345,130572
15.05158,122960
15.05970,113500
15.06782,107571
15.07595,105393
15.08407,101341
15.09218,98511
15.10032,101077
15.10843,96720
15.11657,94970
15.12468,99252
15.13280,102137
15.14093,114630
15.14905,119041
15.15718,131161
15.16530,124253
15.17342,111995
15.18155,95210
15.18967,83445
15.19780,69478
15.20592,64204
15.21403,56665
15.22217,58483
15.23028,58562
15.23840,53020
15.24653,50177
15.25465,57679
15.26278,53822
15.27090,54238
15.27902,48480
15.28715,51155
15.29527,49658
15.30340,51953
15.31152,46474
15.31963,52836
15.32777,45829
15.33588,46461
15.34402,46654
15.35213,41580
15.36025,46508
15.36838,42738
15.37650,44311
15.38462,46767
15.39275,44569
15.40087,42275
15.40900,43687
15.41712,46615
15.42523,46973
15.43337,45019
15.44148,43019
15.44962,46149
15.45773,40849
15.46585,45600
15.47398,49473
15.48210,54056
15.49022,63886
15.49835,76581
15.50647,88531
15.51460,95765
15.52272,94821
15.53083,89332
15.53897,81528
15.54708,87870
15.55522,77660
15.56333,73838
15.57145,63545
15.57958,55976
15.58770,53839
15.59583,54233
15.60395,50003
15.61207,44454
15.62020,43514
15.62832,47275
15.63643,43245
15.64457,46119
15.65268,42537
15.66082,43694
15.66893,42474
15.67705,39109
15.68518,39192
15.69330,40925
15.70143,39403
15.70955,42298
15.71767,35195
15.72580,39265
15.73392,40174
15.74205,41546
15.75017,55982
15.75828,60448
15.76642,102104
15.77453,160577
15.78265,294617
15.79078,458428
15.79890,562776
15.80703,581096
15.81515,476054
15.82327,364199
15.83140,239027
15.83952,169271
15.84765,130053
15.85577,108116
15.86388,101165
15.87202,92812
15.88013,102329
15.88825,95415
15.89638,110190
15.90450,121499
15.91263,113857
15.92075,106242
15.92887,99987
15.93700,82747
15.94512,72901
15.95325,74187
15.96137,73493
15.96948,79417
15.97762,79025
15.98573,83722
15.99387,88447
16.00198,86507
16.01010,84300
16.01823,80939
16.02635,74856
16.03447,76726
16.04260,78974
16.05072,69631
16.05885,63682
16.06697,63048
16.07508,55424
16.08322,54910
16.09133,51992
16.09947,50368
16.10758,49724
16.11570,49482
16.12383,50086
16.13195,54078
16.14008,58023
16.14820,55079
16.15632,59615
16.16445,52272
16.17257,54009
16.18068,54434
16.18882,51637
16.19693,49066
16.20507,49981
16.21318,48394
16.22130,50777
16.22943,49149
16.23755,48466
16.24568,49706
16.25380,49726
16.26192,45032
16.27005,42283
16.27817,46869
16.28628,50004
16.29442,54682
16.30253,45863
16.31067,52337
16.31878,49225
16.32690,51521
16.33503,48418
16.34315,49310
16.35128,50548
16.35940,56495
16.36752,66154
16.37565,81770
16.38377,90991
16.39190,99828
16.40002,96465
16.40813,91078
16.41627,70107
16.42438,63236
16.43250,58374
16.44063,61064
16.44875,71657
16.45688,103839
16.46500,202084
16.47312,375049
16.48125,667753
16.48937,956916
16.49750,1066006
16.50562,958209
16.51373,726553
16.52187,488259
16.52998,295748
16.53810,196456
16.54623,144217
16.55435,124951
16.56248,110059
16.57060,97729
16.57872,98942
16.58685,94612
16.59497,91410
16.60310,89862
16.61122,89599
16.61933,92377
16.62747,88097
16.63558,93682
16.64372,81764
16.65183,74974
16.65995,68214
16.66808,65308
16.67620,62592
16.68432,60107
16.69245,64025
16.70057,58748
16.70870,54632
16.71682,55105
16.72493,55754
16.73307,52001
16.74118,48238
16.74932,49681
16.75743,52446
16.76555,53116
16.77368,62686
16.78180,57780
16.78993,65317
16.79805,58679
16.80617,52896
16.81430,49075
16.82242,42562
16.83053,45256
16.83867,41890
16.84678,44249
16.85492,43157
16.86303,42823
16.87115,41231
16.87928,38395
16.88740,39008
16.89553,37964
16.90365,39546
16.91177,41448
16.91990,44283
16.92802,40151
16.93613,45852
16.94427,43746
16.95238,41479
16.96052,43591
16.96863,38634
16.97675,35860
16.98488,41256
16.99300,41426
17.00113,40752
17.00925,43880
17.01737,43301
17.02550,39604
17.03362,43772
17.04175,45293
17.04987,51026
17.05798,51443
17.06612,54755
17.07423,57177
17.08235,53183
17.09048,57982
17.09860,59702
17.10673,59124
17.11485,70841
17.12297,73822
17.13110,74363
17.13922,71378
17.14735,69623
17.15547,63082
17.16358,61575
17.17172,57252
17.17983,56590
17.18797,46175
17.19608,45653
17.20420,45212
17.21233,41441
17.22045,45048
17.22857,51561
17.23670,48699
17.24482,45691
17.25295,44374
17.26107,45217
17.26918,48076
17.27732,42377
17.28543,41862
17.29357,41520
17.30168,41043
17.30980,42729
17.31793,42978
17.32605,41428
17.33417,43332
17.34230,45208
17.35042,49139
17.35855,49562
17.36667,55681
17.37478,54403
17.38292,53911
17.39103,49019
17.39917,45836
17.40728,51202
17.41540,51352
17.42353,53341
17.43165,46063
17.43978,49204
17.44790,48391
17.45602,47472
17.46415,47194
17.47227,47562
17.48038,44966
17.48852,40361
17.49663,48444
17.50477,41855
17.51288,43351
17.52100,40597
17.52913,45015
17.53725,40775
17.54538,47991
17.55350,47826
17.56162,53554
17.56975,71252
17.57787,125985
17.58598,208005
17.59412,371176
17.60223,582942
17.61037,839891
17.61848,1003083
17.62660,978333
17.63473,839055
17.64285,636353
17.65098,461066
17.65910,381367
17.66722,336786
17.67535,344810
17.68347,323524
17.69160,290930
17.69972,251308
17.70783,211568
17.71597,159791
17.72408,131943
17.73220,113429
17.74033,107886
17.74845,88985
17.75658,88721
17.76470,85978
17.77282,85881
17.78095,78257
17.78907,74157
17.79720,71084
17.80532,71321
17.81343,67955
17.82157,67987
17.82968,68505
17.83782,73646
17.84593,71943
17.85405,79458
17.86218,83676
17.87030,83470
17.87842,96208
17.88655,87306
17.89467,77990
17.90280,73897
17.91092,60657
17.91903,54488
17.92717,53034
17.93528,50824
17.94342,48598
17.95153,52221
17.95965,41651
17.96778,44947
17.97590,46804
17.98402,44430
17.99215,46515
18.00027,43818
18.00840,48208
18.01652,51493
18.02463,57505
18.03277,70550
18.04088,92465
18.04902,102556
18.05713,116819
18.06525,124093
18.07338,182412
18.08150,306415
18.08963,513574
18.09775,730029
18.10587,873362
18.11400,862008
18.12212,729600
18.13023,573735
18.13837,407136
18.14648,304163
18.15462,259908
18.16273,221384
18.17085,194068
18.17898,175192
18.18710,170710
18.19523,154935
18.20335,142496
18.21147,130126
18.21960,119436
18.22772,108759
18.23585,111776
18.24397,103227
18.25208,98781
18.26022,92310
18.26833,91173
18.27645,86684
18.28458,79691
18.29270,74059
18.30083,67558
18.30895,60834
18.31707,57238
18.32520,51483
18.33332,49510
18.34145,48158
18.34957,46993
18.35768,47758
18.36582,50974
18.37393,51929
18.38205,45201
18.39018,41865
18.39830,50203
18.40643,42324
18.41455,47549
18.42267,49523
18.43080,49918
18.43892,53227
18.44705,64235
18.45517,88142
18.46328,123228
18.47142,181402
18.47953,254449
18.48767,319481
18.49578,379003
18.50390,370754
18.51203,303599
18.52015,238692
18.52827,178521
18.53640,143632
18.54452,104262
18.55265,86296
18.56077,79714
18.56888,66399
18.57702,70874
18.58513,61693
18.59327,61320
18.60138,55878
18.60950,59954
18.61763,65767
18.62575,62454
18.63387,58641
18.64200,59083
18.65012,59497
18.65825,55538
18.66637,49427
18.67448,52460
18.68262,48282
18.69073,47603
18.69887,44435
18.70698,44799
18.71510,44099
18.72323,41454
18.73135,43104
18.73948,42707
18.74760,45039
18.75572,45931
18.76385,40399
18.77197,39369
18.78008,38007
18.78822,39527
18.79633,42111
18.80447,44766
18.81258,41169
18.82070,41765
18.82883,40334
18.83695,44426
18.84508,40892
18.85320,43811
18.86132,44120
18.86945,41568
18.87757,43615
18.88570,42848
18.89382,44799
18.90193,44066
18.91007,41540
18.91818,40064
18.92630,44084
18.93443,44624
18.94255,48903
18.95068,53201
18.95880,54601
18.96692,52842
18.97505,54990
18.98317,55084
18.99130,50785
18.99942,49988
19.00753,45518
19.01567,48883
19.02378,55370
19.03192,87603
19.04003,110552
19.04815,132700
19.05628,135017
19.06440,145497
19.07252,152997
19.08065,162810
19.08877,170117
19.09690,185516
19.10502,205441
19.11313,214865
19.12127,232191
19.12938,234126
19.13752,221568
19.14563,206559
19.15375,184847
19.16188,192627
19.17000,197968
19.17812,187983
19.18625,189369
19.19437,187358
19.20250,195201
19.21062,195243
19.21873,179798
19.22687,184303
19.23498,180991
19.24312,171908
19.25123,169878
19.25935,167004
19.26748,169581
19.27560,166688
19.28373,175218
19.29185,175196
19.29997,176144
19.30810,185683
19.31622,177550
19.32433,174506
19.33247,169357
19.34058,167357
19.34872,165843
19.35683,169101
19.36495,185740
19.37308,198117
19.38120,218183
19.38933,233253
19.39745,220436
19.40557,216837
19.41370,192513
19.42182,174872
19.42993,164587
19.43807,164315
19.44618,162571
19.45432,154781
19.46243,148300
19.47055,157281
19.47868,151718
19.48680,155673
19.49493,154571
19.50305,167478
19.51117,165002
19.51930,185569
19.52742,202549
19.53555,216792
19.54367,215342
19.55178,197665
19.55992,180052
19.56803,169467
19.57615,156176
19.58428,161636
19.59240,148714
19.60053,142542
19.60865,144663
19.61677,138978
19.62490,133995
19.63302,134450
19.64115,143583
19.64927,168218
19.65738,218624
19.66552,295389
19.67363,380454
19.68177,453770
19.68988,497124
19.69800,484180
19.70613,465452
19.71425,404025
19.72237,337689
19.73050,304453
19.73862,246964
19.74675,230591
19.75487,211311
19.76298,189872
19.77112,181568
19.77923,173987
19.78737,162164
19.79548,174200
19.80360,180487
19.81173,174197
19.81985,172594
19.82797,168480
19.83610,159020
19.84422,155165
19.85235,169500
19.86047,274596
19.86858,554203
19.87672,1325528
19.88483,2883919
19.89297,5474430
19.90108,8430354
19.90920,1.098124E+07
19.91733,1.165435E+07
19.92545,1.099876E+07
19.93358,8576311
19.94170,6292400
19.94982,4525536
19.95795,3373174
19.96607,2771978
19.97418,2413179
19.98232,2112329
19.99043,1957828
19.99857,1800923
20.00668,1671706
20.01480,1559974
20.02293,1450553
20.03105,1413428
20.03918,1315106
20.04730,1195253
20.05542,1047684
20.06355,859400
20.07167,684239
20.07980,535406
20.08792,417634
20.09603,369615
20.10417,333167
20.11228,315599
20.12040,283553
20.12853,278863
20.13665,269871
20.14478,254166
20.15290,259733
20.16102,263787
20.16915,272280
20.17727,286162
20.18540,291613
20.19352,307804
20.20163,315414
20.20977,291806
20.21788,283363
20.22600,275073
20.23413,260532
20.24225,252124
20.25038,253336
20.25850,254081
20.26662,296603
20.27475,355786
20.28287,415299
20.29100,477729
20.29912,506518
20.30723,505803
20.31537,460690
20.32348,390565
20.33162,333319
20.33973,276871
20.34785,226230
20.35598,189954
20.36410,167677
20.37222,139164
20.38035,124680
20.38847,129146
20.39660,121838
20.40472,108661
20.41283,115540
20.42097,110521
20.42908,114258
20.43722,122904
20.44533,135062
20.45345,136680
20.46158,151287
20.46970,141865
20.47782,146181
20.48595,132483
20.49407,123083
20.50220,116288
20.51032,109950
20.51843,101053
20.52657,96396
20.53468,98384
20.54282,94110
20.55093,100398
20.55905,94106
20.56718,98041
20.57530,93803
20.58343,92250
20.59155,91218
20.59967,87821
20.60780,87054
20.61592,88351
20.62403,97365
20.63217,83203
20.64028,88906
20.64842,86837
20.65653,89254
20.66465,90094
20.67278,85000
20.68090,82292
20.68903,89023
20.69715,80865
20.70527,77416
20.71340,83983
20.72152,88211
20.72965,85929
20.73777,80935
20.74588,80755
20.75402,81114
20.76213,80629
20.77025,81136
20.77838,87024
20.78650,91179
20.79463,101298
20.80275,125511
20.81087,161105
20.81900,205748
20.82712,241823
20.83525,261763
20.84337,257561
20.85148,212256
20.85962,165017
20.86773,130039
20.87585,108137
20.88398,103964
20.89210,94995
20.90023,85693
20.90835,82454
20.91647,87360
20.92460,84687
20.93272,78478
20.94085,79377
20.94897,84767
20.95708,75101
20.96522,76623
20.97333,73663
20.98147,74398
20.98958,77347
20.99770,73162
21.00583,73661
21.01395,71632
21.02207,73327
21.03020,79671
21.03832,68669
21.04645,73711
21.05457,77065
21.06268,74288
21.07082,74739
21.07893,72595
21.08707,74612
21.09518,71760
21.10330,69769
21.11143,70649
21.11955,72359
21.12768,72758
21.13580,80168
21.14392,96324
21.15205,110270
21.16017,137420
21.16828,155164
21.17642,179343
21.18453,175192
21.19267,149945
21.20078,131060
21.20890,106734
21.21703,98070
21.22515,91695
21.23328,78629
21.24140,81718
21.24952,76258
21.25765,76514
21.26577,78156
21.27388,71882
21.28202,75634
21.29013,74098
21.29827,70698
21.30638,76156
21.31450,70871
21.32263,69912
21.33075,69900
21.33888,78555
21.34700,71162
21.35512,73216
21.36325,69221
21.37137,75644
21.37950,71897
21.38762,67112
21.39573,72903
21.40387,76019
21.41198,79655
21.42010,85203
21.42823,93450
21.43635,89697
21.44448,87176
21.45260,85665
21.46072,81775
21.46885,72819
21.47697,77339
21.48510,70596
21.49322,68404
21.50133,67938
21.50947,68030
21.51758,68288
21.52570,64594
21.53383,64889
21.54195,70320
21.55008,61009
21.55820,65986
21.56632,63601
21.57445,62998
21.58257,65885
21.59070,76014
21.59882,79032
21.60693,83097
21.61507,77863
21.62318,86006
21.63132,86258
21.63943,80091
21.64755,87643
21.65568,96606
21.66380,106560
21.67192,117958
21.68005,115776
21.68817,105083
21.69630,99664
21.70442,92985
21.71253,86205
21.72067,75912
21.72878,72825
21.73692,73204
21.74503,72247
21.75315,63532
21.76128,64908
21.76940,61265
21.77753,62072
21.78565,63215
21.79377,59808
21.80190,62958
21.81002,63790
21.81813,59599
21.82627,67008
21.83438,72305
21.84252,80645
21.85063,94236
21.85875,103987
21.86688,103697
21.87500,95738
21.88313,88996
21.89125,83198
21.89937,77287
21.90750,69129
21.91562,65090
21.92373,60773
21.93187,57767
21.93998,54066
21.94812,53363
21.95623,53239
21.96435,46593
21.97248,50109
21.98060,45981
21.98873,44392
21.99685,48055
22.00497,48105
22.01310,43203
22.02122,50251
22.02935,51207
22.03747,51845
22.04558,49855
22.05372,54873
22.06183,50744
22.06995,51147
22.07808,49741
22.08620,54587
22.09433,49807
22.10245,50943
22.11057,47211
22.11870,48044
22.12682,47529
22.13495,49445
22.14307,54882
22.15118,45085
22.15932,46644
22.16743,43735
22.17557,44843
22.18368,44913
22.19180,44578
22.19993,50617
22.20805,42768
22.21617,47173
22.22430,49027
22.23242,49378
22.24055,51333
22.24867,48756
22.25678,50306
22.26492,50299
22.27303,49700
22.28117,53931
22.28928,55207
22.29740,54558
22.30553,60854
22.31365,65401
22.32177,86407
22.32990,99005
22.33802,115181
22.34615,133587
22.35427,130664
22.36238,128908
22.37052,110761
22.37863,89812
22.38677,86776
22.39488,78108
22.40300,85771
22.41113,98146
22.41925,105575
22.42738,117865
22.43550,118523
22.44362,115624
22.45175,102527
22.45987,85013
22.46798,78313
22.47612,67564
22.48423,66443
22.49237,64431
22.50048,67857
22.50860,68864
22.51673,71202
22.52485,69417
22.53298,73014
22.54110,65750
22.54922,66639
22.55735,63341
22.56547,61333
22.57360,58085
22.58172,55229
22.58983,66722
22.59797,60960
22.60608,67777
22.61420,68727
22.62233,74933
22.63045,78489
22.63858,76153
22.64670,78883
22.65482,82566
22.66295,84329
22.67107,87531
22.67920,89357
22.68732,96665
22.69543,107137
22.70357,119107
22.71168,129317
22.71980,146222
22.72793,147959
22.73605,147163
22.74418,150057
22.75230,131619
22.76042,128937
22.76855,109102
22.77667,107430
22.78480,106816
22.79292,107653
22.80103,115028
22.80917,126075
22.81728,130128
22.82542,142510
22.83353,138330
22.84165,133060
22.84978,119547
22.85790,117702
22.86602,104933
22.87415,110696
22.88227,109181
22.89040,107794
22.89852,109561
22.90663,118718
22.91477,123862
22.92288,133911
22.93102,151939
22.93913,164939
22.94725,175287
22.95538,167355
22.96350,148019
22.97162,141757
22.97975,126184
22.98787,118399
22.99600,110958
23.00412,108246
23.01223,101517
23.02037,99561
23.02848,93884
23.03662,82300
23.04473,88549
23.05285,73062
23.06098,80305
23.06910,71067
23.07723,68329
23.08535,60900
23.09347,60850
23.10160,69945
23.10972,62801
23.11783,61955
23.12597,57343
23.13408,55811
23.14222,56998
23.15033,54567
23.15845,49805
23.16658,51842
23.17470,50363
23.18283,51385
23.19095,48228
23.19907,51852
23.20720,49790
23.21532,48404
23.22345,48765
23.23157,48152
23.23968,48336
23.24782,60040
23.25593,69238
23.26405,82477
23.27218,93085
23.28030,88834
23.28843,87207
23.29655,79959
23.30467,67823
23.31280,68130
23.32092,65923
23.32905,75086
23.33717,95730
23.34528,103650
23.35342,116053
23.36153,136957
23.36965,136681
23.37778,153699
23.38590,163154
23.39403,160603
23.40215,156453
23.41027,158240
23.41840,160132
23.42652,150253
23.43465,157269
23.44277,149667
23.45088,148957
23.45902,147080
23.46713,140638
23.47527,142903
23.48338,139653
23.49150,134654
23.49963,133773
23.50775,129078
23.51587,127095
23.52400,132256
23.53212,129325
23.54025,123707
23.54837,121723
23.55648,125645
23.56462,129603
23.57273,135966
23.58087,140768
23.58898,151414
23.59710,167708
23.60523,180163
23.61335,188120
23.62148,188063
23.62960,189658
23.63772,215217
23.64585,224046
23.65397,289573
23.66208,400024
23.67022,512003
23.67833,599928
23.68647,611127
23.69458,543372
23.70270,446323
23.71083,335472
23.71895,268678
23.72708,216469
23.73520,186289
23.74332,176318
23.75145,157984
23.75957,175391
23.76768,250005
23.77582,445745
23.78393,781879
23.79207,1368092
23.80018,1944622
23.80830,2262165
23.81643,2284551
23.82455,2048501
23.83268,1627104
23.84080,1219356
23.84892,915935
23.85705,725061
23.86517,573226
23.87330,471636
23.88142,414898
23.88953,360960
23.89767,323613
23.90578,300881
23.91390,287037
23.92203,275632
23.93015,264593
23.93828,258796
23.94640,242970
23.95452,232597
23.96265,225523
23.97077,219052
23.97890,204219
23.98702,185479
23.99513,178615
24.00327,173971
24.01138,163796
24.01950,194587
24.02763,223417
24.03575,272934
24.04388,311083
24.05200,323148
24.06012,300680
24.06825,267593
24.07637,215837
24.08450,179682
24.09262,159847
24.10073,148385
24.10887,134798
24.11698,132625
24.12512,126076
24.13323,134196
24.14135,134631
24.14948,144763
24.15760,147781
24.16572,158435
24.17385,154038
24.18197,147883
24.19010,137871
24.19822,135716
24.20633,128535
24.21447,133417
24.22258,121990
24.23072,124082
24.23883,122181
24.24695,119372
24.25508,115380
24.26320,119091
24.27133,111846
24.27945,106682
24.28757,99327
24.29570,106512
24.30382,106915
24.31193,107509
24.32007,109312
24.32818,102251
24.33632,107497
24.34443,104298
24.35255,99996
24.36068,102284
24.36880,95835
24.37693,96582
24.38505,97564
24.39317,97647
24.40130,105289
24.40942,111837
24.41755,109231
24.42567,120617
24.43378,114725
24.44192,108110
24.45003,94544
24.45815,99886
24.46628,87012
24.47440,87091
24.48253,92550
24.49065,96014
24.49877,96825
24.50690,94808
24.51502,98222
24.52315,96975
24.53127,106296
24.53938,111794
24.54752,117404
24.55563,123889
24.56375,133682
24.57188,132573
24.58000,131947
24.58813,123382
24.59625,112341
24.60437,109086
24.61250,101046
24.62062,93560
24.62875,98954
24.63687,88041
24.64498,82828
24.65312,85170
24.66123,81294
24.66937,76361
24.67748,72824
24.68560,75833
24.69373,69679
24.70185,68876
24.70997,66299
24.71810,65117
24.72622,69094
24.73435,64738
24.74247,62215
24.75058,62352
24.75872,64464
24.76683,66690
24.77497,65833
24.78308,71597
24.79120,75114
24.79933,78587
24.80745,76920
24.81557,70857
24.82370,71299
24.83182,73353
24.83995,80212
24.84807,91386
24.85618,109045
24.86432,138433
24.87243,193502
24.88057,240360
24.88868,313299
24.89680,397392
24.90493,436699
24.91305,431316
24.92118,368396
24.92930,301295
24.93742,226220
24.94555,163157
24.95367,118688
24.96178,92609
24.96992,77947
24.97803,69418
24.98617,61947
24.99428,61537
25.00240,60353
25.01053,64061
25.01865,71561
25.02678,90900
25.03490,109698
25.04302,118009
25.05115,136163
25.05927,137539
25.06740,146546
25.07552,142115
25.08363,153109
25.09177,163299
25.09988,171177
25.10800,186897
25.11613,283181
25.12425,459626
25.13238,831033
25.14050,1430849
25.14862,2103207
25.15675,2605878
25.16487,2663820
25.17300,2453274
25.18112,1954517
25.18923,1381579
25.19737,942462
25.20548,631901
25.21360,450977
25.22173,350640
25.22985,304352
25.23798,272593
25.24610,302231
25.25422,373517
25.26235,527307
25.27047,715022
25.27860,900550
25.28672,1022788
25.29483,1045589
25.30297,905662
25.31108,730549
25.31922,543929
25.32733,389736
25.33545,291721
25.34358,257310
25.35170,235818
25.35982,205547
25.36795,198186
25.37607,199137
25.38420,182557
25.39232,180647
25.40043,183891
25.40857,176253
25.41668,175131
25.42482,175827
25.43293,173546
25.44105,161454
25.44918,165365
25.45730,159533
25.46543,155918
25.47355,156891
25.48167,156153
25.48980,156157
25.49792,156363
25.50603,160796
25.51417,152681
25.52228,144148
25.53042,148329
25.53853,146849
25.54665,147945
25.55478,136532
25.56290,134924
25.57103,132946
25.57915,135487
25.58727,131289
25.59540,130215
25.60352,130975
25.61163,121308
25.61977,112920
25.62788,106125
25.63602,102256
25.64413,95397
25.65225,103809
25.66038,95904
25.66850,101642
25.67663,98708
25.68475,94827
25.69287,84815
25.70100,77425
25.70912,72740
25.71725,72274
25.72537,70765
25.73348,65577
25.74162,74541
25.74973,72378
25.75785,72515
25.76598,72052
25.77410,69212
25.78223,67868
25.79035,67957
25.79847,63756
25.80660,68046
25.81472,62757
25.82285,75256
25.83097,78077
25.83908,77741
25.84722,69832
25.85533,75217
25.86345,72550
25.87158,72558
25.87970,62690
25.88783,61168
25.89595,62489
25.90407,57897
25.91220,53111
25.92032,53857
25.92845,57522
25.93657,55677
25.94468,51854
25.95282,63442
25.96093,56361
25.96907,56787
25.97718,54557
25.98530,57659
25.99343,56554
26.00155,59537
26.00967,73450
26.01780,105254
26.02592,138498
26.03405,165913
26.04217,184001
26.05028,199407
26.05842,199448
26.06653,202901
26.07467,212928
26.08278,221289
26.09090,209986
26.09903,228651
26.10715,212028
26.11528,220183
26.12340,217191
26.13152,218327
26.13965,228450
26.14777,232137
26.15588,230102
26.16402,235887
26.17213,234350
26.18027,222941
26.18838,228118
26.19650,227484
26.20463,229892
26.21275,210533
26.22088,215173
26.22900,209253
26.23712,207219
26.24525,219701
26.25337,210068
26.26148,208114
26.26962,197357
26.27773,200375
26.28587,208089
26.29398,199077
26.30210,199864
26.31023,208424
26.31835,204049
26.32648,194586
26.33460,191882
26.34272,199403
26.35085,191071
26.35897,190732
26.36710,196616
26.37522,200735
26.38333,205879
26.39147,205173
26.39958,208084
26.40770,227489
26.41583,228908
26.42395,219450
26.43208,219433
26.44020,202900
26.44832,195910
26.45645,198314
26.46457,186471
26.47270,183893
26.48082,178571
26.48893,181668
26.49707,175608
26.50518,176534
26.51332,171241
26.52143,171488
26.52955,171096
26.53768,167005
26.54580,159729
26.55392,163019
26.56205,155544
26.57017,158312
26.57830,165070
26.58642,155885
26.59453,160613
26.60267,155214
26.61078,152309
26.61892,153025
26.62703,153273
26.63515,147457
26.64328,153713
26.65140,147626
26.65952,145498
26.66765,149068
26.67577,158187
26.68390,155228
26.69202,152985
26.70013,153030
26.70827,145370
26.71638,138915
26.72452,136210
26.73263,132346
26.74075,131182
26.74888,125933
26.75700,124401
26.76513,129752
26.77325,130362
26.78137,122241
26.78950,132201
26.79762,122037
26.80573,119187
26.81387,129789
26.82198,129230
26.83012,130559
26.83823,126608
26.84635,118422
26.85448,115177
26.86260,111741
26.87073,111431
26.87885,115019
26.88697,106272
26.89510,109767
26.90322,109159
26.91135,105700
26.91947,101506
26.92758,100910
26.93572,102407
26.94383,103800
26.95195,96928
26.96008,101557
26.96820,102851
26.97633,109424
26.98445,126044
26.99257,158749
27.00070,215865
27.00882,305660
27.01695,420489
27.02507,567288
27.03318,662379
27.04132,724446
27.04943,688904
27.05755,628405
27.06568,523497
27.07380,412301
27.08193,336326
27.09005,287809
27.09817,256675
27.10630,221916
27.11442,206922
27.12255,191883
27.13067,177365
27.13878,167405
27.14692,163525
27.15503,154709
27.16317,149606
27.17128,151544
27.17940,166437
27.18753,177568
27.19565,191205
27.20377,184398
27.21190,184436
27.22002,168377
27.22815,146597
27.23627,134668
27.24438,125991
27.25252,125560
27.26063,114127
27.26877,115154
27.27688,102299
27.28500,104099
27.29313,106801
27.30125,102781
27.30937,97123
27.31750,95416
27.32562,92864
27.33375,87908
27.34187,94143
27.34998,94456
27.35812,93574
27.36623,94253
27.37437,94539
27.38248,96269
27.39060,99005
27.39873,93692
27.40685,85585
27.41498,89931
27.42310,92287
27.43122,82750
27.43935,81459
27.44747,78003
27.45558,78714
27.46372,75612
27.47183,80017
27.47997,73908
27.48808,77981
27.49620,75110
27.50433,78478
27.51245,73793
27.52058,78877
27.52870,72755
27.53682,77374
27.54495,73173
27.55307,80204
27.56120,80404
27.56932,75373
27.57743,84820
27.58557,77579
27.59368,88565
27.60180,89898
27.60993,94727
27.61805,95131
27.62618,93774
27.63430,87171
27.64242,82180
27.65055,77038
27.65867,67552
27.66680,70874
27.67492,70179
27.68303,66887
27.69117,67588
27.69928,64902
27.70740,71814
27.71553,67313
27.72365,68235
27.73178,63619
27.73990,61553
27.74802,62671
27.75615,66899
27.76427,63258
27.77240,82492
27.78052,95166
27.78863,118627
27.79677,132633
27.80488,140356
27.81302,133269
27.82113,115942
27.82925,104413
27.83738,94769
27.84550,83755
27.85362,76588
27.86175,64257
27.86987,66934
27.87800,65486
27.88612,63604
27.89423,61341
27.90237,63724
27.91048,62289
27.91862,61341
27.92673,61000
27.93485,63083
27.94298,66783
27.95110,62074
27.95923,63996
27.96735,55367
27.97547,60922
27.98360,60328
27.99172,67276
27.99983,62023
28.00797,67545
28.01608,73460
28.02422,70784
28.03233,67576
28.04045,66099
28.04858,64591
28.05670,63366
28.06483,66716
28.07295,71605
28.08107,60094
28.08920,62492
28.09732,61735
28.10543,59281
28.11357,59386
28.12168,58074
28.12982,60375
28.13793,55448
28.14605,57303
28.15418,58198
28.16230,56511
28.17043,51459
28.17855,54431
28.18667,56341
28.19480,59435
28.20292,62397
28.21105,68596
28.21917,77833
28.22728,80854
28.23542,93748
28.24353,92924
28.25165,85124
28.25978,73605
28.26790,74329
28.27603,61342
28.28415,66949
28.29227,59731
28.30040,63839
28.30852,60037
28.31665,67151
28.32477,70314
28.33288,79170
28.34102,86521
28.34913,97075
28.35725,100900
28.36538,129028
28.37350,130927
28.38163,140636
28.38975,150129
28.39787,152948
28.40600,156140
28.41412,152443
28.42225,151699
28.43037,137315
28.43848,127597
28.44662,116435
28.45473,113328
28.46287,110513
28.47098,96780
28.47910,102646
28.48723,87020
28.49535,84342
28.50347,87117
28.51160,81450
28.51972,82493
28.52785,77935
28.53597,76156
28.54408,80447
28.55222,76103
28.56033,72016
28.56847,71318
28.57658,65483
28.58470,69697
28.59283,61465
28.60095,65729
28.60908,65735
28.61720,63070
28.62532,62806
28.63345,61786
28.64157,60606
28.64968,66328
28.65782,65575
28.66593,70530
28.67407,67101
28.68218,65567
28.69030,64671
28.69843,69294
28.70655,67857
28.71468,60400
28.72280,60449
28.73092,63048
28.73905,56690
28.74717,63355
28.75528,58667
28.76342,57836
28.77153,61611
28.77967,65904
28.78778,71364
28.79590,75630
28.80403,68423
28.81215,75788
28.82028,67305
28.82840,64213
28.83652,65200
28.84465,57845
28.85277,58049
28.86090,58766
28.86902,58441
28.87713,56689
28.88527,61677
28.89338,60981
28.90150,60434
28.90963,64966
28.91775,73346
28.92588,71995
28.93400,65431
28.94212,64205
28.95025,67668
28.95837,69121
28.96650,72915
28.97462,78304
28.98273,75760
28.99087,70204
28.99898,64791
29.00712,61001
29.01523,62361
29.02335,55959
29.03148,54062
29.03960,52496
29.04772,53693
29.05585,57107
29.06397,61502
29.07210,64016
29.08022,71497
29.08833,77694
29.09647,77956
29.10458,78715
29.11272,74021
29.12083,66036
29.12895,61777
29.13708,58998
29.14520,60695
29.15332,59771
29.16145,60412
29.16957,55944
29.17770,57741
29.18582,60348
29.19393,67130
29.20207,71442
29.21018,89341
29.21832,93484
29.22643,100700
29.23455,112380
29.24268,102362
29.25080,104938
29.25893,95320
29.26705,85727
29.27517,77375
29.28330,73010
29.29142,64460
29.29953,60829
29.30767,56540
29.31578,53478
29.32392,54577
29.33203,52549
29.34015,55048
29.34828,61184
29.35640,58408
29.36453,53292
29.37265,52807
29.38077,56863
29.38890,53137
29.39702,52790
29.40513,55971
29.41327,52682
29.42138,53239
29.42952,52715
29.43763,55712
29.44575,54919
29.45388,56131
29.46200,51740
29.47013,52956
29.47825,55761
29.48637,56787
29.49450,54912
29.50262,56322
29.51075,54340
29.51887,58841
29.52698,57686
29.53512,54082
29.54323,57822
29.55135,58668
29.55948,53552
29.56760,54323
29.57573,49772
29.58385,49963
29.59197,46710
29.60010,52778
29.60822,50430
29.61635,52027
29.62447,51865
29.63258,56563
29.64072,52661
29.64883,50195
29.65697,49960
29.66508,49707
29.67320,48979
29.68133,51723
29.68945,48345
29.69757,54575
29.70570,51842
29.71382,56181
29.72195,57559
29.73007,52071
29.73818,55049
29.74632,47981
29.75443,47943
29.76257,51500
29.77068,46942
29.77880,44920
29.78693,48245
29.79505,45394
29.80318,44987
29.81130,41963
29.81942,43584
29.82755,46236
29.83567,50297
29.84378,46725
29.85192,45887
29.86003,53757
29.86817,77398
29.87628,116957
29.88440,224884
29.89253,396484
29.90065,652089
29.90878,877929
29.91690,988380
29.92502,908013
29.93315,698472
29.94127,477037
29.94938,265670
29.95752,171133
29.96563,112196
29.97377,90811
29.98188,89449
29.99000,85330
29.99813,90106
30.00625,90219
30.01438,93189
30.02250,90519
30.03062,99925
30.03875,97770
30.04687,104786
30.05500,106096
30.06312,98217
30.07123,99732
30.07937,95112
30.08748,92556
30.09560,93935
30.10373,91439
30.11185,84467
30.11998,84746
30.12810,78910
30.13622,77363
30.14435,82816
30.15247,70660
30.16060,72928
30.16872,73109
30.17683,73218
30.18497,65937
30.19308,71401
30.20120,68193
30.20933,60977
30.21745,61463
30.22558,61480
30.23370,55581
30.24182,59536
30.24995,56018
30.25807,56652
30.26620,50796
30.27432,52455
30.28243,54638
30.29057,52634
30.29868,54068
30.30682,55721
30.31493,49611
30.32305,58275
30.33118,54590
30.33930,55672
30.34742,53980
30.35555,55429
30.36367,54921
30.37180,57948
30.37992,54483
30.38803,53301
30.39617,58166
30.40428,50476
30.41242,51954
30.42053,56659
30.42865,48860
30.43678,50215
30.44490,55790
30.45303,51534
30.46115,47484
30.46927,51941
30.47740,53344
30.48552,53880
30.49363,54136
30.50177,58799
30.50988,54644
30.51802,57645
30.52613,56028
30.53425,62666
30.54238,53398
30.55050,49326
30.55863,54364
30.56675,53305
30.57487,51436
30.58300,50807
30.59112,46763
30.59923,47574
30.60737,46995
30.61548,50699
30.62362,47557
30.63173,48193
30.63985,42843
30.64798,45821
30.65610,50103
30.66423,48194
30.67235,44867
30.68047,51303
30.68860,47309
30.69672,49119
30.70485,44881
30.71297,50184
30.72108,44424
30.72922,51002
30.73733,47308
30.74545,44863
30.75358,47721
30.76170,53237
30.76983,54601
30.77795,64857
30.78607,93662
30.79420,132277
30.80232,210645
30.81045,326949
30.81857,407863
30.82668,448799
30.83482,424447
30.84293,349001
30.85107,244289
30.85918,168767
30.86730,119489
30.87543,90058
30.88355,77922
30.89167,69602
30.89980,65938
30.90792,61249
30.91605,66825
30.92417,63161
30.93228,57912
30.94042,69327
30.94853,60592
30.95667,67984
30.96478,60684
30.97290,63369
30.98103,59555
30.98915,58756
30.99727,60649
31.00540,60465
31.01352,59997
31.02165,57601
31.02977,60711
31.03788,64554
31.04602,64587
31.05413,59295
31.06227,67465
31.07038,62132
31.07850,66626
31.08663,81781
31.09475,105080
31.10288,137806
31.11100,180103
31.11912,206822
31.12725,211247
31.13537,192953
31.14348,165934
31.15162,116653
31.15973,95006
31.16787,74309
31.17598,73172
31.18410,68256
31.19223,74866
31.20035,79919
31.20848,84247
31.21660,99773
31.22472,110098
31.23285,121964
31.24097,110718
31.24908,109598
31.25722,100567
31.26533,82453
31.27347,70016
31.28158,67535
31.28970,55538
31.29783,54181
31.30595,52550
31.31408,52889
31.32220,54422
31.33032,54590
31.33845,62657
31.34657,54781
31.35470,58195
31.36282,54411
31.37093,59683
31.37907,60477
31.38718,69738
31.39530,73444
31.40343,70106
31.41155,70922
31.41968,65346
31.42780,59790
31.43592,60454
31.44405,55785
31.45217,54249
31.46030,56364
31.46842,58067
31.47653,65854
31.48467,69487
31.49278,77814
31.50092,90631
31.50903,80272
31.51715,82516
31.52528,81739
31.53340,64906
31.54152,65650
31.54965,66024
31.55777,69643
31.56590,78295
31.57402,77708
31.58213,80066
31.59027,84462
31.59838,73842
31.60652,75727
31.61463,65265
31.62275,62420
31.63088,63086
31.63900,63451
31.64712,61740
31.65525,69292
31.66337,76627
31.67150,72078
31.67962,77588
31.68773,83005
31.69587,72684
31.70398,70952
31.71212,73676
31.72023,73813
31.72835,72047
31.73648,76854
31.74460,77608
31.75273,68826
31.76085,71189
31.76897,67979
31.77710,67685
31.78522,72455
31.79333,71411
31.80147,74223
31.80958,70376
31.81772,71932
31.82583,68022
31.83395,70537
31.84208,70123
31.85020,69038
31.85833,74243
31.86645,76924
31.87457,78556
31.88270,82451
31.89082,82227
31.89895,83391
31.90707,84538
31.91518,91652
31.92332,87217
31.93143,92403
31.93955,95950
31.94768,91784
31.95580,93299
31.96393,89121
31.97205,93395
31.98017,90363
31.98830,92613
31.99642,92588
32.00455,92707
32.01267,103385
32.02078,90291
32.02892,91429
32.03703,91300
32.04515,87578
32.05328,86454
32.06140,80612
32.06953,80746
32.07765,77128
32.08577,76034
32.09390,75659
32.10202,79836
32.11015,75390
32.11827,71775
32.12638,69697
32.13452,73161
32.14263,67520
32.15077,66806
32.15888,63018
32.16700,59871
32.17513,58680
32.18325,60082
32.19137,60078
32.19950,64202
32.20762,60469
32.21575,60067
32.22387,59632
32.23198,61541
32.24012,59063
32.24823,61582
32.25637,62130
32.26448,62511
32.27260,61421
32.28073,66449
32.28885,65775
32.29698,72554
32.30510,66097
32.31322,65108
32.32135,58844
32.32947,59900
32.33758,62620
32.34572,60613
32.35383,62764
32.36197,59449
32.37008,62603
32.37820,62402
32.38633,59945
32.39445,57320
32.40258,54707
32.41070,55789
32.41882,54840
32.42695,55318
32.43507,52089
32.44318,54043
32.45132,62381
32.45943,54642
32.46757,54750
32.47568,50435
32.48380,53384
32.49193,51407
32.50005,51057
32.50818,52220
32.51630,48907
32.52442,49839
32.53255,47872
32.54067,50159
32.54880,50078
32.55692,47588
32.56503,52100
32.57317,49786
32.58128,50138
32.58940,49709
32.59753,49624
32.60565,52636
32.61378,49097
32.62190,49338
32.63002,48318
32.63815,43343
32.64627,44095
32.65440,45602
32.66252,50234
32.67063,50368
32.67877,58520
32.68688,54175
32.69500,59169
32.70313,62328
32.71125,61997
32.71938,57569
32.72750,56992
32.73562,56722
32.74375,48696
32.75187,49916
32.76000,46751
32.76812,48477
32.77623,46218
32.78437,52503
32.79248,46987
32.80062,46373
32.80873,48283
32.81685,48126
32.82498,48722
32.83310,45454
32.84122,48077
32.84935,43356
32.85747,48178
32.86560,49315
32.87372,44855
32.88183,45373
32.88997,48917
32.89808,45336
32.90622,51046
32.91433,48244
32.92245,51396
32.93058,50078
32.93870,54029
32.94683,45118
32.95495,44368
32.96307,53472
32.97120,54689
32.97932,57138
32.98743,77312
32.99557,98124
33.00368,127772
33.01182,150146
33.01993,180763
33.02805,167384
33.03618,138496
33.04430,114089
33.05243,92127
33.06055,74415
33.06867,80720
33.07680,67144
33.08492,66039
33.09303,71754
33.10117,73886
33.10928,78969
33.11742,84037
33.12553,98123
33.13365,110056
33.14178,106757
33.14990,95269
33.15803,87117
33.16615,70438
33.17427,66074
33.18240,67580
33.19052,57303
33.19865,58163
33.20677,58380
33.21488,52450
33.22302,54912
33.23113,56594
33.23925,57518
33.24738,51897
33.25550,54057
33.26363,52366
33.27175,53545
33.27987,49167
33.28800,55237
33.29612,50621
33.30425,49951
33.31237,47060
33.32048,48085
33.32862,49700
33.33673,49563
33.34487,48663
33.35298,52733
33.36110,53183
33.36923,53560
33.37735,55174
33.38547,52046
33.39360,51898
33.40172,53379
33.40985,50183
33.41797,49517
33.42608,50813
33.43422,51654
33.44233,51757
33.45047,50374
33.45858,49546
33.46670,44927
33.47483,49468
33.48295,48200
33.49107,49508
33.49920,50671
33.50732,52644
33.51545,56182
33.52357,57826
33.53168,60234
33.53982,59037
33.54793,63389
33.55607,60982
33.56418,64677
33.57230,64131
33.58043,56196
33.58855,54687
33.59668,53964
33.60480,52463
33.61292,51532
33.62105,49571
33.62917,48230
33.63728,50851
33.64542,52261
33.65353,53574
33.66167,48242
33.66978,55077
33.67790,52521
33.68603,52045
33.69415,52908
33.70228,50024
33.71040,50924
33.71852,50119
33.72665,51017
33.73477,51860
33.74288,48499
33.75102,50330
33.75913,49961
33.76727,51794
33.77538,49170
33.78350,50922
33.79163,46014
33.79975,47397
33.80788,49236
33.81600,47257
33.82412,44499
33.83225,48840
33.84037,46360
33.84850,50387
33.85662,51238
33.86473,55069
33.87287,50732
33.88098,53040
33.88910,55045
33.89723,56352
33.90535,49516
33.91348,51314
33.92160,49141
33.92972,52356
33.93785,48595
33.94597,49874
33.95410,48287
33.96222,47620
33.97033,47066
33.97847,47557
33.98658,50319
33.99472,46655
34.00283,52399
34.01095,48105
34.01908,47282
34.02720,49773
34.03532,52607
34.04345,49235
34.05157,52112
34.05970,50687
34.06782,48260
34.07593,49740
34.08407,48617
34.09218,46418
34.10032,49524
34.10843,51241
34.11655,49430
34.12468,47534
34.13280,46987
34.14092,48792
34.14905,50431
34.15717,47393
34.16530,50504
34.17342,48823
34.18153,48660
34.18967,48957
34.19778,53023
34.20592,50925
34.21403,47637
34.22215,49419
34.23028,49758
34.23840,48905
34.24653,49196
34.25465,52279
34.26277,49089
34.27090,49864
34.27902,54477
34.28713,45036
34.29527,50887
34.30338,47967
34.31152,50673
34.31963,50143
34.32775,51667
34.33588,46718
34.34400,47908
34.35213,43976
34.36025,47015
34.36837,48281
34.37650,49222
34.38462,50648
34.39275,49734
34.40087,49160
34.40898,51649
34.41712,49203
34.42523,53273
34.43335,48176
34.44148,49836
34.44960,50027
34.45773,51813
34.46585,44697
34.47397,47672
34.48210,47296
34.49022,49087
34.49835,57577
34.50647,47322
34.51458,44927
34.52272,47032
34.53083,50811
34.53895,54895
34.54708,53682
34.55520,58282
34.56333,60709
34.57145,61125
34.57957,66452
34.58770,63375
34.59582,62378
34.60395,65444
34.61207,61700
34.62018,59573
34.62832,59491
34.63643,58132
34.64457,53719
34.65268,55276
34.66080,54382
34.66893,50088
34.67705,53351
34.68517,55672
34.69330,52262
34.70142,50110
34.70955,55856
34.71767,53808
34.72578,56691
34.73392,50030
34.74203,49637
34.75017,54187
34.75828,54588
34.76640,50322
34.77453,56926
34.78265,49131
34.79077,50369
34.79890,51372
34.80702,52496
34.81515,49897
34.82327,51061
34.83138,57889
34.83952,51840
34.84763,53993
34.85577,54719
34.86388,56204
34.87200,53525
34.88013,48899
34.88825,52278
34.89638,52387
34.90450,50525
34.91262,53598
34.92075,51988
34.92887,53187
34.93698,56719
34.94512,60944
34.95323,76089
34.96137,113362
34.96948,167414
34.97760,238491
34.98573,312643
34.99385,351929
35.00198,315477
35.01010,260179
35.01822,192463
35.02635,119931
35.03447,86119
35.04260,72046
35.05072,68048
35.05883,60061
35.06697,62023
35.07508,59778
35.08320,59069
35.09133,61531
35.09945,64696
35.10758,64991
35.11570,54958
35.12382,61748
35.13195,59206
35.14007,56429
35.14820,59016
35.15632,57502
35.16443,54231
35.17257,59865
35.18068,67070
35.18882,53907
35.19693,59445
35.20505,51056
35.21318,55833
35.22130,54304
35.22942,52350
35.23755,52203
35.24567,53756
35.25380,57316
35.26192,52019
35.27003,52961
35.27817,58382
35.28628,57600
35.29442,56998
35.30253,54920
35.31065,58416
35.31878,54703
35.32690,56093
35.33502,54746
35.34315,51422
35.35127,52767
35.35940,54332
35.36752,51437
35.37563,55368
35.38377,47740
35.39188,51420
35.40002,55278
35.40813,57463
35.41625,57357
35.42438,51186
35.43250,54899
35.44063,59359
35.44875,53043
35.45687,56690
35.46500,56631
35.47312,61429
35.48123,58583
35.48937,58800
35.49748,62034
35.50562,56408
35.51373,62686
35.52185,62550
35.52998,56396
35.53810,54806
35.54623,55892
35.55435,55674
35.56247,51130
35.57060,55657
35.57872,59742
35.58683,58484
35.59497,57937
35.60308,54985
35.61122,58376
35.61933,59356
35.62745,55355
35.63558,54434
35.64370,49060
35.65183,53007
35.65995,53311
35.66807,50015
35.67620,49159
35.68432,50535
35.69245,54724
35.70057,54054
35.70868,61945
35.71682,55249
35.72493,55534
35.73305,49098
35.74118,53102
35.74930,57168
35.75743,56873
35.76555,61471
35.77367,58127
35.78180,62358
35.78992,62237
35.79805,57823
35.80617,55345
35.81428,55988
35.82242,53151
35.83053,58056
35.83867,53248
35.84678,57052
35.85490,53376
35.86303,57493
35.87115,60397
35.87927,51540
35.88740,53634
35.89552,52708
35.90365,49904
35.91177,53978
35.91988,54102
35.92802,53722
35.93613,57240
35.94427,59249
35.95238,54874
35.96050,54486
35.96863,54955
35.97675,54752
35.98487,51771
35.99300,56007
36.00112,55605
36.00925,50303
36.01737,52694
36.02548,55030
36.03362,53787
36.04173,57647
36.04987,59095
36.05798,57122
36.06610,54514
36.07423,52073
36.08235,54924
36.09048,56957
36.09860,57824
36.10672,53132
36.11485,53334
36.12297,58518
36.13108,53618
36.13922,55091
36.14733,52720
36.15547,58342
36.16358,58448
36.17170,59041
36.17983,59117
36.18795,57761
36.19608,60444
36.20420,55672
36.21232,54604
36.22045,60903
36.22857,53930
36.23670,50504
36.24482,56431
36.25293,54424
36.26107,60711
36.26918,53472
36.27730,54534
36.28543,53728
36.29355,53930
36.30168,53541
36.30980,58407
36.31792,58566
36.32605,65430
36.33417,61492
36.34230,63047
36.35042,61108
36.35853,61190
36.36667,64386
36.37478,62039
36.38290,53994
36.39103,57477
36.39915,63714
36.40728,58668
36.41540,58834
36.42352,57327
36.43165,55583
36.43977,59309
36.44790,59882
36.45602,60900
36.46413,56658
36.47227,58329
36.48038,57136
36.48852,51825
36.49663,55372
36.50475,58548
36.51288,52266
36.52100,54987
36.52912,55450
36.53725,57449
36.54537,53208
36.55350,57160
36.56162,61695
36.56973,58978
36.57787,57672
36.58598,54097
36.59412,57779
36.60223,58099
36.61035,56382
36.61848,57595
36.62660,55952
36.63472,53207
36.64285,55532
36.65097,52970
36.65910,57052
36.66722,58652
36.67533,55538
36.68347,59002
36.69158,60130
36.69972,57502
36.70783,58113
36.71595,54685
36.72408,58169
36.73220,54179
36.74033,54617
36.74845,55828
36.75657,60363
36.76470,56973
36.77282,59927
36.78093,54646
36.78907,60309
36.79718,65622
36.80532,54855
36.81343,51585
36.82155,52117
36.82968,58122
36.83780,61172
36.84593,54957
36.85405,58683
36.86217,56569
36.87030,56760
36.87842,58993
36.88655,57127
36.89467,59294
36.90278,58758
36.91092,54420
36.91903,56159
36.92715,63086
36.93528,59647
36.94340,69755
36.95153,84696
36.95965,100300
36.96777,124260
36.97590,150981
36.98402,166412
36.99215,149271
37.00027,133896
37.00838,114978
37.01652,96472
37.02463,83074
37.03275,74004
37.04088,71924
37.04900,70963
37.05713,74081
37.06525,72274
37.07337,73289
37.08150,76605
37.08962,76700
37.09775,79850
37.10587,75339
37.11398,77346
37.12212,75231
37.13023,78499
37.13837,78684
37.14648,83637
37.15460,76618
37.16273,77375
37.17085,83195
37.17897,78449
37.18710,72518
37.19522,75126
37.20335,75873
37.21147,76494
37.21958,79105
37.22772,81925
37.23583,77422
37.24397,79116
37.25208,75401
37.26020,82768
37.26833,75437
37.27645,76604
37.28458,73019
37.29270,75468
37.30082,75648
37.30895,77281
37.31707,77159
37.32518,75965
37.33332,77675
37.34143,79130
37.34957,76846
37.35768,77643
37.36580,85479
37.37393,80540
37.38205,80736
37.39018,82888
37.39830,82088
37.40642,84492
37.41455,81787
37.42267,76099
37.43078,76040
37.43892,81579
37.44703,73935
37.45517,81069
37.46328,70970
37.47140,76002
37.47953,77483
37.48765,80116
