D:\MassHunter\GCMS\1\data\JTB-E02\BACandSTRAW\JTB-E02-207-11.D Wed Mar 13 13:52:10 2019
Start of data points
2.09530,237411
2.10342,236915
2.11155,257148
2.11967,241756
2.12780,254213
2.13592,247694
2.14403,237488
2.15217,233923
2.16028,227457
2.16840,205597
2.17653,202019
2.18465,192517
2.19278,181222
2.20090,174026
2.20902,165556
2.21715,168919
2.22527,164301
2.23340,154656
2.24152,152034
2.24963,162571
2.25777,145189
2.26588,139850
2.27400,138373
2.28213,126872
2.29025,153471
2.29838,126146
2.30650,124501
2.31462,124330
2.32275,126369
2.33087,120466
2.33900,119515
2.34712,118506
2.35523,117523
2.36337,135302
2.37148,255892
2.37962,467350
2.38773,540924
2.39585,516364
2.40398,648206
2.41210,521428
2.42022,336206
2.42835,280438
2.43647,258544
2.44460,246904
2.45272,237879
2.46083,231867
2.46897,220467
2.47708,214344
2.48522,203837
2.49333,204781
2.50145,202352
2.50958,203324
2.51770,200782
2.52583,193417
2.53395,195866
2.54207,198013
2.55020,188988
2.55832,184712
2.56643,186879
2.57457,189743
2.58268,190674
2.59082,188901
2.59893,189190
2.60705,182016
2.61518,190617
2.62330,182461
2.63143,185029
2.63955,186915
2.64767,184833
2.65580,178014
2.66392,179157
2.67203,179964
2.68017,173055
2.68828,167071
2.69642,167197
2.70453,178589
2.71265,175492
2.72078,175914
2.72890,177668
2.73703,170946
2.74515,174247
2.75327,182006
2.76140,169576
2.76952,174084
2.77765,165300
2.78577,164675
2.79388,164119
2.80202,163011
2.81013,160083
2.81825,159531
2.82638,157158
2.83450,157586
2.84263,157715
2.85075,161235
2.85887,156479
2.86700,155814
2.87512,158912
2.88325,155318
2.89137,154088
2.89948,146739
2.90762,147859
2.91573,159534
2.92387,151819
2.93198,151928
2.94010,150202
2.94823,145770
2.95635,149877
2.96447,144824
2.97260,152285
2.98072,148310
2.98885,145798
2.99697,144652
3.00508,143483
3.01322,141518
3.02133,145062
3.02947,146167
3.03758,137079
3.04570,138868
3.05383,142139
3.06195,138151
3.07008,139628
3.07820,133556
3.08632,143488
3.09445,148120
3.10257,138460
3.11068,135752
3.11882,130934
3.12693,137994
3.13507,137602
3.14318,138034
3.15130,134337
3.15943,132095
3.16755,138351
3.17568,131680
3.18380,132204
3.19192,132624
3.20005,139873
3.20817,134991
3.21628,127929
3.22442,132606
3.23253,131437
3.24067,137092
3.24878,142519
3.25690,145979
3.26503,148574
3.27315,155199
3.28128,180558
3.28940,188823
3.29752,167728
3.30565,159619
3.31377,156167
3.32190,150052
3.33002,144739
3.33813,145286
3.34627,150668
3.35438,159636
3.36250,182121
3.37063,221686
3.37875,206180
3.38688,173369
3.39500,157746
3.40312,150454
3.41125,144793
3.41937,146393
3.42750,144549
3.43562,140392
3.44373,161514
3.45187,183292
3.45998,198707
3.46812,249625
3.47623,314216
3.48435,318787
3.49248,271221
3.50060,232805
3.50872,222176
3.51685,202712
3.52497,193023
3.53310,178417
3.54122,174113
3.54933,161056
3.55747,159099
3.56558,153243
3.57372,155168
3.58183,153299
3.58995,139668
3.59808,146615
3.60620,138620
3.61432,143719
3.62245,139708
3.63057,133945
3.63870,133175
3.64682,138931
3.65493,133612
3.66307,132123
3.67118,127732
3.67932,123379
3.68743,128744
3.69555,130511
3.70368,126309
3.71180,125529
3.71993,124813
3.72805,130904
3.73617,129535
3.74430,117073
3.75242,120852
3.76053,127109
3.76867,126268
3.77678,125613
3.78492,122755
3.79303,120498
3.80115,125977
3.80928,122793
3.81740,119081
3.82553,124027
3.83365,118967
3.84177,118893
3.84990,117524
3.85802,126438
3.86615,129673
3.87427,146200
3.88238,147046
3.89052,136710
3.89863,132611
3.90675,125857
3.91488,120028
3.92300,124264
3.93113,117610
3.93925,114837
3.94737,111379
3.95550,117349
3.96362,119811
3.97175,123937
3.97987,124392
3.98798,139477
3.99612,162783
4.00423,156391
4.01235,143146
4.02048,130487
4.02860,122571
4.03673,122278
4.04485,119380
4.05297,105503
4.06110,118632
4.06922,112028
4.07735,118166
4.08547,121113
4.09358,116653
4.10172,111523
4.10983,114301
4.11797,118115
4.12608,113712
4.13420,115365
4.14233,118551
4.15045,107981
4.15857,111544
4.16670,108897
4.17482,102996
4.18295,117165
4.19107,116222
4.19918,112636
4.20732,107785
4.21543,110441
4.22357,109531
4.23168,108862
4.23980,115294
4.24793,110682
4.25605,110632
4.26418,106577
4.27230,106446
4.28042,107189
4.28855,107769
4.29667,109490
4.30478,111542
4.31292,112861
4.32103,110721
4.32917,110953
4.33728,111922
4.34540,114535
4.35353,113138
4.36165,113346
4.36978,112371
4.37790,116647
4.38602,127632
4.39415,124449
4.40227,122415
4.41040,115232
4.41852,109112
4.42663,111242
4.43477,110123
4.44288,108117
4.45100,111054
4.45913,114282
4.46725,116074
4.47538,119069
4.48350,118721
4.49162,113183
4.49975,112532
4.50787,108832
4.51600,111112
4.52412,113932
4.53223,104820
4.54037,107490
4.54848,103893
4.55660,110561
4.56473,105999
4.57285,110088
4.58098,109286
4.58910,102422
4.59722,106880
4.60535,104329
4.61347,105943
4.62160,107038
4.62972,102151
4.63783,110362
4.64597,105363
4.65408,104133
4.66222,107293
4.67033,102608
4.67845,103320
4.68658,108040
4.69470,102611
4.70282,103047
4.71095,100749
4.71907,106299
4.72720,102994
4.73532,103851
4.74343,105839
4.75157,108158
4.75968,108531
4.76782,109567
4.77593,119694
4.78405,116338
4.79218,115376
4.80030,117125
4.80843,112545
4.81655,113152
4.82467,114057
4.83280,110888
4.84092,114361
4.84903,115886
4.85717,105799
4.86528,114087
4.87342,110448
4.88153,104585
4.88965,109551
4.89778,109560
4.90590,113498
4.91403,117682
4.92215,106744
4.93027,110839
4.93840,113389
4.94652,110252
4.95463,113033
4.96277,104832
4.97088,105894
4.97902,108558
4.98713,100729
4.99525,107639
5.00338,108446
5.01150,110321
5.01963,106633
5.02775,106046
5.03587,107336
5.04400,108878
5.05212,107551
5.06025,108526
5.06837,110125
5.07648,108670
5.08462,106686
5.09273,104633
5.10085,108705
5.10898,109674
5.11710,105843
5.12523,113110
5.13335,124901
5.14147,148089
5.14960,180683
5.15772,198611
5.16585,208726
5.17397,198957
5.18208,171073
5.19022,159520
5.19833,166650
5.20647,197386
5.21458,344367
5.22270,562344
5.23083,643001
5.23895,506748
5.24707,380281
5.25520,228775
5.26332,169221
5.27145,138845
5.27957,128192
5.28768,125295
5.29582,118145
5.30393,111308
5.31207,109688
5.32018,112882
5.32830,114800
5.33643,109260
5.34455,112344
5.35267,107611
5.36080,112214
5.36892,110610
5.37705,107409
5.38517,106489
5.39328,107874
5.40142,102775
5.40953,94021
5.41767,92517
5.42578,94878
5.43390,93482
5.44203,94714
5.45015,102313
5.45828,91255
5.46640,94635
5.47452,89093
5.48265,102987
5.49077,88661
5.49888,98243
5.50702,94442
5.51513,85810
5.52327,90472
5.53138,90348
5.53950,90722
5.54763,94066
5.55575,86592
5.56388,92693
5.57200,96978
5.58012,89000
5.58825,95761
5.59637,89447
5.60450,89409
5.61262,87278
5.62073,90829
5.62887,83878
5.63698,98568
5.64510,96929
5.65323,93260
5.66135,95684
5.66948,94048
5.67760,92436
5.68572,100445
5.69385,92829
5.70197,89177
5.71010,95363
5.71822,96553
5.72633,96169
5.73447,89188
5.74258,91339
5.75072,84246
5.75883,82117
5.76695,84291
5.77508,83849
5.78320,89040
5.79132,81652
5.79945,86296
5.80757,86807
5.81570,87096
5.82382,93413
5.83193,99120
5.84007,103220
5.84818,99290
5.85632,97432
5.86443,99825
5.87255,85165
5.88068,93142
5.88880,88974
5.89692,90423
5.90505,86205
5.91317,88702
5.92130,81007
5.92942,84643
5.93753,85787
5.94567,101598
5.95378,91949
5.96192,98692
5.97003,102640
5.97815,125909
5.98628,138829
5.99440,150869
6.00253,158462
6.01065,159920
6.01877,155693
6.02690,170215
6.03502,167797
6.04313,171902
6.05127,173185
6.05938,175639
6.06752,165572
6.07563,174194
6.08375,172695
6.09188,167248
6.10000,167895
6.10813,169984
6.11625,176972
6.12437,184286
6.13250,172862
6.14062,175440
6.14875,168509
6.15687,176298
6.16498,181840
6.17312,203159
6.18123,257822
6.18935,330018
6.19748,372531
6.20560,348648
6.21373,286973
6.22185,232283
6.22997,206895
6.23810,193859
6.24622,193261
6.25435,198874
6.26247,207931
6.27058,247948
6.27872,294622
6.28683,332800
6.29495,296125
6.30308,260428
6.31120,219929
6.31933,198021
6.32745,194893
6.33557,190476
6.34370,178682
6.35182,185205
6.35995,182485
6.36807,180501
6.37618,185461
6.38432,186566
6.39243,186716
6.40057,174628
6.40868,186420
6.41680,179688
6.42493,174313
6.43305,187767
6.44117,185490
6.44930,190367
6.45742,196676
6.46555,199576
6.47367,201740
6.48178,201072
6.48992,205609
6.49803,210556
6.50617,204188
6.51428,213473
6.52240,213859
6.53053,222593
6.53865,227428
6.54678,237889
6.55490,231394
6.56302,234110
6.57115,234360
6.57927,230700
6.58738,242159
6.59552,238048
6.60363,238886
6.61177,252896
6.61988,251370
6.62800,252116
6.63613,256571
6.64425,252503
6.65238,267394
6.66050,263790
6.66862,283509
6.67675,272307
6.68487,280257
6.69298,281922
6.70112,288704
6.70923,288338
6.71737,287289
6.72548,291787
6.73360,295692
6.74173,297817
6.74985,296315
6.75798,304736
6.76610,302731
6.77422,313434
6.78235,304421
6.79047,310445
6.79860,324227
6.80672,309060
6.81483,313675
6.82297,321585
6.83108,313768
6.83920,301324
6.84733,260662
6.85545,264661
6.86358,241601
6.87170,249544
6.87982,254266
6.88795,239016
6.89607,234688
6.90420,223587
6.91232,214960
6.92043,216695
6.92857,209057
6.93668,213094
6.94482,208098
6.95293,219654
6.96105,222076
6.96918,235402
6.97730,242519
6.98542,226845
6.99355,211638
7.00167,206420
7.00980,209374
7.01792,211112
7.02603,200562
7.03417,195146
7.04228,194716
7.05042,186978
7.05853,188853
7.06665,190084
7.07478,191899
7.08290,185812
7.09103,196593
7.09915,191794
7.10727,189052
7.11540,184766
7.12352,184461
7.13163,181125
7.13977,178227
7.14788,192800
7.15602,182532
7.16413,182789
7.17225,189524
7.18038,190889
7.18850,191649
7.19663,175906
7.20475,180494
7.21287,173010
7.22100,191245
7.22912,182037
7.23723,181193
7.24537,180695
7.25348,170722
7.26162,177420
7.26973,174214
7.27785,175266
7.28598,175172
7.29410,178295
7.30223,176367
7.31035,181938
7.31847,175237
7.32660,175991
7.33472,179463
7.34285,169931
7.35097,185640
7.35908,170974
7.36722,178469
7.37533,166499
7.38345,179342
7.39158,171466
7.39970,165206
7.40783,163340
7.41595,165598
7.42407,166868
7.43220,175165
7.44032,162487
7.44845,165599
7.45657,170531
7.46468,165999
7.47282,176660
7.48093,174947
7.48907,167153
7.49718,163947
7.50530,169571
7.51343,167367
7.52155,170548
7.52967,163481
7.53780,173863
7.54592,166845
7.55405,159401
7.56217,170130
7.57028,162423
7.57842,156090
7.58653,158905
7.59467,164294
7.60278,163491
7.61090,158951
7.61903,163468
7.62715,158800
7.63527,166372
7.64340,157938
7.65152,158685
7.65965,168454
7.66777,166595
7.67588,158330
7.68402,156005
7.69213,158182
7.70027,154982
7.70838,158607
7.71650,162407
7.72463,159666
7.73275,153041
7.74088,159095
7.74900,142499
7.75712,128487
7.76525,106160
7.77337,92594
7.78148,90393
7.78962,86836
7.79773,87824
7.80587,92522
7.81398,87407
7.82210,84257
7.83023,92036
7.83835,84450
7.84648,84240
7.85460,80042
7.86272,83845
7.87085,86367
7.87897,81864
7.88710,85825
7.89522,79580
7.90333,88002
7.91147,85205
7.91958,92924
7.92770,85598
7.93583,84966
7.94395,80809
7.95208,81050
7.96020,89279
7.96832,80036
7.97645,84647
7.98457,80056
7.99270,84007
8.00082,80013
8.00893,77616
8.01707,78326
8.02518,78224
8.03330,77222
8.04143,79347
8.04955,78936
8.05768,78433
8.06580,76790
8.07392,83592
8.08205,85734
8.09017,89244
8.09830,78772
8.10642,77168
8.11453,78984
8.12267,77691
8.13078,77226
8.13892,85364
8.14703,74949
8.15515,78550
8.16328,76505
8.17140,83224
8.17952,82891
8.18765,94356
8.19577,96835
8.20390,98382
8.21202,111162
8.22013,103826
8.22827,108655
8.23638,101042
8.24452,106540
8.25263,94478
8.26075,84979
8.26888,73825
8.27700,78841
8.28513,81203
8.29325,77467
8.30137,75260
8.30950,80166
8.31762,78235
8.32573,79071
8.33387,86053
8.34198,90822
8.35012,81459
8.35823,81606
8.36635,78372
8.37448,80587
8.38260,83372
8.39073,79620
8.39885,78094
8.40697,76906
8.41510,79188
8.42322,74333
8.43135,79887
8.43947,81493
8.44758,82116
8.45572,83621
8.46383,79577
8.47195,88868
8.48008,80196
8.48820,75784
8.49633,75847
8.50445,86075
8.51257,83606
8.52070,79518
8.52882,78121
8.53695,74034
8.54507,70914
8.55318,77598
8.56132,79616
8.56943,74409
8.57755,83909
8.58568,76999
8.59380,75422
8.60193,75141
8.61005,78327
8.61817,75856
8.62630,77136
8.63442,75832
8.64255,71354
8.65067,76880
8.65878,77310
8.66692,77584
8.67503,71469
8.68317,73122
8.69128,72232
8.69940,72309
8.70753,73316
8.71565,72997
8.72377,78772
8.73190,71763
8.74002,76972
8.74815,68411
8.75627,75085
8.76438,78139
8.77252,73282
8.78063,84725
8.78877,75701
8.79688,80025
8.80500,75184
8.81313,78443
8.82125,71924
8.82938,73558
8.83750,71768
8.84562,75723
8.85375,77957
8.86187,71192
8.86998,74554
8.87812,75101
8.88623,75084
8.89437,73677
8.90248,76643
8.91060,73562
8.91873,72372
8.92685,75167
8.93498,82250
8.94310,70918
8.95122,72895
8.95935,71827
8.96747,73090
8.97558,72387
8.98372,67667
8.99183,73318
8.99997,72252
9.00808,81081
9.01620,85631
9.02433,91716
9.03245,121469
9.04058,145832
9.04870,171320
9.05682,153282
9.06495,135064
9.07307,118366
9.08120,109091
9.08932,100244
9.09743,100548
9.10557,89113
9.11368,87203
9.12180,80836
9.12993,82484
9.13805,79122
9.14618,73823
9.15430,76042
9.16242,71487
9.17055,73902
9.17867,78647
9.18680,68629
9.19492,73727
9.20303,76355
9.21117,78469
9.21928,76563
9.22742,73314
9.23553,78879
9.24365,75417
9.25178,75187
9.25990,74593
9.26802,73073
9.27615,80287
9.28427,72030
9.29240,71497
9.30052,77342
9.30863,71264
9.31677,70406
9.32488,70093
9.33302,74782
9.34113,70332
9.34925,72357
9.35738,72063
9.36550,74732
9.37362,73712
9.38175,74377
9.38987,74896
9.39800,70913
9.40612,72355
9.41423,69519
9.42237,68430
9.43048,69390
9.43862,68944
9.44673,72445
9.45485,72301
9.46298,73186
9.47110,73564
9.47923,72687
9.48735,66778
9.49547,72389
9.50360,69170
9.51172,69322
9.51983,73890
9.52797,63382
9.53608,66913
9.54422,73936
9.55233,67097
9.56045,68965
9.56858,72600
9.57670,69865
9.58483,72084
9.59295,75549
9.60107,70677
9.60920,64306
9.61732,72874
9.62545,75754
9.63357,77203
9.64168,69390
9.64982,76974
9.65793,75719
9.66605,68218
9.67418,73687
9.68230,68346
9.69043,69547
9.69855,70896
9.70667,65337
9.71480,74963
9.72292,72885
9.73105,67401
9.73917,73420
9.74728,73153
9.75542,66710
9.76353,68796
9.77167,64536
9.77978,65461
9.78790,67790
9.79603,65252
9.80415,68298
9.81227,69895
9.82040,68675
9.82852,65089
9.83665,64241
9.84477,64498
9.85288,63305
9.86102,63765
9.86913,66409
9.87727,74086
9.88538,70454
9.89350,80119
9.90163,90285
9.90975,91930
9.91787,95642
9.92600,90726
9.93412,90827
9.94225,94349
9.95037,91666
9.95848,91171
9.96662,89679
9.97473,89892
9.98287,95464
9.99098,109507
9.99910,127159
10.00723,227997
10.01535,503823
10.02348,927188
10.03160,1409986
10.03972,1643213
10.04785,1480076
10.05597,1019025
10.06408,630287
10.07222,364847
10.08033,219729
10.08847,164585
10.09658,118504
10.10470,95776
10.11283,94257
10.12095,93655
10.12908,92802
10.13720,91041
10.14532,89022
10.15345,93862
10.16157,86152
10.16970,90707
10.17782,81132
10.18593,84918
10.19407,92801
10.20218,89569
10.21030,90344
10.21843,89769
10.22655,88301
10.23468,84030
10.24280,83453
10.25092,82374
10.25905,84878
10.26717,84795
10.27530,82724
10.28342,82794
10.29153,88004
10.29967,88958
10.30778,88875
10.31590,81363
10.32403,83860
10.33215,85906
10.34028,91249
10.34840,88350
10.35652,85455
10.36465,94814
10.37277,91568
10.38090,79136
10.38902,79587
10.39713,79391
10.40527,78636
10.41338,81521
10.42152,77539
10.42963,80513
10.43775,80188
10.44588,76184
10.45400,79710
10.46212,74049
10.47025,78483
10.47837,76309
10.48650,75799
10.49462,79442
10.50273,82144
10.51087,75618
10.51898,74255
10.52712,80192
10.53523,74796
10.54335,82970
10.55148,74485
10.55960,83971
10.56773,90485
10.57585,92883
10.58397,96262
10.59210,101635
10.60022,93812
10.60833,93799
10.61647,89735
10.62458,93594
10.63272,94975
10.64083,91176
10.64895,104412
10.65708,101512
10.66520,90643
10.67333,94564
10.68145,87257
10.68957,91425
10.69770,90543
10.70582,99226
10.71393,88354
10.72207,95742
10.73018,91254
10.73832,84140
10.74643,94270
10.75455,87021
10.76268,86959
10.77080,87285
10.77893,77370
10.78705,80860
10.79517,71852
10.80330,72687
10.81142,77531
10.81955,72527
10.82767,77162
10.83578,72207
10.84392,74832
10.85203,81095
10.86015,78546
10.86828,74596
10.87640,76520
10.88453,79907
10.89265,79933
10.90077,75232
10.90890,75753
10.91702,71759
10.92515,80009
10.93327,77320
10.94138,77324
10.94952,73716
10.95763,75902
10.96577,81924
10.97388,93702
10.98200,108610
10.99013,104275
10.99825,107689
11.00637,89287
11.01450,78876
11.02262,73370
11.03075,71777
11.03887,70229
11.04698,72495
11.05512,71353
11.06323,66785
11.07137,64546
11.07948,69961
11.08760,65150
11.09573,66814
11.10385,64045
11.11198,64210
11.12010,72448
11.12822,66408
11.13635,71382
11.14447,65972
11.15258,72793
11.16072,73799
11.16883,64499
11.17697,64984
11.18508,66614
11.19320,66673
11.20133,64893
11.20945,67816
11.21758,64385
11.22570,64139
11.23382,58433
11.24195,64014
11.25007,60747
11.25818,60040
11.26632,57871
11.27443,61165
11.28257,64024
11.29068,61779
11.29880,55394
11.30693,56756
11.31505,67515
11.32318,66503
11.33130,61048
11.33942,61995
11.34755,56265
11.35567,55247
11.36380,57159
11.37192,67813
11.38003,66540
11.38817,67695
11.39628,64467
11.40440,75331
11.41253,112676
11.42065,175126
11.42878,296706
11.43690,473307
11.44502,693879
11.45315,849224
11.46127,889196
11.46940,727913
11.47752,505844
11.48563,318789
11.49377,196193
11.50188,125590
11.51002,91465
11.51813,76414
11.52625,76549
11.53438,75067
11.54250,67574
11.55062,72047
11.55875,66780
11.56687,68477
11.57500,67060
11.58312,65581
11.59123,64906
11.59937,69779
11.60748,63400
11.61562,65187
11.62373,64086
11.63185,63867
11.63998,61127
11.64810,66129
11.65622,64047
11.66435,65084
11.67247,70917
11.68060,60768
11.68872,64284
11.69683,67877
11.70497,66841
11.71308,62916
11.72122,74696
11.72933,75475
11.73745,69593
11.74558,69170
11.75370,64152
11.76183,78476
11.76995,70884
11.77807,65648
11.78620,74783
11.79432,67370
11.80243,62557
11.81057,66795
11.81868,69226
11.82682,65626
11.83493,71485
11.84305,74426
11.85118,74793
11.85930,69554
11.86743,73101
11.87555,68524
11.88367,71800
11.89180,64181
11.89992,65903
11.90805,65405
11.91617,67969
11.92428,67859
11.93242,67521
11.94053,67203
11.94865,65505
11.95678,70950
11.96490,71419
11.97303,68267
11.98115,70724
11.98927,64862
11.99740,65223
12.00552,62720
12.01365,57821
12.02177,57323
12.02988,58423
12.03802,55911
12.04613,54893
12.05425,56160
12.06238,57626
12.07050,54421
12.07863,52128
12.08675,55319
12.09487,60071
12.10300,55034
12.11112,59344
12.11925,59308
12.12737,55413
12.13548,57976
12.14362,61785
12.15173,48389
12.15987,56456
12.16798,51508
12.17610,56174
12.18423,49085
12.19235,51789
12.20047,48943
12.20860,58224
12.21672,54411
12.22485,49548
12.23297,54856
12.24108,53458
12.24922,52344
12.25733,60170
12.26547,51207
12.27358,50175
12.28170,54298
12.28983,54328
12.29795,53550
12.30608,58179
12.31420,53713
12.32232,50623
12.33045,50510
12.33857,60234
12.34668,52195
12.35482,49461
12.36293,49876
12.37107,51356
12.37918,51679
12.38730,50686
12.39543,52790
12.40355,50700
12.41168,51119
12.41980,52031
12.42792,60392
12.43605,71283
12.44417,78106
12.45230,82234
12.46042,75673
12.46853,70802
12.47667,61246
12.48478,53681
12.49290,54064
12.50103,54094
12.50915,51908
12.51728,55294
12.52540,59395
12.53352,47963
12.54165,56911
12.54977,47001
12.55790,49688
12.56602,44937
12.57413,56102
12.58227,49798
12.59038,50046
12.59850,48269
12.60663,49509
12.61475,70245
12.62288,80212
12.63100,124151
12.63912,197513
12.64725,270429
12.65537,316745
12.66350,302217
12.67162,231521
12.67973,168511
12.68787,108609
12.69598,71570
12.70412,55862
12.71223,62257
12.72035,53585
12.72848,53619
12.73660,53361
12.74472,51949
12.75285,56609
12.76097,52009
12.76910,59100
12.77722,50837
12.78533,56623
12.79347,48469
12.80158,51876
12.80972,49759
12.81783,47945
12.82595,51921
12.83408,53115
12.84220,51531
12.85033,57196
12.85845,56092
12.86657,51293
12.87470,52144
12.88282,61543
12.89093,51988
12.89907,49781
12.90718,50321
12.91532,51438
12.92343,54795
12.93155,52478
12.93968,51435
12.94780,50618
12.95593,49111
12.96405,53484
12.97217,54875
12.98030,44380
12.98842,52140
12.99653,54175
13.00467,50738
13.01278,55322
13.02092,49327
13.02903,50489
13.03715,52921
13.04528,49193
13.05340,50446
13.06153,51767
13.06965,50165
13.07777,50656
13.08590,56746
13.09402,46821
13.10215,49561
13.11027,53490
13.11838,50476
13.12652,55251
13.13463,55608
13.14275,52799
13.15088,54671
13.15900,50795
13.16713,55885
13.17525,57064
13.18337,60690
13.19150,66849
13.19962,62130
13.20775,53525
13.21587,56672
13.22398,50106
13.23212,51640
13.24023,48596
13.24837,50727
13.25648,51435
13.26460,51691
13.27273,52389
13.28085,50770
13.28897,45946
13.29710,49965
13.30522,51019
13.31335,49963
13.32147,48114
13.32958,48421
13.33772,57588
13.34583,53426
13.35397,50121
13.36208,52818
13.37020,51001
13.37833,45471
13.38645,52901
13.39457,51643
13.40270,55787
13.41082,50262
13.41895,57913
13.42707,51735
13.43518,50327
13.44332,49224
13.45143,51991
13.45957,51854
13.46768,49324
13.47580,47615
13.48393,48423
13.49205,48117
13.50018,48580
13.50830,52080
13.51642,47763
13.52455,49726
13.53267,50407
13.54078,50907
13.54892,57824
13.55703,49666
13.56517,49720
13.57328,51998
13.58140,50432
13.58953,45870
13.59765,48358
13.60578,58018
13.61390,48301
13.62202,51468
13.63015,51470
13.63827,55522
13.64640,53673
13.65452,52575
13.66263,50177
13.67077,53690
13.67888,50358
13.68700,54675
13.69513,52194
13.70325,51068
13.71138,53235
13.71950,59809
13.72762,55395
13.73575,55572
13.74387,53981
13.75200,54058
13.76012,49263
13.76823,50096
13.77637,54366
13.78448,51979
13.79262,54950
13.80073,55206
13.80885,49765
13.81698,49415
13.82510,52219
13.83322,48357
13.84135,48179
13.84947,48816
13.85760,49004
13.86572,46461
13.87383,53171
13.88197,50332
13.89008,49647
13.89822,48356
13.90633,50097
13.91445,49422
13.92258,46641
13.93070,47712
13.93882,52045
13.94695,48138
13.95507,49202
13.96320,50647
13.97132,49873
13.97943,49078
13.98757,49321
13.99568,51915
14.00382,65053
14.01193,69179
14.02005,73895
14.02818,97493
14.03630,121665
14.04443,124214
14.05255,123948
14.06067,97434
14.06880,86141
14.07692,68929
14.08503,54958
14.09317,60018
14.10128,59650
14.10942,59493
14.11753,62896
14.12565,55087
14.13378,58232
14.14190,61420
14.15003,52939
14.15815,53675
14.16627,53069
14.17440,49705
14.18252,52416
14.19065,51641
14.19877,53193
14.20688,48357
14.21502,62598
14.22313,55121
14.23125,51467
14.23938,53197
14.24750,57767
14.25563,54453
14.26375,52310
14.27187,51859
14.28000,52678
14.28812,53489
14.29625,50284
14.30437,49995
14.31248,54836
14.32062,57434
14.32873,53668
14.33685,51443
14.34498,53888
14.35310,59605
14.36123,52514
14.36935,49197
14.37747,46722
14.38560,52412
14.39372,47139
14.40185,57998
14.40997,54100
14.41808,51119
14.42622,49562
14.43433,47407
14.44247,51753
14.45058,52118
14.45870,51752
14.46683,53366
14.47495,55516
14.48307,57284
14.49120,60473
14.49932,58532
14.50745,51765
14.51557,51296
14.52368,52292
14.53182,53558
14.53993,65194
14.54807,65281
14.55618,85726
14.56430,102713
14.57243,124563
14.58055,135928
14.58868,123569
14.59680,102248
14.60492,79303
14.61305,81773
14.62117,67255
14.62928,64656
14.63742,68881
14.64553,62621
14.65367,64401
14.66178,68451
14.66990,70927
14.67803,73213
14.68615,67576
14.69428,64489
14.70240,66371
14.71052,61639
14.71865,58154
14.72677,59538
14.73488,60441
14.74302,62421
14.75113,60221
14.75927,57653
14.76738,57806
14.77550,55209
14.78363,61941
14.79175,54455
14.79988,53328
14.80800,52938
14.81612,49990
14.82425,61731
14.83237,52875
14.84050,51763
14.84862,54959
14.85673,56606
14.86487,56385
14.87298,66765
14.88110,62149
14.88923,60562
14.89735,63578
14.90548,59004
14.91360,60544
14.92172,58041
14.92985,58485
14.93797,59109
14.94610,60953
14.95422,59076
14.96233,59092
14.97047,61899
14.97858,57016
14.98672,59248
14.99483,56063
15.00295,65504
15.01108,59225
15.01920,65386
15.02732,55463
15.03545,56489
15.04357,58542
15.05170,55203
15.05982,52705
15.06793,57556
15.07607,54518
15.08418,53272
15.09232,53259
15.10043,49769
15.10855,49078
15.11668,48872
15.12480,51096
15.13293,59688
15.14105,53386
15.14917,60487
15.15730,53601
15.16542,56490
15.17353,52330
15.18167,51431
15.18978,52667
15.19792,49006
15.20603,53136
15.21415,63633
15.22228,58701
15.23040,57547
15.23853,51419
15.24665,48837
15.25477,54798
15.26290,53865
15.27102,56143
15.27913,66860
15.28727,55191
15.29538,55009
15.30352,52089
15.31163,54980
15.31975,53793
15.32788,46971
15.33600,52954
15.34413,51063
15.35225,48270
15.36037,48823
15.36850,48668
15.37662,48467
15.38475,44738
15.39287,46281
15.40098,50387
15.40912,48507
15.41723,57206
15.42535,50879
15.43348,61244
15.44160,61319
15.44973,55432
15.45785,59792
15.46597,60215
15.47410,62444
15.48222,58671
15.49035,60041
15.49847,61401
15.50658,67155
15.51472,54728
15.52283,64270
15.53097,54839
15.53908,53767
15.54720,52861
15.55533,57778
15.56345,56575
15.57157,55710
15.57970,54195
15.58782,54067
15.59595,55386
15.60407,59794
15.61218,58247
15.62032,54462
15.62843,55121
15.63657,57955
15.64468,59395
15.65280,55664
15.66093,58365
15.66905,57503
15.67717,56374
15.68530,55473
15.69342,52625
15.70155,57199
15.70967,59214
15.71778,51954
15.72592,54002
15.73403,55399
15.74217,52149
15.75028,50046
15.75840,46563
15.76653,49206
15.77465,53074
15.78278,53018
15.79090,66302
15.79902,54383
15.80715,53163
15.81527,52859
15.82338,52431
15.83152,49366
15.83963,48372
15.84777,50868
15.85588,55903
15.86400,49306
15.87213,49288
15.88025,50255
15.88838,47741
15.89650,57988
15.90462,49152
15.91275,50135
15.92087,45960
15.92900,49033
15.93712,48265
15.94523,48072
15.95337,54346
15.96148,57074
15.96960,50551
15.97773,48669
15.98585,46629
15.99398,48100
16.00210,48040
16.01022,50437
16.01835,49819
16.02647,46378
16.03460,48987
16.04272,50433
16.05083,47068
16.05897,47431
16.06708,46876
16.07520,46134
16.08333,47996
16.09145,47846
16.09958,48339
16.10770,45807
16.11582,50226
16.12395,55578
16.13207,49638
16.14020,49358
16.14832,43376
16.15643,46742
16.16457,48429
16.17268,56844
16.18082,55019
16.18893,51952
16.19705,48047
16.20518,49324
16.21330,49628
16.22142,50297
16.22955,53764
16.23767,61666
16.24580,56877
16.25392,48914
16.26203,52319
16.27017,50686
16.27828,50142
16.28642,45950
16.29453,46932
16.30265,48748
16.31078,50162
16.31890,50894
16.32703,59130
16.33515,55561
16.34327,70829
16.35140,73728
16.35952,72934
16.36763,67382
16.37577,66388
16.38388,60940
16.39202,52284
16.40013,50037
16.40825,47232
16.41638,48742
16.42450,52874
16.43263,64448
16.44075,71380
16.44887,79345
16.45700,76970
16.46512,71437
16.47325,68684
16.48137,71416
16.48948,58984
16.49762,58030
16.50573,53456
16.51385,52513
16.52198,52039
16.53010,53301
16.53823,53391
16.54635,52501
16.55447,56884
16.56260,57855
16.57072,52136
16.57885,52727
16.58697,49333
16.59508,51819
16.60322,52234
16.61133,51150
16.61945,51282
16.62758,56454
16.63570,47744
16.64383,51611
16.65195,47982
16.66007,53548
16.66820,53863
16.67632,57676
16.68445,60467
16.69257,52430
16.70068,59218
16.70882,59170
16.71693,47981
16.72507,45484
16.73318,50554
16.74130,55700
16.74943,47422
16.75755,48374
16.76567,49009
16.77380,50379
16.78192,44093
16.79005,46688
16.79817,51517
16.80628,50937
16.81442,48539
16.82253,58217
16.83067,50103
16.83878,49883
16.84690,52793
16.85503,51364
16.86315,47313
16.87128,48489
16.87940,50504
16.88752,51220
16.89565,48848
16.90377,47602
16.91188,50813
16.92002,46971
16.92813,50969
16.93627,46043
16.94438,49690
16.95250,57563
16.96063,54117
16.96875,54334
16.97688,49960
16.98500,48671
16.99312,48275
17.00125,49646
17.00937,53902
17.01750,56230
17.02562,47521
17.03373,45824
17.04187,47270
17.04998,45748
17.05810,46699
17.06623,48914
17.07435,47430
17.08248,54357
17.09060,54590
17.09872,57108
17.10685,69426
17.11497,60845
17.12310,63557
17.13122,58962
17.13933,53471
17.14747,56293
17.15558,60569
17.16370,58781
17.17183,64949
17.17995,69386
17.18808,82409
17.19620,80497
17.20432,74890
17.21245,70807
17.22057,61872
17.22870,57395
17.23682,52825
17.24493,45767
17.25307,50257
17.26118,47435
17.26932,45534
17.27743,49631
17.28555,48645
17.29368,50055
17.30180,46267
17.30992,50941
17.31805,52211
17.32617,49786
17.33430,48491
17.34242,48734
17.35053,54130
17.35867,54374
17.36678,54376
17.37492,47216
17.38303,48563
17.39115,46809
17.39928,47566
17.40740,49814
17.41553,48411
17.42365,48244
17.43177,51859
17.43990,51069
17.44802,51901
17.45613,49275
17.46427,50714
17.47238,50081
17.48052,54479
17.48863,45933
17.49675,45260
17.50488,48819
17.51300,55201
17.52113,53363
17.52925,55728
17.53737,59156
17.54550,58314
17.55362,56858
17.56173,56015
17.56987,55921
17.57798,51043
17.58612,48845
17.59423,46551
17.60235,48233
17.61048,49498
17.61860,57198
17.62673,54795
17.63485,44254
17.64297,49702
17.65110,48211
17.65922,47124
17.66735,48632
17.67547,49231
17.68358,51711
17.69172,52485
17.69983,46643
17.70795,49125
17.71608,51240
17.72420,46778
17.73233,45321
17.74045,50875
17.74857,50627
17.75670,51739
17.76482,50497
17.77295,51120
17.78107,53028
17.78918,57889
17.79732,58369
17.80543,55772
17.81357,53377
17.82168,55902
17.82980,55617
17.83793,49070
17.84605,48891
17.85417,48461
17.86230,45567
17.87042,51065
17.87855,54847
17.88667,51975
17.89478,47210
17.90292,44035
17.91103,46907
17.91917,48857
17.92728,58370
17.93540,55791
17.94353,47129
17.95165,46915
17.95978,52152
17.96790,52362
17.97602,54817
17.98415,57714
17.99227,51072
18.00038,49903
18.00852,57122
18.01663,46487
18.02477,48474
18.03288,50131
18.04100,56219
18.04913,59590
18.05725,50053
18.06538,54103
18.07350,56587
18.08162,57896
18.08975,62640
18.09787,58230
18.10598,55388
18.11412,59442
18.12223,53926
18.13037,55890
18.13848,62407
18.14660,62616
18.15473,63387
18.16285,67536
18.17098,58693
18.17910,60604
18.18722,61400
18.19535,54907
18.20347,50812
18.21160,54680
18.21972,62459
18.22783,54781
18.23597,52806
18.24408,51502
18.25220,53602
18.26033,51405
18.26845,50350
18.27658,51764
18.28470,48613
18.29282,50992
18.30095,52275
18.30907,50663
18.31720,59230
18.32532,50180
18.33343,49820
18.34157,56517
18.34968,52725
18.35782,49739
18.36593,51796
18.37405,52231
18.38218,55848
18.39030,63247
18.39842,70356
18.40655,59113
18.41467,60155
18.42280,60776
18.43092,57866
18.43903,56592
18.44717,66361
18.45528,55149
18.46342,52659
18.47153,54231
18.47965,51009
18.48778,60817
18.49590,53204
18.50402,55548
18.51215,61940
18.52027,58015
18.52840,57356
18.53652,61950
18.54463,60636
18.55277,60616
18.56088,63684
18.56902,60769
18.57713,68150
18.58525,71083
18.59338,69259
18.60150,62402
18.60963,56851
18.61775,58290
18.62587,54981
18.63400,55352
18.64212,57572
18.65023,51129
18.65837,51064
18.66648,54790
18.67462,59784
18.68273,70530
18.69085,77727
18.69898,85425
18.70710,91025
18.71523,84654
18.72335,84257
18.73147,86686
18.73960,81760
18.74772,87546
18.75585,90795
18.76397,93200
18.77208,80802
18.78022,82123
18.78833,77972
18.79645,77407
18.80458,75522
18.81270,79756
18.82083,70690
18.82895,76003
18.83707,72285
18.84520,66968
18.85332,70654
18.86145,73879
18.86957,71538
18.87768,70506
18.88582,69669
18.89393,69644
18.90205,71635
18.91018,67579
18.91830,68241
18.92643,68250
18.93455,69097
18.94267,66649
18.95080,74014
18.95892,72665
18.96705,69169
18.97517,69586
18.98328,66517
18.99142,68455
18.99953,62502
19.00767,73737
19.01578,71292
19.02390,77654
19.03203,85618
19.04015,91181
19.04827,98088
19.05640,91577
19.06452,85563
19.07265,72354
19.08077,68089
19.08888,62068
19.09702,61586
19.10513,59729
19.11327,63091
19.12138,63475
19.12950,67866
19.13763,63881
19.14575,62019
19.15388,67558
19.16200,56974
19.17012,57495
19.17825,52791
19.18637,55585
19.19448,59565
19.20262,66778
19.21073,59178
19.21887,58259
19.22698,53501
19.23510,56742
19.24323,55966
19.25135,57778
19.25948,55226
19.26760,54235
19.27572,60639
19.28385,56310
19.29197,57570
19.30010,54486
19.30822,52081
19.31633,50767
19.32447,59889
19.33258,52102
19.34070,51580
19.34883,53618
19.35695,49709
19.36508,51752
19.37320,53336
19.38132,51265
19.38945,50762
19.39757,51231
19.40570,50120
19.41382,53386
19.42193,52083
19.43007,53682
19.43818,59457
19.44630,75265
19.45443,71128
19.46255,84410
19.47068,85375
19.47880,76630
19.48692,75227
19.49505,68803
19.50317,66246
19.51130,63662
19.51942,56285
19.52753,58176
19.53567,61372
19.54378,56349
19.55192,57733
19.56003,60270
19.56815,60145
19.57628,58084
19.58440,54745
19.59252,56986
19.60065,54344
19.60877,54398
19.61690,52407
19.62502,51630
19.63313,59506
19.64127,53250
19.64938,55619
19.65752,49180
19.66563,55407
19.67375,52103
19.68188,56151
19.69000,54656
19.69813,60328
19.70625,60544
19.71437,64741
19.72250,70844
19.73062,72751
19.73873,80538
19.74687,69878
19.75498,67042
19.76312,60956
19.77123,63895
19.77935,61012
19.78748,69685
19.79560,61826
19.80373,72834
19.81185,68180
19.81997,69499
19.82810,66396
19.83622,60398
19.84433,58005
19.85247,57427
19.86058,54343
19.86872,54326
19.87683,51025
19.88495,57151
19.89308,52353
19.90120,51411
19.90933,52849
19.91745,50681
19.92557,59027
19.93370,52183
19.94182,50794
19.94995,51711
19.95807,54330
19.96618,50907
19.97432,59788
19.98243,54526
19.99055,48935
19.99868,52260
20.00680,51168
20.01493,55924
20.02305,51224
20.03117,57592
20.03930,62120
20.04742,74922
20.05555,79607
20.06367,86125
20.07178,81562
20.07992,79950
20.08803,73418
20.09617,71112
20.10428,63629
20.11240,62502
20.12053,65294
20.12865,58954
20.13677,53885
20.14490,56391
20.15302,54731
20.16115,54618
20.16927,52898
20.17738,53438
20.18552,52929
20.19363,51993
20.20177,53190
20.20988,55063
20.21800,60211
20.22613,55441
20.23425,54558
20.24237,57215
20.25050,53386
20.25862,57627
20.26675,60046
20.27487,53892
20.28298,51147
20.29112,51277
20.29923,52994
20.30737,52545
20.31548,50412
20.32360,51130
20.33173,50393
20.33985,51650
20.34798,50187
20.35610,54542
20.36422,54020
20.37235,59190
20.38047,60088
20.38858,60374
20.39672,56142
20.40483,57630
20.41297,61346
20.42108,54636
20.42920,52707
20.43733,50396
20.44545,51445
20.45358,58788
20.46170,55099
20.46982,57686
20.47795,52496
20.48607,53712
20.49420,57943
20.50232,53607
20.51043,54788
20.51857,52446
20.52668,52273
20.53480,52872
20.54293,58512
20.55105,62892
20.55918,54763
20.56730,53426
20.57542,56780
20.58355,55690
20.59167,54291
20.59980,56926
20.60792,64131
20.61603,71797
20.62417,81857
20.63228,83388
20.64042,81109
20.64853,75094
20.65665,71737
20.66478,64824
20.67290,59581
20.68102,59088
20.68915,52986
20.69727,65026
20.70540,59571
20.71352,51918
20.72163,51886
20.72977,53719
20.73788,52339
20.74602,59173
20.75413,50222
20.76225,56377
20.77038,59265
20.77850,56534
20.78662,58327
20.79475,58795
20.80287,59576
20.81100,58368
20.81912,59765
20.82723,61665
20.83537,57292
20.84348,60759
20.85162,61081
20.85973,70684
20.86785,60755
20.87598,59024
20.88410,54650
20.89223,56454
20.90035,57935
20.90847,56526
20.91660,53737
20.92472,50885
20.93283,59753
20.94097,54646
20.94908,53045
20.95722,53014
20.96533,51630
20.97345,54110
20.98158,53685
20.98970,57470
20.99783,54699
21.00595,53214
21.01407,48650
21.02220,53203
21.03032,50499
21.03845,49105
21.04657,56668
21.05468,53972
21.06282,59792
21.07093,52844
21.07905,53261
21.08718,52077
21.09530,47132
21.10343,49963
21.11155,49034
21.11967,60827
21.12780,54066
21.13592,53105
21.14405,54953
21.15217,51477
21.16028,63890
21.16842,58704
21.17653,51235
21.18465,52413
21.19278,53308
21.20090,51280
21.20903,60553
21.21715,55510
21.22527,59043
21.23340,72442
21.24152,112913
21.24965,173296
21.25777,259673
21.26588,324499
21.27402,346426
21.28213,317456
21.29027,216358
21.29838,145879
21.30650,100934
21.31463,71472
21.32275,65559
21.33087,64878
21.33900,57165
21.34712,56232
21.35525,62225
21.36337,59092
21.37148,55246
21.37962,57816
21.38773,56973
21.39587,58443
21.40398,62537
21.41210,59964
21.42023,58433
21.42835,55214
21.43648,52889
21.44460,63672
21.45272,55947
21.46085,58936
21.46897,54102
21.47708,62423
21.48522,60447
21.49333,55121
21.50147,63203
21.50958,52729
21.51770,53208
21.52583,60840
21.53395,58375
21.54208,55213
21.55020,54745
21.55832,54633
21.56645,51544
21.57457,57241
21.58268,55634
21.59082,63305
21.59893,60244
21.60707,55806
21.61518,52893
21.62330,57809
21.63143,63469
21.63955,55281
21.64768,58245
21.65580,58907
21.66392,50311
21.67205,53081
21.68017,54327
21.68830,56328
21.69642,52515
21.70453,50044
21.71267,50117
21.72078,50185
21.72890,59424
21.73703,54159
21.74515,60073
21.75328,56397
21.76140,58482
21.76952,52316
21.77765,51126
21.78577,54589
21.79390,53707
21.80202,52128
21.81013,63354
21.81827,53237
21.82638,56961
21.83452,50707
21.84263,50293
21.85075,57244
21.85888,47688
21.86700,55179
21.87512,63086
21.88325,57479
21.89137,52453
21.89950,55554
21.90762,58842
21.91573,60068
21.92387,65089
21.93198,58235
21.94012,57707
21.94823,61586
21.95635,63174
21.96448,67938
21.97260,63423
21.98073,59329
21.98885,58307
21.99697,60062
22.00510,66210
22.01322,53466
22.02133,55847
22.02947,55627
22.03758,56663
22.04572,51692
22.05383,59599
22.06195,54504
22.07008,55037
22.07820,57824
22.08633,57332
22.09445,57051
22.10257,64448
22.11070,61643
22.11882,56217
22.12693,59123
22.13507,61358
22.14318,61144
22.15132,62879
22.15943,66592
22.16755,70142
22.17568,63755
22.18380,61023
22.19193,63927
22.20005,60145
22.20817,57622
22.21630,59160
22.22442,56121
22.23255,58107
22.24067,57352
22.24878,64614
22.25692,55258
22.26503,58230
22.27315,53474
22.28128,65614
22.28940,57290
22.29753,51938
22.30565,63442
22.31377,53476
22.32190,60239
22.33002,55148
22.33815,54098
22.34627,51896
22.35438,56524
22.36252,66070
22.37063,50549
22.37877,55366
22.38688,59665
22.39500,55096
22.40313,55273
22.41125,62675
22.41937,53936
22.42750,57195
22.43562,56732
22.44375,52999
22.45187,59570
22.45998,58219
22.46812,63244
22.47623,63256
22.48437,61994
22.49248,62442
22.50060,61170
22.50873,59953
22.51685,55722
22.52497,68476
22.53310,59866
22.54122,58191
22.54935,58499
22.55747,67983
22.56558,64993
22.57372,75665
22.58183,77366
22.58997,74356
22.59808,75777
22.60620,71827
22.61433,63090
22.62245,59035
22.63058,59307
22.63870,63084
22.64682,64058
22.65495,64502
22.66307,61160
22.67118,61153
22.67932,63736
22.68743,60790
22.69557,64689
22.70368,63442
22.71180,64915
22.71993,65508
22.72805,74379
22.73618,71868
22.74430,68531
22.75242,64936
22.76055,64713
22.76867,68754
22.77680,64183
22.78492,69952
22.79303,65206
22.80117,64325
22.80928,69838
22.81740,67886
22.82553,72048
22.83365,71411
22.84178,67477
22.84990,70145
22.85802,75050
22.86615,68502
22.87427,73143
22.88240,63226
22.89052,68340
22.89863,71674
22.90677,66982
22.91488,71066
22.92300,72196
22.93113,66871
22.93925,70368
22.94738,67477
22.95550,69195
22.96362,62805
22.97175,66523
22.97987,69827
22.98800,77337
22.99612,77893
23.00423,67563
23.01237,77068
23.02048,71882
23.02862,72649
23.03673,65304
23.04485,71209
23.05298,55571
23.06110,66068
23.06922,63167
23.07735,58938
23.08547,63164
23.09360,64449
23.10172,69837
23.10983,72513
23.11797,66823
23.12608,69286
23.13422,72489
23.14233,65099
23.15045,66128
23.15858,76634
23.16670,62624
23.17483,75626
23.18295,60902
23.19107,59993
23.19920,64120
23.20732,64034
23.21543,63251
23.22357,63812
23.23168,59344
23.23982,64482
23.24793,61512
23.25605,64955
23.26418,60975
23.27230,61558
23.28043,64044
23.28855,62935
23.29667,66806
23.30480,64747
23.31292,66756
23.32105,70659
23.32917,79152
23.33728,76394
23.34542,74297
23.35353,75419
23.36165,79306
23.36978,78926
23.37790,72340
23.38603,66433
23.39415,69133
23.40227,72088
23.41040,65534
23.41852,58326
23.42665,74543
23.43477,65457
23.44288,61779
23.45102,66749
23.45913,75609
23.46725,75484
23.47538,78332
23.48350,85401
23.49163,81405
23.49975,82109
23.50787,77795
23.51600,75723
23.52412,70658
23.53225,72107
23.54037,69242
23.54848,69161
23.55662,67877
23.56473,76446
23.57287,62072
23.58098,72285
23.58910,63325
23.59723,63488
23.60535,64466
23.61347,62822
23.62160,65438
23.62972,63725
23.63785,65377
23.64597,60960
23.65408,65369
23.66222,66247
23.67033,62745
23.67847,60577
23.68658,61091
23.69470,63915
23.70283,56704
23.71095,60545
23.71908,66552
23.72720,61669
23.73532,64325
23.74345,64829
23.75157,65297
23.75968,64936
23.76782,60603
23.77593,63550
23.78407,72107
23.79218,67643
23.80030,65766
23.80843,61298
23.81655,58721
23.82468,61415
23.83280,65740
23.84092,65824
23.84905,61393
23.85717,62503
23.86528,59448
23.87342,72067
23.88153,61684
23.88967,62716
23.89778,62064
23.90590,60831
23.91403,60349
23.92215,60262
23.93028,67915
23.93840,63951
23.94652,64418
23.95465,66637
23.96277,63695
23.97090,62795
23.97902,59934
23.98713,71288
23.99527,62667
24.00338,63283
24.01150,64655
24.01963,71281
24.02775,68350
24.03588,69055
24.04400,67578
24.05212,69847
24.06025,66898
24.06837,73212
24.07650,63686
24.08462,66132
24.09273,66111
24.10087,71501
24.10898,64440
24.11712,68494
24.12523,65048
24.13335,72782
24.14148,83171
24.14960,73089
24.15772,68352
24.16585,65621
24.17397,69631
24.18210,67426
24.19022,69444
24.19833,68439
24.20647,63717
24.21458,63631
24.22272,70901
24.23083,69694
24.23895,71606
24.24708,95606
24.25520,129709
24.26332,184451
24.27145,234013
24.27957,269965
24.28770,267602
24.29582,261695
24.30393,219060
24.31207,193676
24.32018,166180
24.32832,143268
24.33643,133510
24.34455,116225
24.35268,108692
24.36080,101294
24.36893,100163
24.37705,84396
24.38517,86041
24.39330,82420
24.40142,81901
24.40953,83942
24.41767,75468
24.42578,76379
24.43392,75905
24.44203,73403
24.45015,74967
24.45828,72575
24.46640,72326
24.47453,81482
24.48265,69612
24.49077,75476
24.49890,71203
24.50702,68865
24.51515,72157
24.52327,69838
24.53138,77556
24.53952,74286
24.54763,72048
24.55575,71312
24.56388,67215
24.57200,66248
24.58013,67249
24.58825,72017
24.59637,69177
24.60450,67443
24.61262,67082
24.62075,66759
24.62887,65197
24.63698,68287
24.64512,66347
24.65323,64092
24.66137,69389
24.66948,73496
24.67760,75977
24.68573,74161
24.69385,76900
24.70197,76437
24.71010,83354
24.71822,74034
24.72635,79056
24.73447,82070
24.74258,85066
24.75072,92215
24.75883,91380
24.76697,102842
24.77508,91726
24.78320,89751
24.79133,76308
24.79945,70549
24.80757,71463
24.81570,68767
24.82382,69188
24.83195,67980
24.84007,69522
24.84818,63223
24.85632,63434
24.86443,64864
24.87257,62756
24.88068,61620
24.88880,59310
24.89693,70636
24.90505,63764
24.91318,61641
24.92130,70629
24.92942,63001
24.93755,61845
24.94567,63025
24.95378,62359
24.96192,66504
24.97003,61385
24.97817,63808
24.98628,64595
24.99440,66262
25.00253,65544
25.01065,61044
25.01878,70540
25.02690,59903
25.03502,64329
25.04315,60649
25.05127,63698
25.05940,62546
25.06752,62231
25.07563,61661
25.08377,60597
25.09188,65928
25.10000,65147
25.10813,66852
25.11625,64223
25.12438,67652
25.13250,63769
25.14062,64918
25.14875,63912
25.15687,66080
25.16500,66000
25.17312,64648
25.18123,71544
25.18937,69512
25.19748,63387
25.20560,60995
25.21373,61424
25.22185,67798
25.22998,66639
25.23810,69518
25.24622,64705
25.25435,68097
25.26247,70121
25.27060,73819
25.27872,65821
25.28683,69317
25.29497,64877
25.30308,69655
25.31122,66525
25.31933,78817
25.32745,69358
25.33558,72465
25.34370,68106
25.35182,64750
25.35995,68989
25.36807,68200
25.37620,64805
25.38432,63187
25.39243,61589
25.40057,66098
25.40868,71450
25.41682,59723
25.42493,63006
25.43305,60568
25.44118,62020
25.44930,68104
25.45743,64834
25.46555,63105
25.47367,60462
25.48180,61578
25.48992,63536
25.49803,66355
25.50617,61273
25.51428,69734
25.52242,63460
25.53053,64908
25.53865,63789
25.54678,63135
25.55490,63033
25.56303,61840
25.57115,62677
25.57927,62496
25.58740,63909
25.59552,67735
25.60363,66537
25.61177,70330
25.61988,70012
25.62802,69916
25.63613,67373
25.64425,75656
25.65238,73474
25.66050,71628
25.66863,70454
25.67675,65248
25.68487,69860
25.69300,64100
25.70112,63584
25.70925,65219
25.71737,61427
25.72548,58719
25.73362,62982
25.74173,62910
25.74985,67722
25.75798,63732
25.76610,69372
25.77423,66005
25.78235,59656
25.79047,75362
25.79860,66741
25.80672,64627
25.81485,64910
25.82297,65051
25.83108,62082
25.83922,62967
25.84733,60120
25.85547,61940
25.86358,71092
25.87170,64559
25.87983,67660
25.88795,69499
25.89607,73399
25.90420,78848
25.91232,88017
25.92045,87412
25.92857,90180
25.93668,85648
25.94482,83893
25.95293,81977
25.96107,80674
25.96918,78820
25.97730,78624
25.98543,82515
25.99355,74944
26.00168,68051
26.00980,70472
26.01792,67184
26.02605,68907
26.03417,64752
26.04228,71531
26.05042,66647
26.05853,72896
26.06667,64115
26.07478,62475
26.08290,62861
26.09103,72207
26.09915,63099
26.10728,69528
26.11540,67133
26.12352,66598
26.13165,68523
26.13977,60859
26.14788,64368
26.15602,62952
26.16413,67620
26.17227,68921
26.18038,67194
26.18850,73429
26.19663,61749
26.20475,72907
26.21288,65205
26.22100,67728
26.22912,66098
26.23725,61707
26.24537,69742
26.25350,68467
26.26162,73155
26.26973,80368
26.27787,65758
26.28598,66013
26.29410,64843
26.30223,60186
26.31035,69181
26.31848,71628
26.32660,82876
26.33472,93513
26.34285,102162
26.35097,118207
26.35910,137444
26.36722,144084
26.37533,132406
26.38347,121706
26.39158,105394
26.39972,88648
26.40783,84952
26.41595,83684
26.42408,95005
26.43220,97856
26.44032,101361
26.44845,87670
26.45657,81821
26.46470,77758
26.47282,69878
26.48093,70029
26.48907,66843
26.49718,75124
26.50532,68349
26.51343,66108
26.52155,61381
26.52968,63311
26.53780,67480
26.54592,67666
26.55405,70600
26.56217,68549
26.57030,66509
26.57842,75723
26.58653,69356
26.59467,76886
26.60278,77178
26.61092,69375
26.61903,69767
26.62715,68730
26.63528,67110
26.64340,67680
26.65153,67702
26.65965,67356
26.66777,68232
26.67590,68004
26.68402,68858
26.69213,66396
26.70027,70964
26.70838,63441
26.71652,70152
26.72463,62348
26.73275,61872
26.74088,63343
26.74900,65747
26.75713,65438
26.76525,64274
26.77337,70131
26.78150,70808
26.78962,68111
26.79775,69633
26.80587,73988
26.81398,73949
26.82212,67782
26.83023,74269
26.83835,73805
26.84648,69150
26.85460,80746
26.86273,80639
26.87085,87279
26.87897,96649
26.88710,101052
26.89522,83645
26.90335,80137
26.91147,75005
26.91958,82284
26.92772,73752
26.93583,72414
26.94395,69550
26.95208,71945
26.96020,75750
26.96833,75588
26.97645,82734
26.98457,94127
26.99270,103519
27.00082,107128
27.00895,109980
27.01707,102411
27.02518,90538
27.03332,94139
27.04143,80179
27.04957,73150
27.05768,74221
27.06580,78081
27.07393,83651
27.08205,71229
27.09017,68412
27.09830,75695
27.10642,71523
27.11455,66517
27.12267,78870
27.13078,73165
27.13892,68185
27.14703,66912
27.15517,69298
27.16328,71965
27.17140,68717
27.17953,73135
27.18765,72820
27.19578,71633
27.20390,75588
27.21202,71209
27.22015,72392
27.22827,79170
27.23638,74395
27.24452,72459
27.25263,71425
27.26077,73779
27.26888,69394
27.27700,74958
27.28513,78438
27.29325,68517
27.30138,73903
27.30950,74637
27.31762,68457
27.32575,73596
27.33387,70895
27.34200,75764
27.35012,76430
27.35823,70451
27.36637,76679
27.37448,72201
27.38260,68800
27.39073,79801
27.39885,76036
27.40698,79514
27.41510,80009
27.42322,89282
27.43135,96688
27.43947,110930
27.44760,116543
27.45572,118188
27.46383,119078
27.47197,121343
27.48008,119138
27.48822,117289
27.49633,109773
27.50445,100485
27.51258,98141
27.52070,90121
27.52882,90595
27.53695,83219
27.54507,78984
27.55320,81919
27.56132,82270
27.56943,78598
27.57757,84792
27.58568,77838
27.59382,78590
27.60193,79627
27.61005,75825
27.61818,71383
27.62630,74343
27.63442,70914
27.64255,81851
27.65067,78602
27.65880,77566
27.66692,84469
27.67503,84773
27.68317,83106
27.69128,93148
27.69942,75525
27.70753,83026
27.71565,85329
27.72378,86378
27.73190,78139
27.74003,82055
27.74815,75541
27.75627,76578
27.76440,75110
27.77252,75087
27.78063,80588
27.78877,69223
27.79688,75952
27.80502,74093
27.81313,74626
27.82125,79300
27.82938,73346
27.83750,80856
27.84563,72709
27.85375,71256
27.86187,79262
27.87000,73460
27.87812,78194
27.88625,76296
27.89437,79380
27.90248,78210
27.91062,72264
27.91873,74885
27.92685,81616
27.93498,74270
27.94310,74381
27.95123,77047
27.95935,69558
27.96747,73854
27.97560,75473
27.98372,74546
27.99185,74528
27.99997,74473
28.00808,70842
28.01622,69769
28.02433,75489
28.03245,69219
28.04058,80344
28.04870,69245
28.05683,74276
28.06495,71013
28.07307,73837
28.08120,74835
28.08932,76221
28.09745,71762
28.10557,75416
28.11368,79273
28.12182,75100
28.12993,70235
28.13807,73290
28.14618,75503
28.15430,75593
28.16243,73790
28.17055,76182
28.17867,76386
28.18680,82675
28.19492,71114
28.20305,77072
28.21117,70105
28.21928,72909
28.22742,84811
28.23553,73007
28.24367,76421
28.25178,75816
28.25990,81874
28.26803,74271
28.27615,80959
28.28428,74017
28.29240,77946
28.30052,80496
28.30865,76019
28.31677,80354
28.32488,76796
28.33302,76377
28.34113,76087
28.34927,78192
28.35738,80515
28.36550,90169
28.37363,79542
28.38175,80069
28.38988,75699
28.39800,82831
28.40612,75399
28.41425,82750
28.42237,78978
28.43048,83444
28.43862,78816
28.44673,77257
28.45487,80858
28.46298,78719
28.47110,82043
28.47923,92382
28.48735,87618
28.49548,93661
28.50360,84317
28.51172,88610
28.51985,88488
28.52797,79725
28.53610,82151
28.54422,80071
28.55233,81814
28.56047,80196
28.56858,81666
28.57670,83263
28.58483,89006
28.59295,84598
28.60108,94711
28.60920,89474
28.61732,87897
28.62545,89762
28.63357,83233
28.64170,79200
28.64982,79828
28.65793,78671
28.66607,89287
28.67418,78718
28.68232,75786
28.69043,75772
28.69855,76941
28.70668,82644
28.71480,88579
28.72292,83041
28.73105,84783
28.73917,87115
28.74730,91171
28.75542,87484
28.76353,96374
28.77167,94773
28.77978,105372
28.78792,98896
28.79603,94309
28.80415,100073
28.81228,95673
28.82040,94153
28.82853,97857
28.83665,96766
28.84477,96821
28.85290,98430
28.86102,89068
28.86913,96002
28.87727,87465
28.88538,83617
28.89352,89933
28.90163,82781
28.90975,80651
28.91788,94861
28.92600,93360
28.93413,85804
28.94225,83978
28.95037,79519
28.95850,80960
28.96662,82363
28.97473,84809
28.98287,85733
28.99098,86640
28.99912,90385
29.00723,81664
29.01535,83813
29.02348,91994
29.03160,80560
29.03973,83122
29.04785,81962
29.05597,81042
29.06410,79955
29.07222,81433
29.08035,81041
29.08847,81512
29.09658,81523
29.10472,78005
29.11283,90067
29.12095,84898
29.12908,92874
29.13720,81715
29.14533,85805
29.15345,86986
29.16157,77862
29.16970,77464
29.17782,78947
29.18595,83613
29.19407,79886
29.20218,84336
29.21032,79834
29.21843,79510
29.22657,79603
29.23468,77772
29.24280,84945
29.25093,78270
29.25905,82433
29.26717,85950
29.27530,80296
29.28342,82590
29.29155,78657
29.29967,80507
29.30778,78147
29.31592,77792
29.32403,81859
29.33217,90566
29.34028,79501
29.34840,88150
29.35653,79402
29.36465,76370
29.37277,82322
29.38090,81534
29.38902,88682
29.39715,82306
29.40527,81361
29.41338,80774
29.42152,80069
29.42963,80917
29.43777,79759
29.44588,78829
29.45400,82104
29.46213,82198
29.47025,88993
29.47838,86833
29.48650,94582
29.49462,84564
29.50275,87628
29.51087,85845
29.51898,85681
29.52712,85186
29.53523,81911
29.54337,82212
29.55148,85630
29.55960,84564
29.56773,84941
29.57585,83813
29.58398,80920
29.59210,90692
29.60022,86671
29.60835,85932
29.61647,81603
29.62460,91871
29.63272,92719
29.64083,80473
29.64897,85109
29.65708,88894
29.66520,82764
29.67333,84579
29.68145,87351
29.68958,87464
29.69770,88542
29.70582,87062
29.71395,87232
29.72207,83501
29.73020,82457
29.73832,83698
29.74643,82073
29.75457,89586
29.76268,81009
29.77080,79017
29.77893,86850
29.78705,88108
29.79518,82306
29.80330,82234
29.81142,87545
29.81955,92373
29.82767,85048
29.83580,95222
29.84392,83764
29.85203,90237
29.86017,87547
29.86828,87276
29.87642,84260
29.88453,90401
29.89265,90341
29.90078,85108
29.90890,90147
29.91702,93378
29.92515,89757
29.93327,84745
29.94140,82906
29.94952,91315
29.95763,96412
29.96577,84055
29.97388,85635
29.98202,85813
29.99013,82897
29.99825,81966
30.00638,84423
30.01450,89887
30.02263,83579
30.03075,88318
30.03887,90506
30.04700,93138
30.05512,92593
30.06323,100914
30.07137,85919
30.07948,84885
30.08762,87577
30.09573,90706
30.10385,93142
30.11198,96549
30.12010,92497
30.12823,96758
30.13635,95189
30.14447,107040
30.15260,97702
30.16072,96625
30.16885,103488
30.17697,98627
30.18508,100091
30.19322,102397
30.20133,100647
30.20945,103103
30.21758,103251
30.22570,103855
30.23383,101401
30.24195,108900
30.25007,110158
30.25820,110660
30.26632,107345
30.27445,103971
30.28257,107157
30.29068,104973
30.29882,107041
30.30693,111668
30.31505,109252
30.32318,115086
30.33130,114196
30.33943,111077
30.34755,115633
30.35567,128360
30.36380,131421
30.37192,128375
30.38005,139311
30.38817,130510
30.39628,136926
30.40442,128898
30.41253,126356
30.42067,129716
30.42878,127814
30.43690,127844
30.44503,132815
30.45315,137469
30.46127,123957
30.46940,125694
30.47752,127848
30.48565,126717
30.49377,123297
30.50188,114054
30.51002,118432
30.51813,108815
30.52627,105465
30.53438,109409
30.54250,107222
30.55063,110106
30.55875,105759
30.56688,106186
30.57500,97815
30.58312,113021
30.59125,110252
30.59937,114277
30.60748,127133
30.61562,132458
30.62373,130941
30.63187,128369
30.63998,117961
30.64810,114751
30.65623,108942
30.66435,104516
30.67248,101976
30.68060,96508
30.68872,99528
30.69685,95260
30.70497,95796
30.71308,102269
30.72122,98387
30.72933,95264
30.73747,96706
30.74558,93315
30.75370,101431
30.76183,100615
30.76995,95251
30.77808,106825
30.78620,95682
30.79432,101392
30.80245,95717
30.81057,96988
30.81870,99499
30.82682,95558
30.83493,101092
30.84307,98295
30.85118,102742
30.85930,100700
30.86743,102743
30.87555,109320
30.88368,102875
30.89180,92168
30.89992,96095
30.90805,91841
30.91617,99666
30.92430,95845
30.93242,98195
30.94053,105419
30.94867,100647
30.95678,110883
30.96492,102186
30.97303,111923
30.98115,107150
30.98928,112724
30.99740,103509
31.00552,115647
31.01365,112499
31.02177,114286
31.02990,115865
31.03802,107358
31.04613,104734
31.05427,113771
31.06238,99318
31.07052,97906
31.07863,94834
31.08675,98335
31.09488,95058
31.10300,104741
31.11112,93340
31.11925,99975
31.12737,93713
31.13550,92219
31.14362,99580
31.15173,100107
31.15987,96713
31.16798,97491
31.17612,94637
31.18423,92262
31.19235,90797
31.20048,95629
31.20860,96409
31.21673,101026
31.22485,104326
31.23297,105952
31.24110,107045
31.24922,109042
31.25733,99170
31.26547,111917
31.27358,98127
31.28172,109115
31.28983,100291
31.29795,98869
31.30608,107652
31.31420,101802
31.32233,101345
31.33045,108544
31.33857,109896
31.34670,104198
31.35482,104595
31.36295,115048
31.37107,105324
31.37918,103683
31.38732,110101
31.39543,106882
31.40355,109718
31.41168,102366
31.41980,113283
31.42793,116829
31.43605,108408
31.44417,113906
31.45230,104009
31.46042,103957
31.46855,111641
31.47667,106877
31.48478,114409
31.49292,105418
31.50103,109500
31.50917,109108
31.51728,114679
31.52540,119924
31.53353,114673
31.54165,113050
31.54977,108902
31.55790,105484
31.56602,114223
31.57415,110221
31.58227,109727
31.59038,117416
31.59852,133198
31.60663,162168
31.61477,274226
31.62288,473416
31.63100,868478
31.63913,1479121
31.64725,2107320
31.65537,2508797
31.66350,2491942
31.67162,2092259
31.67975,1502184
31.68787,904721
31.69598,510349
31.70412,295805
31.71223,199741
31.72037,153897
31.72848,144962
31.73660,127143
31.74473,126064
31.75285,119562
31.76098,116394
31.76910,119826
31.77722,107812
31.78535,115594
31.79347,116894
31.80158,107312
31.80972,114492
31.81783,115758
31.82597,115357
31.83408,109361
31.84220,111434
31.85033,122220
31.85845,108265
31.86658,112909
31.87470,114134
31.88282,116996
31.89095,101279
31.89907,113628
31.90720,108766
31.91532,108215
31.92343,112485
31.93157,107972
31.93968,102951
31.94780,108343
31.95593,105293
31.96405,104504
31.97218,117632
31.98030,105122
31.98842,111797
31.99655,114829
32.00467,125316
32.01280,123653
32.02092,124764
32.02903,128178
32.03717,121939
32.04528,125437
32.05340,119984
32.06153,118612
32.06965,121135
32.07778,127342
32.08590,137814
32.09402,135339
32.10215,141273
32.11027,159500
32.11840,159793
32.12652,149598
32.13463,150442
32.14277,144055
32.15088,135418
32.15902,137861
32.16713,142447
32.17525,147078
32.18338,140902
32.19150,131126
32.19962,133338
32.20775,121803
32.21587,116474
32.22400,112166
32.23212,116803
32.24023,114013
32.24837,124024
32.25648,118300
32.26462,123408
32.27273,114787
32.28085,121363
32.28898,118351
32.29710,122769
32.30523,123568
32.31335,119720
32.32147,121815
32.32960,124645
32.33772,116398
32.34583,116137
32.35397,121969
32.36208,122441
32.37022,117840
32.37833,131470
32.38645,114035
32.39458,120456
32.40270,118881
32.41083,113753
32.41895,118316
32.42707,118126
32.43520,121078
32.44332,113083
32.45143,111509
32.45957,114934
32.46768,114512
32.47582,107213
32.48393,110797
32.49205,116276
32.50018,121917
32.50830,139958
32.51643,161635
32.52455,206533
32.53267,274115
32.54080,369216
32.54892,451329
32.55705,480507
32.56517,462136
32.57328,399115
32.58142,312436
32.58953,241509
32.59765,199274
32.60578,159126
32.61390,145762
32.62203,138651
32.63015,134127
32.63827,126907
32.64640,120756
32.65452,126583
32.66265,125951
32.67077,124959
32.67888,126296
32.68702,123379
32.69513,119317
32.70327,123200
32.71138,122551
32.71950,122269
32.72763,117736
32.73575,121170
32.74387,120379
32.75200,124599
32.76012,133167
32.76825,124051
32.77637,127316
32.78448,119921
32.79262,117746
32.80073,124179
32.80887,130195
32.81698,127448
32.82510,135658
32.83323,136191
32.84135,140168
32.84948,133540
32.85760,137550
32.86572,128715
32.87385,131841
32.88197,128205
32.89008,125580
32.89822,124067
32.90633,117280
32.91447,122792
32.92258,127341
32.93070,129697
32.93883,136428
32.94695,134511
32.95508,135879
32.96320,139516
32.97132,129852
32.97945,129830
32.98757,134332
32.99568,133814
33.00382,127363
33.01193,137901
33.02007,132817
33.02818,130780
33.03630,121107
33.04443,123702
33.05255,120350
33.06068,125155
33.06880,126979
33.07692,124128
33.08505,122900
33.09317,122429
33.10130,128647
33.10942,129990
33.11753,125738
33.12567,125104
33.13378,122043
33.14190,124553
33.15003,129820
33.15815,126004
33.16628,124285
33.17440,129560
33.18252,123415
33.19065,125294
33.19877,130436
33.20690,119266
33.21502,127649
33.22313,124666
33.23127,122532
33.23938,120282
33.24752,128352
33.25563,125294
33.26375,128175
33.27188,134417
33.28000,123735
33.28812,118039
33.29625,118316
33.30437,126176
33.31250,123226
33.32062,122559
33.32873,125316
33.33687,140559
33.34498,130953
33.35312,134925
33.36123,139202
33.36935,137091
33.37748,135119
33.38560,130879
33.39372,132731
33.40185,128645
33.40997,131701
33.41810,133086
33.42622,127190
33.43433,125615
33.44247,125765
33.45058,131836
33.45872,123665
33.46683,129888
33.47495,127042
33.48308,136078
33.49120,134155
33.49933,130639
33.50745,135699
33.51557,147913
33.52370,140688
33.53182,138656
33.53993,149899
33.54807,164066
33.55618,175049
33.56432,194147
33.57243,205684
33.58055,213023
33.58868,215214
33.59680,210238
33.60493,200919
33.61305,203925
33.62117,187118
33.62930,183127
33.63742,175883
33.64555,178633
33.65367,170520
33.66178,167563
33.66992,159807
33.67803,154982
33.68615,151483
33.69428,147644
33.70240,156972
33.71053,153623
33.71865,146786
33.72677,154373
33.73490,147878
33.74302,145245
33.75115,142510
33.75927,142760
33.76738,139151
33.77552,145619
33.78363,134610
33.79175,144578
33.79988,150533
33.80800,141210
33.81613,148296
33.82425,147823
33.83237,149462
33.84050,148747
33.84862,138472
33.85675,136770
33.86487,141533
33.87298,139347
33.88112,140135
33.88923,140622
33.89737,132529
33.90548,140748
33.91360,140000
33.92173,131281
33.92985,142938
33.93797,141189
33.94610,140962
33.95422,143768
33.96235,145305
33.97047,137364
33.97858,146954
33.98672,140755
33.99483,145704
34.00297,143061
34.01108,147577
34.01920,158352
34.02733,165090
34.03545,166064
34.04358,160382
34.05170,158500
34.05982,157437
34.06795,147764
34.07607,151157
34.08418,150188
34.09232,146359
34.10043,148740
34.10857,143263
34.11668,145857
34.12480,152533
34.13293,145697
34.14105,146957
34.14918,137225
34.15730,150989
34.16542,145694
34.17355,146800
34.18167,151320
34.18980,156247
34.19792,149715
34.20603,158857
34.21417,164671
34.22228,169794
34.23040,173497
34.23853,170120
34.24665,179977
34.25478,176705
34.26290,185887
34.27102,181523
34.27915,177404
34.28727,180031
34.29540,183884
34.30352,181320
34.31163,179841
34.31977,180360
34.32788,182482
34.33600,183609
34.34413,180738
34.35225,180841
34.36038,181108
34.36850,183443
34.37662,189947
34.38475,192371
34.39287,185902
34.40100,193516
34.40912,186593
34.41723,177628
34.42537,192498
34.43348,186811
34.44162,176695
34.44973,176417
34.45785,174053
34.46598,171338
34.47410,176349
34.48222,165533
34.49035,168621
34.49847,156688
34.50660,168180
34.51472,166507
34.52283,163494
34.53097,168961
34.53908,182482
34.54722,207674
34.55533,247013
34.56345,320446
34.57158,401357
34.57970,460624
34.58783,474853
34.59595,429643
34.60407,352469
34.61220,280541
34.62032,221593
34.62843,201597
34.63657,172921
34.64468,168679
34.65282,178265
34.66093,168875
34.66905,166641
34.67718,167229
34.68530,174248
34.69343,175278
34.70155,167955
34.70967,167739
34.71780,174096
34.72592,170336
34.73403,165434
34.74217,159144
34.75028,161253
34.75842,168248
34.76653,156011
34.77465,156402
34.78278,167721
34.79090,164469
34.79903,160318
34.80715,178849
34.81527,165732
34.82340,167126
34.83152,154834
34.83965,167104
34.84777,166551
34.85588,158889
34.86402,166908
34.87213,166577
34.88025,176278
34.88838,173633
34.89650,176374
34.90463,174639
34.91275,174942
34.92087,185315
34.92900,173409
34.93712,173679
34.94525,173128
34.95337,164650
34.96148,174849
34.96962,169199
34.97773,168332
34.98587,164304
34.99398,168323
35.00210,167667
35.01023,161926
35.01835,158767
35.02647,163443
35.03460,169470
35.04272,172847
35.05085,165550
35.05897,177761
35.06708,180238
35.07522,176061
35.08333,182679
35.09147,166138
35.09958,166269
35.10770,166175
35.11583,176257
35.12395,177492
35.13207,165180
35.14020,184155
35.14832,183731
35.15645,181713
35.16457,181071
35.17268,180250
35.18082,197008
35.18893,182617
35.19707,180003
35.20518,181360
35.21330,167448
35.22143,173711
35.22955,171997
35.23768,171235
35.24580,166745
35.25392,166284
35.26205,165026
35.27017,177182
35.27828,174551
35.28642,168068
35.29453,168894
35.30267,180058
35.31078,170417
35.31890,177905
35.32703,178684
35.33515,173317
35.34328,172655
35.35140,181343
35.35952,187287
35.36765,184899
35.37577,189106
35.38390,182974
35.39202,182525
35.40013,194516
35.40827,173882
35.41638,175320
35.42450,181480
35.43263,169387
35.44075,175094
35.44888,172710
35.45700,167113
35.46512,171549
35.47325,178594
35.48137,188039
35.48950,176870
35.49762,179522
35.50573,181444
35.51387,197027
35.52198,187131
35.53012,184456
35.53823,189789
35.54635,194877
35.55448,196029
35.56260,191553
35.57072,196371
35.57885,206193
35.58697,211770
35.59510,233128
35.60322,265961
35.61133,297527
35.61947,332240
35.62758,356149
35.63572,362445
35.64383,364036
35.65195,350169
35.66008,376087
35.66820,364108
35.67632,380934
35.68445,369735
35.69257,323251
35.70070,289969
35.70882,244938
35.71693,225420
35.72507,206118
35.73318,211067
35.74132,206998
35.74943,197679
35.75755,194439
35.76568,198367
35.77380,210654
35.78193,206364
35.79005,218542
35.79817,224064
35.80630,234915
35.81442,232510
35.82253,230757
35.83067,214738
35.83878,202392
35.84692,198217
35.85503,188962
35.86315,179983
35.87128,199937
35.87940,192517
35.88753,194165
35.89565,189006
35.90377,190809
35.91190,200026
35.92002,187031
35.92815,197058
35.93627,193685
35.94438,201161
35.95252,189478
35.96063,190243
35.96875,193629
35.97688,193957
35.98500,195343
35.99313,202309
36.00125,196447
36.00937,207760
36.01750,198329
36.02562,193474
36.03375,194228
36.04187,190252
36.04998,192661
36.05812,197861
36.06623,188130
36.07435,190645
36.08248,198283
36.09060,198879
36.09873,203436
36.10685,200317
36.11497,212591
36.12310,223351
36.13122,210751
36.13935,205836
36.14747,198351
36.15558,203021
36.16372,199040
36.17183,200009
36.17997,187139
36.18808,195431
36.19620,193513
36.20433,188965
36.21245,196697
36.22057,194331
36.22870,193553
36.23682,206415
36.24495,212729
36.25307,201256
36.26118,193229
36.26932,205558
36.27743,192575
36.28557,200920
36.29368,189056
36.30180,199114
36.30993,200584
36.31805,213200
36.32618,204035
36.33430,203773
36.34242,204348
36.35055,196384
36.35867,197607
36.36678,197506
36.37492,200677
36.38303,199787
36.39117,195422
36.39928,192744
36.40740,202872
36.41553,199840
36.42365,205436
36.43178,202128
36.43990,201635
36.44802,206971
36.45615,195932
36.46427,202363
36.47238,199756
36.48052,209785
36.48863,205225
36.49677,205272
36.50488,197213
36.51300,199349
36.52113,207331
36.52925,206024
36.53738,203345
36.54550,212273
36.55362,215593
36.56175,230413
36.56987,219141
36.57800,223412
36.58612,223734
36.59423,229882
36.60237,214051
36.61048,211719
36.61860,212952
36.62673,211596
36.63485,206395
36.64298,211460
36.65110,219607
36.65922,222105
36.66735,217947
36.67547,219892
36.68360,213832
36.69172,219205
36.69983,208919
36.70797,221846
36.71608,233103
36.72422,244197
36.73233,243944
36.74045,263703
36.74858,250361
36.75670,242381
36.76482,246217
36.77295,234636
36.78107,257252
36.78920,251649
36.79732,263186
36.80543,269196
36.81357,269776
36.82168,271225
36.82982,265275
36.83793,250689
36.84605,246857
36.85418,241940
36.86230,233476
36.87043,232947
36.87855,242552
36.88667,260867
36.89480,300815
36.90292,343827
36.91103,385050
36.91917,414719
36.92728,424341
36.93542,408763
36.94353,386488
36.95165,350508
36.95978,360025
36.96790,407851
36.97603,469485
36.98415,554826
36.99227,568493
37.00040,545910
37.00852,474909
37.01663,405515
37.02477,327126
37.03288,305470
37.04102,274465
37.04913,263646
37.05725,280729
37.06538,275453
37.07350,276496
37.08163,284701
37.08975,293436
37.09787,295844
37.10600,288811
37.11412,281482
37.12225,301262
37.13037,302101
37.13848,285235
37.14662,297828
37.15473,291489
37.16285,292244
37.17098,283630
37.17910,282357
37.18723,280750
37.19535,274194
37.20347,273905
37.21160,273349
37.21972,267490
37.22785,255487
37.23597,257578
37.24408,262472
37.25222,252496
37.26033,254877
37.26847,249663
37.27658,242047
37.28470,251473
37.29283,249217
37.30095,250289
37.30907,246713
37.31720,247645
37.32532,257423
37.33345,253063
37.34157,261829
37.34968,255779
37.35782,273621
37.36593,271850
37.37407,281293
37.38218,296626
37.39030,275387
37.39843,290224
37.40655,285189
37.41467,285104
37.42280,281263
37.43092,274705
37.43905,272261
37.44717,272086
37.45528,266318
37.46342,261923
37.47153,254995
37.47967,256358
37.48778,256678
