C:\MassHunter\GCMS\1\data\JTB-E02\BACandBLUE\JTB-E18-020-13.D Tue Jul 09 17:23:35 2019
Start of data points
2.09532	68413
2.10345	64218
2.11157	66618
2.11970	67324
2.12782	66211
2.13593	67371
2.14407	66546
2.15218	63508
2.16032	65280
2.16843	67074
2.17655	65751
2.18468	65796
2.19280	66439
2.20093	62730
2.20905	66490
2.21717	60641
2.22530	63376
2.23342	60321
2.24153	57376
2.24967	60241
2.25778	61476
2.26592	64285
2.27403	197322
2.28215	1179816
2.29028	1524914
2.29840	616157
2.30653	318670
2.31465	244922
2.32277	215377
2.33090	195987
2.33902	175269
2.34713	187428
2.35527	160141
2.36338	142920
2.37152	136960
2.37963	126265
2.38775	126044
2.39588	121855
2.40400	118003
2.41213	117164
2.42025	116321
2.42837	111166
2.43650	111416
2.44462	108526
2.45275	113016
2.46087	109452
2.46898	106919
2.47712	102397
2.48523	102366
2.49335	125557
2.50148	191574
2.50960	160786
2.51773	123540
2.52585	114732
2.53397	112839
2.54210	104578
2.55022	107219
2.55835	130882
2.56647	185141
2.57458	180761
2.58272	139077
2.59083	125197
2.59897	116868
2.60708	120386
2.61520	214433
2.62333	325747
2.63145	307697
2.63957	218848
2.64770	155431
2.65582	132830
2.66395	118657
2.67207	113226
2.68018	113425
2.68832	103513
2.69643	103054
2.70457	103045
2.71268	99470
2.72080	98904
2.72893	98195
2.73705	97627
2.74517	95772
2.75330	98623
2.76142	97591
2.76955	92327
2.77767	94867
2.78578	132763
2.79392	221761
2.80203	201473
2.81017	140379
2.81828	144825
2.82640	182903
2.83453	225942
2.84265	291678
2.85078	240753
2.85890	159916
2.86702	134447
2.87515	130369
2.88327	124942
2.89138	110890
2.89952	106108
2.90763	109803
2.91577	102292
2.92388	98356
2.93200	95998
2.94013	93479
2.94825	93711
2.95638	96147
2.96450	91039
2.97262	92176
2.98075	89397
2.98887	96925
2.99700	100734
3.00512	99321
3.01323	102482
3.02137	96429
3.02948	92431
3.03760	92687
3.04573	93036
3.05385	92160
3.06198	110692
3.07010	134683
3.07822	140258
3.08635	122817
3.09447	177480
3.10260	454475
3.11072	1649519
3.11883	2944459
3.12697	2306622
3.13508	1341372
3.14320	948643
3.15133	758087
3.15945	603724
3.16758	536252
3.17570	541593
3.18382	581103
3.19195	932107
3.20007	1909321
3.20820	2060594
3.21632	1389530
3.22443	962729
3.23257	787447
3.24068	658174
3.24882	568900
3.25693	491512
3.26505	439655
3.27318	393656
3.28130	364078
3.28942	373626
3.29755	636435
3.30567	1638165
3.31380	3255122
3.32192	3992900
3.33003	3379616
3.33817	2450597
3.34628	1855020
3.35442	1516745
3.36253	1281275
3.37065	1100915
3.37878	983389
3.38690	875988
3.39502	806656
3.40315	722674
3.41127	683500
3.41940	635203
3.42752	593806
3.43563	585250
3.44377	559915
3.45188	530237
3.46002	512313
3.46813	485235
3.47625	484060
3.48438	482016
3.49250	488063
3.50063	465572
3.50875	439009
3.51687	415343
3.52500	407349
3.53312	390842
3.54123	400912
3.54937	411725
3.55748	409647
3.56562	369542
3.57373	356136
3.58185	345711
3.58998	331111
3.59810	329951
3.60623	325040
3.61435	325483
3.62247	328809
3.63060	362227
3.63872	448476
3.64685	545406
3.65497	520000
3.66308	495746
3.67122	1283599
3.67933	4668549
3.68745	8930424
3.69558	8635604
3.70370	5245504
3.71183	3157090
3.71995	2314969
3.72807	1927460
3.73620	1645699
3.74432	1436474
3.75245	1281462
3.76057	1192150
3.76868	1115968
3.77682	1032425
3.78493	957465
3.79305	909490
3.80118	877654
3.80930	1051169
3.81743	1675915
3.82555	2221825
3.83367	1962803
3.84180	1444441
3.84992	1135964
3.85805	985430
3.86617	881050
3.87428	803222
3.88242	746534
3.89053	723869
3.89867	669883
3.90678	646984
3.91490	634587
3.92303	729910
3.93115	928203
3.93927	1079871
3.94740	980244
3.95552	811239
3.96365	782637
3.97177	853617
3.97988	834323
3.98802	722456
3.99613	616869
4.00427	644447
4.01238	893003
4.02050	1236282
4.02863	1259388
4.03675	976770
4.04488	713725
4.05300	584236
4.06112	510074
4.06925	491404
4.07737	454819
4.08548	442230
4.09362	431801
4.10173	422258
4.10987	410555
4.11798	399593
4.12610	395629
4.13423	402829
4.14235	548748
4.15048	978615
4.15860	1490850
4.16672	1488336
4.17485	1121821
4.18297	835973
4.19108	683096
4.19922	584831
4.20733	599056
4.21547	1357728
4.22358	4873618
4.23170	1.172889E+07
4.23983	1.780832E+07
4.24795	1.90689E+07
4.25608	1.440445E+07
4.26420	8436420
4.27232	5378896
4.28045	3932599
4.28857	2974512
4.29670	2388188
4.30482	1990858
4.31293	1696419
4.32107	1463844
4.32918	1305421
4.33730	1175791
4.34543	1104072
4.35355	1060745
4.36168	1058842
4.36980	1058361
4.37792	1019627
4.38605	920591
4.39417	813591
4.40230	775037
4.41042	724403
4.41853	688889
4.42667	665956
4.43478	648072
4.44292	607697
4.45103	598563
4.45915	563633
4.46728	545608
4.47540	535046
4.48352	521033
4.49165	509906
4.49977	488849
4.50790	486548
4.51602	476723
4.52413	455576
4.53227	451915
4.54038	434585
4.54852	429616
4.55663	439521
4.56475	428436
4.57288	410064
4.58100	396619
4.58912	382211
4.59725	383038
4.60537	373586
4.61350	371625
4.62162	381820
4.62973	485340
4.63787	778913
4.64598	1165395
4.65412	1306693
4.66223	1096109
4.67035	787652
4.67848	631121
4.68660	530720
4.69473	476381
4.70285	435998
4.71097	417439
4.71910	391099
4.72722	364572
4.73533	358545
4.74347	337580
4.75158	319825
4.75972	325823
4.76783	321551
4.77595	317973
4.78408	310308
4.79220	311358
4.80033	344806
4.80845	401700
4.81657	438818
4.82470	408847
4.83282	381054
4.84093	388601
4.84907	408460
4.85718	425953
4.86532	391871
4.87343	356205
4.88155	323993
4.88968	314139
4.89780	311097
4.90593	302058
4.91405	296007
4.92217	282683
4.93030	294118
4.93842	358310
4.94655	566644
4.95467	958929
4.96278	1469466
4.97092	1777601
4.97903	1734273
4.98715	1478544
4.99528	1190692
5.00340	988679
5.01153	852971
5.01965	769094
5.02777	795118
5.03590	1059122
5.04402	1486726
5.05215	1722561
5.06027	1551618
5.06838	1209203
5.07652	993826
5.08463	860447
5.09277	780306
5.10088	720758
5.10900	664442
5.11713	634892
5.12525	602498
5.13337	580972
5.14150	564786
5.14962	538395
5.15775	557848
5.16587	623013
5.17398	693259
5.18212	711810
5.19023	640829
5.19837	623365
5.20648	642237
5.21460	693541
5.22273	711682
5.23085	661770
5.23897	605933
5.24710	564359
5.25522	515491
5.26335	462163
5.27147	420358
5.27958	400004
5.28772	380117
5.29583	378819
5.30397	363186
5.31208	355014
5.32020	364907
5.32833	357565
5.33645	372742
5.34458	397552
5.35270	409426
5.36082	389393
5.36895	355799
5.37707	342961
5.38518	339913
5.39332	357095
5.40143	387950
5.40957	404669
5.41768	389360
5.42580	373790
5.43393	344593
5.44205	348868
5.45018	355537
5.45830	354728
5.46642	372843
5.47455	348355
5.48267	327138
5.49080	310279
5.49892	298073
5.50703	291710
5.51517	292925
5.52328	298848
5.53140	296190
5.53953	297023
5.54765	287006
5.55578	295264
5.56390	332142
5.57202	391180
5.58015	460530
5.58827	471011
5.59640	426470
5.60452	360105
5.61263	316842
5.62077	293303
5.62888	284752
5.63700	290506
5.64513	302384
5.65325	303789
5.66138	289656
5.66950	284416
5.67762	295151
5.68575	334303
5.69387	373655
5.70200	401177
5.71012	381676
5.71823	347517
5.72637	311128
5.73448	287913
5.74262	275961
5.75073	272978
5.75885	254362
5.76698	256487
5.77510	254666
5.78322	250394
5.79135	245866
5.79947	244055
5.80760	243219
5.81572	238141
5.82383	242306
5.83197	233135
5.84008	237790
5.84822	242684
5.85633	245721
5.86445	253378
5.87258	246428
5.88070	230344
5.88882	232526
5.89695	224802
5.90507	225583
5.91320	194069
5.92132	182074
5.92943	186568
5.93757	179290
5.94568	179456
5.95382	195748
5.96193	217917
5.97005	242237
5.97818	276485
5.98630	330623
5.99443	372336
6.00255	374818
6.01067	333285
6.01880	272869
6.02692	219540
6.03503	211663
6.04317	201864
6.05128	192694
6.05942	186729
6.06753	171693
6.07565	167690
6.08378	166992
6.09190	162063
6.10003	158613
6.10815	160446
6.11627	166652
6.12440	184342
6.13252	260631
6.14065	421404
6.14877	626019
6.15688	723017
6.16502	666711
6.17313	500541
6.18125	369254
6.18938	307424
6.19750	270343
6.20563	246398
6.21375	243061
6.22187	227787
6.23000	220854
6.23812	219805
6.24625	221046
6.25437	223334
6.26248	237437
6.27062	251887
6.27873	250666
6.28687	226636
6.29498	216312
6.30310	218132
6.31123	212690
6.31935	214725
6.32747	209709
6.33560	217020
6.34372	212337
6.35185	216689
6.35997	213389
6.36808	210391
6.37622	213448
6.38433	214762
6.39247	213393
6.40058	211057
6.40870	207451
6.41683	203740
6.42495	209543
6.43307	207802
6.44120	203354
6.44932	202961
6.45745	203939
6.46557	207028
6.47368	199124
6.48182	205187
6.48993	209376
6.49807	207819
6.50618	212451
6.51430	216237
6.52243	219933
6.53055	220810
6.53868	227689
6.54680	220530
6.55492	213335
6.56305	227481
6.57117	264693
6.57928	333743
6.58742	391962
6.59553	404239
6.60367	359484
6.61178	303489
6.61990	262721
6.62803	259709
6.63615	245818
6.64428	237644
6.65240	238123
6.66052	269393
6.66865	333101
6.67677	400643
6.68488	410484
6.69302	351165
6.70113	309299
6.70927	264798
6.71738	258577
6.72550	252662
6.73363	251885
6.74175	247570
6.74988	252616
6.75800	243303
6.76612	239257
6.77425	249517
6.78237	246506
6.79050	222305
6.79862	211421
6.80673	192906
6.81487	184192
6.82298	179087
6.83110	170690
6.83923	170928
6.84735	176561
6.85548	181793
6.86360	173309
6.87172	155701
6.87985	135108
6.88797	124357
6.89610	113871
6.90422	103821
6.91233	102429
6.92047	100517
6.92858	102086
6.93672	100034
6.94483	98331
6.95295	97854
6.96108	105227
6.96920	108342
6.97732	136441
6.98545	158063
6.99357	157923
7.00170	144663
7.00982	123760
7.01793	116009
7.02607	108791
7.03418	104772
7.04232	112148
7.05043	110846
7.05855	118594
7.06668	118728
7.07480	115692
7.08292	111157
7.09105	104137
7.09917	96319
7.10730	90502
7.11542	89916
7.12353	90197
7.13167	84616
7.13978	88562
7.14792	102801
7.15603	125291
7.16415	155511
7.17228	182995
7.18040	166322
7.18853	142161
7.19665	127858
7.20477	106658
7.21290	103324
7.22102	137171
7.22913	275584
7.23727	663266
7.24538	1330339
7.25352	1870633
7.26163	1837423
7.26975	1371491
7.27788	833293
7.28600	511200
7.29413	378587
7.30225	316896
7.31037	259898
7.31850	209115
7.32662	160391
7.33475	141969
7.34287	126411
7.35098	117042
7.35912	118296
7.36723	107051
7.37535	110856
7.38348	107902
7.39160	115147
7.39973	107751
7.40785	104260
7.41597	101316
7.42410	98684
7.43222	89249
7.44035	97400
7.44847	99893
7.45658	98222
7.46472	105061
7.47283	102139
7.48095	93004
7.48908	95552
7.49720	91295
7.50533	107237
7.51345	141807
7.52157	238585
7.52970	443716
7.53782	752970
7.54595	1100364
7.55407	1385192
7.56218	1457647
7.57032	1281657
7.57843	994775
7.58657	677903
7.59468	457146
7.60280	289991
7.61093	222295
7.61905	182174
7.62717	156172
7.63530	134424
7.64342	130587
7.65155	112926
7.65967	107061
7.66778	101305
7.67592	96255
7.68403	94515
7.69217	93242
7.70028	87180
7.70840	90520
7.71653	95851
7.72465	90095
7.73277	93530
7.74090	86717
7.74902	85383
7.75715	91096
7.76527	89027
7.77338	89844
7.78152	91103
7.78963	100409
7.79777	112228
7.80588	128770
7.81400	134231
7.82213	133041
7.83025	124098
7.83838	117179
7.84650	109120
7.85462	109857
7.86275	115822
7.87087	134103
7.87898	157021
7.88712	167147
7.89523	170822
7.90337	154836
7.91148	124668
7.91960	112112
7.92773	116030
7.93585	132443
7.94398	166601
7.95210	189998
7.96022	186338
7.96835	166692
7.97647	135139
7.98460	111633
7.99272	99051
8.00083	89372
8.00897	83178
8.01708	81871
8.02520	82317
8.03333	75468
8.04145	80229
8.04958	80408
8.05770	80193
8.06582	79889
8.07395	82183
8.08207	76516
8.09020	79904
8.09832	74623
8.10643	77321
8.11457	75575
8.12268	90702
8.13080	95725
8.13893	116071
8.14705	137921
8.15518	150898
8.16330	155698
8.17142	131950
8.17955	107276
8.18767	97026
8.19580	90281
8.20392	87460
8.21203	94163
8.22017	95280
8.22828	100543
8.23642	102237
8.24453	96780
8.25265	92938
8.26078	81056
8.26890	76156
8.27702	72677
8.28515	68285
8.29327	74312
8.30140	76269
8.30952	80924
8.31763	79331
8.32577	84090
8.33388	82884
8.34202	83256
8.35013	77404
8.35825	75547
8.36638	69838
8.37450	70450
8.38263	70887
8.39075	74108
8.39887	72084
8.40700	77234
8.41512	72360
8.42323	74581
8.43137	66865
8.43948	68758
8.44762	72282
8.45573	67314
8.46385	67189
8.47198	67857
8.48010	66048
8.48823	68329
8.49635	63813
8.50447	62393
8.51260	63318
8.52072	67573
8.52883	71394
8.53697	99544
8.54508	165688
8.55322	275294
8.56133	338037
8.56945	354507
8.57758	297652
8.58570	211023
8.59383	151022
8.60195	122719
8.61007	105966
8.61820	102776
8.62632	97099
8.63445	89164
8.64257	82017
8.65068	84237
8.65882	78998
8.66693	82506
8.67505	78177
8.68318	83902
8.69130	82301
8.69943	86165
8.70755	94262
8.71567	88111
8.72380	85267
8.73192	76263
8.74005	98708
8.74817	171163
8.75628	369860
8.76442	768205
8.77253	1291250
8.78065	1674202
8.78878	1663718
8.79690	1310339
8.80503	909392
8.81315	578013
8.82127	372333
8.82940	282129
8.83752	234546
8.84565	231032
8.85377	234499
8.86188	237319
8.87002	232033
8.87813	212426
8.88627	200517
8.89438	182333
8.90250	173717
8.91063	169375
8.91875	172524
8.92687	165899
8.93500	172412
8.94312	179819
8.95125	185212
8.95937	198823
8.96748	190491
8.97562	187050
8.98373	185139
8.99187	181494
8.99998	164974
9.00810	160436
9.01623	160134
9.02435	139713
9.03248	134962
9.04060	129920
9.04872	126648
9.05685	126616
9.06497	120105
9.07308	122897
9.08122	119395
9.08933	128371
9.09747	143392
9.10558	164802
9.11370	192793
9.12183	218077
9.12995	219616
9.13808	198739
9.14620	163622
9.15432	148789
9.16245	139477
9.17057	133299
9.17868	124115
9.18682	111283
9.19493	111310
9.20307	108843
9.21118	109043
9.21930	103286
9.22743	107401
9.23555	103668
9.24368	99592
9.25180	100385
9.25992	99693
9.26805	106601
9.27617	100303
9.28430	105664
9.29242	101618
9.30053	100313
9.30867	99825
9.31678	96966
9.32490	93457
9.33303	96795
9.34115	90133
9.34928	90900
9.35740	87528
9.36552	89001
9.37365	91482
9.38177	90493
9.38990	89244
9.39802	105479
9.40613	121826
9.41427	151083
9.42238	200013
9.43052	246101
9.43863	283155
9.44675	296321
9.45488	257577
9.46300	214736
9.47112	167476
9.47925	135850
9.48737	119944
9.49550	112320
9.50362	108390
9.51173	117832
9.51987	137843
9.52798	149621
9.53612	150600
9.54423	139144
9.55235	114490
9.56048	95736
9.56860	85654
9.57672	77788
9.58485	70906
9.59297	74002
9.60110	69677
9.60922	69723
9.61733	62100
9.62547	65124
9.63358	58698
9.64172	60510
9.64983	57303
9.65795	61933
9.66608	58727
9.67420	63858
9.68233	61265
9.69045	60228
9.69857	56028
9.70670	55013
9.71482	57049
9.72293	54413
9.73107	52266
9.73918	56062
9.74732	52364
9.75543	51381
9.76355	47832
9.77168	50089
9.77980	49059
9.78793	56221
9.79605	51428
9.80417	50250
9.81230	55203
9.82042	52419
9.82855	51339
9.83667	53292
9.84478	52732
9.85292	53220
9.86103	51824
9.86915	50508
9.87728	53343
9.88540	57213
9.89353	55049
9.90165	55934
9.90977	54913
9.91790	58464
9.92602	62678
9.93415	78096
9.94227	89716
9.95038	101855
9.95852	114041
9.96663	118777
9.97475	102015
9.98288	98316
9.99100	86899
9.99913	77148
10.00725	70363
10.01537	70648
10.02350	65285
10.03162	65435
10.03975	55373
10.04787	55928
10.05598	55021
10.06412	55308
10.07223	57074
10.08037	58788
10.08848	62626
10.09660	59461
10.10473	62106
10.11285	57397
10.12097	62601
10.12910	55437
10.13722	56356
10.14535	59110
10.15347	58232
10.16158	54186
10.16972	56534
10.17783	55412
10.18597	52027
10.19408	55476
10.20220	55135
10.21033	57495
10.21845	61146
10.22657	63754
10.23470	68459
10.24282	80264
10.25095	89093
10.25907	98579
10.26718	148583
10.27532	308762
10.28343	663983
10.29157	1324100
10.29968	2208185
10.30780	3203168
10.31593	4382958
10.32405	6280164
10.33218	8959308
10.34030	1.161394E+07
10.34842	1.240739E+07
10.35655	1.085521E+07
10.36467	7923742
10.37278	5229405
10.38092	3591797
10.38903	2510998
10.39717	1684121
10.40528	1107606
10.41340	728150
10.42153	529967
10.42965	436215
10.43778	385039
10.44590	372635
10.45402	374321
10.46215	385500
10.47027	379279
10.47840	362247
10.48652	344132
10.49463	304865
10.50277	281581
10.51088	276757
10.51900	259729
10.52713	258825
10.53525	270390
10.54338	271790
10.55150	273627
10.55962	256182
10.56775	232919
10.57587	208159
10.58400	197860
10.59212	190545
10.60023	176940
10.60837	170355
10.61648	157682
10.62460	158198
10.63273	147540
10.64085	137799
10.64898	137978
10.65710	129927
10.66522	132237
10.67335	125173
10.68147	128233
10.68960	129182
10.69772	121736
10.70583	120605
10.71397	119235
10.72208	120377
10.73022	122128
10.73833	124635
10.74645	118491
10.75458	116812
10.76270	109590
10.77082	107378
10.77895	101379
10.78707	105098
10.79520	104077
10.80332	104789
10.81143	114663
10.81957	123670
10.82768	112890
10.83582	107885
10.84393	95561
10.85205	93157
10.86018	83140
10.86830	80999
10.87643	82710
10.88455	86161
10.89267	84663
10.90080	80295
10.90892	79041
10.91703	78505
10.92517	76960
10.93328	77277
10.94142	73576
10.94953	71721
10.95765	67606
10.96578	69936
10.97390	74420
10.98203	77502
10.99015	75903
10.99827	81069
11.00640	87539
11.01452	86462
11.02263	86874
11.03077	82820
11.03888	70681
11.04702	70082
11.05513	69819
11.06325	75917
11.07138	73444
11.07950	85309
11.08763	89953
11.09575	98420
11.10387	94050
11.11200	89151
11.12012	82065
11.12825	72729
11.13637	67828
11.14448	65613
11.15262	65695
11.16073	64842
11.16885	66924
11.17698	66569
11.18510	69036
11.19323	68507
11.20135	64860
11.20947	60226
11.21760	61579
11.22572	59254
11.23385	55901
11.24197	55231
11.25008	53295
11.25822	53034
11.26633	50085
11.27445	55347
11.28258	58209
11.29070	75617
11.29883	112761
11.30695	218045
11.31507	464347
11.32320	953427
11.33132	1624650
11.33945	2240902
11.34757	2602825
11.35568	2473655
11.36382	2008622
11.37193	1389546
11.38007	894209
11.38818	574826
11.39630	395977
11.40443	336191
11.41255	307987
11.42067	311671
11.42880	291958
11.43692	273371
11.44505	244760
11.45317	226579
11.46128	203042
11.46942	190929
11.47753	184280
11.48567	201123
11.49378	225966
11.50190	243728
11.51003	239999
11.51815	233141
11.52628	201068
11.53440	180808
11.54252	165952
11.55065	156445
11.55877	159406
11.56688	161335
11.57502	159083
11.58313	151558
11.59127	137987
11.59938	138269
11.60750	148756
11.61563	174738
11.62375	188295
11.63188	187285
11.64000	167929
11.64812	146209
11.65625	112805
11.66437	102184
11.67250	96653
11.68062	101266
11.68873	104430
11.69687	104078
11.70498	105799
11.71310	100205
11.72123	97063
11.72935	86709
11.73748	79901
11.74560	78118
11.75372	74444
11.76185	67792
11.76997	68835
11.77810	68246
11.78622	67877
11.79433	67116
11.80247	63768
11.81058	65376
11.81870	59625
11.82683	61654
11.83495	66026
11.84308	62103
11.85120	61654
11.85932	62575
11.86745	63637
11.87557	62523
11.88370	59223
11.89182	63335
11.89993	58426
11.90807	58537
11.91618	55535
11.92432	61813
11.93243	63052
11.94055	67142
11.94868	64463
11.95680	56473
11.96492	56682
11.97305	55494
11.98117	60696
11.98930	72628
11.99742	96036
12.00553	123921
12.01367	154714
12.02178	175144
12.02992	161638
12.03803	130221
12.04615	100326
12.05428	83647
12.06240	78806
12.07052	78592
12.07865	85258
12.08677	92334
12.09490	100196
12.10302	104018
12.11113	105053
12.11927	111633
12.12738	119714
12.13552	127441
12.14363	128464
12.15175	113578
12.15988	98419
12.16800	77013
12.17613	62966
12.18425	60023
12.19237	61433
12.20050	58866
12.20862	62156
12.21673	61612
12.22487	60085
12.23298	59921
12.24112	57728
12.24923	60741
12.25735	62007
12.26548	65308
12.27360	59626
12.28173	62767
12.28985	58184
12.29797	56985
12.30610	56911
12.31422	52137
12.32235	52845
12.33047	53466
12.33858	51084
12.34672	52162
12.35483	50210
12.36295	46709
12.37108	49464
12.37920	47661
12.38733	52933
12.39545	51522
12.40357	60684
12.41170	65608
12.41982	84641
12.42795	96575
12.43607	99297
12.44418	100389
12.45232	94998
12.46043	81064
12.46855	72092
12.47668	67908
12.48480	72572
12.49293	68720
12.50105	63008
12.50917	63774
12.51730	62649
12.52542	63838
12.53355	76717
12.54167	106238
12.54978	178746
12.55792	300554
12.56603	447728
12.57417	569949
12.58228	566976
12.59040	457888
12.59853	302842
12.60665	211199
12.61477	151091
12.62290	119590
12.63102	107433
12.63915	88128
12.64727	84390
12.65538	78484
12.66352	75467
12.67163	68591
12.67977	71206
12.68788	63390
12.69600	65261
12.70413	63188
12.71225	67335
12.72038	63998
12.72850	64368
12.73662	66058
12.74475	63506
12.75287	64859
12.76098	60487
12.76912	57217
12.77723	55048
12.78537	53780
12.79348	50305
12.80160	52447
12.80973	47190
12.81785	50250
12.82598	47476
12.83410	49520
12.84222	45061
12.85035	48432
12.85847	45233
12.86658	43234
12.87472	44808
12.88283	47012
12.89097	43265
12.89908	43161
12.90720	41740
12.91533	45729
12.92345	45512
12.93158	46432
12.93970	45243
12.94782	44266
12.95595	49241
12.96407	53000
12.97220	61212
12.98032	80863
12.98843	90800
12.99657	93284
13.00468	88868
13.01280	77771
13.02093	66943
13.02905	62124
13.03718	54324
13.04530	55411
13.05342	51060
13.06155	49060
13.06967	47856
13.07780	48565
13.08592	49661
13.09403	46152
13.10217	49703
13.11028	45670
13.11840	50676
13.12653	47852
13.13465	45202
13.14278	45009
13.15090	43354
13.15902	47260
13.16715	50463
13.17527	52680
13.18340	55053
13.19152	54203
13.19963	52249
13.20777	57592
13.21588	62072
13.22402	62099
13.23213	64375
13.24025	60246
13.24838	58181
13.25650	55682
13.26462	50793
13.27275	48421
13.28087	52701
13.28900	45658
13.29712	44495
13.30523	48048
13.31337	42971
13.32148	43288
13.32962	42858
13.33773	43586
13.34585	40082
13.35398	40442
13.36210	41430
13.37023	42962
13.37835	38983
13.38647	37387
13.39460	40651
13.40272	40101
13.41083	37761
13.41897	38642
13.42708	37122
13.43522	41211
13.44333	42430
13.45145	38645
13.45958	41960
13.46770	47757
13.47583	46320
13.48395	45017
13.49207	46762
13.50020	43856
13.50832	40102
13.51643	42153
13.52457	39718
13.53268	41975
13.54082	40538
13.54893	41978
13.55705	41160
13.56518	42354
13.57330	46209
13.58143	47318
13.58955	53038
13.59767	64460
13.60580	81154
13.61392	115009
13.62205	155236
13.63017	181766
13.63828	178251
13.64642	150724
13.65453	112065
13.66265	87439
13.67078	64092
13.67890	57193
13.68703	51488
13.69515	47390
13.70327	48848
13.71140	48102
13.71952	47362
13.72765	49929
13.73577	65410
13.74388	107083
13.75202	219510
13.76013	498633
13.76827	868406
13.77638	1315780
13.78450	1617120
13.79263	1632522
13.80075	1414042
13.80887	1100149
13.81700	916184
13.82512	853330
13.83325	884963
13.84137	922023
13.84948	858894
13.85762	727268
13.86573	573554
13.87387	457661
13.88198	355534
13.89010	279582
13.89823	245353
13.90635	213589
13.91447	204431
13.92260	181520
13.93072	162501
13.93885	150920
13.94697	145613
13.95508	135167
13.96322	139649
13.97133	135207
13.97947	130538
13.98758	131316
13.99570	134514
14.00383	125730
14.01195	126126
14.02008	119142
14.02820	112372
14.03632	105740
14.04445	101190
14.05257	103926
14.06068	100841
14.06882	101057
14.07693	99305
14.08507	92004
14.09318	93818
14.10130	94063
14.10943	96455
14.11755	94925
14.12568	95398
14.13380	93977
14.14192	97507
14.15005	101423
14.15817	109802
14.16628	128325
14.17442	146733
14.18253	197496
14.19067	253963
14.19878	301399
14.20690	324966
14.21503	306537
14.22315	278187
14.23128	235146
14.23940	221307
14.24752	205082
14.25565	199359
14.26377	182219
14.27190	167656
14.28002	152131
14.28813	139421
14.29627	132381
14.30438	121445
14.31250	113401
14.32063	100719
14.32875	98095
14.33688	93931
14.34500	92038
14.35312	82162
14.36125	72275
14.36937	69740
14.37750	65133
14.38562	69391
14.39373	96972
14.40187	135573
14.40998	226355
14.41812	345449
14.42623	468967
14.43435	491854
14.44248	417383
14.45060	307778
14.45872	216284
14.46685	158083
14.47497	129099
14.48310	105075
14.49122	99810
14.49933	90166
14.50747	86075
14.51558	82620
14.52372	83857
14.53183	82855
14.53995	80922
14.54808	75997
14.55620	70955
14.56432	69767
14.57245	70154
14.58057	68041
14.58870	62016
14.59682	61640
14.60493	61206
14.61307	61354
14.62118	57543
14.62932	57702
14.63743	56942
14.64555	54668
14.65368	50215
14.66180	53934
14.66993	52303
14.67805	48955
14.68617	54630
14.69430	50864
14.70242	56660
14.71053	55856
14.71867	56229
14.72678	61870
14.73492	59050
14.74303	58323
14.75115	62151
14.75928	63671
14.76740	60964
14.77553	69184
14.78365	72561
14.79177	104570
14.79990	208914
14.80802	495664
14.81615	1088679
14.82427	1930074
14.83238	2772864
14.84052	3155278
14.84863	2867636
14.85675	2174910
14.86488	1408547
14.87300	914983
14.88113	579082
14.88925	410928
14.89737	333698
14.90550	263603
14.91362	238760
14.92175	220447
14.92987	207282
14.93798	195412
14.94612	174868
14.95423	160583
14.96235	155591
14.97048	145844
14.97860	138755
14.98673	136662
14.99485	128813
15.00297	126917
15.01110	123212
15.01922	117397
15.02735	121748
15.03547	115904
15.04358	111939
15.05172	107708
15.05983	108873
15.06797	98310
15.07608	98455
15.08420	88618
15.09233	86251
15.10045	86798
15.10857	84328
15.11670	80419
15.12482	83912
15.13295	86610
15.14107	95471
15.14918	97818
15.15732	97925
15.16543	91654
15.17357	80956
15.18168	75876
15.18980	73586
15.19793	62993
15.20605	63613
15.21418	61967
15.22230	58210
15.23042	56280
15.23855	61122
15.24667	54813
15.25478	51740
15.26292	52103
15.27103	50381
15.27917	49388
15.28728	50319
15.29540	47071
15.30353	47768
15.31165	47703
15.31978	49799
15.32790	46432
15.33602	45600
15.34415	47567
15.35227	44753
15.36038	44133
15.36852	45273
15.37663	46459
15.38477	49388
15.39288	50803
15.40100	53439
15.40913	54876
15.41725	58089
15.42538	63435
15.43350	63751
15.44162	61180
15.44975	60961
15.45787	63106
15.46600	83449
15.47412	130045
15.48223	200067
15.49037	314342
15.49848	424421
15.50660	494798
15.51473	502637
15.52285	461580
15.53098	359660
15.53910	293912
15.54722	241021
15.55535	187941
15.56347	161519
15.57160	133099
15.57972	121145
15.58783	106029
15.59597	101250
15.60408	82573
15.61220	77567
15.62033	77985
15.62845	74232
15.63658	66459
15.64470	70734
15.65282	68687
15.66095	61942
15.66907	60872
15.67720	58825
15.68532	56505
15.69343	55213
15.70157	54346
15.70968	55904
15.71782	55821
15.72593	54191
15.73405	51240
15.74218	56624
15.75030	65443
15.75842	76253
15.76655	112252
15.77467	163904
15.78280	243979
15.79092	306750
15.79903	321536
15.80717	295739
15.81528	236278
15.82342	163207
15.83153	128072
15.83965	103733
15.84778	87115
15.85590	84637
15.86403	81009
15.87215	76826
15.88027	78904
15.88840	75634
15.89652	77260
15.90463	75741
15.91277	74440
15.92088	70436
15.92902	66802
15.93713	66860
15.94525	68751
15.95338	70989
15.96150	87533
15.96963	97005
15.97775	111340
15.98587	115936
15.99400	120215
16.00212	105770
16.01023	98005
16.01837	84371
16.02648	83093
16.03462	80280
16.04273	82169
16.05085	73154
16.05898	65433
16.06710	65964
16.07523	62514
16.08335	62016
16.09147	59516
16.09960	62242
16.10772	61258
16.11585	64620
16.12397	67966
16.13208	72161
16.14022	74311
16.14833	76425
16.15645	81355
16.16458	78570
16.17270	76225
16.18083	68859
16.18895	64590
16.19707	60428
16.20520	59997
16.21332	58913
16.22145	57274
16.22957	55786
16.23768	58179
16.24582	53393
16.25393	52251
16.26207	57053
16.27018	53182
16.27830	61429
16.28643	58091
16.29455	70146
16.30267	77171
16.31080	76361
16.31892	74865
16.32705	68790
16.33517	68888
16.34328	61166
16.35142	66666
16.35953	70982
16.36767	79542
16.37578	89019
16.38390	97157
16.39203	102773
16.40015	85530
16.40827	74849
16.41640	70173
16.42452	63388
16.43265	63841
16.44077	59920
16.44888	68414
16.45702	85154
16.46513	126428
16.47327	176787
16.48138	228584
16.48950	243870
16.49763	228640
16.50575	190742
16.51388	147030
16.52200	107913
16.53012	86547
16.53825	74229
16.54637	65395
16.55448	65010
16.56262	66551
16.57073	64560
16.57887	71508
16.58698	71183
16.59510	81618
16.60323	91363
16.61135	102575
16.61948	102576
16.62760	104593
16.63572	95594
16.64385	90781
16.65197	83884
16.66008	72780
16.66822	63553
16.67633	65853
16.68447	61366
16.69258	55365
16.70070	55296
16.70883	53570
16.71695	54833
16.72508	51943
16.73320	54869
16.74132	53257
16.74945	52365
16.75757	59679
16.76570	57182
16.77382	59216
16.78193	54634
16.79007	52532
16.79818	48347
16.80630	48242
16.81443	48561
16.82255	42992
16.83068	45343
16.83880	47666
16.84692	46115
16.85505	43682
16.86317	42372
16.87130	42215
16.87942	44308
16.88753	39387
16.89567	41138
16.90378	42688
16.91192	46877
16.92003	46027
16.92815	43512
16.93628	47486
16.94440	50069
16.95252	42762
16.96065	44370
16.96877	42666
16.97690	46012
16.98502	43560
16.99313	46612
17.00127	47655
17.00938	47287
17.01752	46469
17.02563	50348
17.03375	51479
17.04188	59648
17.05000	67830
17.05812	66750
17.06625	68614
17.07437	72506
17.08250	82866
17.09062	98552
17.09873	123689
17.10687	153319
17.11498	175328
17.12312	190683
17.13123	184097
17.13935	173013
17.14748	157252
17.15560	142177
17.16373	117953
17.17185	114449
17.17997	95143
17.18810	88488
17.19622	72598
17.20433	67342
17.21247	65526
17.22058	59954
17.22872	60231
17.23683	57137
17.24495	58118
17.25308	56720
17.26120	58947
17.26933	52468
17.27745	54698
17.28557	51518
17.29370	50080
17.30182	48985
17.30995	46379
17.31807	51277
17.32618	61384
17.33432	77033
17.34243	79416
17.35055	84823
17.35868	88894
17.36680	88943
17.37493	83122
17.38305	72104
17.39117	74437
17.39930	70863
17.40742	71656
17.41555	74555
17.42367	75105
17.43178	79944
17.43992	80362
17.44803	73707
17.45615	70549
17.46428	67558
17.47240	60887
17.48053	54071
17.48865	53102
17.49677	52197
17.50490	51201
17.51302	51879
17.52115	50796
17.52927	50947
17.53738	52831
17.54552	49872
17.55363	58101
17.56177	77258
17.56988	118884
17.57800	199055
17.58613	342902
17.59425	569390
17.60237	880581
17.61050	1075586
17.61862	1127203
17.62675	1003321
17.63487	769345
17.64298	549686
17.65112	374471
17.65923	289720
17.66737	241481
17.67548	196051
17.68360	181694
17.69173	155753
17.69985	139462
17.70797	128010
17.71610	121727
17.72422	110452
17.73235	105174
17.74047	108892
17.74858	92971
17.75672	96924
17.76483	93731
17.77297	82946
17.78108	81504
17.78920	75710
17.79733	76361
17.80545	75177
17.81358	71958
17.82170	69187
17.82982	76437
17.83795	81595
17.84607	92761
17.85418	94016
17.86232	105580
17.87043	104751
17.87857	99039
17.88668	98545
17.89480	82112
17.90293	71369
17.91105	65370
17.91918	60373
17.92730	59912
17.93542	59306
17.94355	59812
17.95167	55793
17.95980	58784
17.96792	51321
17.97603	49439
17.98417	58019
17.99228	54354
18.00040	53645
18.00853	58987
18.01665	60088
18.02478	78591
18.03290	92836
18.04102	98368
18.04915	105431
18.05727	97211
18.06540	95510
18.07352	88181
18.08163	84513
18.08977	96309
18.09788	102305
18.10602	105195
18.11413	106850
18.12225	114663
18.13038	105374
18.13850	106393
18.14662	103471
18.15475	100336
18.16287	98138
18.17100	92602
18.17912	96029
18.18723	84237
18.19537	81881
18.20348	80240
18.21162	75817
18.21973	67580
18.22785	65559
18.23598	66461
18.24410	70385
18.25222	59770
18.26035	63273
18.26847	65726
18.27660	62955
18.28472	52851
18.29283	57583
18.30097	49534
18.30908	51365
18.31722	47151
18.32533	50251
18.33345	48668
18.34158	52003
18.34970	48690
18.35783	48414
18.36595	54011
18.37407	48002
18.38220	52454
18.39032	57869
18.39843	63566
18.40657	73237
18.41468	92675
18.42282	113582
18.43093	136399
18.43905	155155
18.44718	174483
18.45530	199201
18.46343	232313
18.47155	279768
18.47967	353761
18.48780	425216
18.49592	459097
18.50403	454546
18.51217	418948
18.52028	363786
18.52842	332887
18.53653	311279
18.54465	294434
18.55278	287906
18.56090	285564
18.56903	277574
18.57715	274812
18.58527	283884
18.59340	268303
18.60152	289500
18.60965	290209
18.61777	291209
18.62588	309722
18.63402	306493
18.64213	311949
18.65025	288756
18.65838	284816
18.66650	268957
18.67463	265408
18.68275	264327
18.69087	253680
18.69900	251414
18.70712	243668
18.71525	244485
18.72337	240904
18.73148	235652
18.73962	233991
18.74773	224209
18.75587	220042
18.76398	219375
18.77210	221675
18.78023	223521
18.78835	223875
18.79647	217723
18.80460	216807
18.81272	212244
18.82085	208915
18.82897	205826
18.83708	217996
18.84522	199945
18.85333	205695
18.86147	204918
18.86958	207598
18.87770	204057
18.88583	204963
18.89395	213436
18.90207	207039
18.91020	196410
18.91832	197822
18.92645	198172
18.93457	192116
18.94268	200323
18.95082	190739
18.95893	195257
18.96707	196898
18.97518	192886
18.98330	190276
18.99143	180756
18.99955	178665
19.00768	185431
19.01580	174715
19.02392	172045
19.03205	170266
19.04017	168329
19.04828	171340
19.05642	169673
19.06453	180373
19.07267	209611
19.08078	262211
19.08890	352890
19.09703	471767
19.10515	586501
19.11328	617060
19.12140	573076
19.12952	483531
19.13765	384223
19.14577	306616
19.15390	250906
19.16202	221278
19.17013	197758
19.17827	186680
19.18638	180183
19.19450	171995
19.20263	168165
19.21075	162055
19.21888	158287
19.22700	156750
19.23512	154341
19.24325	146097
19.25137	138458
19.25950	143683
19.26762	145126
19.27573	152812
19.28387	152721
19.29198	159697
19.30010	156292
19.30823	151388
19.31635	154880
19.32448	150947
19.33260	145982
19.34072	145355
19.34885	151863
19.35697	162330
19.36510	190201
19.37322	216020
19.38133	234981
19.38947	230889
19.39758	208927
19.40572	180870
19.41383	157188
19.42195	152621
19.43008	139656
19.43820	138970
19.44632	131842
19.45445	134168
19.46257	143168
19.47070	142273
19.47882	176425
19.48693	199912
19.49507	244669
19.50318	290818
19.51132	297064
19.51943	262122
19.52755	226339
19.53568	200073
19.54380	183218
19.55192	171796
19.56005	155893
19.56817	141696
19.57630	136475
19.58442	130267
19.59253	123953
19.60067	118769
19.60878	112533
19.61692	117955
19.62503	117090
19.63315	119096
19.64128	138252
19.64940	162964
19.65753	199756
19.66565	241487
19.67377	286637
19.68190	316360
19.69002	321236
19.69813	296603
19.70627	273070
19.71438	251278
19.72252	226437
19.73063	200082
19.73875	170815
19.74688	164167
19.75500	151960
19.76313	159564
19.77125	153907
19.77937	184872
19.78750	199503
19.79562	241462
19.80375	259621
19.81187	263683
19.81998	240069
19.82812	216449
19.83623	183607
19.84435	159507
19.85248	147520
19.86060	136285
19.86873	155483
19.87685	186127
19.88497	248181
19.89310	322471
19.90122	420101
19.90935	470317
19.91747	478267
19.92558	450475
19.93372	426014
19.94183	387653
19.94995	357490
19.95808	345432
19.96620	319063
19.97433	305714
19.98245	284393
19.99057	286764
19.99870	280365
20.00682	282127
20.01495	276956
20.02307	266899
20.03118	253531
20.03932	246047
20.04743	233892
20.05557	233104
20.06368	252435
20.07180	268370
20.07993	306155
20.08805	317115
20.09617	331917
20.10430	309872
20.11242	275384
20.12055	228361
20.12867	196301
20.13678	180754
20.14492	184187
20.15303	219883
20.16117	294880
20.16928	416616
20.17740	577670
20.18553	750958
20.19365	890392
20.20178	925391
20.20990	912424
20.21802	809536
20.22615	685299
20.23427	588903
20.24238	509817
20.25052	524954
20.25863	573738
20.26677	653593
20.27488	719333
20.28300	757532
20.29113	723220
20.29925	632780
20.30738	528930
20.31550	425832
20.32362	339921
20.33175	262939
20.33987	209991
20.34798	169606
20.35612	147931
20.36423	130503
20.37237	116932
20.38048	110042
20.38860	104924
20.39673	106175
20.40485	101896
20.41298	93583
20.42110	104583
20.42922	105278
20.43735	119527
20.44547	109293
20.45360	112176
20.46172	106899
20.46983	104610
20.47797	106303
20.48608	101188
20.49420	93512
20.50233	88585
20.51045	85590
20.51858	88200
20.52670	82973
20.53482	80251
20.54295	78815
20.55107	78955
20.55920	79618
20.56732	79415
20.57543	80928
20.58357	78341
20.59168	84064
20.59982	75421
20.60793	79513
20.61605	76611
20.62418	80046
20.63230	89234
20.64042	90958
20.64855	94251
20.65667	94117
20.66480	91946
20.67292	93395
20.68103	87516
20.68917	79326
20.69728	77258
20.70542	76711
20.71353	73701
20.72165	76326
20.72978	71421
20.73790	82926
20.74602	78394
20.75415	80698
20.76227	88434
20.77040	92870
20.77852	109069
20.78663	154006
20.79477	246005
20.80288	397183
20.81102	577492
20.81913	757572
20.82725	792981
20.83538	701577
20.84350	557818
20.85163	378948
20.85975	263841
20.86787	175600
20.87600	139425
20.88412	119691
20.89223	111697
20.90037	113475
20.90848	112304
20.91662	119349
20.92473	119088
20.93285	118136
20.94098	121931
20.94910	121308
20.95723	111652
20.96535	110931
20.97347	93648
20.98160	91291
20.98972	89918
20.99783	86962
21.00597	86903
21.01408	83735
21.02222	84498
21.03033	86599
21.03845	85082
21.04658	87086
21.05470	82613
21.06283	76906
21.07095	78435
21.07907	75341
21.08720	72163
21.09532	73693
21.10345	72555
21.11157	71257
21.11968	77517
21.12782	86187
21.13593	93861
21.14405	119381
21.15218	146339
21.16030	169844
21.16843	192631
21.17655	185904
21.18467	165329
21.19280	139486
21.20092	117041
21.20905	102123
21.21717	95987
21.22528	87742
21.23342	85632
21.24153	85800
21.24967	80167
21.25778	80508
21.26590	80284
21.27403	77955
21.28215	80465
21.29027	74902
21.29840	76647
21.30652	73974
21.31465	69394
21.32277	70312
21.33088	72063
21.33902	66874
21.34713	69249
21.35527	63353
21.36338	64381
21.37150	66177
21.37963	65462
21.38775	67558
21.39587	69816
21.40400	67325
21.41212	66030
21.42025	68180
21.42837	72484
21.43648	66085
21.44462	70217
21.45273	66663
21.46087	64079
21.46898	63869
21.47710	65503
21.48523	60214
21.49335	60055
21.50148	64143
21.50960	61929
21.51772	57702
21.52585	60754
21.53397	59618
21.54208	60774
21.55022	61328
21.55833	60693
21.56647	64261
21.57458	65984
21.58270	76367
21.59083	81737
21.59895	87596
21.60708	96454
21.61520	92833
21.62332	96595
21.63145	97302
21.63957	101569
21.64770	97140
21.65582	103164
21.66393	101402
21.67207	102236
21.68018	113358
21.68830	112302
21.69643	109372
21.70455	99129
21.71268	87215
21.72080	81155
21.72892	71672
21.73705	72844
21.74517	66897
21.75330	65176
21.76142	66616
21.76953	68349
21.77767	71663
21.78578	64568
21.79390	67097
21.80203	72819
21.81015	72142
21.81828	77820
21.82640	86127
21.83452	84814
21.84265	87961
21.85077	85590
21.85890	79797
21.86702	77428
21.87513	67553
21.88327	69880
21.89138	69418
21.89952	66779
21.90763	64021
21.91575	64544
21.92388	67592
21.93200	61212
21.94012	57879
21.94825	53941
21.95637	58245
21.96450	50794
21.97262	50563
21.98073	58262
21.98887	50296
21.99698	51766
22.00512	50483
22.01323	51054
22.02135	56588
22.02948	54974
22.03760	58283
22.04572	58142
22.05385	55173
22.06197	57886
22.07010	57646
22.07822	55736
22.08633	55272
22.09447	57188
22.10258	56040
22.11072	52828
22.11883	56965
22.12695	55412
22.13508	64343
22.14320	68308
22.15133	72932
22.15945	74133
22.16757	79011
22.17570	78790
22.18382	77536
22.19193	78586
22.20007	79885
22.20818	85553
22.21632	83732
22.22443	86746
22.23255	88307
22.24068	87001
22.24880	90876
22.25693	92122
22.26505	85474
22.27317	92331
22.28130	99963
22.28942	107826
22.29755	110658
22.30567	112159
22.31378	110958
22.32192	111079
22.33003	101481
22.33815	100117
22.34628	93538
22.35440	92102
22.36253	84417
22.37065	78150
22.37877	76665
22.38690	82920
22.39502	108901
22.40315	140828
22.41127	184146
22.41938	209903
22.42752	231001
22.43563	209974
22.44375	187649
22.45188	150466
22.46000	129382
22.46813	112589
22.47625	108079
22.48437	122884
22.49250	132048
22.50062	143030
22.50875	157317
22.51687	155698
22.52498	156277
22.53312	136490
22.54123	123515
22.54937	115813
22.55748	93414
22.56560	89342
22.57373	79102
22.58185	74961
22.58997	69096
22.59810	66036
22.60622	67825
22.61435	58994
22.62247	64261
22.63058	64929
22.63872	68419
22.64683	85948
22.65497	101518
22.66308	111555
22.67120	124890
22.67933	123528
22.68745	133248
22.69558	135927
22.70370	138960
22.71182	150051
22.71995	158888
22.72807	153103
22.73618	155977
22.74432	160659
22.75243	154733
22.76057	144984
22.76868	149690
22.77680	151186
22.78493	150956
22.79305	163781
22.80118	171994
22.80930	181107
22.81742	181168
22.82555	184806
22.83367	174160
22.84178	166177
22.84992	167827
22.85803	172842
22.86617	174690
22.87428	195997
22.88240	218488
22.89053	245689
22.89865	269093
22.90678	284321
22.91490	314045
22.92302	323425
22.93115	329985
22.93927	302962
22.94740	269461
22.95552	240608
22.96363	206434
22.97177	172532
22.97988	159192
22.98800	152244
22.99613	147842
23.00425	145864
23.01238	135274
23.02050	135262
23.02862	131910
23.03675	125850
23.04487	124981
23.05300	128654
23.06112	133781
23.06923	129320
23.07737	128461
23.08548	124608
23.09360	120710
23.10173	120522
23.10985	115292
23.11798	112859
23.12610	115818
23.13422	110182
23.14235	109154
23.15047	107607
23.15860	108795
23.16672	107381
23.17483	106722
23.18297	102992
23.19108	101185
23.19922	103897
23.20733	107987
23.21545	104194
23.22358	101382
23.23170	99904
23.23982	106038
23.24795	109184
23.25607	114456
23.26420	123434
23.27232	129581
23.28043	118592
23.28857	113306
23.29668	111954
23.30482	111643
23.31293	107447
23.32105	112436
23.32918	116692
23.33730	135797
23.34543	155073
23.35355	172856
23.36167	205280
23.36980	210362
23.37792	220231
23.38603	205890
23.39417	179080
23.40228	152824
23.41042	131206
23.41853	119787
23.42665	108669
23.43478	106078
23.44290	99011
23.45103	104994
23.45915	98339
23.46727	96275
23.47540	93342
23.48352	90116
23.49165	89087
23.49977	89266
23.50788	91244
23.51602	93760
23.52413	93513
23.53225	90916
23.54038	98022
23.54850	103347
23.55663	104622
23.56475	125644
23.57287	146353
23.58100	195457
23.58912	259989
23.59725	321872
23.60537	374164
23.61348	359954
23.62162	334027
23.62973	286574
23.63785	231345
23.64598	202687
23.65410	196074
23.66223	182946
23.67035	179058
23.67847	173859
23.68660	161254
23.69472	136743
23.70285	117648
23.71097	110642
23.71908	97543
23.72722	97866
23.73533	101798
23.74347	120551
23.75158	186329
23.75970	355224
23.76783	706031
23.77595	1254632
23.78407	1950378
23.79220	2512117
23.80032	2628680
23.80845	2506654
23.81657	2152620
23.82468	1731139
23.83282	1352287
23.84093	1064261
23.84907	826587
23.85718	663794
23.86530	552416
23.87343	465367
23.88155	400604
23.88967	369590
23.89780	339068
23.90592	319450
23.91405	302876
23.92217	289949
23.93028	276597
23.93842	255425
23.94653	231886
23.95467	216084
23.96278	198116
23.97090	189387
23.97903	184273
23.98715	164641
23.99528	170332
24.00340	179865
24.01152	195493
24.01965	261486
24.02777	327187
24.03588	371933
24.04402	377093
24.05213	343696
24.06027	275649
24.06838	206685
24.07650	164517
24.08463	137975
24.09275	128696
24.10088	126760
24.10900	123237
24.11712	122524
24.12525	124319
24.13337	132268
24.14150	139765
24.14962	142574
24.15773	148768
24.16587	151736
24.17398	145023
24.18210	140668
24.19023	148503
24.19835	149185
24.20648	150285
24.21460	141833
24.22272	137054
24.23085	123610
24.23897	111136
24.24710	96639
24.25522	94407
24.26333	91097
24.27147	86109
24.27958	88574
24.28770	85481
24.29583	88339
24.30395	87414
24.31208	87037
24.32020	88597
24.32832	84831
24.33645	85135
24.34457	80443
24.35270	83205
24.36082	88657
24.36893	105153
24.37707	120194
24.38518	140318
24.39332	144504
24.40143	139236
24.40955	119628
24.41768	100539
24.42580	91346
24.43392	97955
24.44205	125587
24.45017	141148
24.45830	160634
24.46642	181638
24.47453	204115
24.48267	221355
24.49078	245469
24.49892	257636
24.50703	276938
24.51515	294998
24.52328	313116
24.53140	347949
24.53953	395490
24.54765	443406
24.55577	499120
24.56390	505704
24.57202	503577
24.58013	455862
24.58827	410309
24.59638	374637
24.60452	332035
24.61263	310329
24.62075	296274
24.62888	295057
24.63700	285803
24.64513	279129
24.65325	279510
24.66137	282724
24.66950	272232
24.67762	271948
24.68573	265696
24.69387	265703
24.70198	246466
24.71012	252105
24.71823	245401
24.72635	243560
24.73448	240792
24.74260	230253
24.75073	234012
24.75885	230129
24.76697	239848
24.77510	240467
24.78322	239807
24.79135	234421
24.79947	233730
24.80758	242674
24.81572	236033
24.82383	237617
24.83195	252807
24.84008	286817
24.84820	318448
24.85633	374531
24.86445	450250
24.87257	567173
24.88070	703395
24.88882	826024
24.89695	889256
24.90507	832882
24.91318	671572
24.92132	506193
24.92943	366911
24.93755	262140
24.94568	193689
24.95380	147688
24.96193	131747
24.97005	119058
24.97817	109533
24.98630	99770
24.99442	99020
25.00255	92247
25.01067	93893
25.01878	94302
25.02692	84288
25.03503	83552
25.04317	84531
25.05128	78116
25.05940	82320
25.06753	81334
25.07565	85655
25.08377	89550
25.09190	106619
25.10002	167759
25.10815	323306
25.11627	708540
25.12438	1394224
25.13252	2387316
25.14063	3366954
25.14877	4046962
25.15688	4006473
25.16500	3425994
25.17313	2534290
25.18125	1585671
25.18938	938436
25.19750	546369
25.20562	351279
25.21375	234039
25.22187	183282
25.22998	175534
25.23812	175520
25.24623	207827
25.25437	264626
25.26248	335846
25.27060	377430
25.27873	391516
25.28685	381314
25.29498	329268
25.30310	256935
25.31122	206815
25.31935	185400
25.32747	194589
25.33558	227385
25.34372	283680
25.35183	328507
25.35997	349139
25.36808	356816
25.37620	367494
25.38433	377090
25.39245	375022
25.40058	389660
25.40870	380609
25.41682	371676
25.42495	380994
25.43307	385569
25.44120	386988
25.44932	363164
25.45743	382735
25.46557	372125
25.47368	382317
25.48180	385619
25.48993	368599
25.49805	378978
25.50618	362044
25.51430	351688
25.52242	357343
25.53055	350583
25.53867	344189
25.54680	349988
25.55492	338390
25.56303	336999
25.57117	336311
25.57928	330811
25.58742	329185
25.59553	331903
25.60365	327463
25.61178	324366
25.61990	319259
25.62802	318509
25.63615	307153
25.64427	309509
25.65240	305990
25.66052	302255
25.66863	295181
25.67677	300437
25.68488	285568
25.69302	298863
25.70113	277062
25.70925	271629
25.71738	279663
25.72550	270813
25.73362	270519
25.74175	270712
25.74987	260700
25.75800	262648
25.76612	266283
25.77423	261693
25.78237	257315
25.79048	263837
25.79862	259178
25.80673	251510
25.81485	249801
25.82298	250091
25.83110	237183
25.83923	242988
25.84735	237902
25.85547	245347
25.86360	234721
25.87172	232365
25.87983	227779
25.88797	223178
25.89608	224898
25.90422	219051
25.91233	208019
25.92045	212714
25.92858	206250
25.93670	205020
25.94483	202998
25.95295	200017
25.96107	197012
25.96920	206829
25.97732	195538
25.98543	185144
25.99357	187518
26.00168	183446
26.00982	180362
26.01793	178078
26.02605	176835
26.03418	178255
26.04230	170226
26.05043	169812
26.05855	164824
26.06667	178184
26.07480	178941
26.08292	178428
26.09105	176253
26.09917	167349
26.10728	171660
26.11542	172297
26.12353	167547
26.13165	169946
26.13978	171448
26.14790	167689
26.15603	171651
26.16415	170789
26.17227	164879
26.18040	164153
26.18852	160325
26.19665	155779
26.20477	147989
26.21288	147886
26.22102	143083
26.22913	140260
26.23727	140453
26.24538	145049
26.25350	139731
26.26163	131093
26.26975	132042
26.27787	131822
26.28600	130620
26.29412	133071
26.30225	127294
26.31037	122902
26.31848	120398
26.32662	128400
26.33473	117996
26.34287	122303
26.35098	123577
26.35910	141238
26.36723	158634
26.37535	190024
26.38347	229858
26.39160	269849
26.39972	297696
26.40785	296714
26.41597	294067
26.42408	257117
26.43222	226912
26.44033	183104
26.44847	148052
26.45658	139173
26.46470	123515
26.47283	121124
26.48095	117268
26.48908	113510
26.49720	116678
26.50532	110785
26.51345	106497
26.52157	99541
26.52968	103760
26.53782	97472
26.54593	95522
26.55407	94049
26.56218	95455
26.57030	95560
26.57843	89945
26.58655	91494
26.59468	90085
26.60280	93148
26.61092	96754
26.61905	88669
26.62717	87454
26.63530	85034
26.64342	88655
26.65153	90662
26.65967	95272
26.66778	94138
26.67590	92301
26.68403	88302
26.69215	89000
26.70028	85212
26.70840	80815
26.71652	81328
26.72465	80632
26.73277	83150
26.74090	83938
26.74902	82573
26.75713	81195
26.76527	81104
26.77338	81301
26.78150	88807
26.78963	86066
26.79775	95301
26.80588	98826
26.81400	93570
26.82212	87460
26.83025	87714
26.83837	81751
26.84650	80898
26.85462	81023
26.86273	77984
26.87087	74182
26.87898	74140
26.88712	71358
26.89523	71116
26.90335	72025
26.91148	68923
26.91960	64671
26.92772	69641
26.93585	69958
26.94397	70655
26.95210	72174
26.96022	76206
26.96833	86732
26.97647	98770
26.98458	143837
26.99272	200531
27.00083	273998
27.00895	383484
27.01708	480110
27.02520	568153
27.03333	595645
27.04145	579847
27.04957	537585
27.05770	480207
27.06582	395699
27.07393	339093
27.08207	290825
27.09018	257655
27.09832	222924
27.10643	201136
27.11455	175190
27.12268	169789
27.13080	156483
27.13893	156180
27.14705	146120
27.15517	145338
27.16330	147012
27.17142	152039
27.17953	160509
27.18767	157077
27.19578	162988
27.20392	151293
27.21203	139014
27.22015	132178
27.22828	123072
27.23640	115024
27.24453	106453
27.25265	105117
27.26077	101235
27.26890	95215
27.27702	99923
27.28515	90130
27.29327	88783
27.30138	84385
27.30952	87985
27.31763	89316
27.32575	86348
27.33388	83875
27.34200	86741
27.35013	84982
27.35825	93724
27.36637	89504
27.37450	89700
27.38262	89924
27.39075	84557
27.39887	82361
27.40698	81599
27.41512	78238
27.42323	78618
27.43135	74139
27.43948	79656
27.44760	73066
27.45573	73700
27.46385	74088
27.47197	70203
27.48010	69723
27.48822	66250
27.49635	70198
27.50447	72862
27.51258	76808
27.52072	78889
27.52883	78865
27.53697	81706
27.54508	76035
27.55320	75550
27.56133	74136
27.56945	77494
27.57757	88553
27.58570	98069
27.59382	107603
27.60195	110194
27.61007	104993
27.61818	101530
27.62632	91235
27.63443	85146
27.64257	76378
27.65068	81154
27.65880	78129
27.66693	83940
27.67505	97296
27.68318	106774
27.69130	119510
27.69942	117010
27.70755	110921
27.71567	93024
27.72378	88195
27.73192	78388
27.74003	73111
27.74817	67452
27.75628	62800
27.76440	65668
27.77253	63255
27.78065	65873
27.78878	66572
27.79690	65084
27.80502	64533
27.81315	64183
27.82127	69668
27.82938	65349
27.83752	66804
27.84563	60074
27.85377	62082
27.86188	60407
27.87000	63156
27.87813	62843
27.88625	57382
27.89438	56544
27.90250	55360
27.91062	58386
27.91875	55962
27.92687	55650
27.93500	55568
27.94312	59077
27.95123	57505
27.95937	55916
27.96748	55146
27.97560	57259
27.98373	55913
27.99185	60077
27.99998	62107
28.00810	76053
28.01622	97394
28.02435	123240
28.03247	160363
28.04060	209080
28.04872	255930
28.05683	261312
28.06497	242434
28.07308	198800
28.08122	162983
28.08933	124007
28.09745	100223
28.10558	86697
28.11370	73562
28.12182	71442
28.12995	65511
28.13807	64225
28.14620	60385
28.15432	63605
28.16243	61334
28.17057	65906
28.17868	68936
28.18682	73306
28.19493	82276
28.20305	88317
28.21118	98580
28.21930	102173
28.22742	108701
28.23555	99379
28.24367	95005
28.25180	84166
28.25992	75649
28.26803	68259
28.27617	64107
28.28428	63670
28.29242	64466
28.30053	69966
28.30865	84937
28.31678	97328
28.32490	105765
28.33303	119059
28.34115	132050
28.34927	140261
28.35740	159064
28.36552	177167
28.37363	186607
28.38177	195079
28.38988	202812
28.39802	202019
28.40613	201428
28.41425	202901
28.42238	199246
28.43050	184930
28.43863	178328
28.44675	160322
28.45487	150597
28.46300	151996
28.47112	144647
28.47923	135993
28.48737	137141
28.49548	131150
28.50362	124110
28.51173	123899
28.51985	125991
28.52798	109841
28.53610	104068
28.54423	102333
28.55235	89211
28.56047	82909
28.56860	79613
28.57672	82076
28.58485	81158
28.59297	83461
28.60108	77745
28.60922	83334
28.61733	81485
28.62545	83969
28.63358	82270
28.64170	87115
28.64983	85953
28.65795	83816
28.66607	80721
28.67420	85614
28.68232	78241
28.69045	73667
28.69857	73621
28.70668	73029
28.71482	69334
28.72293	71065
28.73107	72389
28.73918	74760
28.74730	79092
28.75543	90614
28.76355	95245
28.77167	92407
28.77980	92219
28.78792	83953
28.79605	76353
28.80417	85995
28.81228	82600
28.82042	79766
28.82853	76705
28.83667	74291
28.84478	69102
28.85290	71907
28.86103	69430
28.86915	68785
28.87728	77408
28.88540	81683
28.89352	82557
28.90165	92029
28.90977	89307
28.91788	84652
28.92602	77834
28.93413	77367
28.94227	80027
28.95038	71976
28.95850	76615
28.96663	75542
28.97475	71519
28.98288	65153
28.99100	64908
28.99912	62267
29.00725	60856
29.01537	58148
29.02348	59594
29.03162	58689
29.03973	59722
29.04787	58727
29.05598	59478
29.06410	63558
29.07223	65506
29.08035	64083
29.08848	64204
29.09660	69777
29.10472	65051
29.11285	60797
29.12097	61750
29.12910	60837
29.13722	54923
29.14533	52678
29.15347	61486
29.16158	58645
29.16970	61856
29.17783	62269
29.18595	68743
29.19408	79709
29.20220	100338
29.21032	116186
29.21845	122065
29.22657	119396
29.23470	121842
29.24282	122605
29.25093	127581
29.25907	130618
29.26718	132767
29.27530	132435
29.28343	126890
29.29155	105484
29.29968	92186
29.30780	78815
29.31592	67196
29.32405	64881
29.33217	59926
29.34030	58575
29.34842	60628
29.35653	53727
29.36467	52035
29.37278	51547
29.38092	54803
29.38903	54362
29.39715	53071
29.40528	52708
29.41340	55926
29.42152	54437
29.42965	57135
29.43777	58523
29.44590	56101
29.45402	54609
29.46213	55332
29.47027	58483
29.47838	59024
29.48652	56179
29.49463	59011
29.50275	58119
29.51088	57215
29.51900	59112
29.52713	53398
29.53525	57200
29.54337	52684
29.55150	55522
29.55962	54697
29.56773	53644
29.57587	54491
29.58398	48171
29.59212	49722
29.60023	46614
29.60835	48302
29.61648	50920
29.62460	49084
29.63273	47449
29.64085	49376
29.64897	49727
29.65710	50382
29.66522	50045
29.67333	53989
29.68147	53523
29.68958	61776
29.69772	61595
29.70583	65918
29.71395	64597
29.72208	62669
29.73020	61386
29.73833	53136
29.74645	54733
29.75457	61098
29.76270	54303
29.77082	54480
29.77895	50056
29.78707	49633
29.79518	45923
29.80332	47470
29.81143	47304
29.81955	47611
29.82768	48279
29.83580	46853
29.84393	47912
29.85205	48478
29.86017	54159
29.86830	65453
29.87642	81534
29.88455	107216
29.89267	135110
29.90078	161458
29.90892	169801
29.91703	153657
29.92517	116824
29.93328	99984
29.94140	78696
29.94953	77010
29.95765	70518
29.96577	81443
29.97390	87019
29.98202	103296
29.99015	116280
29.99827	123608
30.00638	130473
30.01452	143059
30.02263	145296
30.03077	146112
30.03888	137179
30.04700	134676
30.05513	130571
30.06325	125791
30.07137	121966
30.07950	121100
30.08762	125569
30.09575	122110
30.10387	118489
30.11198	119155
30.12012	107756
30.12823	107437
30.13637	103157
30.14448	101528
30.15260	98034
30.16073	91349
30.16885	93635
30.17698	93044
30.18510	95596
30.19322	100067
30.20135	101998
30.20947	98169
30.21758	95886
30.22572	90543
30.23383	89055
30.24197	79964
30.25008	72155
30.25820	68253
30.26633	63390
30.27445	69822
30.28258	65206
30.29070	64100
30.29882	63381
30.30695	59757
30.31507	64740
30.32318	60136
30.33132	61760
30.33943	61880
30.34757	62828
30.35568	58584
30.36380	58369
30.37193	60862
30.38005	59488
30.38818	59321
30.39630	55148
30.40442	54338
30.41255	55756
30.42067	52513
30.42880	53895
30.43692	53203
30.44503	55588
30.45317	51246
30.46128	54765
30.46940	51474
30.47753	50177
30.48565	49572
30.49378	52611
30.50190	55759
30.51002	56237
30.51815	51789
30.52627	50515
30.53440	51017
30.54252	61804
30.55063	50764
30.55877	51311
30.56688	58151
30.57502	52990
30.58313	55006
30.59125	52422
30.59938	56942
30.60750	51588
30.61562	54406
30.62375	51710
30.63187	52968
30.64000	51028
30.64812	47272
30.65623	48640
30.66437	46855
30.67248	46600
30.68062	46781
30.68873	48730
30.69685	45725
30.70498	48239
30.71310	48153
30.72122	47512
30.72935	49446
30.73747	50664
30.74560	49095
30.75372	51868
30.76183	51862
30.76997	54151
30.77808	59611
30.78622	65682
30.79433	83212
30.80245	101912
30.81058	109433
30.81870	107544
30.82683	103549
30.83495	85100
30.84307	77090
30.85120	70435
30.85932	58061
30.86743	58482
30.87557	55867
30.88368	56801
30.89182	57889
30.89993	56188
30.90805	54860
30.91618	49931
30.92430	58276
30.93243	54248
30.94055	48121
30.94867	47445
30.95680	50929
30.96492	51850
30.97305	45510
30.98117	47053
30.98928	46272
30.99742	50953
31.00553	50846
31.01365	52872
31.02178	51532
31.02990	57507
31.03803	60999
31.04615	61844
31.05427	59102
31.06240	61613
31.07052	66661
31.07865	70009
31.08677	72397
31.09488	81281
31.10302	83164
31.11113	82527
31.11925	85452
31.12738	83725
31.13550	81307
31.14363	76675
31.15175	77030
31.15987	78540
31.16800	80166
31.17612	85046
31.18425	92684
31.19237	111147
31.20048	133064
31.20862	170049
31.21673	199902
31.22487	224343
31.23298	226315
31.24110	204057
31.24923	170537
31.25735	139111
31.26547	109808
31.27360	88855
31.28172	75041
31.28985	72980
31.29797	66243
31.30608	73761
31.31422	71984
31.32233	72515
31.33047	77362
31.33858	80328
31.34670	70136
31.35483	72512
31.36295	67064
31.37107	67393
31.37920	67828
31.38732	67757
31.39545	68811
31.40357	71940
31.41168	71056
31.41982	61811
31.42793	62619
31.43607	65698
31.44418	63140
31.45230	66320
31.46043	62456
31.46855	59116
31.47668	60712
31.48480	62980
31.49292	66947
31.50105	66128
31.50917	67392
31.51728	72284
31.52542	74146
31.53353	78347
31.54167	71600
31.54978	69923
31.55790	69287
31.56603	70647
31.57415	68747
31.58228	68819
31.59040	67598
31.59852	63015
31.60665	59518
31.61477	57556
31.62290	58392
31.63102	60701
31.63913	57638
31.64727	60563
31.65538	66515
31.66350	62578
31.67163	68079
31.67975	58378
31.68788	66700
31.69600	62616
31.70412	58809
31.71225	56614
31.72037	57438
31.72850	55857
31.73662	59692
31.74473	58456
31.75287	53281
31.76098	51678
31.76910	54402
31.77723	52598
31.78535	53203
31.79348	55791
31.80160	53035
31.80972	56268
31.81785	53699
31.82597	54216
31.83410	53578
31.84222	59048
31.85033	63932
31.85847	56274
31.86658	57494
31.87472	62850
31.88283	61890
31.89095	64158
31.89908	70754
31.90720	77017
31.91532	84967
31.92345	83461
31.93157	88006
31.93970	93205
31.94782	97334
31.95593	102360
31.96407	112219
31.97218	110134
31.98032	106168
31.98843	107665
31.99655	110649
32.00468	111157
32.01280	112740
32.02093	107158
32.02905	101795
32.03717	105609
32.04530	97922
32.05342	95905
32.06153	93677
32.06967	89114
32.07778	88963
32.08592	81402
32.09403	79736
32.10215	77722
32.11028	74161
32.11840	68500
32.12653	72777
32.13465	66869
32.14277	66479
32.15090	62308
32.15902	67820
32.16713	62070
32.17527	61689
32.18338	60255
32.19152	58463
32.19963	69320
32.20775	60252
32.21588	61338
32.22400	57915
32.23213	60994
32.24025	58549
32.24837	61326
32.25650	61482
32.26462	62772
32.27275	58551
32.28087	56064
32.28898	60190
32.29712	60592
32.30523	57237
32.31335	56529
32.32148	59068
32.32960	54987
32.33773	58401
32.34585	59904
32.35397	61103
32.36210	55960
32.37022	60194
32.37835	53210
32.38647	54864
32.39458	53852
32.40272	48623
32.41083	50152
32.41897	53300
32.42708	51840
32.43520	51548
32.44333	50826
32.45145	50895
32.45957	48239
32.46770	50684
32.47582	48129
32.48395	48220
32.49207	52152
32.50018	52521
32.50832	52346
32.51643	48925
32.52457	50433
32.53268	50914
32.54080	49747
32.54893	49930
32.55705	51474
32.56517	50449
32.57330	51026
32.58142	52208
32.58955	52876
32.59767	50828
32.60578	53966
32.61392	52482
32.62203	53453
32.63017	53731
32.63828	60504
32.64640	65816
32.65453	62863
32.66265	66131
32.67078	62721
32.67890	56630
32.68702	53765
32.69515	53844
32.70327	56571
32.71138	53527
32.71952	53025
32.72763	54661
32.73577	51372
32.74388	53196
32.75200	48543
32.76013	49236
32.76825	50498
32.77638	52652
32.78450	46220
32.79262	46957
32.80075	47742
32.80887	45706
32.81698	47978
32.82512	47693
32.83323	44980
32.84137	48777
32.84948	49316
32.85760	50195
32.86573	51104
32.87385	52135
32.88198	57500
32.89010	58982
32.89822	64105
32.90635	67858
32.91447	71702
32.92260	70682
32.93072	67835
32.93883	64054
32.94697	57947
32.95508	53655
32.96320	50485
32.97133	55688
32.97945	54236
32.98758	62770
32.99570	71869
33.00382	74999
33.01195	73346
33.02007	71370
33.02820	65439
33.03632	63594
33.04443	61494
33.05257	55140
33.06068	63218
33.06882	62982
33.07693	72397
33.08505	80911
33.09318	86111
33.10130	90772
33.10942	88273
33.11755	90020
33.12567	89636
33.13380	80157
33.14192	72656
33.15003	64363
33.15817	62618
33.16628	58066
33.17442	54361
33.18253	54409
33.19065	56469
33.19878	59118
33.20690	52648
33.21502	56860
33.22315	52588
33.23127	51567
33.23940	53978
33.24752	52275
33.25563	49758
33.26377	52840
33.27188	51156
33.28002	50295
33.28813	51938
33.29625	54718
33.30438	54219
33.31250	51328
33.32063	52461
33.32875	56736
33.33687	54521
33.34500	59384
33.35312	62594
33.36123	56631
33.36937	58473
33.37748	58998
33.38562	52081
33.39373	53916
33.40185	51093
33.40998	49191
33.41810	55285
33.42623	46370
33.43435	49059
33.44247	50248
33.45060	49037
33.45872	47791
33.46685	43448
33.47497	45264
33.48308	46293
33.49122	45607
33.49933	46802
33.50745	52533
33.51558	49880
33.52370	49473
33.53183	51546
33.53995	49784
33.54807	55477
33.55620	56489
33.56432	60200
33.57245	55174
33.58057	53661
33.58868	54234
33.59682	50100
33.60493	43297
33.61305	46709
33.62118	48419
33.62930	50509
33.63743	56689
33.64555	51822
33.65367	55447
33.66180	52624
33.66992	53243
33.67805	49754
33.68617	50864
33.69428	51669
33.70242	48691
33.71053	51788
33.71867	48041
33.72678	50972
33.73490	50179
33.74303	46086
33.75115	45307
33.75927	48843
33.76740	49217
33.77552	46684
33.78365	47298
33.79177	43519
33.79988	46512
33.80802	47812
33.81613	46145
33.82427	52773
33.83238	46376
33.84050	52393
33.84863	47919
33.85675	51302
33.86487	49594
33.87300	53881
33.88112	53669
33.88925	58590
33.89737	56376
33.90548	58818
33.91362	61511
33.92173	54378
33.92987	52416
33.93798	50916
33.94610	49362
33.95423	47377
33.96235	47999
33.97048	44276
33.97860	46850
33.98672	47295
33.99485	44168
34.00297	47854
34.01108	49350
34.01922	46936
34.02733	47072
34.03547	44624
34.04358	49764
34.05170	50794
34.05983	49222
34.06795	48939
34.07608	47951
34.08420	51829
34.09232	50954
34.10045	53243
34.10857	48348
34.11670	50886
34.12482	48507
34.13293	47907
34.14107	55813
34.14918	50619
34.15730	48732
34.16543	50624
34.17355	49269
34.18168	50337
34.18980	49839
34.19792	50795
34.20605	52875
34.21417	47289
34.22230	47110
34.23042	45622
34.23853	48486
34.24667	48306
34.25478	49221
34.26292	46165
34.27103	49417
34.27915	48990
34.28728	43325
34.29540	51617
34.30352	50823
34.31165	52059
34.31977	47289
34.32790	50009
34.33602	46478
34.34413	45170
34.35227	47441
34.36038	45883
34.36852	51964
34.37663	49765
34.38475	48717
34.39288	50579
34.40100	48621
34.40912	50083
34.41725	48742
34.42537	49702
34.43350	49030
34.44162	45901
34.44973	44901
34.45787	44287
34.46598	45357
34.47412	50073
34.48223	51651
34.49035	50538
34.49848	54296
34.50660	63696
34.51473	72410
34.52285	81319
34.53097	94837
34.53910	99784
34.54722	103987
34.55533	104163
34.56347	97172
34.57158	96145
34.57972	87472
34.58783	83562
34.59595	80968
34.60408	73617
34.61220	72606
34.62033	72223
34.62845	73011
34.63657	68715
34.64470	67252
34.65282	61006
34.66093	62196
34.66907	56934
34.67718	56623
34.68532	57421
34.69343	56269
34.70155	57312
34.70968	57169
34.71780	56926
34.72593	56720
34.73405	58397
34.74217	58435
34.75030	56837
34.75842	59520
34.76655	58625
34.77467	55213
34.78278	60910
34.79092	57100
34.79903	56990
34.80715	54683
34.81528	55750
34.82340	57008
34.83153	57975
34.83965	61492
34.84777	56089
34.85590	58771
34.86402	60016
34.87215	55623
34.88027	52712
34.88838	55421
34.89652	55195
34.90463	54276
34.91277	55247
34.92088	57800
34.92900	63443
34.93713	57959
34.94525	55535
34.95337	59646
34.96150	61041
34.96962	64344
34.97775	63501
34.98587	59421
34.99398	58858
35.00212	57713
35.01023	54841
35.01837	52094
35.02648	56807
35.03460	55195
35.04273	53695
35.05085	46453
35.05897	50568
35.06710	51464
35.07522	47838
35.08335	48426
35.09147	50606
35.09958	48803
35.10772	49134
35.11583	47475
35.12397	53426
35.13208	48593
35.14020	52634
35.14833	55472
35.15645	52905
35.16458	53209
35.17270	52986
35.18082	61627
35.18895	51860
35.19707	49564
35.20518	49830
35.21332	50572
35.22143	51423
35.22957	48701
35.23768	48675
35.24580	51291
35.25393	46276
35.26205	48107
35.27018	50040
35.27830	52120
35.28642	49272
35.29455	54448
35.30267	50993
35.31080	47724
35.31892	51656
35.32703	48273
35.33517	47056
35.34328	50203
35.35140	51014
35.35953	51281
35.36765	48118
35.37578	51410
35.38390	53810
35.39202	60193
35.40015	64582
35.40827	77356
35.41640	89800
35.42452	99532
35.43263	101862
35.44077	101138
35.44888	85769
35.45700	80634
35.46513	73158
35.47325	67186
35.48138	59471
35.48950	59923
35.49762	56933
35.50575	53854
35.51387	55917
35.52200	59636
35.53012	55147
35.53823	51225
35.54637	54468
35.55448	50947
35.56262	48975
35.57073	57936
35.57885	53081
35.58698	49831
35.59510	54617
35.60322	52140
35.61135	52244
35.61947	48967
35.62760	49900
35.63572	55205
35.64383	53991
35.65197	51802
35.66008	55626
35.66822	55180
35.67633	55672
35.68445	53470
35.69258	54283
35.70070	51408
35.70882	51829
35.71695	51268
35.72507	51511
35.73320	54552
35.74132	55905
35.74943	59226
35.75757	58845
35.76568	64305
35.77382	62070
35.78193	65805
35.79005	63374
35.79818	55932
35.80630	54250
35.81443	57172
35.82255	52873
35.83067	53380
35.83880	47314
35.84692	48776
35.85503	49796
35.86317	48878
35.87128	52043
35.87942	48740
35.88753	57251
35.89565	48460
35.90378	48811
35.91190	55049
35.92003	50184
35.92815	50000
35.93627	51925
35.94440	52676
35.95252	52481
35.96065	49428
35.96877	47042
35.97688	55068
35.98502	57401
35.99313	51015
36.00125	48481
36.00938	54138
36.01750	52660
36.02563	57311
36.03375	50811
36.04187	53016
36.05000	51043
36.05812	51225
36.06625	53577
36.07437	51599
36.08248	49324
36.09062	56402
36.09873	50896
36.10685	60979
36.11498	51218
36.12310	54533
36.13123	56709
36.13935	56416
36.14747	55107
36.15560	55939
36.16372	52124
36.17185	58016
36.17997	52987
36.18808	52862
36.19622	52704
36.20433	53182
36.21247	51521
36.22058	52134
36.22870	51961
36.23683	56904
36.24495	49655
36.25307	55305
36.26120	55268
36.26932	56392
36.27745	60253
36.28557	59465
36.29368	65150
36.30182	68087
36.30993	66749
36.31807	66981
36.32618	62168
36.33430	58135
36.34243	55391
36.35055	53712
36.35868	53567
36.36680	49535
36.37492	49446
36.38305	50264
36.39117	56300
36.39928	54686
36.40742	58487
36.41553	54217
36.42367	52339
36.43178	54921
36.43990	55169
36.44803	55843
36.45615	52717
36.46428	51818
36.47240	53701
36.48052	54197
36.48865	52312
36.49677	50201
36.50488	49222
36.51302	51144
36.52113	55420
36.52927	54893
36.53738	55290
36.54550	54599
36.55363	54435
36.56175	56714
36.56988	57766
36.57800	57175
36.58612	56949
36.59425	55568
36.60237	58694
36.61050	56595
36.61862	59110
36.62673	60917
36.63487	59949
36.64298	57542
36.65110	63760
36.65923	65499
36.66735	65080
36.67548	64001
36.68360	62555
36.69172	59403
36.69985	60632
36.70797	60622
36.71610	62430
36.72422	60882
36.73233	60921
36.74047	58361
36.74858	62182
36.75670	62171
36.76483	61804
36.77295	64011
36.78108	58311
36.78920	60533
36.79732	59764
36.80545	59792
36.81357	61548
36.82170	64967
36.82982	66145
36.83793	61719
36.84607	58894
36.85418	54976
36.86232	56715
36.87043	57549
36.87855	59817
36.88668	58065
36.89480	60002
36.90292	56950
36.91105	55970
36.91917	59657
36.92730	57208
36.93542	65522
36.94353	67873
36.95167	70141
36.95978	75963
36.96792	74434
36.97603	78273
36.98415	78259
36.99228	69366
37.00040	62474
37.00853	60246
37.01665	67118
37.02477	63697
37.03290	60811
37.04102	62554
37.04913	58813
37.05727	58666
37.06538	65320
37.07352	62546
37.08163	61195
37.08975	61915
37.09788	60258
37.10600	60437
37.11413	58999
37.12225	66838
37.13037	64031
37.13850	58370
37.14662	57982
37.15473	56859
37.16287	55074
37.17098	57878
37.17912	64045
37.18723	63593
37.19535	62940
37.20348	65860
37.21160	61956
37.21973	61890
37.22785	61703
37.23597	57713
37.24410	60467
37.25222	61152
37.26035	61257
37.26847	56656
37.27658	61965
37.28472	59243
37.29283	55504
37.30095	67351
37.30908	70840
37.31720	77705
37.32533	84166
37.33345	94387
37.34157	105130
37.34970	100609
37.35782	100256
37.36595	88749
37.37407	88014
37.38218	83459
37.39032	79533
37.39843	80588
37.40657	78263
37.41468	75388
37.42280	74910
37.43093	74063
37.43905	79955
37.44717	73859
37.45530	73226
37.46342	68017
37.47155	72080
37.47967	72152
37.48778	68977
