Z:\data\JTB-E02\BACandBLUE\JTB-E02-200-17.D Thu Feb 28 16:02:10 2019
Start of data points
2.09513	69012
2.10325	69642
2.11138	70536
2.11950	72951
2.12762	67613
2.13575	74863
2.14387	74267
2.15198	69934
2.16012	68309
2.16823	75785
2.17637	70884
2.18448	69971
2.19260	66715
2.20073	63786
2.20885	61511
2.21698	65282
2.22510	61461
2.23322	62740
2.24135	59524
2.24947	62391
2.25760	61566
2.26572	99347
2.27383	588860
2.28197	1269825
2.29008	912200
2.29820	471131
2.30633	341635
2.31445	280064
2.32258	252447
2.33070	224906
2.33882	216483
2.34695	195917
2.35507	177205
2.36320	157916
2.37132	154285
2.37943	148818
2.38757	143255
2.39568	139822
2.40380	171830
2.41193	177051
2.42005	274202
2.42818	306186
2.43630	187100
2.44442	157155
2.45255	139413
2.46067	142106
2.46880	124407
2.47692	125188
2.48503	122739
2.49317	128399
2.50128	130815
2.50942	118574
2.51753	113749
2.52565	113319
2.53378	113966
2.54190	113205
2.55002	122690
2.55815	197922
2.56627	265805
2.57440	207284
2.58252	157922
2.59063	143861
2.59877	133358
2.60688	154918
2.61502	192573
2.62313	195728
2.63125	167612
2.63938	153817
2.64750	137985
2.65563	133289
2.66375	123622
2.67187	119806
2.68000	124587
2.68812	119171
2.69623	113312
2.70437	111066
2.71248	112332
2.72062	111025
2.72873	104212
2.73685	110568
2.74498	106570
2.75310	103750
2.76123	111167
2.76935	109112
2.77747	253567
2.78560	880960
2.79372	1345469
2.80185	932440
2.80997	586758
2.81808	474959
2.82622	398030
2.83433	357006
2.84245	310651
2.85058	257670
2.85870	242228
2.86683	256370
2.87495	250498
2.88307	211811
2.89120	213447
2.89932	212031
2.90745	182862
2.91557	162759
2.92368	143484
2.93182	136316
2.93993	138895
2.94805	132134
2.95618	125685
2.96430	124363
2.97243	120526
2.98055	114794
2.98867	120270
2.99680	134245
3.00492	243955
3.01305	358672
3.02117	301299
3.02928	203135
3.03742	154873
3.04553	144324
3.05367	156758
3.06178	173553
3.06990	173280
3.07803	170050
3.08615	330048
3.09427	835602
3.10240	2233670
3.11052	5277011
3.11865	6567161
3.12677	4749790
3.13488	3205670
3.14302	2381687
3.15113	1862911
3.15927	1491515
3.16738	1266594
3.17550	1139162
3.18363	1123315
3.19175	1627926
3.19987	2189699
3.20800	1922620
3.21612	1420878
3.22425	1131012
3.23237	954343
3.24048	838933
3.24862	727829
3.25673	644061
3.26487	589569
3.27298	533974
3.28110	484659
3.28923	592371
3.29735	1265351
3.30548	3058280
3.31360	5140711
3.32172	5576742
3.32985	4354330
3.33797	3037755
3.34608	2231179
3.35422	1766845
3.36233	1465903
3.37047	1259498
3.37858	1145394
3.38670	1100134
3.39483	1036841
3.40295	981917
3.41108	934247
3.41920	895675
3.42732	825013
3.43545	779131
3.44357	701160
3.45170	652160
3.45982	631170
3.46793	615433
3.47607	637699
3.48418	632680
3.49230	607023
3.50043	635813
3.50855	598017
3.51668	571220
3.52480	571417
3.53292	586851
3.54105	576033
3.54917	525914
3.55730	464677
3.56542	424185
3.57353	384759
3.58167	373015
3.58978	348856
3.59790	336826
3.60603	344951
3.61415	345117
3.62228	354086
3.63040	371526
3.63852	395607
3.64665	387084
3.65477	383864
3.66290	897083
3.67102	4384803
3.67913	1.268044E+07
3.68727	1.798924E+07
3.69538	1.503514E+07
3.70352	9590049
3.71163	6470681
3.71975	5093643
3.72788	4188601
3.73600	3577529
3.74412	3123329
3.75225	2721613
3.76037	2420028
3.76850	2199751
3.77662	2028579
3.78473	1870817
3.79287	1861384
3.80098	1945064
3.80912	2724720
3.81723	4363968
3.82535	5188175
3.83348	4255917
3.84160	3089663
3.84973	2426305
3.85785	2079075
3.86597	1846549
3.87410	1652181
3.88222	1521964
3.89033	1413468
3.89847	1307515
3.90658	1255390
3.91472	1203294
3.92283	1271232
3.93095	1365325
3.93908	1396100
3.94720	1330669
3.95533	1459605
3.96345	2071820
3.97157	2740815
3.97970	2579513
3.98782	1944057
3.99593	1566689
4.00407	2121858
4.01218	3806696
4.02032	5343215
4.02843	4889155
4.03655	3357842
4.04468	2167587
4.05280	1561894
4.06093	1255904
4.06905	1047806
4.07717	924280
4.08530	817622
4.09342	786561
4.10155	723023
4.10967	700259
4.11778	695926
4.12592	683009
4.13403	645216
4.14215	666163
4.15028	738588
4.15840	820812
4.16653	836521
4.17465	805737
4.18277	754718
4.19090	674151
4.19902	611584
4.20715	633266
4.21527	1409781
4.22338	4606562
4.23152	1.066244E+07
4.23963	1.591088E+07
4.24775	1.672859E+07
4.25588	1.296798E+07
4.26400	8323327
4.27213	5616726
4.28025	4106152
4.28837	3117375
4.29650	2515003
4.30462	2049224
4.31275	1707029
4.32087	1454367
4.32898	1293403
4.33712	1153479
4.34523	1039753
4.35337	961341
4.36148	939747
4.36960	951672
4.37773	933547
4.38585	840324
4.39397	764051
4.40210	684912
4.41022	636226
4.41835	590303
4.42647	581978
4.43458	557094
4.44272	519588
4.45083	517172
4.45897	491049
4.46708	475516
4.47520	465559
4.48333	469461
4.49145	454687
4.49958	462172
4.50770	466395
4.51582	465636
4.52395	446157
4.53207	440305
4.54018	427145
4.54832	433773
4.55643	435298
4.56457	429749
4.57268	395171
4.58080	384047
4.58893	373107
4.59705	361420
4.60518	349953
4.61330	360144
4.62142	372710
4.62955	465676
4.63767	654308
4.64578	847207
4.65392	878407
4.66203	744867
4.67017	611487
4.67828	526384
4.68640	471669
4.69453	438382
4.70265	382311
4.71078	356176
4.71890	330684
4.72702	330443
4.73515	302331
4.74327	301546
4.75140	289815
4.75952	290464
4.76763	286516
4.77577	291038
4.78388	289970
4.79200	380531
4.80013	634726
4.80825	996118
4.81638	1183421
4.82450	1018962
4.83262	796308
4.84075	684988
4.84887	658737
4.85700	627984
4.86512	561875
4.87323	492487
4.88137	452069
4.88948	404311
4.89762	397334
4.90573	396787
4.91385	351169
4.92198	346469
4.93010	331809
4.93822	374269
4.94635	535264
4.95447	1033708
4.96260	1771467
4.97072	2427931
4.97883	2503441
4.98697	2115402
4.99508	1620548
5.00322	1246995
5.01133	985849
5.01945	841234
5.02758	760265
5.03570	793831
5.04382	879114
5.05195	878425
5.06007	809233
5.06820	718634
5.07632	649639
5.08443	605809
5.09257	566354
5.10068	505520
5.10882	496280
5.11693	497311
5.12505	468324
5.13318	457031
5.14130	435430
5.14943	448880
5.15755	486151
5.16567	569347
5.17380	639217
5.18192	652013
5.19003	639354
5.19817	626037
5.20628	628707
5.21442	632630
5.22253	597357
5.23065	538235
5.23878	502826
5.24690	474291
5.25503	446089
5.26315	403750
5.27127	353161
5.27940	328651
5.28752	321028
5.29565	323584
5.30377	304901
5.31188	303364
5.32002	309292
5.32813	319726
5.33625	356660
5.34438	387686
5.35250	402559
5.36063	396960
5.36875	354788
5.37687	343351
5.38500	340053
5.39312	358011
5.40125	361882
5.40937	366798
5.41748	352802
5.42562	316728
5.43373	299559
5.44185	281799
5.44998	296046
5.45810	310911
5.46623	333472
5.47435	324505
5.48247	299391
5.49060	280834
5.49872	264467
5.50685	261028
5.51497	283495
5.52308	296369
5.53122	296075
5.53933	291118
5.54747	282105
5.55558	284319
5.56370	353034
5.57183	482030
5.57995	586633
5.58807	597719
5.59620	519534
5.60432	425932
5.61245	346496
5.62057	305951
5.62868	290220
5.63682	274837
5.64493	283954
5.65307	267342
5.66118	256314
5.66930	252289
5.67743	257593
5.68555	298249
5.69367	357591
5.70180	392161
5.70992	394279
5.71805	361177
5.72617	300574
5.73428	287425
5.74242	264421
5.75053	248280
5.75867	232261
5.76678	230114
5.77490	232287
5.78303	212167
5.79115	216647
5.79928	212660
5.80740	206109
5.81552	211968
5.82365	215341
5.83177	213766
5.83988	209841
5.84802	225052
5.85613	219438
5.86427	212498
5.87238	207250
5.88050	199727
5.88863	201400
5.89675	190658
5.90488	194016
5.91300	191490
5.92112	198739
5.92925	191475
5.93737	190364
5.94550	191294
5.95362	214473
5.96173	256183
5.96987	435121
5.97798	778624
5.98610	1175027
5.99423	1384160
6.00235	1265327
6.01048	943427
6.01860	659734
6.02672	489883
6.03485	399939
6.04297	336743
6.05110	316668
6.05922	287586
6.06733	271636
6.07547	264421
6.08358	248172
6.09170	242880
6.09983	239018
6.10795	219254
6.11608	222180
6.12420	229989
6.13232	289734
6.14045	401975
6.14857	543914
6.15670	622877
6.16482	569507
6.17293	460273
6.18107	362977
6.18918	328637
6.19732	291338
6.20543	278072
6.21355	262297
6.22168	249875
6.22980	245218
6.23792	233399
6.24605	243786
6.25417	254398
6.26230	266410
6.27042	263835
6.27853	270360
6.28667	255913
6.29478	243205
6.30292	226958
6.31103	229976
6.31915	230320
6.32728	259984
6.33540	298420
6.34353	345546
6.35165	372439
6.35977	343277
6.36790	292635
6.37602	263683
6.38413	254525
6.39227	252493
6.40038	239023
6.40852	241401
6.41663	243191
6.42475	242437
6.43288	231946
6.44100	237734
6.44913	221367
6.45725	232712
6.46537	249011
6.47350	241763
6.48162	235050
6.48973	230717
6.49787	228555
6.50598	235534
6.51412	235150
6.52223	230230
6.53035	236557
6.53848	240222
6.54660	236794
6.55473	240818
6.56285	249011
6.57097	297862
6.57910	388700
6.58722	469695
6.59535	473301
6.60347	425672
6.61158	353082
6.61972	310891
6.62783	281240
6.63595	264367
6.64408	285102
6.65220	380324
6.66033	743112
6.66845	1462760
6.67657	2203791
6.68470	2396213
6.69282	1914262
6.70095	1288617
6.70907	868371
6.71718	674402
6.72532	572046
6.73343	503390
6.74155	465174
6.74968	405198
6.75780	370821
6.76593	340995
6.77405	316834
6.78217	303121
6.79030	282934
6.79842	264753
6.80655	255583
6.81467	232280
6.82278	227600
6.83092	218837
6.83903	229389
6.84717	216376
6.85528	220376
6.86340	212208
6.87153	202916
6.87965	189021
6.88777	179898
6.89590	166480
6.90402	152421
6.91215	149496
6.92027	139472
6.92838	138033
6.93652	138702
6.94463	143566
6.95277	134481
6.96088	138769
6.96900	158743
6.97713	198515
6.98525	230703
6.99338	235403
7.00150	217958
7.00962	180688
7.01775	166364
7.02587	169352
7.03398	152900
7.04212	158274
7.05023	149632
7.05837	162477
7.06648	181456
7.07460	174598
7.08273	175990
7.09085	162992
7.09898	151530
7.10710	141825
7.11522	135994
7.12335	144509
7.13147	153791
7.13960	167843
7.14772	176531
7.15583	216448
7.16397	252690
7.17208	290558
7.18020	281871
7.18833	246969
7.19645	200299
7.20458	200625
7.21270	291393
7.22082	674200
7.22895	1435204
7.23707	2362294
7.24520	2748665
7.25332	2375680
7.26143	1564469
7.26957	896719
7.27768	540754
7.28580	358681
7.29393	247105
7.30205	176192
7.31018	149281
7.31830	148599
7.32642	143881
7.33455	143811
7.34267	148369
7.35080	147391
7.35892	138246
7.36703	128328
7.37517	126322
7.38328	122581
7.39142	126522
7.39953	127292
7.40765	124548
7.41578	130275
7.42390	123612
7.43202	115054
7.44015	111722
7.44827	114735
7.45640	119112
7.46452	124576
7.47263	119208
7.48077	116892
7.48888	107905
7.49702	111198
7.50513	106009
7.51325	113831
7.52138	136128
7.52950	223629
7.53762	387089
7.54575	662656
7.55387	1016327
7.56200	1318960
7.57012	1385783
7.57823	1300861
7.58637	1023110
7.59448	721785
7.60262	473549
7.61073	327973
7.61885	245918
7.62698	196469
7.63510	160250
7.64323	145116
7.65135	131061
7.65947	126638
7.66760	118028
7.67572	114904
7.68383	103007
7.69197	105139
7.70008	103978
7.70822	103212
7.71633	110678
7.72445	111282
7.73258	106805
7.74070	96552
7.74883	99548
7.75695	99777
7.76507	103536
7.77320	101731
7.78132	111451
7.78945	109313
7.79757	116528
7.80568	129172
7.81382	141758
7.82193	140014
7.83005	136733
7.83818	118634
7.84630	109512
7.85443	101502
7.86255	103773
7.87067	108793
7.87880	127318
7.88692	127072
7.89505	137685
7.90317	138986
7.91128	137625
7.91942	121904
7.92753	145342
7.93565	218364
7.94378	305373
7.95190	392126
7.96003	418834
7.96815	379693
7.97627	283598
7.98440	203053
7.99252	151207
8.00065	120527
8.00877	106035
8.01688	103802
8.02502	96455
8.03313	91184
8.04127	84652
8.04938	93694
8.05750	89483
8.06563	87688
8.07375	83325
8.08187	82291
8.09000	83800
8.09812	83156
8.10625	83940
8.11437	81295
8.12248	78361
8.13062	89018
8.13873	97210
8.14687	116391
8.15498	131562
8.16310	140821
8.17123	130201
8.17935	111452
8.18748	100019
8.19560	92010
8.20372	85888
8.21185	80632
8.21997	76112
8.22808	74660
8.23622	76857
8.24433	72387
8.25247	77437
8.26058	80095
8.26870	71446
8.27683	71210
8.28495	68747
8.29308	73179
8.30120	77901
8.30932	86142
8.31745	94196
8.32557	107295
8.33368	105278
8.34182	102903
8.34993	87329
8.35807	83643
8.36618	75401
8.37430	77169
8.38243	78366
8.39055	81733
8.39868	83191
8.40680	76203
8.41492	75148
8.42305	69723
8.43117	67603
8.43930	68800
8.44742	65526
8.45553	64052
8.46367	72177
8.47178	70372
8.47990	68187
8.48803	79205
8.49615	68124
8.50428	73636
8.51240	64191
8.52052	80212
8.52865	123136
8.53677	238077
8.54490	460258
8.55302	694513
8.56113	804899
8.56927	734807
8.57738	521552
8.58550	315300
8.59363	186576
8.60175	137244
8.60988	120362
8.61800	115200
8.62612	117738
8.63425	104300
8.64237	104294
8.65050	98546
8.65862	83886
8.66673	85698
8.67487	79618
8.68298	89579
8.69112	87546
8.69923	92757
8.70735	92662
8.71548	97409
8.72360	83152
8.73172	81780
8.73985	77163
8.74797	74795
8.75610	76124
8.76422	92794
8.77233	134860
8.78047	240719
8.78858	399009
8.79672	535826
8.80483	614195
8.81295	537916
8.82108	429600
8.82920	308377
8.83733	238528
8.84545	200246
8.85357	202443
8.86170	188650
8.86982	197771
8.87793	192392
8.88607	184777
8.89418	168228
8.90232	160029
8.91043	153303
8.91855	146693
8.92668	152944
8.93480	157162
8.94293	174056
8.95105	181410
8.95917	198310
8.96730	189140
8.97542	184284
8.98353	173779
8.99167	174927
8.99978	167491
9.00792	157591
9.01603	145617
9.02415	134500
9.03228	122465
9.04040	122395
9.04853	112488
9.05665	115068
9.06477	109787
9.07290	105854
9.08102	112441
9.08915	109126
9.09727	123090
9.10538	135708
9.11352	157662
9.12163	176095
9.12975	178669
9.13788	177880
9.14600	154631
9.15413	133475
9.16225	122343
9.17037	115391
9.17850	105908
9.18662	110135
9.19475	98668
9.20287	97917
9.21098	99638
9.21912	96387
9.22723	98924
9.23537	99052
9.24348	97935
9.25160	104504
9.25973	100382
9.26785	100954
9.27597	100149
9.28410	108555
9.29222	94503
9.30035	90696
9.30847	93035
9.31658	86190
9.32472	88955
9.33283	85227
9.34097	83534
9.34908	87490
9.35720	91302
9.36533	85311
9.37345	85964
9.38157	87859
9.38970	86047
9.39782	95811
9.40595	100652
9.41407	103592
9.42218	119674
9.43032	139012
9.43843	160758
9.44657	167272
9.45468	162307
9.46280	153572
9.47093	138096
9.47905	110082
9.48718	104643
9.49530	89310
9.50342	104889
9.51155	116586
9.51967	142139
9.52778	177057
9.53592	191892
9.54403	177774
9.55217	146828
9.56028	136860
9.56840	101858
9.57653	85360
9.58465	85750
9.59278	72880
9.60090	75566
9.60902	68903
9.61715	65501
9.62527	62109
9.63340	58342
9.64152	61097
9.64963	57530
9.65777	64193
9.66588	57404
9.67400	63020
9.68213	61371
9.69025	59186
9.69838	59137
9.70650	61675
9.71462	53025
9.72275	49745
9.73087	54826
9.73900	54194
9.74712	61673
9.75523	57581
9.76337	55745
9.77148	51446
9.77960	52605
9.78773	54671
9.79585	53214
9.80398	54042
9.81210	48965
9.82022	52400
9.82835	55206
9.83647	53089
9.84460	55571
9.85272	55054
9.86083	53431
9.86897	61489
9.87708	60430
9.88522	56855
9.89333	66063
9.90145	59207
9.90958	54137
9.91770	55466
9.92582	71050
9.93395	71988
9.94207	101000
9.95020	135227
9.95832	163172
9.96643	184495
9.97457	178379
9.98268	151660
9.99082	127657
9.99893	100633
10.00705	86508
10.01518	82768
10.02330	77717
10.03142	80914
10.03955	75005
10.04767	74539
10.05580	68508
10.06392	67704
10.07203	69895
10.08017	70588
10.08828	71726
10.09642	73523
10.10453	70920
10.11265	81012
10.12078	72951
10.12890	70219
10.13703	68390
10.14515	64879
10.15327	60084
10.16140	58936
10.16952	57040
10.17763	63838
10.18577	56015
10.19388	61125
10.20202	65539
10.21013	59803
10.21825	57185
10.22638	60365
10.23450	60889
10.24263	61702
10.25075	63230
10.25887	84649
10.26700	123144
10.27512	281909
10.28325	663581
10.29137	1450439
10.29948	2581795
10.30762	3973091
10.31573	5687364
10.32385	8540148
10.33198	1.27049E+07
10.34010	1.770987E+07
10.34823	2.127955E+07
10.35635	2.027767E+07
10.36447	1.489069E+07
10.37260	8703378
10.38072	4476284
10.38885	2417056
10.39697	1511218
10.40508	1008982
10.41322	706833
10.42133	549703
10.42945	457973
10.43758	395420
10.44570	372744
10.45383	362121
10.46195	344895
10.47007	332189
10.47820	311328
10.48632	285745
10.49445	265759
10.50257	254323
10.51068	230249
10.51882	213369
10.52693	200859
10.53507	190408
10.54318	189838
10.55130	179880
10.55943	176492
10.56755	170544
10.57567	168931
10.58380	168177
10.59192	168218
10.60005	147252
10.60817	143326
10.61628	142686
10.62442	134090
10.63253	132520
10.64067	120043
10.64878	121915
10.65690	118430
10.66503	120380
10.67315	116243
10.68128	116662
10.68940	120531
10.69752	120716
10.70565	118541
10.71377	120855
10.72188	116697
10.73002	116454
10.73813	107271
10.74627	117075
10.75438	107938
10.76250	117211
10.77063	99983
10.77875	106955
10.78688	102596
10.79500	101842
10.80312	96251
10.81125	97681
10.81937	114908
10.82748	101028
10.83562	97599
10.84373	94109
10.85187	85983
10.85998	83662
10.86810	80551
10.87623	80664
10.88435	77048
10.89248	75673
10.90060	78483
10.90872	82480
10.91685	76835
10.92497	76948
10.93310	76218
10.94122	70666
10.94933	72669
10.95747	74393
10.96558	70087
10.97370	68208
10.98183	72893
10.98995	68416
10.99808	75327
11.00620	74872
11.01432	75125
11.02245	66739
11.03057	62874
11.03870	70225
11.04682	62187
11.05493	66097
11.06307	65553
11.07118	65783
11.07930	74845
11.08743	75220
11.09555	75219
11.10368	79144
11.11180	79776
11.11992	69691
11.12805	65825
11.13617	55328
11.14430	57947
11.15242	58402
11.16053	58791
11.16867	55422
11.17678	60838
11.18492	57231
11.19303	64711
11.20115	64222
11.20928	65049
11.21740	61656
11.22552	58968
11.23365	55375
11.24177	54376
11.24990	52505
11.25802	49773
11.26613	56973
11.27427	47115
11.28238	56637
11.29052	51958
11.29863	58747
11.30675	83508
11.31488	133340
11.32300	247861
11.33113	415361
11.33925	627890
11.34737	814800
11.35550	895614
11.36362	799440
11.37173	609873
11.37987	427182
11.38798	297487
11.39612	220257
11.40423	188357
11.41235	174852
11.42048	175868
11.42860	175503
11.43673	151465
11.44485	147103
11.45297	127099
11.46110	123347
11.46922	113158
11.47733	118696
11.48547	126914
11.49358	155785
11.50172	192210
11.50983	212854
11.51795	208445
11.52608	194083
11.53420	163055
11.54233	141782
11.55045	133320
11.55857	126551
11.56670	123117
11.57482	106055
11.58295	103034
11.59107	100132
11.59918	99382
11.60732	119197
11.61543	147696
11.62355	186034
11.63168	202112
11.63980	202824
11.64793	164094
11.65605	135319
11.66417	108806
11.67230	91212
11.68042	86382
11.68855	82474
11.69667	82694
11.70478	86389
11.71292	84057
11.72103	81546
11.72917	78663
11.73728	76243
11.74540	72789
11.75353	65601
11.76165	66068
11.76977	63999
11.77790	60369
11.78602	62938
11.79415	59910
11.80227	63785
11.81038	55562
11.81852	59123
11.82663	60990
11.83477	57384
11.84288	58091
11.85100	59415
11.85913	60176
11.86725	55985
11.87537	55100
11.88350	52303
11.89162	56482
11.89975	51952
11.90787	52776
11.91598	50821
11.92412	56707
11.93223	58885
11.94037	61587
11.94848	58961
11.95660	56762
11.96473	57799
11.97285	50285
11.98098	50320
11.98910	49033
11.99722	66282
12.00535	72540
12.01347	83258
12.02158	91809
12.02972	89288
12.03783	89969
12.04597	74110
12.05408	63300
12.06220	56002
12.07033	60928
12.07845	55951
12.08658	61143
12.09470	56464
12.10282	70067
12.11095	89627
12.11907	125171
12.12718	172311
12.13532	221825
12.14343	258356
12.15157	238279
12.15968	198535
12.16780	161817
12.17593	107581
12.18405	84526
12.19218	71380
12.20030	75158
12.20842	75217
12.21655	77901
12.22467	82280
12.23280	78223
12.24092	74862
12.24903	76481
12.25717	72680
12.26528	68593
12.27340	67254
12.28153	67226
12.28965	63326
12.29778	64436
12.30590	65669
12.31402	62655
12.32215	57166
12.33027	56287
12.33840	56222
12.34652	63538
12.35463	55636
12.36277	59465
12.37088	54516
12.37902	56975
12.38713	57194
12.39525	59403
12.40338	62517
12.41150	66763
12.41962	79653
12.42775	103495
12.43587	114911
12.44400	121627
12.45212	120047
12.46023	99573
12.46837	94157
12.47648	83507
12.48462	72716
12.49273	71375
12.50085	63080
12.50898	58424
12.51710	58594
12.52523	59400
12.53335	59288
12.54147	67434
12.54960	80848
12.55772	84974
12.56583	109767
12.57397	121037
12.58208	124509
12.59022	109968
12.59833	98704
12.60645	84214
12.61458	71011
12.62270	70074
12.63083	73439
12.63895	66087
12.64707	70443
12.65520	60757
12.66332	60449
12.67143	59961
12.67957	54310
12.68768	56035
12.69582	55612
12.70393	53663
12.71205	51989
12.72018	54388
12.72830	54134
12.73643	54981
12.74455	57952
12.75267	60509
12.76080	54833
12.76892	55178
12.77705	51936
12.78517	51933
12.79328	50926
12.80142	46108
12.80953	50649
12.81765	45267
12.82578	43423
12.83390	49945
12.84203	43199
12.85015	43210
12.85827	44333
12.86640	43125
12.87452	42338
12.88265	39064
12.89077	44358
12.89888	42130
12.90702	38813
12.91513	44106
12.92325	39874
12.93138	44684
12.93950	47596
12.94763	44437
12.95575	44760
12.96387	39445
12.97200	44083
12.98012	49071
12.98825	57308
12.99637	50306
13.00448	57460
13.01262	46256
13.02073	44354
13.02887	46262
13.03698	44193
13.04510	42071
13.05323	42653
13.06135	51976
13.06947	43523
13.07760	45512
13.08572	46387
13.09385	42158
13.10197	44959
13.11008	46937
13.11822	46063
13.12633	45676
13.13447	46282
13.14258	42761
13.15070	39721
13.15883	40276
13.16695	42980
13.17508	48022
13.18320	45204
13.19132	51192
13.19945	53200
13.20757	51314
13.21568	52652
13.22382	52999
13.23193	52224
13.24007	52497
13.24818	53167
13.25630	51644
13.26443	50160
13.27255	49138
13.28068	46541
13.28880	43124
13.29692	44487
13.30505	37877
13.31317	39793
13.32128	39318
13.32942	40416
13.33753	38483
13.34567	48065
13.35378	38505
13.36190	37763
13.37003	45882
13.37815	37938
13.38628	38520
13.39440	38010
13.40252	36759
13.41065	39251
13.41877	36389
13.42690	39769
13.43502	37478
13.44313	40828
13.45127	37601
13.45938	37842
13.46750	40843
13.47563	40461
13.48375	43160
13.49188	42540
13.50000	43773
13.50812	38379
13.51625	39434
13.52437	44563
13.53250	39975
13.54062	45245
13.54873	44749
13.55687	46462
13.56498	54107
13.57312	46191
13.58123	47812
13.58935	49133
13.59748	49834
13.60560	60504
13.61372	55625
13.62185	60529
13.62997	62249
13.63810	64182
13.64622	59381
13.65433	50512
13.66247	52842
13.67058	38722
13.67872	37603
13.68683	38389
13.69495	40113
13.70308	39228
13.71120	35287
13.71932	42114
13.72745	37609
13.73557	43300
13.74370	41216
13.75182	47037
13.75993	63626
13.76807	96026
13.77618	126732
13.78432	182696
13.79243	226110
13.80055	267740
13.80868	295346
13.81680	312166
13.82493	313017
13.83305	317829
13.84117	337475
13.84930	328050
13.85742	303688
13.86553	253543
13.87367	205754
13.88178	163886
13.88992	135272
13.89803	115970
13.90615	100886
13.91428	91235
13.92240	84732
13.93053	82484
13.93865	66588
13.94677	63437
13.95490	62371
13.96302	75668
13.97113	94018
13.97927	127701
13.98738	167254
13.99552	172622
14.00363	170375
14.01175	168383
14.01988	131969
14.02800	105462
14.03613	93254
14.04425	85003
14.05237	86265
14.06050	73468
14.06862	69838
14.07675	71705
14.08487	73726
14.09298	65413
14.10112	65023
14.10923	73983
14.11735	54292
14.12548	58931
14.13360	54708
14.14173	59314
14.14985	62467
14.15797	61255
14.16610	70279
14.17422	70527
14.18235	69599
14.19047	75626
14.19858	83145
14.20672	111343
14.21483	125897
14.22297	176449
14.23108	205091
14.23920	203042
14.24733	195953
14.25545	188916
14.26357	181602
14.27170	167360
14.27982	146899
14.28795	128760
14.29607	116238
14.30418	103035
14.31232	107545
14.32043	96615
14.32857	94281
14.33668	85642
14.34480	93783
14.35293	88447
14.36105	87322
14.36917	86060
14.37730	83314
14.38542	69033
14.39355	63081
14.40167	59305
14.40978	64228
14.41792	66561
14.42603	71716
14.43417	78573
14.44228	77311
14.45040	71950
14.45853	70752
14.46665	67781
14.47478	53993
14.48290	55501
14.49102	51998
14.49915	50136
14.50727	53075
14.51538	53156
14.52352	51626
14.53163	51900
14.53977	58129
14.54788	53550
14.55600	51533
14.56413	59341
14.57225	46079
14.58038	45330
14.58850	42481
14.59662	47492
14.60475	43709
14.61287	46115
14.62100	43438
14.62912	45773
14.63723	42823
14.64537	44321
14.65348	42808
14.66160	47431
14.66973	40194
14.67785	37711
14.68598	40353
14.69410	40009
14.70222	40688
14.71035	42282
14.71847	46620
14.72660	42277
14.73472	42999
14.74283	43619
14.75097	41978
14.75908	44793
14.76720	45890
14.77533	48026
14.78345	51634
14.79158	61473
14.79970	114493
14.80782	286776
14.81595	768796
14.82407	1703615
14.83220	3156053
14.84032	4607200
14.84843	5374983
14.85657	5050452
14.86468	3804056
14.87282	2475975
14.88093	1510878
14.88905	970244
14.89718	687420
14.90530	513885
14.91342	431135
14.92155	373952
14.92967	331964
14.93780	300390
14.94592	277439
14.95403	252276
14.96217	230933
14.97028	211550
14.97842	198309
14.98653	193579
14.99465	174987
15.00278	177246
15.01090	162989
15.01903	158693
15.02715	148039
15.03527	142960
15.04340	141062
15.05152	133633
15.05963	134306
15.06777	124610
15.07588	117563
15.08402	112378
15.09213	113406
15.10025	112189
15.10838	105604
15.11650	103511
15.12463	102025
15.13275	106694
15.14087	115803
15.14900	131691
15.15712	126840
15.16523	123568
15.17337	116386
15.18148	98278
15.18962	79727
15.19773	78384
15.20585	68364
15.21398	66667
15.22210	63345
15.23023	60933
15.23835	57212
15.24647	54867
15.25460	58284
15.26272	53492
15.27085	54005
15.27897	53610
15.28708	54651
15.29522	52268
15.30333	55303
15.31145	55572
15.31958	51282
15.32770	52803
15.33583	49508
15.34395	47455
15.35207	48471
15.36020	50761
15.36832	52236
15.37645	52472
15.38457	49128
15.39268	51622
15.40082	49526
15.40893	49538
15.41705	48399
15.42518	47130
15.43330	50197
15.44143	49094
15.44955	46245
15.45767	50968
15.46580	47278
15.47392	54254
15.48205	70301
15.49017	86867
15.49828	113628
15.50642	134770
15.51453	140144
15.52267	149483
15.53078	165082
15.53890	176193
15.54703	188276
15.55515	203254
15.56327	193323
15.57140	175832
15.57952	142083
15.58765	117176
15.59577	90384
15.60388	79955
15.61202	71862
15.62013	64588
15.62827	62390
15.63638	65840
15.64450	56142
15.65263	55047
15.66075	58863
15.66888	52603
15.67700	50677
15.68512	53136
15.69325	49709
15.70137	50254
15.70948	46608
15.71762	45548
15.72573	44265
15.73387	48353
15.74198	52384
15.75010	53516
15.75823	63855
15.76635	84097
15.77448	143103
15.78260	228604
15.79072	337333
15.79885	457845
15.80697	478129
15.81508	434432
15.82322	330838
15.83133	237588
15.83947	166224
15.84758	127504
15.85570	106992
15.86383	97561
15.87195	101952
15.88008	99718
15.88820	117909
15.89632	125540
15.90445	125908
15.91257	129787
15.92070	115946
15.92882	100890
15.93693	96345
15.94507	83153
15.95318	74272
15.96130	75218
15.96943	74104
15.97755	81957
15.98568	86431
15.99380	98089
16.00192	93415
16.01005	89605
16.01817	86220
16.02630	86618
16.03442	84241
16.04253	82029
16.05067	82592
16.05878	72832
16.06692	68139
16.07503	60069
16.08315	54348
16.09128	55064
16.09940	55571
16.10752	52574
16.11565	54636
16.12377	56329
16.13190	56552
16.14002	63538
16.14813	66652
16.15627	69296
16.16438	62643
16.17252	66228
16.18063	58596
16.18875	60311
16.19688	57097
16.20500	56416
16.21312	53367
16.22125	56997
16.22937	53163
16.23750	54840
16.24562	50682
16.25373	52013
16.26187	52300
16.26998	48655
16.27812	51039
16.28623	55714
16.29435	60110
16.30248	57233
16.31060	57644
16.31873	59438
16.32685	57358
16.33497	57864
16.34310	52062
16.35122	60445
16.35933	60873
16.36747	70633
16.37558	82903
16.38372	97024
16.39183	105190
16.39995	101282
16.40808	96828
16.41620	82327
16.42433	65858
16.43245	67882
16.44057	58363
16.44870	67233
16.45682	98888
16.46493	174380
16.47307	349889
16.48118	618883
16.48932	898134
16.49743	1055791
16.50555	1037975
16.51368	819019
16.52180	546171
16.52993	334192
16.53805	226841
16.54617	169443
16.55430	149018
16.56242	120681
16.57055	115332
16.57867	101367
16.58678	97561
16.59492	97633
16.60303	96619
16.61115	98071
16.61928	97632
16.62740	98437
16.63553	95328
16.64365	89562
16.65177	86244
16.65990	81427
16.66802	72803
16.67615	70008
16.68427	68363
16.69238	63761
16.70052	64640
16.70863	63820
16.71677	58114
16.72488	60038
16.73300	51693
16.74113	58368
16.74925	54437
16.75737	56705
16.76550	62264
16.77362	65291
16.78175	64810
16.78987	61830
16.79798	60689
16.80612	54300
16.81423	52537
16.82237	47170
16.83048	49134
16.83860	45727
16.84673	47962
16.85485	45768
16.86298	46437
16.87110	46346
16.87922	42414
16.88735	41099
16.89547	47521
16.90358	46154
16.91172	46381
16.91983	40177
16.92797	40940
16.93608	43853
16.94420	40635
16.95233	44772
16.96045	44461
16.96858	41684
16.97670	46731
16.98482	49908
16.99295	45768
17.00107	46010
17.00918	42298
17.01732	46635
17.02543	47717
17.03357	43225
17.04168	50023
17.04980	54138
17.05793	53983
17.06605	54306
17.07418	56866
17.08230	61902
17.09042	62709
17.09855	71242
17.10667	85124
17.11480	93961
17.12292	101815
17.13103	108834
17.13917	108961
17.14728	98653
17.15540	92759
17.16353	88325
17.17165	79528
17.17978	71246
17.18790	65387
17.19602	60516
17.20415	55107
17.21227	49294
17.22040	50873
17.22852	48550
17.23663	42654
17.24477	55795
17.25288	52024
17.26100	47942
17.26913	48921
17.27725	50703
17.28538	48597
17.29350	45503
17.30162	45220
17.30975	46291
17.31787	44181
17.32600	50011
17.33412	52532
17.34223	53600
17.35037	63220
17.35848	61943
17.36662	65636
17.37473	59033
17.38285	61231
17.39098	61952
17.39910	61966
17.40722	54308
17.41535	62171
17.42347	59840
17.43160	58328
17.43972	55951
17.44783	56975
17.45597	56310
17.46408	53139
17.47222	52524
17.48033	52284
17.48845	51365
17.49658	53894
17.50470	53287
17.51283	47418
17.52095	50598
17.52907	48074
17.53720	49921
17.54532	53124
17.55343	51400
17.56157	58210
17.56968	74991
17.57782	106677
17.58593	172343
17.59405	296601
17.60218	488755
17.61030	706160
17.61843	813193
17.62655	842110
17.63467	758842
17.64280	581329
17.65092	448340
17.65903	369303
17.66717	326736
17.67528	331338
17.68342	326104
17.69153	298883
17.69965	248204
17.70778	214184
17.71590	163380
17.72403	137256
17.73215	119001
17.74027	106811
17.74840	94959
17.75652	94230
17.76465	84377
17.77277	81255
17.78088	76646
17.78902	75780
17.79713	75997
17.80525	66446
17.81338	72190
17.82150	69267
17.82963	70345
17.83775	75182
17.84587	75505
17.85400	80540
17.86212	83392
17.87025	101617
17.87837	106293
17.88648	97783
17.89462	93313
17.90273	77827
17.91087	70314
17.91898	61074
17.92710	57077
17.93523	58633
17.94335	54363
17.95147	54978
17.95960	54537
17.96772	51219
17.97585	49460
17.98397	49855
17.99208	48773
18.00022	50249
18.00833	47333
18.01647	56708
18.02458	64087
18.03270	76189
18.04083	91451
18.04895	105630
18.05707	122115
18.06520	145913
18.07332	201900
18.08145	355546
18.08957	557658
18.09768	826185
18.10582	1029392
18.11393	1106523
18.12207	967490
18.13018	744393
18.13830	550519
18.14643	427073
18.15455	347495
18.16268	290792
18.17080	260548
18.17892	243803
18.18705	216334
18.19517	207159
18.20328	181565
18.21142	177449
18.21953	163415
18.22767	156723
18.23578	141201
18.24390	138049
18.25203	130272
18.26015	127973
18.26828	112193
18.27640	112992
18.28452	98551
18.29265	92387
18.30077	80786
18.30888	75003
18.31702	65592
18.32513	62244
18.33327	59822
18.34138	55623
18.34950	53206
18.35763	53356
18.36575	54687
18.37388	48732
18.38200	55353
18.39012	51993
18.39825	51556
18.40637	49739
18.41450	51936
18.42262	53601
18.43073	58515
18.43887	60668
18.44698	74214
18.45510	83406
18.46323	116395
18.47135	156588
18.47948	225519
18.48760	284128
18.49572	321938
18.50385	309627
18.51197	280324
18.52010	220120
18.52822	169070
18.53633	131096
18.54447	97936
18.55258	84545
18.56072	70899
18.56883	63063
18.57695	70926
18.58508	64204
18.59320	68334
18.60132	60043
18.60945	61268
18.61757	65079
18.62570	66115
18.63382	68107
18.64193	66344
18.65007	66332
18.65818	65887
18.66632	59206
18.67443	56897
18.68255	58840
18.69068	49849
18.69880	52900
18.70692	46071
18.71505	52064
18.72317	51320
18.73130	48640
18.73942	43449
18.74753	44180
18.75567	45058
18.76378	44334
18.77192	42313
18.78003	41801
18.78815	42806
18.79628	43463
18.80440	45006
18.81253	46385
18.82065	42658
18.82877	46311
18.83690	44394
18.84502	44754
18.85313	42537
18.86127	44956
18.86938	46187
18.87752	48987
18.88563	43519
18.89375	43523
18.90188	46312
18.91000	55367
18.91813	51177
18.92625	67913
18.93437	97965
18.94250	130674
18.95062	155706
18.95875	169847
18.96687	183860
18.97498	190013
18.98312	193812
18.99123	203827
18.99935	188402
19.00748	197996
19.01560	189204
19.02373	189668
19.03185	185699
19.03997	192841
19.04810	197179
19.05622	190118
19.06435	186330
19.07247	194210
19.08058	196333
19.08872	203049
19.09683	216250
19.10495	243650
19.11308	252558
19.12120	256848
19.12933	262820
19.13745	252823
19.14557	235063
19.15370	214061
19.16182	211422
19.16995	206543
19.17807	205552
19.18618	211349
19.19432	206410
19.20243	211847
19.21057	207532
19.21868	200646
19.22680	190811
19.23493	187774
19.24305	185208
19.25117	179880
19.25930	186682
19.26742	182312
19.27555	180902
19.28367	181955
19.29178	182584
19.29992	196644
19.30803	186834
19.31617	194904
19.32428	185615
19.33240	189941
19.34053	180967
19.34865	184615
19.35677	179604
19.36490	192673
19.37302	203579
19.38115	218224
19.38927	232331
19.39738	237337
19.40552	221916
19.41363	196716
19.42177	182426
19.42988	184527
19.43800	184017
19.44613	173133
19.45425	169729
19.46238	163574
19.47050	163994
19.47862	165185
19.48675	166414
19.49487	170122
19.50298	186133
19.51112	202587
19.51923	233768
19.52737	257723
19.53548	270858
19.54360	269239
19.55173	246481
19.55985	216293
19.56798	190277
19.57610	174769
19.58422	161851
19.59235	158438
19.60047	160052
19.60860	157574
19.61672	151897
19.62483	143744
19.63297	149033
19.64108	160609
19.64920	183456
19.65733	239282
19.66545	329341
19.67358	435609
19.68170	530731
19.68982	565223
19.69795	554686
19.70607	522144
19.71420	446457
19.72232	365278
19.73043	316127
19.73857	279613
19.74668	246683
19.75480	213022
19.76293	202245
19.77105	191412
19.77918	185999
19.78730	186809
19.79542	188103
19.80355	193913
19.81167	198724
19.81980	195783
19.82792	189930
19.83603	183379
19.84417	184674
19.85228	197816
19.86042	337967
19.86853	763841
19.87665	1948411
19.88478	4494749
19.89290	8352303
19.90102	1.31512E+07
19.90915	1.718247E+07
19.91727	1.962065E+07
19.92540	1.811227E+07
19.93352	1.46338E+07
19.94163	1.093517E+07
19.94977	7669504
19.95788	5620241
19.96602	4507694
19.97413	3809497
19.98225	3430130
19.99038	3103932
19.99850	2853492
20.00663	2626247
20.01475	2447510
20.02287	2321796
20.03100	2157339
20.03912	2024469
20.04723	1826262
20.05537	1582883
20.06348	1304008
20.07162	1040855
20.07973	816374
20.08785	659586
20.09598	553121
20.10410	480601
20.11223	447510
20.12035	432733
20.12847	408194
20.13660	380031
20.14472	367511
20.15283	359267
20.16097	369269
20.16908	376980
20.17722	397619
20.18533	429088
20.19345	439295
20.20158	458487
20.20970	444448
20.21783	426602
20.22595	404363
20.23407	372301
20.24220	351987
20.25032	334043
20.25845	351844
20.26657	381022
20.27468	452289
20.28282	528613
20.29093	578588
20.29905	616593
20.30718	616592
20.31530	544780
20.32343	482429
20.33155	409193
20.33967	349190
20.34780	295171
20.35592	247501
20.36405	219885
20.37217	185512
20.38028	167071
20.38842	155619
20.39653	133186
20.40467	121594
20.41278	125030
20.42090	122405
20.42903	136336
20.43715	135923
20.44527	151017
20.45340	157562
20.46152	161157
20.46965	170227
20.47777	161789
20.48588	155884
20.49402	139172
20.50213	126338
20.51027	126642
20.51838	117110
20.52650	115350
20.53463	113138
20.54275	107952
20.55087	105381
20.55900	109195
20.56712	102054
20.57525	101508
20.58337	101187
20.59148	100526
20.59962	95122
20.60773	96849
20.61587	91865
20.62398	92066
20.63210	96730
20.64023	88757
20.64835	88062
20.65648	90801
20.66460	94815
20.67272	94759
20.68085	93164
20.68897	90218
20.69708	93079
20.70522	96658
20.71333	86574
20.72147	89054
20.72958	89142
20.73770	88760
20.74583	85509
20.75395	89122
20.76208	87813
20.77020	92338
20.77832	96246
20.78645	97460
20.79457	112655
20.80268	147410
20.81082	208456
20.81893	266518
20.82707	327807
20.83518	372028
20.84330	345974
20.85143	286527
20.85955	220484
20.86768	161348
20.87580	130015
20.88392	112560
20.89205	109269
20.90017	96457
20.90830	98917
20.91642	94729
20.92453	94545
20.93267	90100
20.94078	93396
20.94890	86325
20.95703	89972
20.96515	89724
20.97328	83866
20.98140	82852
20.98952	81546
20.99765	88084
21.00577	80357
21.01390	79101
21.02202	77805
21.03013	80788
21.03827	79955
21.04638	80964
21.05452	81386
21.06263	79748
21.07075	79349
21.07888	87210
21.08700	82500
21.09512	79512
21.10325	79179
21.11137	77382
21.11950	73303
21.12762	78614
21.13573	82969
21.14387	96442
21.15198	125374
21.16012	154044
21.16823	187018
21.17635	210354
21.18448	207147
21.19260	190565
21.20072	157832
21.20885	134581
21.21697	113230
21.22510	108534
21.23322	105859
21.24133	97510
21.24947	93422
21.25758	89556
21.26572	80963
21.27383	80860
21.28195	81786
21.29008	83637
21.29820	82762
21.30633	78335
21.31445	79023
21.32257	75331
21.33070	80334
21.33882	80582
21.34693	76360
21.35507	74719
21.36318	78656
21.37132	70657
21.37943	73171
21.38755	77019
21.39568	81816
21.40380	90619
21.41193	91183
21.42005	103884
21.42817	114386
21.43630	117302
21.44442	108796
21.45255	106156
21.46067	98454
21.46878	87149
21.47692	88053
21.48503	87364
21.49315	84931
21.50128	80907
21.50940	72937
21.51753	75715
21.52565	69981
21.53377	75424
21.54190	71357
21.55002	71839
21.55815	70083
21.56627	67633
21.57438	70551
21.58252	74347
21.59063	76016
21.59875	76457
21.60688	83561
21.61500	85167
21.62313	84603
21.63125	87772
21.63937	97378
21.64750	101635
21.65562	124910
21.66375	124557
21.67187	133072
21.67998	138104
21.68812	130041
21.69623	111117
21.70437	111171
21.71248	96489
21.72060	92157
21.72873	81467
21.73685	77385
21.74497	71824
21.75310	68907
21.76122	68036
21.76935	72443
21.77747	67111
21.78558	70154
21.79372	61752
21.80183	67258
21.80997	69460
21.81808	65887
21.82620	75497
21.83433	85862
21.84245	90444
21.85057	104118
21.85870	117061
21.86682	111431
21.87495	105409
21.88307	99063
21.89118	91431
21.89932	86212
21.90743	70096
21.91557	70154
21.92368	64696
21.93180	57025
21.93993	60906
21.94805	58204
21.95618	55627
21.96430	59909
21.97242	55899
21.98055	53117
21.98867	47159
21.99678	54352
22.00492	47079
22.01303	46080
22.02117	52185
22.02928	54449
22.03740	51948
22.04553	50716
22.05365	53251
22.06178	53844
22.06990	54404
22.07802	54995
22.08615	49861
22.09427	53046
22.10240	51827
22.11052	48633
22.11863	49094
22.12677	48155
22.13488	47909
22.14300	54316
22.15113	50712
22.15925	47521
22.16738	49823
22.17550	49576
22.18362	47182
22.19175	48456
22.19987	46975
22.20800	48775
22.21612	47416
22.22423	49159
22.23237	52842
22.24048	54615
22.24862	59753
22.25673	62477
22.26485	56662
22.27298	57532
22.28110	56208
22.28922	67272
22.29735	65910
22.30547	71954
22.31360	82842
22.32172	95095
22.32983	118721
22.33797	136813
22.34608	162798
22.35422	153950
22.36233	153056
22.37045	142006
22.37858	114427
22.38670	99782
22.39482	97350
22.40295	93803
22.41107	114031
22.41920	124140
22.42732	139821
22.43543	153084
22.44357	143316
22.45168	127435
22.45982	109129
22.46793	90353
22.47605	84204
22.48418	74880
22.49230	72458
22.50043	73760
22.50855	81479
22.51667	87614
22.52480	87296
22.53292	82526
22.54103	76545
22.54917	76929
22.55728	73465
22.56542	81779
22.57353	86891
22.58165	91925
22.58978	87655
22.59790	92124
22.60603	87238
22.61415	91337
22.62227	87644
22.63040	85377
22.63852	87517
22.64663	95107
22.65477	89236
22.66288	96392
22.67102	101255
22.67913	101320
22.68725	116421
22.69538	124833
22.70350	136191
22.71163	152574
22.71975	168116
22.72787	171094
22.73600	166553
22.74412	166834
22.75225	155143
22.76037	135406
22.76848	123423
22.77662	125139
22.78473	118899
22.79285	124066
22.80098	128092
22.80910	146051
22.81723	152341
22.82535	161122
22.83347	154462
22.84160	141839
22.84972	139086
22.85785	121528
22.86597	119676
22.87408	113336
22.88222	119185
22.89033	125903
22.89847	132209
22.90658	133609
22.91470	141419
22.92283	142387
22.93095	164650
22.93907	154324
22.94720	168550
22.95532	172066
22.96345	152980
22.97157	138507
22.97968	119192
22.98782	109208
22.99593	109279
23.00407	106148
23.01218	100833
23.02030	88919
23.02843	90642
23.03655	91157
23.04467	83355
23.05280	72473
23.06092	68937
23.06905	70372
23.07717	70875
23.08528	66222
23.09342	66987
23.10153	62887
23.10967	69734
23.11778	62715
23.12590	59185
23.13403	62770
23.14215	54335
23.15028	55281
23.15840	53660
23.16652	51526
23.17465	58588
23.18277	55263
23.19088	56189
23.19902	57462
23.20713	53049
23.21527	48853
23.22338	51693
23.23150	54564
23.23963	59481
23.24775	66123
23.25588	75838
23.26400	86185
23.27212	100285
23.28025	102098
23.28837	91811
23.29650	88694
23.30462	82223
23.31273	85522
23.32087	88983
23.32898	104456
23.33710	112009
23.34523	121051
23.35335	140945
23.36148	155511
23.36960	173677
23.37772	188034
23.38585	194685
23.39397	188226
23.40210	184020
23.41022	172637
23.41833	175468
23.42647	162294
23.43458	152807
23.44270	159978
23.45083	150854
23.45895	146224
23.46708	148817
23.47520	145789
23.48332	142877
23.49145	153815
23.49957	142353
23.50770	140668
23.51582	140988
23.52393	143719
23.53207	131552
23.54018	128864
23.54832	144883
23.55643	137920
23.56455	141043
23.57268	142316
23.58080	161256
23.58892	163430
23.59705	178929
23.60517	214986
23.61330	208635
23.62142	217684
23.62953	208316
23.63767	213084
23.64578	249599
23.65392	316199
23.66203	437122
23.67015	569310
23.67828	658204
23.68640	678462
23.69452	603235
23.70265	493983
23.71077	381427
23.71890	296653
23.72702	247011
23.73513	213834
23.74327	190998
23.75138	180756
23.75952	192281
23.76763	289997
23.77575	511714
23.78388	1008716
23.79200	1730881
23.80013	2516161
23.80825	2960620
23.81637	2947269
23.82450	2551419
23.83262	1960688
23.84073	1462541
23.84887	1067578
23.85698	856006
23.86512	681977
23.87323	564824
23.88135	474265
23.88948	413002
23.89760	389650
23.90573	353412
23.91385	318115
23.92197	312993
23.93010	293014
23.93822	295842
23.94635	275710
23.95447	269891
23.96258	253323
23.97072	235077
23.97883	221018
23.98695	213174
23.99508	200871
24.00320	190918
24.01133	190505
24.01945	201009
24.02757	217452
24.03570	246239
24.04382	280737
24.05195	315803
24.06007	281709
24.06818	254775
24.07632	229455
24.08443	200452
24.09255	182879
24.10068	164748
24.10880	157634
24.11693	148487
24.12505	149527
24.13317	149081
24.14130	152813
24.14942	163456
24.15755	174324
24.16567	184271
24.17378	193488
24.18192	189286
24.19003	170421
24.19817	165202
24.20628	158874
24.21440	154620
24.22253	147007
24.23065	145142
24.23877	144892
24.24690	142719
24.25502	131610
24.26315	127896
24.27127	123170
24.27938	119188
24.28752	120987
24.29563	117713
24.30377	111512
24.31188	120335
24.32000	117756
24.32813	113701
24.33625	114702
24.34438	115306
24.35250	110255
24.36062	109972
24.36875	105591
24.37687	103457
24.38498	99054
24.39312	102558
24.40123	123043
24.40937	130535
24.41748	147534
24.42560	151376
24.43373	147809
24.44185	131131
24.44998	114501
24.45810	106838
24.46622	99146
24.47435	94739
24.48247	99383
24.49058	94884
24.49872	105665
24.50683	107453
24.51497	108881
24.52308	114548
24.53120	122796
24.53933	149963
24.54745	155349
24.55558	175985
24.56370	176686
24.57182	188687
24.57995	175718
24.58807	165421
24.59620	144154
24.60432	143272
24.61243	123724
24.62057	118536
24.62868	108350
24.63680	94849
24.64493	94468
24.65305	87323
24.66118	86190
24.66930	82069
24.67742	81309
24.68555	81419
24.69367	84562
24.70180	76688
24.70992	78964
24.71803	75313
24.72617	73598
24.73428	69564
24.74242	65377
24.75053	69678
24.75865	70088
24.76678	74683
24.77490	73325
24.78302	78487
24.79115	81350
24.79927	80656
24.80740	79166
24.81552	77062
24.82363	82659
24.83177	82118
24.83988	92107
24.84802	101336
24.85613	118604
24.86425	150818
24.87238	199499
24.88050	260174
24.88862	340310
24.89675	446798
24.90487	502070
24.91300	492103
24.92112	449961
24.92923	360345
24.93737	251209
24.94548	180053
24.95362	126660
24.96173	102714
24.96985	88613
24.97798	76904
24.98610	77829
24.99423	78850
25.00235	93804
25.01047	109934
25.01860	127080
25.02672	136796
25.03483	146480
25.04297	168529
25.05108	165790
25.05922	171512
25.06733	178195
25.07545	183712
25.08358	194181
25.09170	196936
25.09983	211710
25.10795	248008
25.11607	326990
25.12420	521799
25.13232	934229
25.14043	1571996
25.14857	2361886
25.15668	2999140
25.16482	3221070
25.17293	2886890
25.18105	2340202
25.18918	1673525
25.19730	1130201
25.20543	750979
25.21355	540951
25.22167	406874
25.22980	329218
25.23792	298108
25.24605	323410
25.25417	388062
25.26228	495299
25.27042	655651
25.27853	827117
25.28665	966159
25.29478	959591
25.30290	865567
25.31103	666599
25.31915	516961
25.32727	384501
25.33540	291704
25.34352	244415
25.35165	230667
25.35977	217625
25.36788	198885
25.37602	192128
25.38413	194335
25.39227	183995
25.40038	180689
25.40850	181692
25.41663	179113
25.42475	172198
25.43287	165436
25.44100	164274
25.44912	161415
25.45725	166184
25.46537	160327
25.47348	157868
25.48162	158705
25.48973	163088
25.49787	154270
25.50598	150969
25.51410	165512
25.52223	156899
25.53035	150426
25.53847	139618
25.54660	142884
25.55472	139452
25.56285	141483
25.57097	134160
25.57908	130605
25.58722	125201
25.59533	115284
25.60347	98636
25.61158	93109
25.61970	91874
25.62783	84666
25.63595	87819
25.64408	84337
25.65220	93087
25.66032	98838
25.66845	98798
25.67657	101451
25.68468	96226
25.69282	85513
25.70093	85576
25.70907	82631
25.71718	77595
25.72530	73910
25.73343	72535
25.74155	71854
25.74968	73446
25.75780	78226
25.76592	77465
25.77405	73874
25.78217	72211
25.79030	71096
25.79842	66261
25.80653	65661
25.81467	68075
25.82278	68833
25.83090	76011
25.83903	78747
25.84715	75872
25.85528	85088
25.86340	78028
25.87152	75448
25.87965	71932
25.88777	70512
25.89590	67727
25.90402	57612
25.91213	62922
25.92027	62695
25.92838	64940
25.93650	57820
25.94463	58411
25.95275	61706
25.96088	61061
25.96900	68398
25.97712	77686
25.98525	106232
25.99337	137003
26.00150	171576
26.00962	203197
26.01773	210431
26.02587	219687
26.03398	216046
26.04212	222150
26.05023	223102
26.05835	228391
26.06648	237446
26.07460	242736
26.08272	239669
26.09085	240635
26.09897	248406
26.10710	231913
26.11522	239863
26.12333	241347
26.13147	243485
26.13958	247030
26.14772	239351
26.15583	237241
26.16395	257915
26.17208	249712
26.18020	241523
26.18832	236502
26.19645	245090
26.20457	222923
26.21270	236329
26.22082	228924
26.22893	240918
26.23707	234023
26.24518	215083
26.25332	209173
26.26143	216356
26.26955	219361
26.27768	215918
26.28580	219968
26.29393	218150
26.30205	211691
26.31017	207390
26.31830	206590
26.32642	206038
26.33453	207961
26.34267	214347
26.35078	217782
26.35892	207288
26.36703	215118
26.37515	227740
26.38328	241483
26.39140	267430
26.39953	288821
26.40765	307180
26.41577	310903
26.42390	302496
26.43202	287470
26.44015	262031
26.44827	235511
26.45638	223018
26.46452	210154
26.47263	203193
26.48075	195141
26.48888	196002
26.49700	202261
26.50513	185878
26.51325	187138
26.52137	185422
26.52950	169825
26.53762	181059
26.54575	178931
26.55387	173404
26.56198	174995
26.57012	159726
26.57823	166178
26.58637	160436
26.59448	172014
26.60260	171797
26.61073	163063
26.61885	171003
26.62697	168237
26.63510	156651
26.64322	157198
26.65135	164117
26.65947	157175
26.66758	161614
26.67572	165961
26.68383	156879
26.69197	153455
26.70008	157742
26.70820	153172
26.71633	150144
26.72445	142996
26.73257	140713
26.74070	134739
26.74882	135131
26.75695	131773
26.76507	128481
26.77318	134430
26.78132	137402
26.78943	128368
26.79757	128662
26.80568	129489
26.81380	141032
26.82193	134997
26.83005	137570
26.83818	131023
26.84630	127205
26.85442	124313
26.86255	122354
26.87067	121703
26.87878	119767
26.88692	118367
26.89503	116415
26.90317	111906
26.91128	113401
26.91940	110017
26.92753	110449
26.93565	104038
26.94378	104675
26.95190	103143
26.96002	108242
26.96815	107720
26.97627	119609
26.98438	145372
26.99252	182987
27.00063	279497
27.00877	440460
27.01688	629516
27.02500	848908
27.03313	1083744
27.04125	1134966
27.04938	1067990
27.05750	933723
27.06562	747912
27.07375	594737
27.08187	463306
27.09000	379638
27.09812	333319
27.10623	286452
27.11437	256392
27.12248	233495
27.13060	217383
27.13873	204256
27.14685	195104
27.15498	189080
27.16310	189123
27.17122	187407
27.17935	195364
27.18747	202698
27.19560	217702
27.20372	212260
27.21183	210059
27.21997	186948
27.22808	171921
27.23622	163572
27.24433	144079
27.25245	133200
27.26058	142512
27.26870	128435
27.27682	122346
27.28495	122223
27.29307	121453
27.30120	114715
27.30932	116758
27.31743	114266
27.32557	107393
27.33368	107765
27.34182	107850
27.34993	106719
27.35805	105702
27.36618	105961
27.37430	105350
27.38242	108086
27.39055	106743
27.39867	106909
27.40680	109707
27.41492	101579
27.42303	94857
27.43117	96149
27.43928	92612
27.44742	91171
27.45553	90520
27.46365	84393
27.47178	86559
27.47990	89057
27.48803	83846
27.49615	89080
27.50427	85680
27.51240	87420
27.52052	86148
27.52863	87655
27.53677	91583
27.54488	84083
27.55302	84812
27.56113	83136
27.56925	79134
27.57738	85863
27.58550	89397
27.59363	94632
27.60175	107299
27.60987	109345
27.61800	109133
27.62612	105144
27.63425	104960
27.64237	94248
27.65048	91124
27.65862	82572
27.66673	79952
27.67485	79621
27.68298	77549
27.69110	80639
27.69923	80962
27.70735	75170
27.71547	78118
27.72360	80226
27.73172	72029
27.73985	71794
27.74797	67987
27.75608	74368
27.76422	78440
27.77233	87680
27.78045	102880
27.78858	117099
27.79670	131300
27.80483	136260
27.81295	132489
27.82107	121790
27.82920	107284
27.83732	95205
27.84545	83302
27.85357	79471
27.86168	85103
27.86982	75898
27.87793	76981
27.88607	69746
27.89418	69259
27.90230	67262
27.91043	65950
27.91855	65785
27.92667	65409
27.93480	65991
27.94292	58815
27.95105	68312
27.95917	61460
27.96728	63896
27.97542	64987
27.98353	64140
27.99167	67347
27.99978	70140
28.00790	74104
28.01603	76635
28.02415	76368
28.03227	79345
28.04040	77535
28.04852	86956
28.05665	84330
28.06477	82098
28.07288	83041
28.08102	74109
28.08913	77274
28.09727	69300
28.10538	66839
28.11350	73024
28.12163	67161
28.12975	59772
28.13788	61604
28.14600	67330
28.15412	67426
28.16225	65179
28.17037	58031
28.17848	60452
28.18662	57924
28.19473	63566
28.20287	67990
28.21098	78572
28.21910	91854
28.22723	92864
28.23535	103246
28.24348	103451
28.25160	92602
28.25972	84632
28.26785	82159
28.27597	69762
28.28410	70907
28.29222	65400
28.30033	67438
28.30847	66958
28.31658	74093
28.32470	85500
28.33283	97090
28.34095	107354
28.34908	122000
28.35720	140211
28.36532	152425
28.37345	173316
28.38157	179720
28.38970	186134
28.39782	194321
28.40593	205375
28.41407	185674
28.42218	172165
28.43030	166093
28.43843	151858
28.44655	139740
28.45468	126555
28.46280	124740
28.47092	113184
28.47905	104625
28.48717	102487
28.49530	101244
28.50342	101175
28.51153	99637
28.51967	97184
28.52778	92652
28.53592	90366
28.54403	84190
28.55215	81829
28.56028	78475
28.56840	74798
28.57652	80592
28.58465	71573
28.59277	74446
28.60090	72494
28.60902	72076
28.61713	73354
28.62527	70299
28.63338	72575
28.64152	70211
28.64963	76125
28.65775	76289
28.66588	78085
28.67400	81621
28.68213	81131
28.69025	74172
28.69837	76112
28.70650	64593
28.71462	68705
28.72273	68394
28.73087	70738
28.73898	67116
28.74712	65619
28.75523	65819
28.76335	66857
28.77148	69034
28.77960	69253
28.78773	75791
28.79585	82699
28.80397	85848
28.81210	84539
28.82022	84030
28.82833	75600
28.83647	72010
28.84458	68967
28.85272	63681
28.86083	71039
28.86895	63456
28.87708	63758
28.88520	73039
28.89333	68282
28.90145	72511
28.90957	78051
28.91770	71788
28.92582	74086
28.93395	75820
28.94207	75053
28.95018	69150
28.95832	74561
28.96643	76648
28.97455	78203
28.98268	76433
28.99080	71316
28.99893	66793
29.00705	64032
29.01517	60601
29.02330	61685
29.03142	60377
29.03955	57085
29.04767	52702
29.05578	58009
29.06392	65139
29.07203	68335
29.08015	73401
29.08828	82622
29.09640	77899
29.10453	80774
29.11265	76182
29.12077	72077
29.12890	69603
29.13702	65010
29.14515	63667
29.15327	62488
29.16138	60890
29.16952	59274
29.17763	60325
29.18577	66369
29.19388	67022
29.20200	76419
29.21013	91121
29.21825	90175
29.22637	99832
29.23450	105921
29.24262	109848
29.25075	100708
29.25887	96054
29.26698	90102
29.27512	86367
29.28323	79516
29.29137	70633
29.29948	70552
29.30760	63508
29.31573	64127
29.32385	60964
29.33198	58676
29.34010	61266
29.34822	67234
29.35635	60542
29.36447	58186
29.37258	56914
29.38072	61103
29.38883	55143
29.39697	57419
29.40508	55242
29.41320	58315
29.42133	67649
29.42945	57400
29.43758	59108
29.44570	57732
29.45382	58822
29.46195	54993
29.47007	57518
29.47818	61768
29.48632	53477
29.49443	53028
29.50257	58652
29.51068	61817
29.51880	59688
29.52693	62151
29.53505	56651
29.54318	54726
29.55130	58151
29.55942	59657
29.56755	52824
29.57567	54924
29.58380	54734
29.59192	59404
29.60003	51561
29.60817	54168
29.61628	53391
29.62440	60870
29.63253	57258
29.64065	57605
29.64878	53353
29.65690	55894
29.66502	51551
29.67315	53581
29.68127	52873
29.68940	56055
29.69752	62790
29.70563	53425
29.71377	58967
29.72188	59632
29.73002	54791
29.73813	53224
29.74625	53481
29.75438	51513
29.76250	52311
29.77062	52100
29.77875	47408
29.78687	48183
29.79500	48881
29.80312	53664
29.81123	49942
29.81937	49763
29.82748	50626
29.83562	48256
29.84373	51954
29.85185	51741
29.85998	57163
29.86810	73650
29.87622	106993
29.88435	199981
29.89247	331084
29.90060	527459
29.90872	704497
29.91683	826688
29.92497	783546
29.93308	612993
29.94122	400613
29.94933	254341
29.95745	155083
29.96558	110516
29.97370	99930
29.98183	82964
29.98995	90065
29.99807	90075
30.00620	95674
30.01432	111323
30.02243	110981
30.03057	109787
30.03868	126770
30.04682	119514
30.05493	119249
30.06305	117933
30.07118	114737
30.07930	108126
30.08743	110381
30.09555	105812
30.10367	101779
30.11180	104568
30.11992	97367
30.12805	92348
30.13617	88654
30.14428	90021
30.15242	84134
30.16053	77154
30.16865	73114
30.17678	74088
30.18490	72241
30.19303	75478
30.20115	73164
30.20927	72125
30.21740	69994
30.22552	72664
30.23365	61518
30.24177	67317
30.24988	65655
30.25802	60913
30.26613	60970
30.27425	58530
30.28238	56341
30.29050	57689
30.29863	59014
30.30675	58915
30.31487	63456
30.32300	57389
30.33112	55140
30.33925	57958
30.34737	60812
30.35548	55773
30.36362	67287
30.37173	61096
30.37987	60553
30.38798	61500
30.39610	59625
30.40423	56182
30.41235	59660
30.42047	52304
30.42860	50737
30.43672	55673
30.44485	57396
30.45297	54739
30.46108	54981
30.46922	53897
30.47733	55433
30.48547	54413
30.49358	53697
30.50170	60890
30.50983	62224
30.51795	70849
30.52607	65260
30.53420	60867
30.54232	53605
30.55045	55361
30.55857	53473
30.56668	52337
30.57482	58057
30.58293	50509
30.59107	53687
30.59918	52992
30.60730	52915
30.61543	53220
30.62355	53228
30.63168	51530
30.63980	53016
30.64792	51898
30.65605	54300
30.66417	48762
30.67228	47528
30.68042	50512
30.68853	48741
30.69667	50002
30.70478	50645
30.71290	54134
30.72103	55312
30.72915	54857
30.73728	50328
30.74540	57855
30.75352	57828
30.76165	56115
30.76977	60590
30.77790	67320
30.78602	77138
30.79413	111369
30.80227	152893
30.81038	208654
30.81850	252948
30.82663	283352
30.83475	270042
30.84288	222418
30.85100	165328
30.85912	135427
30.86725	95419
30.87537	79557
30.88350	71786
30.89162	67145
30.89973	68883
30.90787	68232
30.91598	67698
30.92410	60779
30.93223	61644
30.94035	60240
30.94848	59525
30.95660	63814
30.96472	66026
30.97285	62389
30.98097	61590
30.98910	57874
30.99722	59440
31.00533	62207
31.01347	59307
31.02158	63388
31.02972	65184
31.03783	68226
31.04595	70294
31.05408	73789
31.06220	66557
31.07032	70239
31.07845	67824
31.08657	83729
31.09470	99218
31.10282	128441
31.11093	166993
31.11907	201175
31.12718	205015
31.13532	182624
31.14343	156154
31.15155	116406
31.15968	90683
31.16780	78299
31.17593	73800
31.18405	68518
31.19217	74354
31.20030	80174
31.20842	94248
31.21653	107426
31.22467	128779
31.23278	142299
31.24092	144840
31.24903	139093
31.25715	132026
31.26528	101630
31.27340	82391
31.28153	68548
31.28965	62916
31.29777	57977
31.30590	55048
31.31402	56288
31.32213	51956
31.33027	54442
31.33838	59073
31.34652	57884
31.35463	56710
31.36275	59725
31.37088	58167
31.37900	66405
31.38713	74049
31.39525	77855
31.40337	75689
31.41150	69988
31.41962	69550
31.42775	68371
31.43587	60700
31.44398	60374
31.45212	60728
31.46023	56199
31.46835	57217
31.47648	59866
31.48460	70197
31.49273	77860
31.50085	83500
31.50897	81796
31.51710	79428
31.52522	75347
31.53335	69043
31.54147	65683
31.54958	66405
31.55772	65014
31.56583	76126
31.57395	75479
31.58208	75618
31.59020	81213
31.59833	74538
31.60645	74676
31.61457	74322
31.62270	65304
31.63082	71002
31.63895	74169
31.64707	71527
31.65518	72273
31.66332	74114
31.67143	78206
31.67957	78119
31.68768	81900
31.69580	76309
31.70393	77100
31.71205	74098
31.72017	76912
31.72830	73680
31.73642	67310
31.74455	74848
31.75267	67986
31.76078	81685
31.76892	75377
31.77703	73659
31.78517	72646
31.79328	72775
31.80140	73291
31.80953	74140
31.81765	70175
31.82578	77050
31.83390	75674
31.84202	72448
31.85015	72540
31.85827	71498
31.86638	80103
31.87452	84944
31.88263	81659
31.89077	81961
31.89888	84994
31.90700	87586
31.91513	90812
31.92325	102499
31.93138	95390
31.93950	109568
31.94762	96147
31.95575	100742
31.96387	111664
31.97200	108949
31.98012	105786
31.98823	112217
31.99637	115304
32.00448	110102
32.01260	113045
32.02073	108204
32.02885	104098
32.03698	98352
32.04510	100751
32.05322	98383
32.06135	91335
32.06947	89188
32.07760	83357
32.08572	91901
32.09383	88619
32.10197	88710
32.11008	89129
32.11820	88720
32.12633	77618
32.13445	70344
32.14258	78857
32.15070	67770
32.15882	73372
32.16695	68301
32.17507	66818
32.18320	66949
32.19132	78438
32.19943	64519
32.20757	72300
32.21568	65579
32.22382	62835
32.23193	70877
32.24005	66240
32.24818	65492
32.25630	70766
32.26442	72830
32.27255	71192
32.28067	76566
32.28880	72943
32.29692	69475
32.30503	72441
32.31317	63262
32.32128	67447
32.32942	66791
32.33753	66016
32.34565	66511
32.35378	57033
32.36190	61605
32.37002	61851
32.37815	62915
32.38627	62752
32.39440	58516
32.40252	56473
32.41063	54540
32.41877	59106
32.42688	56220
32.43502	54836
32.44313	54576
32.45125	59096
32.45938	56223
32.46750	54329
32.47563	55885
32.48375	63123
32.49187	54456
32.50000	54168
32.50812	53685
32.51623	56026
32.52437	56168
32.53248	53593
32.54062	51198
32.54873	55106
32.55685	57048
32.56498	52267
32.57310	49211
32.58123	49481
32.58935	54189
32.59747	50220
32.60560	52705
32.61372	53953
32.62185	50296
32.62997	51203
32.63808	51940
32.64622	48643
32.65433	51938
32.66245	53093
32.67058	58046
32.67870	64233
32.68683	71120
32.69495	71867
32.70307	66432
32.71120	67207
32.71932	64409
32.72745	63866
32.73557	56917
32.74368	53758
32.75182	52187
32.75993	51438
32.76805	47944
32.77618	53204
32.78430	46850
32.79243	46986
32.80055	50093
32.80867	50679
32.81680	50772
32.82492	41421
32.83305	48679
32.84117	51112
32.84928	49004
32.85742	49201
32.86553	44991
32.87367	47282
32.88178	47021
32.88990	52192
32.89803	49445
32.90615	56556
32.91427	52408
32.92240	53321
32.93052	52454
32.93865	53668
32.94677	49343
32.95488	52033
32.96302	50665
32.97113	56659
32.97927	57917
32.98738	73132
32.99550	93125
33.00363	118194
33.01175	145344
33.01988	152890
33.02800	161075
33.03612	137897
33.04425	113231
33.05237	87486
33.06048	74856
33.06862	69301
33.07673	68394
33.08487	71710
33.09298	77394
33.10110	75129
33.10923	80794
33.11735	86670
33.12548	100999
33.13360	105558
33.14172	106060
33.14985	94553
33.15797	83751
33.16608	76188
33.17422	68200
33.18233	63902
33.19047	65197
33.19858	56117
33.20670	57336
33.21483	52872
33.22295	53452
33.23108	55270
33.23920	57146
33.24732	58877
33.25545	58828
33.26357	58796
33.27170	57448
33.27982	52432
33.28793	50506
33.29607	54339
33.30418	53636
33.31230	53976
33.32043	55212
33.32855	53854
33.33668	49784
33.34480	51719
33.35292	51142
33.36105	50764
33.36917	56907
33.37730	51177
33.38542	60092
33.39353	59244
33.40167	50537
33.40978	48492
33.41790	51537
33.42603	51181
33.43415	53238
33.44228	52979
33.45040	52391
33.45852	49177
33.46665	47346
33.47477	50663
33.48290	54224
33.49102	55731
33.49913	52412
33.50727	53006
33.51538	55508
33.52352	55394
33.53163	51828
33.53975	59295
33.54788	60669
33.55600	65098
33.56412	65531
33.57225	58943
33.58037	63284
33.58850	58616
33.59662	54822
33.60473	56214
33.61287	52749
33.62098	60835
33.62912	53549
33.63723	47590
33.64535	52648
33.65348	52134
33.66160	52220
33.66973	57474
33.67785	55678
33.68597	48539
33.69410	49683
33.70222	47297
33.71033	49354
33.71847	47717
33.72658	44246
33.73472	47378
33.74283	48357
33.75095	48674
33.75908	45441
33.76720	51727
33.77533	47145
33.78345	48499
33.79157	42760
33.79970	44265
33.80782	47718
33.81593	47962
33.82407	52500
33.83218	50317
33.84032	50369
33.84843	53717
33.85655	54471
33.86468	47248
33.87280	53002
33.88093	54240
33.88905	56534
33.89717	54051
33.90530	53783
33.91342	51099
33.92155	51727
33.92967	50885
33.93778	52911
33.94592	47951
33.95403	52381
33.96215	48520
33.97028	51360
33.97840	49599
33.98653	51603
33.99465	51175
34.00277	55098
34.01090	54899
34.01902	58111
34.02715	53393
34.03527	49919
34.04338	47853
34.05152	51131
34.05963	46239
34.06777	48817
34.07588	48463
34.08400	53397
34.09213	50356
34.10025	50371
34.10837	51985
34.11650	49697
34.12462	47475
34.13275	48576
34.14087	49829
34.14898	53305
34.15712	52672
34.16523	46193
34.17337	51182
34.18148	50266
34.18960	48478
34.19773	49036
34.20585	53205
34.21397	51668
34.22210	45597
34.23022	50298
34.23835	50471
34.24647	51419
34.25458	48306
34.26272	52552
34.27083	43519
34.27897	50732
34.28708	50644
34.29520	48063
34.30333	49892
34.31145	50324
34.31958	52094
34.32770	51296
34.33582	52156
34.34395	54939
34.35207	52888
34.36018	51932
34.36832	56665
34.37643	49710
34.38457	53364
34.39268	51565
34.40080	53247
34.40893	52415
34.41705	60748
34.42518	52078
34.43330	50725
34.44142	49705
34.44955	52031
34.45767	48124
34.46580	44671
34.47392	52480
34.48203	55245
34.49017	52590
34.49828	56174
34.50640	51985
34.51453	50355
34.52265	52947
34.53078	51965
34.53890	60501
34.54702	61845
34.55515	67841
34.56327	77412
34.57140	78718
34.57952	80601
34.58763	77747
34.59577	73942
34.60388	71271
34.61200	71487
34.62013	66288
34.62825	66817
34.63638	69241
34.64450	62292
34.65262	59026
34.66075	57886
34.66887	53695
34.67700	54111
34.68512	56288
34.69323	53795
34.70137	54259
34.70948	58832
34.71762	56499
34.72573	57580
34.73385	55474
34.74198	56059
34.75010	58282
34.75822	56132
34.76635	55335
34.77447	56406
34.78260	58151
34.79072	58715
34.79883	52531
34.80697	59081
34.81508	58187
34.82322	57821
34.83133	55791
34.83945	57566
34.84758	56362
34.85570	57540
34.86382	58487
34.87195	50469
34.88007	52397
34.88820	52110
34.89632	58181
34.90443	55265
34.91257	52382
34.92068	53381
34.92882	57205
34.93693	59526
34.94505	64324
34.95318	81124
34.96130	104472
34.96943	154331
34.97755	215923
34.98567	294347
34.99380	344797
35.00192	313220
35.01003	255151
35.01817	185558
35.02628	126650
35.03442	90223
35.04253	76740
35.05065	66944
35.05878	69464
35.06690	74077
35.07503	69925
35.08315	64291
35.09127	62801
35.09940	61097
35.10752	66240
35.11565	62645
35.12377	64377
35.13188	60893
35.14002	56479
35.14813	58238
35.15625	65150
35.16438	67456
35.17250	66891
35.18063	61774
35.18875	61721
35.19687	62369
35.20500	60103
35.21312	55817
35.22125	56927
35.22937	56575
35.23748	53509
35.24562	56690
35.25373	56841
35.26185	61638
35.26998	56536
35.27810	57240
35.28623	58616
35.29435	55378
35.30247	60218
35.31060	62187
35.31872	53762
35.32685	58149
35.33497	53680
35.34308	53963
35.35122	54448
35.35933	55292
35.36747	53430
35.37558	54958
35.38370	53327
35.39183	56736
35.39995	52191
35.40807	59550
35.41620	59160
35.42432	62097
35.43245	61777
35.44057	58710
35.44868	61541
35.45682	57961
35.46493	60830
35.47307	60274
35.48118	60294
35.48930	60727
35.49743	61645
35.50555	60860
35.51368	59313
35.52180	63381
35.52992	58687
35.53805	57058
35.54617	57809
35.55428	58325
35.56242	58960
35.57053	57950
35.57867	60788
35.58678	55165
35.59490	58648
35.60303	56253
35.61115	55591
35.61928	61085
35.62740	58839
35.63552	55621
35.64365	57770
35.65177	52437
35.65988	54236
35.66802	57706
35.67613	58909
35.68427	58313
35.69238	57216
35.70050	63867
35.70863	61194
35.71675	60531
35.72488	59796
35.73300	62719
35.74112	60251
35.74925	58653
35.75737	59254
35.76550	63192
35.77362	61643
35.78173	72683
35.78987	70672
35.79798	65390
35.80610	66786
35.81423	61635
35.82235	66817
35.83048	62627
35.83860	55924
35.84672	62946
35.85485	57544
35.86297	54069
35.87110	51228
35.87922	57164
35.88733	53881
35.89547	54806
35.90358	56490
35.91170	56996
35.91983	60467
35.92795	56215
35.93608	60529
35.94420	59300
35.95232	58149
35.96045	59343
35.96857	56360
35.97670	53813
35.98482	52868
35.99293	60478
36.00107	53639
36.00918	54339
36.01732	61119
36.02543	59405
36.03355	59212
36.04168	63634
36.04980	68064
36.05792	61222
36.06605	59695
36.07417	55589
36.08230	60084
36.09042	55320
36.09853	54712
36.10667	62261
36.11478	59483
36.12292	57124
36.13103	55204
36.13915	58742
36.14728	63706
36.15540	64781
36.16353	61289
36.17165	66761
36.17977	62852
36.18790	62042
36.19602	63205
36.20413	57420
36.21227	55220
36.22038	53723
36.22852	54495
36.23663	57966
36.24475	57924
36.25288	54948
36.26100	59416
36.26913	59456
36.27725	55314
36.28537	60032
36.29350	55200
36.30162	62062
36.30973	58909
36.31787	64438
36.32598	68020
36.33412	69416
36.34223	73838
36.35035	70230
36.35848	65020
36.36660	66989
36.37473	60229
36.38285	64013
36.39097	65010
36.39910	64362
36.40722	58552
36.41535	57115
36.42347	60967
36.43158	61984
36.43972	62477
36.44783	62950
36.45595	61821
36.46408	61022
36.47220	61013
36.48033	56889
36.48845	61667
36.49657	63835
36.50470	58743
36.51282	58226
36.52095	56447
36.52907	60746
36.53718	59138
36.54532	54938
36.55343	55353
36.56157	56214
36.56968	61689
36.57780	58613
36.58593	56194
36.59405	54657
36.60217	57978
36.61030	61726
36.61842	58424
36.62655	60664
36.63467	57553
36.64278	60319
36.65092	61434
36.65903	60356
36.66717	62031
36.67528	60763
36.68340	60423
36.69153	59401
36.69965	65222
36.70777	62079
36.71590	57672
36.72402	58354
36.73215	58119
36.74027	59697
36.74838	64814
36.75652	61057
36.76463	70244
36.77277	63895
36.78088	61755
36.78900	59919
36.79713	59251
36.80525	67175
36.81338	66327
36.82150	61029
36.82962	60821
36.83775	54340
36.84587	62970
36.85398	60255
36.86212	60718
36.87023	55468
36.87837	59928
36.88648	56877
36.89460	60392
36.90273	58576
36.91085	59477
36.91898	64245
36.92710	57536
36.93522	64334
36.94335	68452
36.95147	78592
36.95958	87094
36.96772	98261
36.97583	117444
36.98397	116748
36.99208	120488
37.00020	106648
37.00833	96298
37.01645	87728
37.02458	79566
37.03270	70815
37.04082	72043
37.04895	75661
37.05707	72445
37.06520	79331
37.07332	75824
37.08143	75569
37.08957	82298
37.09768	82722
37.10580	84678
37.11393	84500
37.12205	84515
37.13018	83976
37.13830	86336
37.14642	83075
37.15455	81227
37.16267	82912
37.17080	83803
37.17892	82947
37.18703	83054
37.19517	79533
37.20328	86460
37.21142	81762
37.21953	78062
37.22765	82124
37.23578	77824
37.24390	85549
37.25202	80596
37.26015	80492
37.26827	77837
37.27640	85040
37.28452	82571
37.29263	77666
37.30077	77687
37.30888	75396
37.31702	75960
37.32513	77550
37.33325	77123
37.34138	82426
37.34950	82935
37.35763	86010
37.36575	91904
37.37387	91773
37.38200	92328
37.39012	89045
37.39823	89472
37.40637	90931
37.41448	86829
37.42262	85147
37.43073	84562
37.43885	87548
37.44698	82567
37.45510	85102
37.46323	83991
37.47135	80652
37.47947	77775
37.48760	80489
