Z:\data\JTB-E02\BACandBLUE\JTB-E02-191-07.D Wed Dec 12 11:40:21 2018
Start of data points
2.09522	84975
2.10333	79146
2.11147	72850
2.11958	72289
2.12770	76095
2.13583	73650
2.14395	78975
2.15208	74693
2.16020	74642
2.16832	76223
2.17645	76484
2.18457	75790
2.19268	72847
2.20082	67482
2.20893	70180
2.21707	67445
2.22518	66632
2.23330	65420
2.24143	63785
2.24955	65497
2.25768	68292
2.26580	114346
2.27392	574875
2.28205	1392975
2.29017	1416227
2.29828	733793
2.30642	443124
2.31453	337749
2.32267	288074
2.33078	249106
2.33890	230859
2.34703	209205
2.35515	194035
2.36328	182010
2.37140	177833
2.37952	170886
2.38765	170826
2.39577	166177
2.40390	158146
2.41202	156838
2.42013	159799
2.42827	168649
2.43638	159145
2.44450	154622
2.45263	148346
2.46075	149458
2.46888	146056
2.47700	149352
2.48512	141040
2.49325	146044
2.50137	147102
2.50950	144388
2.51762	140721
2.52573	135333
2.53387	137248
2.54198	128392
2.55012	134583
2.55823	149259
2.56635	150632
2.57448	141023
2.58260	131824
2.59072	129050
2.59885	130844
2.60697	242274
2.61510	544371
2.62322	628865
2.63133	390136
2.63947	256837
2.64758	214571
2.65572	182263
2.66383	168022
2.67195	143629
2.68008	142849
2.68820	137455
2.69632	133810
2.70445	130861
2.71257	122736
2.72070	114128
2.72882	124631
2.73693	116695
2.74507	111421
2.75318	114083
2.76132	113276
2.76943	122753
2.77755	311559
2.78568	1065332
2.79380	1728437
2.80193	1273787
2.81005	706652
2.81817	553356
2.82630	491934
2.83442	404471
2.84253	306203
2.85067	260644
2.85878	239004
2.86692	213123
2.87503	200686
2.88315	182828
2.89128	175393
2.89940	159179
2.90753	153884
2.91565	147355
2.92377	142391
2.93190	136615
2.94002	126440
2.94815	127795
2.95627	134784
2.96438	136790
2.97252	157330
2.98063	142659
2.98875	134394
2.99688	126391
3.00500	131637
3.01313	130990
3.02125	126698
3.02937	122779
3.03750	118473
3.04562	109325
3.05375	115713
3.06187	111437
3.06998	112288
3.07812	133576
3.08623	316437
3.09435	934377
3.10248	2417862
3.11060	5454257
3.11873	7330596
3.12685	5663756
3.13497	3397972
3.14310	2242873
3.15122	1648897
3.15935	1286043
3.16747	1123910
3.17558	1076067
3.18372	1485459
3.19183	3424253
3.19997	6162209
3.20808	6159840
3.21620	4173498
3.22433	2868916
3.23245	2174269
3.24057	1720511
3.24870	1391302
3.25682	1196409
3.26495	1013822
3.27307	897191
3.28118	779997
3.28932	751741
3.29743	959276
3.30557	1718040
3.31368	2705798
3.32180	2996346
3.32993	2528798
3.33805	1895932
3.34618	1439025
3.35430	1175579
3.36242	1016432
3.37055	901347
3.37867	800806
3.38678	728888
3.39492	670523
3.40303	647353
3.41117	598332
3.41928	547087
3.42740	529811
3.43553	544461
3.44365	536945
3.45178	511628
3.45990	503391
3.46802	574910
3.47615	710929
3.48427	753004
3.49238	624804
3.50052	490247
3.50863	424614
3.51677	399703
3.52488	391071
3.53300	398437
3.54113	455332
3.54925	498102
3.55738	451622
3.56550	389348
3.57362	346065
3.58175	332762
3.58987	316951
3.59800	303039
3.60612	287912
3.61423	280516
3.62237	294331
3.63048	307179
3.63860	303128
3.64673	297850
3.65485	393365
3.66298	1830327
3.67110	1.060447E+07
3.67922	2.911191E+07
3.68735	4.242308E+07
3.69547	4.139045E+07
3.70360	2.98736E+07
3.71172	1.98425E+07
3.71983	1.461595E+07
3.72797	1.17222E+07
3.73608	9701750
3.74420	8206247
3.75233	7049424
3.76045	6169226
3.76858	5399892
3.77670	4817228
3.78482	4328325
3.79295	3972896
3.80107	3702822
3.80920	3660148
3.81732	3923957
3.82543	4209461
3.83357	3866752
3.84168	3302304
3.84982	2895227
3.85793	2610414
3.86605	2405237
3.87418	2213389
3.88230	2104737
3.89042	1996133
3.89855	1887763
3.90667	1796839
3.91480	1781237
3.92292	2013577
3.93103	2470786
3.93917	2732688
3.94728	2495546
3.95542	2104103
3.96353	2008790
3.97165	2151528
3.97978	2078846
3.98790	1764508
3.99603	1528584
4.00415	1572085
4.01227	2068713
4.02040	2549363
4.02852	2518136
4.03663	1992410
4.04477	1529180
4.05288	1262006
4.06102	1138067
4.06913	1034227
4.07725	986045
4.08538	935909
4.09350	909349
4.10163	855998
4.10975	860643
4.11787	810066
4.12600	776835
4.13412	759600
4.14223	747631
4.15037	760753
4.15848	778174
4.16662	779276
4.17473	775056
4.18285	753526
4.19098	768294
4.19910	725340
4.20723	939587
4.21535	2629811
4.22347	8000456
4.23160	1.723847E+07
4.23972	2.537706E+07
4.24785	3.126235E+07
4.25597	3.551721E+07
4.26408	3.779116E+07
4.27222	3.532989E+07
4.28033	2.127846E+07
4.28845	1.117382E+07
4.29658	8154135
4.30470	6509476
4.31283	5408654
4.32095	4525531
4.32907	3877493
4.33720	3416215
4.34532	3019145
4.35345	2703223
4.36157	2493873
4.36968	2411774
4.37782	2338102
4.38593	2148759
4.39407	1911494
4.40218	1689528
4.41030	1534220
4.41843	1399443
4.42655	1303701
4.43467	1232296
4.44280	1158068
4.45092	1098903
4.45905	1043518
4.46717	1001106
4.47528	946487
4.48342	908859
4.49153	886088
4.49967	853414
4.50778	820664
4.51590	795905
4.52403	777477
4.53215	757498
4.54027	744481
4.54840	736110
4.55652	754617
4.56465	731991
4.57277	692035
4.58088	645344
4.58902	622706
4.59713	608628
4.60527	584687
4.61338	604568
4.62150	630335
4.62963	777341
4.63775	1158582
4.64588	1703683
4.65400	1965669
4.66212	1675826
4.67025	1288196
4.67837	977694
4.68648	840813
4.69462	761838
4.70273	671609
4.71087	603743
4.71898	569590
4.72710	522209
4.73523	508882
4.74335	503678
4.75148	490574
4.75960	479057
4.76772	458881
4.77585	456373
4.78397	441001
4.79208	472802
4.80022	553437
4.80833	699546
4.81647	774078
4.82458	720474
4.83270	632532
4.84083	615428
4.84895	682903
4.85708	756511
4.86520	745021
4.87332	652174
4.88145	570878
4.88957	507933
4.89770	464305
4.90582	450829
4.91393	431795
4.92207	421639
4.93018	422580
4.93830	439220
4.94643	562583
4.95455	891463
4.96268	1400872
4.97080	1816860
4.97892	1894214
4.98705	1617637
4.99517	1293594
5.00330	1029151
5.01142	849862
5.01953	790676
5.02767	900224
5.03578	1283992
5.04392	1868821
5.05203	2194511
5.06015	2031981
5.06828	1617498
5.07640	1290388
5.08452	1098710
5.09265	963178
5.10077	877366
5.10890	808089
5.11702	759726
5.12513	695594
5.13327	677103
5.14138	625824
5.14952	647542
5.15763	734784
5.16575	924827
5.17388	1113236
5.18200	1117952
5.19012	977146
5.19825	874414
5.20637	854831
5.21450	935746
5.22262	941649
5.23073	872173
5.23887	792309
5.24698	723583
5.25512	671061
5.26323	582461
5.27135	523436
5.27948	488671
5.28760	449876
5.29573	420118
5.30385	406049
5.31197	414623
5.32010	387845
5.32822	386215
5.33633	392472
5.34447	413605
5.35258	429846
5.36072	396068
5.36883	388049
5.37695	360918
5.38508	369011
5.39320	368526
5.40133	388763
5.40945	409985
5.41757	394772
5.42570	367747
5.43382	358569
5.44195	341808
5.45007	360710
5.45818	393394
5.46632	427241
5.47443	422494
5.48255	373100
5.49068	345094
5.49880	324171
5.50693	305650
5.51505	292179
5.52317	302842
5.53130	295491
5.53942	300990
5.54755	309508
5.55567	345580
5.56378	440220
5.57192	614104
5.58003	811316
5.58815	821322
5.59628	708975
5.60440	534185
5.61253	417498
5.62065	352631
5.62877	337282
5.63690	328040
5.64502	312519
5.65315	304945
5.66127	298827
5.66938	291433
5.67752	301214
5.68563	333126
5.69377	410236
5.70188	489512
5.71000	488209
5.71813	453593
5.72625	389011
5.73437	335013
5.74250	307802
5.75062	284796
5.75875	271428
5.76687	270295
5.77498	261005
5.78312	261916
5.79123	249506
5.79937	252117
5.80748	244861
5.81560	250514
5.82373	246331
5.83185	250700
5.83997	242874
5.84810	248120
5.85622	237336
5.86435	236447
5.87247	226576
5.88058	229452
5.88872	225675
5.89683	237037
5.90497	230586
5.91308	230345
5.92120	223363
5.92933	240018
5.93745	244524
5.94558	249266
5.95370	301292
5.96182	405149
5.96995	542865
5.97807	702329
5.98618	934045
5.99432	1181685
6.00243	1290070
6.01057	1203509
6.01868	973395
6.02680	708457
6.03493	517116
6.04305	395275
6.05118	337845
6.05930	295379
6.06742	269237
6.07555	254453
6.08367	247825
6.09180	232013
6.09992	217723
6.10803	215031
6.11617	221125
6.12428	274971
6.13240	488580
6.14053	959033
6.14865	1531272
6.15678	1841439
6.16490	1628044
6.17302	1175440
6.18115	803392
6.18927	596011
6.19740	506227
6.20552	454527
6.21363	385851
6.22177	363977
6.22988	342564
6.23802	324765
6.24613	313173
6.25425	329581
6.26238	336341
6.27050	341615
6.27862	333328
6.28675	321496
6.29487	296253
6.30300	288827
6.31112	273315
6.31923	268323
6.32737	273707
6.33548	282047
6.34362	280692
6.35173	279035
6.35985	283547
6.36798	261930
6.37610	258166
6.38422	261905
6.39235	257810
6.40047	255011
6.40860	255392
6.41672	243164
6.42483	242815
6.43297	248848
6.44108	250686
6.44922	251249
6.45733	253871
6.46545	263155
6.47358	251032
6.48170	253406
6.48983	260206
6.49795	250635
6.50607	254756
6.51420	259642
6.52232	260470
6.53043	270200
6.53857	266432
6.54668	258146
6.55482	256523
6.56293	275304
6.57105	333600
6.57918	471422
6.58730	602967
6.59543	640415
6.60355	564760
6.61167	436852
6.61980	364607
6.62792	317896
6.63603	254881
6.64417	227367
6.65228	208268
6.66042	195320
6.66853	188464
6.67665	195504
6.68478	189146
6.69290	180297
6.70103	177546
6.70915	159821
6.71727	161507
6.72540	157839
6.73352	154400
6.74165	159507
6.74977	158537
6.75788	155019
6.76602	143972
6.77413	153442
6.78225	146879
6.79038	158282
6.79850	147245
6.80663	144499
6.81475	143777
6.82287	142562
6.83100	137385
6.83912	133960
6.84725	140019
6.85537	151994
6.86348	162105
6.87162	182115
6.87973	208471
6.88787	215967
6.89598	201014
6.90410	172164
6.91223	142524
6.92035	139704
6.92847	122118
6.93660	121158
6.94472	118949
6.95285	116186
6.96097	119322
6.96908	126163
6.97722	141351
6.98533	158323
6.99347	162389
7.00158	160781
7.00970	151660
7.01783	140380
7.02595	146413
7.03407	140922
7.04220	138275
7.05032	121571
7.05845	122227
7.06657	124649
7.07468	140789
7.08282	167686
7.09093	187816
7.09907	204680
7.10718	178836
7.11530	160108
7.12343	143180
7.13155	124191
7.13968	125569
7.14780	132781
7.15592	174773
7.16405	218392
7.17217	329037
7.18028	656467
7.18842	1804383
7.19653	4446271
7.20467	8345766
7.21278	1.171071E+07
7.22090	1.214888E+07
7.22903	9239734
7.23715	5094587
7.24528	2170525
7.25340	811153
7.26152	343494
7.26965	227290
7.27777	191327
7.28590	184167
7.29402	177656
7.30213	172959
7.31027	170752
7.31838	165491
7.32650	174256
7.33463	199118
7.34275	242218
7.35088	297553
7.35900	329743
7.36712	348431
7.37525	316822
7.38337	262464
7.39150	212614
7.39962	178539
7.40773	158164
7.41587	149122
7.42398	142814
7.43210	144401
7.44023	135396
7.44835	126795
7.45648	125218
7.46460	126773
7.47272	131919
7.48085	130004
7.48897	130951
7.49710	127891
7.50522	111062
7.51333	115062
7.52147	112498
7.52958	129178
7.53772	158914
7.54583	249235
7.55395	487565
7.56208	961983
7.57020	1674025
7.57832	2451657
7.58645	3049548
7.59457	3137817
7.60270	2702030
7.61082	2050674
7.61893	1367158
7.62707	862010
7.63518	558262
7.64332	390564
7.65143	303276
7.65955	238922
7.66768	197252
7.67580	163580
7.68392	144051
7.69205	135517
7.70017	118772
7.70830	119233
7.71642	135550
7.72453	159197
7.73267	183284
7.74078	213626
7.74892	227089
7.75703	219468
7.76515	205275
7.77328	197541
7.78140	180325
7.78953	170810
7.79765	174921
7.80577	173744
7.81390	204190
7.82202	222114
7.83013	223629
7.83827	213978
7.84638	184826
7.85452	155875
7.86263	133648
7.87075	132422
7.87888	147337
7.88700	163198
7.89513	193666
7.90325	246536
7.91137	253413
7.91950	248460
7.92762	212764
7.93575	193758
7.94387	207293
7.95198	228418
7.96012	270808
7.96823	261968
7.97635	261426
7.98448	229658
7.99260	191822
8.00073	149939
8.00885	121053
8.01697	118176
8.02510	106706
8.03322	105428
8.04135	111922
8.04947	103958
8.05758	97710
8.06572	93439
8.07383	102200
8.08195	96897
8.09008	94629
8.09820	97503
8.10633	88208
8.11445	90013
8.12257	91200
8.13070	104975
8.13882	147529
8.14695	212812
8.15507	305368
8.16318	369102
8.17132	349191
8.17943	287195
8.18757	217297
8.19568	163476
8.20380	139155
8.21193	113373
8.22005	112265
8.22817	100580
8.23630	93773
8.24442	96621
8.25255	83693
8.26067	85525
8.26878	84322
8.27692	85906
8.28503	83373
8.29317	77164
8.30128	80424
8.30940	83557
8.31753	82111
8.32565	82943
8.33378	87088
8.34190	96078
8.35002	98432
8.35815	94504
8.36627	83911
8.37438	82333
8.38252	76979
8.39063	77641
8.39877	77573
8.40688	71993
8.41500	79274
8.42313	73662
8.43125	74723
8.43938	72138
8.44750	73965
8.45562	67805
8.46375	65676
8.47187	71932
8.47998	65812
8.48812	68375
8.49623	66129
8.50437	70650
8.51248	84490
8.52060	114200
8.52873	191817
8.53685	267223
8.54498	312458
8.55310	270338
8.56122	197933
8.56935	137064
8.57747	96825
8.58560	81506
8.59372	80664
8.60183	77020
8.60997	92023
8.61808	101630
8.62620	132683
8.63433	154190
8.64245	170634
8.65058	152502
8.65870	140985
8.66682	123184
8.67495	102096
8.68307	85646
8.69120	68401
8.69932	68033
8.70743	63846
8.71557	64948
8.72368	64804
8.73180	67119
8.73993	61376
8.74805	67183
8.75618	68395
8.76430	81021
8.77242	112450
8.78055	205830
8.78867	388844
8.79680	652723
8.80492	864006
8.81303	935316
8.82117	810191
8.82928	592561
8.83742	446674
8.84553	330289
8.85365	290337
8.86178	250597
8.86990	228981
8.87802	213659
8.88615	200187
8.89427	173617
8.90240	165774
8.91052	174871
8.91863	200687
8.92677	274417
8.93488	389028
8.94302	484024
8.95113	496654
8.95925	405870
8.96738	302646
8.97550	233647
8.98363	211964
8.99175	220986
8.99987	236636
9.00800	228252
9.01612	206444
9.02423	182894
9.03237	153884
9.04048	136452
9.04862	129349
9.05673	123752
9.06485	126393
9.07298	121004
9.08110	119500
9.08923	111311
9.09735	131774
9.10547	153190
9.11360	192097
9.12172	229054
9.12983	270543
9.13797	268453
9.14608	240666
9.15422	208387
9.16233	165609
9.17045	141795
9.17858	130715
9.18670	123309
9.19483	123326
9.20295	119090
9.21107	113907
9.21920	114944
9.22732	123452
9.23545	120514
9.24357	129542
9.25168	125523
9.25982	117948
9.26793	112461
9.27605	106880
9.28418	104581
9.29230	103290
9.30043	103220
9.30855	107014
9.31667	98203
9.32480	91905
9.33292	98451
9.34105	95756
9.34917	94471
9.35728	96005
9.36542	92522
9.37353	86778
9.38167	88246
9.38978	98473
9.39790	92620
9.40603	103361
9.41415	118775
9.42227	143184
9.43040	177953
9.43852	217479
9.44665	274650
9.45477	296609
9.46288	320954
9.47102	286224
9.47913	227861
9.48727	176393
9.49538	148205
9.50350	121922
9.51163	116181
9.51975	128435
9.52787	148255
9.53600	158079
9.54412	155180
9.55225	148231
9.56037	134394
9.56848	119906
9.57662	106566
9.58473	95664
9.59287	86933
9.60098	82613
9.60910	85997
9.61723	78119
9.62535	74814
9.63348	77644
9.64160	73658
9.64972	75215
9.65785	64622
9.66597	68360
9.67408	69098
9.68222	65128
9.69033	66083
9.69847	63899
9.70658	69494
9.71470	75286
9.72283	82471
9.73095	80020
9.73908	82273
9.74720	74583
9.75532	67165
9.76345	65626
9.77157	68978
9.77970	61576
9.78782	59115
9.79593	61062
9.80407	60829
9.81218	61747
9.82030	58953
9.82843	62049
9.83655	61620
9.84468	63455
9.85280	64476
9.86092	63670
9.86905	72329
9.87717	66537
9.88530	69390
9.89342	66113
9.90153	61832
9.90967	58245
9.91778	62629
9.92590	70482
9.93403	71059
9.94215	90571
9.95028	126734
9.95840	188932
9.96652	284574
9.97465	366851
9.98277	384484
9.99090	362932
9.99902	276216
10.00713	194605
10.01527	130397
10.02338	111264
10.03152	97051
10.03963	97742
10.04775	100876
10.05588	107614
10.06400	117175
10.07212	115331
10.08025	106751
10.08837	101639
10.09650	99749
10.10462	96636
10.11273	96403
10.12087	94948
10.12898	92935
10.13712	88806
10.14523	88710
10.15335	83317
10.16148	83997
10.16960	86727
10.17772	84241
10.18585	86087
10.19397	77763
10.20210	83478
10.21022	70367
10.21833	73661
10.22647	78186
10.23458	80639
10.24272	86015
10.25083	106305
10.25895	186349
10.26708	461700
10.27520	1284140
10.28333	2962533
10.29145	5461409
10.29957	8484028
10.30770	1.202905E+07
10.31582	1.582392E+07
10.32393	2.025333E+07
10.33207	2.638893E+07
10.34018	3.396424E+07
10.34832	4.286176E+07
10.35643	5.070724E+07
10.36455	5.34121E+07
10.37268	4.742462E+07
10.38080	2.817836E+07
10.38893	1.162865E+07
10.39705	5075307
10.40517	3146373
10.41330	2241705
10.42142	1682658
10.42955	1281708
10.43767	1094571
10.44578	1028444
10.45392	967309
10.46203	933355
10.47015	882785
10.47828	804979
10.48640	748603
10.49453	647539
10.50265	593583
10.51077	533448
10.51890	507544
10.52702	468219
10.53515	442925
10.54327	442405
10.55138	428697
10.55952	429253
10.56763	417114
10.57575	404821
10.58388	401509
10.59200	391394
10.60013	377608
10.60825	353501
10.61637	329522
10.62450	310671
10.63262	297789
10.64075	275405
10.64887	263476
10.65698	264114
10.66512	246195
10.67323	238947
10.68137	243340
10.68948	238569
10.69760	246581
10.70573	244417
10.71385	236436
10.72197	244175
10.73010	237934
10.73822	238310
10.74635	233086
10.75447	223544
10.76258	219542
10.77072	217537
10.77883	212077
10.78697	196077
10.79508	199483
10.80320	188464
10.81133	185783
10.81945	184946
10.82758	196642
10.83570	188475
10.84382	189416
10.85195	174812
10.86007	161072
10.86818	157305
10.87632	151308
10.88443	147558
10.89257	150402
10.90068	143839
10.90880	146314
10.91693	146317
10.92505	145345
10.93318	141297
10.94130	136554
10.94942	144002
10.95755	133843
10.96567	138138
10.97378	131142
10.98192	132973
10.99003	131161
10.99817	136891
11.00628	131758
11.01440	140282
11.02253	135863
11.03065	142752
11.03878	143290
11.04690	140162
11.05502	127147
11.06315	129679
11.07127	133582
11.07940	129266
11.08752	140858
11.09563	144683
11.10377	154426
11.11188	150283
11.12000	149482
11.12813	131597
11.13625	118084
11.14438	109342
11.15250	103537
11.16062	95274
11.16875	94655
11.17687	94210
11.18500	89808
11.19312	89833
11.20123	85569
11.20937	81555
11.21748	79938
11.22560	83528
11.23373	79032
11.24185	74467
11.24998	70604
11.25810	67016
11.26622	73078
11.27435	75851
11.28247	67709
11.29060	72546
11.29872	68474
11.30683	85607
11.31497	132767
11.32308	245932
11.33122	490761
11.33933	921443
11.34745	1406385
11.35558	1832855
11.36370	1956131
11.37182	1779360
11.37995	1431672
11.38807	1038052
11.39620	754980
11.40432	598119
11.41243	496628
11.42057	417686
11.42868	350177
11.43682	294360
11.44493	247233
11.45305	222511
11.46118	187755
11.46930	178989
11.47743	176119
11.48555	171859
11.49367	211762
11.50180	290558
11.50992	376993
11.51803	446396
11.52617	507145
11.53428	487561
11.54242	439113
11.55053	380198
11.55865	320949
11.56678	277207
11.57490	249544
11.58303	238635
11.59115	251373
11.59927	319861
11.60740	461692
11.61552	673625
11.62363	854263
11.63177	904540
11.63988	775134
11.64802	605771
11.65613	409976
11.66425	286740
11.67238	206391
11.68050	167257
11.68863	150727
11.69675	138516
11.70487	135545
11.71300	144666
11.72112	144128
11.72925	146773
11.73737	138718
11.74548	142511
11.75362	126068
11.76173	114616
11.76985	103405
11.77798	99588
11.78610	90068
11.79423	86763
11.80235	92090
11.81047	82704
11.81860	83071
11.82672	78994
11.83485	78717
11.84297	76249
11.85108	79930
11.85922	76829
11.86733	74837
11.87547	71075
11.88358	71599
11.89170	67625
11.89983	71674
11.90795	71682
11.91607	77135
11.92420	84043
11.93232	88550
11.94045	95843
11.94857	90850
11.95668	87030
11.96482	77092
11.97293	72194
11.98107	66897
11.98918	63077
11.99730	62453
12.00543	61907
12.01355	63230
12.02167	64139
12.02980	59283
12.03792	58471
12.04605	57604
12.05417	59987
12.06228	65545
12.07042	70869
12.07853	71283
12.08667	78151
12.09478	81298
12.10290	81026
12.11103	96374
12.11915	120648
12.12728	160534
12.13540	227200
12.14352	301930
12.15165	349996
12.15977	337283
12.16788	293746
12.17602	225779
12.18413	184608
12.19227	151452
12.20038	142979
12.20850	131917
12.21663	130747
12.22475	124864
12.23288	124531
12.24100	125155
12.24912	115600
12.25725	115789
12.26537	114419
12.27348	104809
12.28162	107991
12.28973	100550
12.29787	94886
12.30598	95582
12.31410	94970
12.32223	90943
12.33035	90132
12.33848	85004
12.34660	83140
12.35472	84627
12.36285	87049
12.37097	87156
12.37910	80883
12.38722	86708
12.39533	99173
12.40347	131648
12.41158	188477
12.41970	288384
12.42783	392689
12.43595	458072
12.44408	453831
12.45220	370367
12.46032	291770
12.46845	218967
12.47657	175208
12.48470	142542
12.49282	119591
12.50093	117044
12.50907	107025
12.51718	103239
12.52532	104212
12.53343	108603
12.54155	139721
12.54968	203764
12.55780	256916
12.56592	328356
12.57405	346777
12.58217	317500
12.59030	251626
12.59842	190749
12.60653	152052
12.61467	127487
12.62278	111981
12.63092	108730
12.63903	101884
12.64715	99014
12.65528	95324
12.66340	97480
12.67153	102203
12.67965	104302
12.68777	92574
12.69590	91292
12.70402	82149
12.71213	87385
12.72027	79775
12.72838	81997
12.73652	88581
12.74463	91360
12.75275	95520
12.76088	89004
12.76900	88316
12.77713	86982
12.78525	79650
12.79337	76018
12.80150	74950
12.80962	76198
12.81773	68952
12.82587	63822
12.83398	61944
12.84212	59629
12.85023	56091
12.85835	57718
12.86648	52379
12.87460	57463
12.88273	54282
12.89085	51673
12.89897	50996
12.90710	55633
12.91522	51267
12.92335	55313
12.93147	52200
12.93958	55509
12.94772	51566
12.95583	53076
12.96395	56913
12.97208	65223
12.98020	79258
12.98833	86025
12.99645	87289
13.00457	82169
13.01270	72806
13.02082	68959
13.02895	62341
13.03707	59878
13.04518	58864
13.05332	57455
13.06143	57498
13.06955	56249
13.07768	68549
13.08580	65938
13.09393	68993
13.10205	72567
13.11017	70626
13.11830	65719
13.12642	58440
13.13455	56602
13.14267	59666
13.15078	61413
13.15892	57153
13.16703	61005
13.17517	62156
13.18328	64644
13.19140	71302
13.19953	69902
13.20765	66568
13.21577	64887
13.22390	68847
13.23202	71592
13.24015	76216
13.24827	81671
13.25638	87655
13.26452	87163
13.27263	93216
13.28077	86729
13.28888	81676
13.29700	72030
13.30513	65053
13.31325	55623
13.32138	57154
13.32950	54120
13.33762	51746
13.34575	53844
13.35387	60302
13.36198	55261
13.37012	50486
13.37823	58539
13.38637	57561
13.39448	52857
13.40260	53884
13.41073	55601
13.41885	53645
13.42698	52340
13.43510	51229
13.44322	51392
13.45135	59115
13.45947	53518
13.46758	51788
13.47572	58327
13.48383	60300
13.49197	55928
13.50008	53661
13.50820	57410
13.51633	64939
13.52445	73223
13.53258	80470
13.54070	86390
13.54882	77733
13.55695	69819
13.56507	65189
13.57320	58667
13.58132	62007
13.58943	71057
13.59757	71952
13.60568	89167
13.61380	115564
13.62193	143519
13.63005	157213
13.63818	159523
13.64630	141827
13.65442	119555
13.66255	86226
13.67067	66004
13.67880	62285
13.68692	53605
13.69503	55358
13.70317	51768
13.71128	53440
13.71942	43577
13.72753	46710
13.73565	48680
13.74378	51593
13.75190	65623
13.76002	89149
13.76815	132607
13.77627	187623
13.78440	265985
13.79252	361021
13.80063	476214
13.80877	594752
13.81688	651810
13.82502	700816
13.83313	813239
13.84125	902203
13.84938	1027138
13.85750	1016896
13.86562	928145
13.87375	765747
13.88187	571516
13.89000	411049
13.89812	297323
13.90623	222804
13.91437	171454
13.92248	148224
13.93062	131224
13.93873	114270
13.94685	105930
13.95498	94948
13.96310	90058
13.97123	87137
13.97935	77964
13.98747	80581
13.99560	80891
14.00372	89158
14.01183	91191
14.01997	91124
14.02808	93800
14.03622	84775
14.04433	83336
14.05245	70424
14.06058	74384
14.06870	70088
14.07683	74477
14.08495	66461
14.09307	61757
14.10120	63872
14.10932	59059
14.11743	66469
14.12557	61559
14.13368	57108
14.14182	56598
14.14993	60710
14.15805	61123
14.16618	71295
14.17430	72581
14.18243	80719
14.19055	76600
14.19867	90275
14.20680	101758
14.21492	134646
14.22305	161144
14.23117	187538
14.23928	201583
14.24742	218195
14.25553	232515
14.26365	233397
14.27178	245670
14.27990	229020
14.28803	193721
14.29615	168581
14.30427	143685
14.31240	125730
14.32052	120599
14.32865	109710
14.33677	110196
14.34488	108012
14.35302	105093
14.36113	101622
14.36927	100907
14.37738	93275
14.38550	91606
14.39363	86676
14.40175	99804
14.40987	135769
14.41800	190654
14.42612	248344
14.43425	307356
14.44237	309208
14.45048	269953
14.45862	223036
14.46673	172368
14.47487	140285
14.48298	121227
14.49110	115698
14.49923	118661
14.50735	116544
14.51547	98491
14.52360	99385
14.53172	88493
14.53985	80711
14.54797	79089
14.55608	75953
14.56422	75264
14.57233	73556
14.58047	67836
14.58858	62147
14.59670	60967
14.60483	60972
14.61295	60849
14.62108	59045
14.62920	60785
14.63732	56589
14.64545	53130
14.65357	50782
14.66168	56896
14.66982	53682
14.67793	51253
14.68607	52395
14.69418	49635
14.70230	48016
14.71043	49007
14.71855	51020
14.72668	54806
14.73480	54719
14.74292	56076
14.75105	61868
14.75917	59056
14.76730	61343
14.77542	63904
14.78353	77242
14.79167	116497
14.79978	284165
14.80790	869553
14.81603	2361971
14.82415	5561435
14.83228	1.014765E+07
14.84040	1.595898E+07
14.84852	2.155481E+07
14.85665	2.433512E+07
14.86477	2.367275E+07
14.87290	1.816113E+07
14.88102	1.081912E+07
14.88913	5629554
14.89727	3170643
14.90538	2107958
14.91350	1628215
14.92163	1362103
14.92975	1183619
14.93788	1067366
14.94600	935233
14.95412	873869
14.96225	794044
14.97037	726121
14.97850	690248
14.98662	642245
14.99473	614691
15.00287	579759
15.01098	549302
15.01912	521706
15.02723	493666
15.03535	457448
15.04348	432194
15.05160	409063
15.05972	393236
15.06785	370586
15.07597	357385
15.08410	346849
15.09222	326656
15.10033	320184
15.10847	295772
15.11658	299664
15.12472	308678
15.13283	322179
15.14095	376399
15.14908	461745
15.15720	506281
15.16533	504921
15.17345	448056
15.18157	345842
15.18970	245795
15.19782	186075
15.20593	152133
15.21407	132014
15.22218	116769
15.23032	112076
15.23843	112684
15.24655	103552
15.25468	101443
15.26280	99550
15.27093	96701
15.27905	87476
15.28717	87458
15.29530	88644
15.30342	85994
15.31153	84978
15.31967	80061
15.32778	79900
15.33592	76905
15.34403	81719
15.35215	74708
15.36028	77820
15.36840	76012
15.37653	84401
15.38465	94850
15.39277	96827
15.40090	97979
15.40902	97325
15.41715	89883
15.42527	79010
15.43338	75488
15.44152	73756
15.44963	77053
15.45775	71925
15.46588	85081
15.47400	82417
15.48213	107654
15.49025	141518
15.49837	206242
15.50650	272743
15.51462	343818
15.52275	371521
15.53087	366088
15.53898	325100
15.54712	264077
15.55523	211027
15.56335	166846
15.57148	127071
15.57960	115275
15.58773	91616
15.59585	88943
15.60397	84509
15.61210	80203
15.62022	79229
15.62835	76214
15.63647	78898
15.64458	79378
15.65272	81121
15.66083	78317
15.66897	78748
15.67708	79051
15.68520	72580
15.69333	70263
15.70145	70193
15.70957	66388
15.71770	59807
15.72582	59970
15.73395	61166
15.74207	64605
15.75018	76153
15.75832	109350
15.76643	224022
15.77457	497932
15.78268	989535
15.79080	1674483
15.79893	2203727
15.80705	2344759
15.81518	2059410
15.82330	1496020
15.83142	952014
15.83955	582393
15.84767	368344
15.85578	272450
15.86392	228173
15.87203	201734
15.88017	184147
15.88828	169660
15.89640	161400
15.90453	148948
15.91265	137131
15.92078	137427
15.92890	126913
15.93702	126368
15.94515	126711
15.95327	118486
15.96138	111424
15.96952	104897
15.97763	103972
15.98577	96453
15.99388	100959
16.00200	100408
16.01013	108734
16.01825	114123
16.02638	122216
16.03450	129020
16.04262	133388
16.05075	132744
16.05887	122194
16.06700	107748
16.07512	99626
16.08323	90228
16.09137	76209
16.09948	79418
16.10760	69380
16.11573	69474
16.12385	74626
16.13198	83461
16.14010	84722
16.14822	107364
16.15635	120559
16.16447	138645
16.17260	125818
16.18072	124382
16.18883	109582
16.19697	91367
16.20508	89545
16.21322	87054
16.22133	92871
16.22945	105115
16.23758	102887
16.24570	95563
16.25382	88328
16.26195	75119
16.27007	72946
16.27820	68204
16.28632	71221
16.29443	79959
16.30257	85742
16.31068	98566
16.31882	108040
16.32693	104194
16.33505	102999
16.34318	99114
16.35130	94511
16.35942	86441
16.36755	87543
16.37567	83745
16.38380	78520
16.39192	79838
16.40003	80026
16.40817	78022
16.41628	69918
16.42442	69302
16.43253	81612
16.44065	90784
16.44878	133158
16.45690	307242
16.46503	809306
16.47315	1910306
16.48127	3631983
16.48940	5563340
16.49752	6769300
16.50563	6692200
16.51377	5433668
16.52188	3580565
16.53002	2085987
16.53813	1190298
16.54625	739277
16.55438	540268
16.56250	425350
16.57063	365559
16.57875	330132
16.58687	292480
16.59500	298959
16.60312	275682
16.61123	252063
16.61937	233311
16.62748	217260
16.63562	203523
16.64373	192741
16.65185	175903
16.65998	171829
16.66810	161107
16.67623	157124
16.68435	156195
16.69247	147085
16.70060	137203
16.70872	130501
16.71685	123466
16.72497	110143
16.73308	98033
16.74122	95624
16.74933	106675
16.75745	117391
16.76558	151420
16.77370	188685
16.78183	208693
16.78995	194164
16.79807	168604
16.80620	138867
16.81432	100303
16.82245	88531
16.83057	79006
16.83868	74958
16.84682	68194
16.85493	66317
16.86307	66616
16.87118	68408
16.87930	66654
16.88743	59700
16.89555	65947
16.90367	61419
16.91180	56953
16.91992	64520
16.92805	61176
16.93617	57914
16.94428	58799
16.95242	60439
16.96053	64922
16.96867	59136
16.97678	62046
16.98490	60939
16.99303	63413
17.00115	67509
17.00927	72345
17.01740	62540
17.02552	66333
17.03365	71361
17.04177	80853
17.04988	111790
17.05802	147777
17.06613	174455
17.07427	190005
17.08238	186357
17.09050	148969
17.09863	122057
17.10675	101789
17.11488	87799
17.12300	81763
17.13112	77679
17.13925	82822
17.14737	83121
17.15548	84215
17.16362	82317
17.17173	75826
17.17987	75967
17.18798	73827
17.19610	78282
17.20423	66730
17.21235	63255
17.22048	65213
17.22860	67349
17.23672	62266
17.24485	60365
17.25297	62501
17.26110	66613
17.26922	64866
17.27733	68036
17.28547	62517
17.29358	64596
17.30170	65625
17.30983	57842
17.31795	68055
17.32608	85061
17.33420	118490
17.34232	158063
17.35045	213858
17.35857	242932
17.36670	250935
17.37482	232136
17.38293	201313
17.39107	182916
17.39918	158604
17.40730	139092
17.41543	143291
17.42355	132693
17.43168	132086
17.43980	134412
17.44792	137706
17.45605	133512
17.46417	119991
17.47230	115669
17.48042	105110
17.48853	100492
17.49667	100990
17.50478	90986
17.51292	93460
17.52103	91867
17.52915	92306
17.53728	89712
17.54540	93531
17.55352	98142
17.56165	113302
17.56977	180544
17.57790	384066
17.58602	888075
17.59413	1950898
17.60227	3485100
17.61038	5271805
17.61852	6395390
17.62663	6570819
17.63475	5809630
17.64288	4371071
17.65100	2842815
17.65912	1766041
17.66725	1050266
17.67537	666797
17.68350	456549
17.69162	359255
17.69973	304164
17.70787	268580
17.71598	227552
17.72412	217846
17.73223	197017
17.74035	181888
17.74848	168816
17.75660	149832
17.76473	138767
17.77285	126527
17.78097	116366
17.78910	108540
17.79722	102546
17.80533	94926
17.81347	92055
17.82158	96578
17.82972	101677
17.83783	100759
17.84595	105201
17.85408	121169
17.86220	158013
17.87033	194826
17.87845	221644
17.88657	224558
17.89470	209784
17.90282	166247
17.91095	133333
17.91907	100046
17.92718	86731
17.93532	80464
17.94343	78264
17.95155	76244
17.95968	71581
17.96780	71006
17.97593	65281
17.98405	67502
17.99217	64578
18.00030	73682
18.00842	71924
18.01655	80759
18.02467	111410
18.03278	161241
18.04092	241863
18.04903	339901
18.05717	453992
18.06528	725091
18.07340	1463082
18.08153	3015119
18.08965	5816530
18.09777	8977946
18.10590	1.151608E+07
18.11402	1.253181E+07
18.12215	1.141353E+07
18.13027	8989983
18.13838	6326631
18.14652	4306832
18.15463	3174545
18.16277	2552028
18.17088	2168096
18.17900	1828869
18.18713	1614179
18.19525	1406011
18.20337	1267060
18.21150	1152359
18.21962	1007979
18.22775	912203
18.23587	855075
18.24398	772286
18.25212	742957
18.26023	694143
18.26837	653230
18.27648	580890
18.28460	492182
18.29273	393275
18.30085	320290
18.30898	243714
18.31710	191360
18.32522	160146
18.33335	144565
18.34147	134481
18.34958	131038
18.35772	124174
18.36583	119954
18.37397	110631
18.38208	106790
18.39020	110673
18.39833	108520
18.40645	103255
18.41458	111035
18.42270	122636
18.43082	138962
18.43895	155566
18.44707	193266
18.45518	280712
18.46332	464087
18.47143	803339
18.47957	1313646
18.48768	1886904
18.49580	2316116
18.50393	2388577
18.51205	2045894
18.52018	1504280
18.52830	1010555
18.53642	631200
18.54455	406355
18.55267	270990
18.56080	206164
18.56892	158719
18.57703	144832
18.58517	126119
18.59328	113989
18.60140	114008
18.60953	115825
18.61765	119702
18.62578	123636
18.63390	129588
18.64202	122299
18.65015	119685
18.65827	114834
18.66640	103889
18.67452	90381
18.68263	81084
18.69077	78155
18.69888	74984
18.70700	72585
18.71513	73147
18.72325	66255
18.73138	69549
18.73950	68459
18.74762	67705
18.75575	65607
18.76387	61649
18.77200	65555
18.78012	62102
18.78823	69463
18.79637	65837
18.80448	61733
18.81262	66320
18.82073	64354
18.82885	66955
18.83698	66577
18.84510	69137
18.85322	64001
18.86135	62973
18.86947	70822
18.87760	68444
18.88572	71035
18.89383	70959
18.90197	73121
18.91008	72337
18.91822	78221
18.92633	79499
18.93445	95733
18.94258	111983
18.95070	118975
18.95883	132816
18.96695	147397
18.97507	165461
18.98320	197074
18.99132	248346
18.99943	271458
19.00757	277674
19.01568	285467
19.02382	273880
19.03193	268068
19.04005	262355
19.04818	262002
19.05630	266185
19.06443	259849
19.07255	268524
19.08067	269221
19.08880	273521
19.09692	291597
19.10505	316626
19.11317	333084
19.12128	338401
19.12942	344550
19.13753	331224
19.14565	317737
19.15378	291612
19.16190	282578
19.17003	270216
19.17815	251337
19.18627	249479
19.19440	249844
19.20252	256011
19.21065	246668
19.21877	248491
19.22688	252045
19.23502	245296
19.24313	247752
19.25125	249637
19.25938	245304
19.26750	242946
19.27563	249783
19.28375	241959
19.29187	253416
19.30000	258145
19.30812	258047
19.31625	268827
19.32437	266922
19.33248	261798
19.34062	246941
19.34873	262204
19.35687	278257
19.36498	344621
19.37310	450782
19.38123	572401
19.38935	661528
19.39747	672643
19.40560	608165
19.41372	525014
19.42185	411550
19.42997	343225
19.43808	306586
19.44622	277628
19.45433	277216
19.46247	263865
19.47058	271535
19.47870	258800
19.48683	255778
19.49495	274582
19.50307	278631
19.51120	282238
19.51932	316840
19.52745	327624
19.53557	359377
19.54368	365750
19.55182	358805
19.55993	337689
19.56807	312245
19.57618	286277
19.58430	269169
19.59243	254087
19.60055	234206
19.60868	216041
19.61680	219286
19.62492	203652
19.63305	197652
19.64117	204229
19.64928	220071
19.65742	254861
19.66553	310515
19.67367	384097
19.68178	490301
19.68990	567795
19.69803	612063
19.70615	636349
19.71428	595669
19.72240	562081
19.73052	524035
19.73865	458607
19.74677	407536
19.75490	357446
19.76302	312771
19.77113	281820
19.77927	267587
19.78738	278851
19.79550	297364
19.80363	341624
19.81175	368570
19.81988	388348
19.82800	389822
19.83612	346301
19.84425	312045
19.85237	290086
19.86050	249405
19.86862	252570
19.87673	296060
19.88487	413119
19.89298	614813
19.90110	871565
19.90923	1141879
19.91735	1247157
19.92548	1203163
19.93360	1028697
19.94172	783987
19.94985	585430
19.95797	473816
19.96610	392739
19.97422	349373
19.98233	336717
19.99047	311023
19.99858	294914
20.00672	283591
20.01483	284515
20.02295	284024
20.03108	269401
20.03920	263676
20.04732	254813
20.05545	250864
20.06357	235131
20.07170	239474
20.07982	260708
20.08793	285081
20.09607	309236
20.10418	331884
20.11232	320847
20.12043	303261
20.12855	274268
20.13668	244426
20.14480	223876
20.15293	222637
20.16105	240844
20.16917	297882
20.17730	396701
20.18542	547947
20.19353	694390
20.20167	815613
20.20978	886345
20.21792	864299
20.22603	779622
20.23415	648440
20.24228	541673
20.25040	492055
20.25853	501140
20.26665	563817
20.27477	699040
20.28290	865171
20.29102	1033789
20.29913	1095445
20.30727	1072828
20.31538	989700
20.32352	793581
20.33163	601322
20.33975	467354
20.34788	374427
20.35600	291131
20.36413	252314
20.37225	231120
20.38037	213285
20.38850	203171
20.39662	194265
20.40475	182320
20.41287	174275
20.42098	176253
20.42912	179154
20.43723	179339
20.44535	184811
20.45348	209731
20.46160	213532
20.46973	235798
20.47785	223538
20.48597	212955
20.49410	208853
20.50222	190946
20.51035	173365
20.51847	167088
20.52658	166630
20.53472	168139
20.54283	179058
20.55095	166301
20.55908	176428
20.56720	192179
20.57533	183960
20.58345	168274
20.59157	167399
20.59970	163622
20.60782	151906
20.61595	150004
20.62407	151353
20.63218	154787
20.64032	144832
20.64843	151141
20.65657	155366
20.66468	159578
20.67280	161129
20.68093	166116
20.68905	162863
20.69717	156306
20.70530	151478
20.71342	142135
20.72155	140351
20.72967	131092
20.73778	129389
20.74592	134502
20.75403	135913
20.76217	153419
20.77028	159592
20.77840	180536
20.78653	213268
20.79465	261511
20.80278	399085
20.81090	642660
20.81902	1016802
20.82715	1402120
20.83527	1619605
20.84338	1543139
20.85152	1260523
20.85963	893694
20.86777	597220
20.87588	381527
20.88400	267794
20.89213	216007
20.90025	191033
20.90838	186908
20.91650	182431
20.92462	177743
20.93275	175446
20.94087	182582
20.94898	177973
20.95712	192415
20.96523	181106
20.97337	173731
20.98148	171361
20.98960	159959
20.99773	145866
21.00585	142752
21.01398	131210
21.02210	135581
21.03022	135674
21.03835	142616
21.04647	143696
21.05460	138635
21.06272	144322
21.07083	143897
21.07897	139544
21.08708	143932
21.09520	137093
21.10333	132630
21.11145	127310
21.11958	132304
21.12770	137528
21.13582	144834
21.14395	157887
21.15207	209303
21.16020	288038
21.16832	367272
21.17643	437803
21.18457	458815
21.19268	433346
21.20082	361945
21.20893	289024
21.21705	238037
21.22518	215576
21.23330	200996
21.24142	175035
21.24955	164332
21.25767	151966
21.26580	137521
21.27392	130410
21.28203	130383
21.29017	118977
21.29828	119065
21.30642	116273
21.31453	118300
21.32265	115638
21.33078	113135
21.33890	113242
21.34702	111883
21.35515	111322
21.36327	110370
21.37140	114140
21.37952	125200
21.38763	135722
21.39577	172816
21.40388	218565
21.41202	297879
21.42013	363456
21.42825	413568
21.43638	412693
21.44450	362155
21.45263	319193
21.46075	256479
21.46887	220695
21.47700	185351
21.48512	171745
21.49323	158088
21.50137	153162
21.50948	142590
21.51762	128806
21.52573	120406
21.53385	120195
21.54198	118103
21.55010	117948
21.55823	112191
21.56635	107965
21.57447	116621
21.58260	135667
21.59072	156856
21.59885	192714
21.60697	222854
21.61508	223860
21.62322	213931
21.63133	198149
21.63945	178032
21.64758	173364
21.65570	189291
21.66383	207498
21.67195	238691
21.68007	285116
21.68820	305643
21.69632	307377
21.70445	312819
21.71257	269762
21.72068	240885
21.72882	199172
21.73693	170201
21.74505	152041
21.75318	136598
21.76130	130041
21.76943	125848
21.77755	126905
21.78567	118365
21.79380	114730
21.80192	109779
21.81005	117901
21.81817	117058
21.82628	114386
21.83442	115617
21.84253	123186
21.85067	136852
21.85878	154307
21.86690	173537
21.87503	178122
21.88315	168304
21.89127	158851
21.89940	150462
21.90752	151573
21.91565	138235
21.92377	137965
21.93188	140768
21.94002	132813
21.94813	118330
21.95627	106883
21.96438	104516
21.97250	96048
21.98063	94383
21.98875	91553
21.99687	86090
22.00500	85030
22.01312	87372
22.02125	92143
22.02937	90433
22.03748	101099
22.04562	108531
22.05373	120819
22.06187	125577
22.06998	125240
22.07810	120727
22.08623	109400
22.09435	108763
22.10248	104096
22.11060	95666
22.11872	95086
22.12685	92920
22.13497	86297
22.14308	89359
22.15122	88135
22.15933	81837
22.16747	86070
22.17558	87255
22.18370	82244
22.19183	83882
22.19995	84167
22.20808	78500
22.21620	79518
22.22432	80468
22.23245	83297
22.24057	92286
22.24870	95618
22.25682	96159
22.26493	104047
22.27307	109553
22.28118	111078
22.28930	115525
22.29743	119524
22.30555	120899
22.31368	130747
22.32180	130184
22.32992	126362
22.33805	125651
22.34617	117931
22.35430	108388
22.36242	107602
22.37053	97068
22.37867	101316
22.38678	114437
22.39490	125949
22.40303	164421
22.41115	240521
22.41928	357436
22.42740	467741
22.43552	531372
22.44365	555661
22.45177	490197
22.45990	389497
22.46802	305063
22.47613	224972
22.48427	193635
22.49238	193677
22.50052	203618
22.50863	241474
22.51675	260259
22.52488	272684
22.53300	267925
22.54112	247522
22.54925	213332
22.55737	190519
22.56550	161648
22.57362	147752
22.58173	136840
22.58987	118739
22.59798	112423
22.60612	102106
22.61423	98406
22.62235	93384
22.63048	89351
22.63860	83183
22.64673	90195
22.65485	91753
22.66297	105223
22.67110	110023
22.67922	115551
22.68733	119408
22.69547	139576
22.70358	179796
22.71172	231289
22.71983	311713
22.72795	390067
22.73608	417191
22.74420	397056
22.75233	348886
22.76045	292752
22.76857	233622
22.77670	211860
22.78482	216418
22.79293	278684
22.80107	389258
22.80918	547802
22.81732	710536
22.82543	793677
22.83355	808964
22.84168	702883
22.84980	588395
22.85793	454130
22.86605	344748
22.87417	284663
22.88230	262757
22.89042	261376
22.89855	260939
22.90667	273792
22.91478	291114
22.92292	344154
22.93103	413046
22.93915	475780
22.94728	504011
22.95540	483365
22.96353	437468
22.97165	323332
22.97977	262126
22.98790	199329
22.99602	149170
23.00415	133053
23.01227	118340
23.02038	98262
23.02852	100363
23.03663	93197
23.04475	87955
23.05288	84788
23.06100	87397
23.06913	88203
23.07725	93856
23.08537	100591
23.09350	102895
23.10162	98601
23.10975	94923
23.11787	91471
23.12598	93961
23.13412	85293
23.14223	86588
23.15037	88791
23.15848	85674
23.16660	85932
23.17473	84778
23.18285	83872
23.19097	77409
23.19910	72853
23.20722	75246
23.21535	72305
23.22347	71572
23.23158	73784
23.23972	81344
23.24783	83640
23.25597	98539
23.26408	123736
23.27220	151146
23.28033	178433
23.28845	191352
23.29658	181363
23.30470	155009
23.31282	128450
23.32095	107841
23.32907	103674
23.33718	107345
23.34532	119981
23.35343	159246
23.36157	220779
23.36968	275069
23.37780	330508
23.38593	349230
23.39405	341629
23.40218	314387
23.41030	268250
23.41842	224592
23.42655	199403
23.43467	169513
23.44278	161653
23.45092	149911
23.45903	145499
23.46717	134886
23.47528	137197
23.48340	127893
23.49153	114666
23.49965	108568
23.50778	103884
23.51590	105569
23.52402	102142
23.53215	100859
23.54027	101160
23.54840	98140
23.55652	104401
23.56463	106275
23.57277	115398
23.58088	129717
23.58900	163147
23.59713	210721
23.60525	247747
23.61338	289378
23.62150	294957
23.62962	272023
23.63775	235097
23.64587	194969
23.65400	151519
23.66212	136368
23.67023	127718
23.67837	123109
23.68648	128884
23.69462	120021
23.70273	113791
23.71085	105813
23.71898	91813
23.72710	88142
23.73522	82273
23.74335	80655
23.75147	79842
23.75960	84957
23.76772	103964
23.77583	183230
23.78397	342062
23.79208	601964
23.80022	985076
23.80833	1307138
23.81645	1448776
23.82458	1408745
23.83270	1210500
23.84082	954478
23.84895	725088
23.85707	568985
23.86520	449665
23.87332	366391
23.88143	317431
23.88957	276795
23.89768	267199
23.90582	277031
23.91393	316196
23.92205	367848
23.93018	408506
23.93830	435410
23.94643	416375
23.95455	361704
23.96267	293902
23.97080	240263
23.97892	198036
23.98703	169434
23.99517	155761
24.00328	143819
24.01142	137554
24.01953	135603
24.02765	143462
24.03578	150154
24.04390	154024
24.05203	157824
24.06015	158629
24.06827	146668
24.07640	130670
24.08452	121156
24.09263	111847
24.10077	105965
24.10888	109752
24.11702	104245
24.12513	103408
24.13325	106160
24.14138	109151
24.14950	113281
24.15763	135679
24.16575	144299
24.17387	162529
24.18200	171318
24.19012	178584
24.19825	169331
24.20637	179940
24.21448	170892
24.22262	161874
24.23073	161773
24.23885	148449
24.24698	134881
24.25510	133542
24.26323	128617
24.27135	120108
24.27947	110962
24.28760	105438
24.29572	108698
24.30385	111690
24.31197	117045
24.32008	119279
24.32822	119694
24.33633	117001
24.34447	124485
24.35258	116824
24.36070	118227
24.36883	108815
24.37695	102271
24.38507	95390
24.39320	96519
24.40132	96225
24.40945	108251
24.41757	116006
24.42568	125294
24.43382	135447
24.44193	133094
24.45007	127929
24.45818	119316
24.46630	105482
24.47443	106002
24.48255	97495
24.49068	93528
24.49880	93140
24.50692	96906
24.51505	95880
24.52317	98373
24.53128	110941
24.53942	114813
24.54753	143058
24.55567	159109
24.56378	183568
24.57190	204095
24.58003	213485
24.58815	209473
24.59628	197210
24.60440	181261
24.61252	166416
24.62065	150716
24.62877	129062
24.63688	122342
24.64502	106023
24.65313	102530
24.66127	94004
24.66938	93320
24.67750	93923
24.68563	100291
24.69375	101782
24.70188	113633
24.71000	109204
24.71812	114489
24.72625	118986
24.73437	122306
24.74250	127643
24.75062	133892
24.75873	129485
24.76687	134530
24.77498	145981
24.78310	153175
24.79123	174316
24.79935	176704
24.80748	190267
24.81560	183843
24.82372	184548
24.83185	171238
24.83997	206373
24.84810	261406
24.85622	359406
24.86433	542802
24.87247	794499
24.88058	1239294
24.88870	1794619
24.89683	2496264
24.90495	3122390
24.91308	3335423
24.92120	3059162
24.92932	2476124
24.93745	1761211
24.94557	1118057
24.95370	671095
24.96182	390599
24.96993	251993
24.97807	186388
24.98618	142969
24.99432	126988
25.00243	110817
25.01055	109343
25.01868	99531
25.02680	96873
25.03492	100586
25.04305	98445
25.05117	94591
25.05930	96556
25.06742	91327
25.07553	91987
25.08367	98313
25.09178	113576
25.09992	133703
25.10803	209682
25.11615	466639
25.12428	1197065
25.13240	2834906
25.14053	5470285
25.14865	9146995
25.15677	1.253065E+07
25.16490	1.454466E+07
25.17302	1.416961E+07
25.18113	1.184359E+07
25.18927	8824693
25.19738	5505707
25.20552	3009396
25.21363	1542857
25.22175	809317
25.22988	474073
25.23800	317468
25.24613	276555
25.25425	303987
25.26237	405223
25.27050	546764
25.27862	664363
25.28673	743052
25.29487	749546
25.30298	635608
25.31112	506358
25.31923	383806
25.32735	275038
25.33548	188524
25.34360	153501
25.35173	124651
25.35985	116356
25.36797	102335
25.37610	101286
25.38422	93380
25.39235	91302
25.40047	86388
25.40858	80199
25.41672	82639
25.42483	83896
25.43295	82079
25.44108	81034
25.44920	84758
25.45733	84424
25.46545	86579
25.47357	108086
25.48170	114476
25.48982	103083
25.49795	88077
25.50607	83441
25.51418	89305
25.52232	88591
25.53043	87709
25.53857	81973
25.54668	77500
25.55480	75930
25.56293	75926
25.57105	78948
25.57917	76855
25.58730	77054
25.59542	78141
25.60355	76735
25.61167	80319
25.61978	78759
25.62792	76357
25.63603	72335
25.64417	70782
25.65228	70561
25.66040	70159
25.66853	78176
25.67665	74155
25.68477	76375
25.69290	74755
25.70102	81244
25.70915	87576
25.71727	86702
25.72538	82684
25.73352	84769
25.74163	83371
25.74977	82611
25.75788	78934
25.76600	76405
25.77413	72744
25.78225	68438
25.79038	67506
25.79850	67145
25.80662	64259
25.81475	66990
25.82287	67552
25.83098	71349
25.83912	67376
25.84723	71145
25.85537	70869
25.86348	75886
25.87160	108109
25.87973	160341
25.88785	270509
25.89598	353071
25.90410	410990
25.91222	435195
25.92035	461671
25.92847	448174
25.93658	459647
25.94472	451873
25.95283	466629
25.96097	457297
25.96908	469891
25.97720	451513
25.98533	467114
25.99345	456371
26.00158	459188
26.00970	454137
26.01782	445291
26.02595	445408
26.03407	439763
26.04220	441401
26.05032	439907
26.05843	440738
26.06657	445124
26.07468	431654
26.08280	438133
26.09093	457896
26.09905	459388
26.10718	460853
26.11530	467173
26.12342	457323
26.13155	439652
26.13967	433943
26.14780	441172
26.15592	437243
26.16403	432480
26.17217	450429
26.18028	435917
26.18842	436583
26.19653	433928
26.20465	429458
26.21278	419472
26.22090	426005
26.22902	419623
26.23715	425318
26.24527	407190
26.25340	428343
26.26152	406034
26.26963	396967
26.27777	404107
26.28588	394369
26.29402	396391
26.30213	389292
26.31025	395086
26.31838	379439
26.32650	385637
26.33462	377274
26.34275	379508
26.35087	364417
26.35900	362340
26.36712	379562
26.37523	405115
26.38337	447623
26.39148	504334
26.39962	581145
26.40773	639598
26.41585	677327
26.42398	684604
26.43210	672191
26.44023	595721
26.44835	518173
26.45647	470653
26.46460	426859
26.47272	389746
26.48083	399724
26.48897	369752
26.49708	378206
26.50522	373104
26.51333	358452
26.52145	355830
26.52958	346091
26.53770	335462
26.54583	321310
26.55395	305036
26.56207	311912
26.57020	301201
26.57832	300858
26.58645	294933
26.59457	293057
26.60268	291502
26.61082	284949
26.61893	282673
26.62705	278462
26.63518	278916
26.64330	287814
26.65143	287657
26.65955	276755
26.66767	278315
26.67580	282706
26.68392	277820
26.69205	268930
26.70017	274197
26.70828	267083
26.71642	262016
26.72453	264366
26.73265	272830
26.74078	265199
26.74890	261900
26.75703	257165
26.76515	259776
26.77327	249086
26.78140	260393
26.78952	262104
26.79765	253499
26.80577	267763
26.81388	267012
26.82202	269907
26.83013	261302
26.83827	268595
26.84638	255697
26.85450	252636
26.86263	254538
26.87075	245205
26.87887	245600
26.88700	246120
26.89512	241448
26.90325	243490
26.91137	237696
26.91948	236708
26.92762	233695
26.93573	241298
26.94387	235228
26.95198	228130
26.96010	231585
26.96823	241875
26.97635	243214
26.98447	263489
26.99260	287850
27.00072	347832
27.00885	424704
27.01697	536045
27.02508	669947
27.03322	771094
27.04133	871862
27.04947	862189
27.05758	757110
27.06570	663045
27.07383	546430
27.08195	460491
27.09008	415715
27.09820	363465
27.10632	338273
27.11445	325301
27.12257	327139
27.13068	314786
27.13882	314515
27.14693	309141
27.15507	309621
27.16318	294155
27.17130	301886
27.17943	317976
27.18755	344350
27.19568	369704
27.20380	385254
27.21192	401257
27.22005	381340
27.22817	342825
27.23630	315808
27.24442	280740
27.25253	262290
27.26067	242294
27.26878	236168
27.27690	225294
27.28503	210063
27.29315	208269
27.30128	196190
27.30940	187016
27.31752	188493
27.32565	194547
27.33377	195440
27.34190	195796
27.35002	197416
27.35813	195553
27.36627	198412
27.37438	204264
27.38250	216623
27.39063	203992
27.39875	203927
27.40688	190741
27.41500	185766
27.42312	179455
27.43125	180019
27.43937	169124
27.44750	169031
27.45562	167248
27.46373	168750
27.47187	167774
27.47998	168325
27.48812	157048
27.49623	154217
27.50435	154871
27.51248	152970
27.52060	152871
27.52872	152933
27.53685	153974
27.54497	149940
27.55310	157048
27.56122	156966
27.56933	153384
27.57747	165297
27.58558	190993
27.59372	228329
27.60183	271759
27.60995	294423
27.61808	314910
27.62620	308335
27.63433	274388
27.64245	232470
27.65057	208089
27.65870	168004
27.66682	159321
27.67493	156444
27.68307	152471
27.69118	149633
27.69932	156515
27.70743	153657
27.71555	156249
27.72368	159104
27.73180	149657
27.73993	143851
27.74805	130956
27.75617	135534
27.76430	130171
27.77242	130492
27.78053	136329
27.78867	149363
27.79678	148901
27.80492	158376
27.81303	162255
27.82115	157495
27.82928	149927
27.83740	137048
27.84553	138201
27.85365	126906
27.86177	123148
27.86990	120648
27.87802	123525
27.88615	120902
27.89427	114725
27.90238	117211
27.91052	113786
27.91863	121124
27.92675	124754
27.93488	117092
27.94300	118102
27.95113	114373
27.95925	105599
27.96737	108781
27.97550	110202
27.98362	104300
27.99175	109377
27.99987	107318
28.00798	110052
28.01612	119730
28.02423	124822
28.03237	135099
28.04048	139204
28.04860	160433
28.05673	173333
28.06485	187411
28.07297	196036
28.08110	183057
28.08922	172083
28.09735	146232
28.10547	129905
28.11358	119511
28.12172	110624
28.12983	106786
28.13797	102165
28.14608	108275
28.15420	102397
28.16233	98274
28.17045	98735
28.17857	100455
28.18670	102971
28.19482	110833
28.20295	134555
28.21107	180933
28.21918	228344
28.22732	270607
28.23543	313337
28.24357	335842
28.25168	319563
28.25980	274027
28.26793	234152
28.27605	182496
28.28418	147407
28.29230	124030
28.30042	113101
28.30855	119472
28.31667	134248
28.32478	150370
28.33292	183127
28.34103	189745
28.34917	198078
28.35728	201770
28.36540	193388
28.37353	187270
28.38165	183165
28.38978	181484
28.39790	180252
28.40602	193826
28.41415	199152
28.42227	206864
28.43038	197230
28.43852	187779
28.44663	172741
28.45477	164036
28.46288	140799
28.47100	134199
28.47913	125376
28.48725	124822
28.49538	124766
28.50350	119655
28.51162	126991
28.51975	123983
28.52787	127417
28.53600	120845
28.54412	114120
28.55223	109014
28.56037	105336
28.56848	96881
28.57660	91780
28.58473	94418
28.59285	91319
28.60098	92036
28.60910	91019
28.61722	102488
28.62535	92643
28.63347	102008
28.64160	103194
28.64972	106921
28.65783	114897
28.66597	116283
28.67408	118262
28.68222	115035
28.69033	106131
28.69845	99456
28.70658	101070
28.71470	96528
28.72282	92938
28.73095	85359
28.73907	88171
28.74720	79755
28.75532	83474
28.76343	81425
28.77157	82744
28.77968	85721
28.78782	90845
28.79593	107545
28.80405	120797
28.81218	136178
28.82030	146306
28.82842	160001
28.83655	156442
28.84467	153187
28.85280	133363
28.86092	121721
28.86903	119686
28.87717	116868
28.88528	132313
28.89342	151901
28.90153	179543
28.90965	220200
28.91778	234424
28.92590	233174
28.93403	211739
28.94215	170254
28.95027	134481
28.95840	115089
28.96652	101381
28.97463	100126
28.98277	91965
28.99088	92317
28.99902	88962
29.00713	85683
29.01525	86858
29.02338	84886
29.03150	85179
29.03963	83072
29.04775	82186
29.05587	80104
29.06400	81135
29.07212	85070
29.08025	89246
29.08837	93294
29.09648	96125
29.10462	111804
29.11273	110497
29.12085	107276
29.12898	98253
29.13710	90728
29.14523	85976
29.15335	82466
29.16147	84572
29.16960	76337
29.17772	85172
29.18585	96701
29.19397	108317
29.20208	142345
29.21022	206723
29.21833	301320
29.22645	390480
29.23458	446163
29.24270	436912
29.25083	380627
29.25895	306615
29.26707	247044
29.27520	207682
29.28332	166557
29.29145	137988
29.29957	116397
29.30768	99119
29.31582	85520
29.32393	83200
29.33207	80472
29.34018	80582
29.34830	77811
29.35643	75423
29.36455	78058
29.37267	72528
29.38080	76667
29.38892	73761
29.39705	77363
29.40517	76015
29.41328	80690
29.42142	81222
29.42953	84478
29.43767	82630
29.44578	80710
29.45390	83520
29.46203	80653
29.47015	79319
29.47827	77439
29.48640	74341
29.49452	72409
29.50265	78578
29.51077	79226
29.51888	89483
29.52702	90583
29.53513	86742
29.54327	86805
29.55138	88775
29.55950	82664
29.56763	85742
29.57575	87814
29.58388	81498
29.59200	76483
29.60012	74388
29.60825	74577
29.61637	72699
29.62448	77239
29.63262	72253
29.64073	74780
29.64887	77304
29.65698	78051
29.66510	74072
29.67323	77359
29.68135	83446
29.68948	87944
29.69760	102512
29.70572	116346
29.71385	128271
29.72197	131915
29.73010	113997
29.73822	105601
29.74633	89276
29.75447	87035
29.76258	76987
29.77070	74033
29.77883	74671
29.78695	71375
29.79508	72130
29.80320	69192
29.81132	72903
29.81945	63976
29.82757	63239
29.83570	68421
29.84382	66487
29.85193	69919
29.86007	76010
29.86818	73950
29.87632	84035
29.88443	91526
29.89255	125777
29.90068	179978
29.90880	230182
29.91692	252371
29.92505	277378
29.93317	240926
29.94130	190821
29.94942	149642
29.95753	110228
29.96567	98375
29.97378	89491
29.98192	87909
29.99003	86614
29.99815	90546
30.00628	97806
30.01440	104771
30.02252	114549
30.03065	117532
30.03877	121636
30.04690	133422
30.05502	124517
30.06313	132056
30.07127	125451
30.07938	122183
30.08752	122030
30.09563	123725
30.10375	111384
30.11188	117687
30.12000	112389
30.12813	109272
30.13625	105459
30.14437	111608
30.15250	101645
30.16062	94168
30.16873	94564
30.17687	96967
30.18498	94832
30.19312	91184
30.20123	100947
30.20935	93027
30.21748	96090
30.22560	93322
30.23373	97525
30.24185	93762
30.24997	87290
30.25810	85923
30.26622	81245
30.27433	75138
30.28247	80717
30.29058	79106
30.29872	78958
30.30683	75340
30.31495	79424
30.32308	75643
30.33120	74353
30.33933	81704
30.34745	74246
30.35557	77783
30.36370	80031
30.37182	79976
30.37995	78743
30.38807	78998
30.39618	75966
30.40432	74656
30.41243	69562
30.42055	74526
30.42868	76713
30.43680	69659
30.44493	65856
30.45305	72304
30.46117	69324
30.46930	71442
30.47742	68642
30.48555	73703
30.49367	77739
30.50178	73848
30.50992	71231
30.51803	76420
30.52617	75509
30.53428	81404
30.54240	78812
30.55053	75988
30.55865	73551
30.56677	78826
30.57490	72337
30.58302	81219
30.59115	78225
30.59927	79019
30.60738	77473
30.61552	81578
30.62363	72106
30.63177	74765
30.63988	72503
30.64800	77314
30.65613	75222
30.66425	69100
30.67237	73834
30.68050	69587
30.68862	65144
30.69675	65513
30.70487	72424
30.71298	64114
30.72112	67912
30.72923	69321
30.73737	70704
30.74548	71880
30.75360	67605
30.76173	68967
30.76985	67234
30.77798	72688
30.78610	89898
30.79422	115275
30.80235	175783
30.81047	255662
30.81858	346009
30.82672	426519
30.83483	443537
30.84297	387016
30.85108	294697
30.85920	210301
30.86733	146310
30.87545	114912
30.88358	92896
30.89170	92138
30.89982	81625
30.90795	73372
30.91607	75743
30.92420	76402
30.93232	74074
30.94043	69755
30.94857	71842
30.95668	72114
30.96480	72253
30.97293	73754
30.98105	75156
30.98918	77324
30.99730	73899
31.00542	72915
31.01355	73090
31.02167	67136
31.02980	73716
31.03792	71044
31.04603	73123
31.05417	70305
31.06228	73570
31.07040	70478
31.07853	72978
31.08665	74257
31.09478	81793
31.10290	93165
31.11102	107516
31.11915	128900
31.12727	139166
31.13540	130701
31.14352	126885
31.15163	122436
31.15977	118228
31.16788	116055
31.17602	127351
31.18413	127132
31.19225	136546
31.20038	133452
31.20850	155531
31.21662	180086
31.22475	227552
31.23287	256917
31.24100	287842
31.24912	294741
31.25723	265247
31.26537	202526
31.27348	154051
31.28162	128306
31.28973	104352
31.29785	87971
31.30598	85824
31.31410	85816
31.32222	93118
31.33035	100128
31.33847	108285
31.34660	120536
31.35472	127956
31.36283	129569
31.37097	124070
31.37908	109944
31.38722	96853
31.39533	87831
31.40345	86252
31.41158	72429
31.41970	80776
31.42783	73142
31.43595	72497
31.44407	75884
31.45220	74152
31.46032	78931
31.46843	77522
31.47657	73779
31.48468	74060
31.49282	76637
31.50093	81554
31.50905	80905
31.51718	89156
31.52530	84956
31.53343	88910
31.54155	90882
31.54967	87499
31.55780	90690
31.56592	86490
31.57405	87348
31.58217	84383
31.59028	83220
31.59842	80714
31.60653	81996
31.61465	69337
31.62278	67229
31.63090	75254
31.63903	79329
31.64715	75244
31.65527	79220
31.66340	87113
31.67152	100964
31.67965	115813
31.68777	132817
31.69588	141623
31.70402	141570
31.71213	136051
31.72025	113436
31.72838	102648
31.73650	88070
31.74463	80950
31.75275	78446
31.76087	73111
31.76900	72533
31.77712	64923
31.78525	73655
31.79337	74851
31.80148	68750
31.80962	72754
31.81773	71775
31.82587	71876
31.83398	75498
31.84210	77002
31.85023	73554
31.85835	69367
31.86647	75097
31.87460	83786
31.88272	79898
31.89085	76600
31.89897	82220
31.90708	73357
31.91522	76633
31.92333	71874
31.93147	72261
31.93958	77337
31.94770	79039
31.95583	84487
31.96395	89713
31.97208	89675
31.98020	105786
31.98832	105470
31.99645	112189
32.00457	114222
32.01268	122476
32.02082	135798
32.02893	135348
32.03707	131668
32.04518	123751
32.05330	115238
32.06143	105022
32.06955	100913
32.07768	89155
32.08580	86375
32.09392	85401
32.10205	85646
32.11017	93690
32.11828	89883
32.12642	86153
32.13453	85182
32.14267	82662
32.15078	81443
32.15890	76836
32.16703	75221
32.17515	74556
32.18328	74898
32.19140	76966
32.19952	70891
32.20765	70939
32.21577	75339
32.22390	72910
32.23202	73071
32.24013	71942
32.24827	70992
32.25638	70735
32.26450	78155
32.27263	75866
32.28075	76523
32.28888	76155
32.29700	77546
32.30512	80931
32.31325	78055
32.32137	74106
32.32950	74431
32.33762	71562
32.34573	79000
32.35387	69234
32.36198	70396
32.37012	72516
32.37823	74290
32.38635	78594
32.39448	72819
32.40260	71352
32.41072	70289
32.41885	68987
32.42697	70013
32.43510	72827
32.44322	70249
32.45133	71186
32.45947	79661
32.46758	72557
32.47572	72967
32.48383	66416
32.49195	65948
32.50008	70118
32.50820	69514
32.51632	67874
32.52445	74660
32.53257	74550
32.54070	79443
32.54882	76746
32.55693	69323
32.56507	77166
32.57318	74393
32.58132	69427
32.58943	74623
32.59755	71077
32.60568	67971
32.61380	70837
32.62193	64979
32.63005	66189
32.63817	70384
32.64630	68599
32.65442	68698
32.66253	68751
32.67067	73454
32.67878	76555
32.68692	79765
32.69503	77743
32.70315	85348
32.71128	80106
32.71940	85339
32.72753	79587
32.73565	78616
32.74377	74729
32.75190	75038
32.76002	80261
32.76813	71609
32.77627	77148
32.78438	71257
32.79252	67535
32.80063	65352
32.80875	68143
32.81688	68266
32.82500	71704
32.83313	74036
32.84125	69213
32.84937	71373
32.85750	70157
32.86562	72965
32.87375	68281
32.88187	79925
32.88998	76557
32.89812	90539
32.90623	94126
32.91435	105553
32.92248	107411
32.93060	111621
32.93873	109337
32.94685	104705
32.95497	93064
32.96310	85715
32.97122	87564
32.97935	88107
32.98747	100777
32.99558	136956
33.00372	184530
33.01183	241471
33.01997	272748
33.02808	276378
33.03620	268351
33.04433	231034
33.05245	175755
33.06057	156748
33.06870	155260
33.07682	173733
33.08495	183596
33.09307	192684
33.10118	201662
33.10932	206153
33.11743	198558
33.12557	204782
33.13368	199486
33.14180	188086
33.14993	162862
33.15805	156657
33.16617	142865
33.17430	135706
33.18242	126715
33.19055	121040
33.19867	103409
33.20678	95049
33.21492	95285
33.22303	89629
33.23117	94111
33.23928	91796
33.24740	89374
33.25553	85710
33.26365	89639
33.27178	83438
33.27990	86315
33.28802	81375
33.29615	83710
33.30427	83108
33.31238	76729
33.32052	80095
33.32863	80691
33.33677	87176
33.34488	86275
33.35300	91370
33.36113	94029
33.36925	102663
33.37738	112477
33.38550	118877
33.39362	108031
33.40175	109084
33.40987	106045
33.41800	91733
33.42612	83288
33.43423	82345
33.44237	83679
33.45048	71830
33.45860	75332
33.46673	74475
33.47485	78555
33.48298	71593
33.49110	76687
33.49922	77270
33.50735	82303
33.51547	81215
33.52360	89382
33.53172	96550
33.53983	103827
33.54797	108025
33.55608	123548
33.56420	136338
33.57233	158698
33.58045	163776
33.58858	153729
33.59670	133888
33.60482	111676
33.61295	95050
33.62107	92015
33.62920	80492
33.63732	82032
33.64543	83736
33.65357	87489
33.66168	90530
33.66982	94304
33.67793	96784
33.68605	101953
33.69418	98864
33.70230	95370
33.71042	93895
33.71855	79046
33.72667	79886
33.73480	75175
33.74292	73898
33.75103	76280
33.75917	72259
33.76728	76922
33.77542	76331
33.78353	71907
33.79165	79018
33.79978	72635
33.80790	73190
33.81602	71831
33.82415	71492
33.83227	72763
33.84040	72014
33.84852	68089
33.85663	77562
33.86477	72863
33.87288	77686
33.88102	80925
33.88913	81693
33.89725	84158
33.90538	80459
33.91350	86397
33.92163	86104
33.92975	79767
33.93787	77842
33.94600	72481
33.95412	76944
33.96223	75158
33.97037	81707
33.97848	73822
33.98662	75575
33.99473	76263
34.00285	72883
34.01098	77979
34.01910	70758
34.02723	69420
34.03535	74439
34.04347	75286
34.05160	75193
34.05972	68357
34.06785	74703
34.07597	69703
34.08408	74282
34.09222	68660
34.10033	75624
34.10845	71726
34.11658	75430
34.12470	70213
34.13283	71979
34.14095	73449
34.14907	74004
34.15720	77403
34.16532	75620
34.17345	76520
34.18157	77837
34.18968	77523
34.19782	77897
34.20593	75411
34.21405	71471
34.22218	68975
34.23030	69706
34.23843	74672
34.24655	70625
34.25467	68993
34.26280	75943
34.27092	70767
34.27905	70895
34.28717	68265
34.29528	75967
34.30342	76155
34.31153	76202
34.31967	68064
34.32778	78940
34.33590	70771
34.34403	72107
34.35215	73576
34.36027	81132
34.36840	72081
34.37652	71007
34.38465	74067
34.39277	70636
34.40088	75040
34.40902	73713
34.41713	76709
34.42527	74261
34.43338	77630
34.44150	73741
34.44963	75987
34.45775	81315
34.46588	73072
34.47400	75485
34.48212	78710
34.49025	75922
34.49837	77851
34.50648	74314
34.51462	77353
34.52273	73063
34.53087	75643
34.53898	74745
34.54710	81575
34.55523	83501
34.56335	89525
34.57148	95256
34.57960	98859
34.58772	101139
34.59585	104292
34.60397	99898
34.61208	96115
34.62022	92496
34.62833	98284
34.63647	87297
34.64458	88822
34.65270	82839
34.66083	81756
34.66895	83768
34.67708	82846
34.68520	80052
34.69332	80609
34.70145	76205
34.70957	84196
34.71770	79903
34.72582	77276
34.73393	78706
34.74207	83042
34.75018	74090
34.75830	78541
34.76643	82574
34.77455	85816
34.78268	80921
34.79080	84767
34.79892	90213
34.80705	92977
34.81517	83581
34.82330	80556
34.83142	80968
34.83953	77049
34.84767	80450
34.85578	84190
34.86390	80124
34.87203	81813
34.88015	78166
34.88828	78969
34.89640	78844
34.90452	79662
34.91265	80506
34.92077	82309
34.92890	87002
34.93702	76886
34.94513	84270
34.95327	82156
34.96138	87118
34.96952	98778
34.97763	94169
34.98575	106409
34.99388	103657
35.00200	112693
35.01012	102885
35.01825	88285
35.02637	85819
35.03450	87242
35.04262	78035
35.05073	85257
35.05887	80856
35.06698	77772
35.07512	79184
35.08323	80115
35.09135	75613
35.09948	88008
35.10760	79203
35.11573	76702
35.12385	77449
35.13197	76682
35.14010	78587
35.14822	82229
35.15633	80769
35.16447	84556
35.17258	84658
35.18072	92872
35.18883	86321
35.19695	83122
35.20508	83115
35.21320	86082
35.22133	79837
35.22945	84415
35.23757	80954
35.24570	80933
35.25382	80124
35.26195	84120
35.27007	84348
35.27818	81982
35.28632	80227
35.29443	79166
35.30255	85298
35.31068	86507
35.31880	80809
35.32693	79838
35.33505	72474
35.34317	75537
35.35130	79659
35.35942	72538
35.36755	75498
35.37567	79019
35.38378	79693
35.39192	74352
35.40003	81123
35.40815	83880
35.41628	84815
35.42440	89087
35.43253	90649
35.44065	93403
35.44877	92561
35.45690	89745
35.46502	89531
35.47315	91620
35.48127	90410
35.48938	87713
35.49752	90178
35.50563	93818
35.51377	92340
35.52188	90161
35.53000	88871
35.53813	84689
35.54625	80730
35.55437	86377
35.56250	80752
35.57062	78729
35.57875	82613
35.58687	81731
35.59498	79874
35.60312	78923
35.61123	77860
35.61937	83285
35.62748	85210
35.63560	81438
35.64373	78886
35.65185	80636
35.65997	82913
35.66810	82898
35.67622	81825
35.68435	84129
35.69247	77643
35.70058	84934
35.70872	85270
35.71683	80774
35.72497	84831
35.73308	85934
35.74120	87051
35.74933	96052
35.75745	101117
35.76558	112738
35.77370	123479
35.78182	140341
35.78995	151057
35.79807	147514
35.80618	136304
35.81432	128191
35.82243	109118
35.83057	93654
35.83868	91766
35.84680	88490
35.85493	85200
35.86305	84168
35.87118	85751
35.87930	82800
35.88742	80442
35.89555	86244
35.90367	87067
35.91180	87414
35.91992	84922
35.92803	79919
35.93617	80317
35.94428	81190
35.95240	79020
35.96053	84561
35.96865	77425
35.97678	82554
35.98490	87616
35.99302	82220
36.00115	78799
36.00927	91212
36.01740	82289
36.02552	90785
36.03363	93555
36.04177	84460
36.04988	90384
36.05800	92400
36.06613	94497
36.07425	84631
36.08238	90833
36.09050	85848
36.09862	81122
36.10675	86540
36.11487	88470
36.12300	87568
36.13112	92455
36.13923	95238
36.14737	100330
36.15548	100343
36.16362	110849
36.17173	112849
36.17985	107925
36.18798	103659
36.19610	94378
36.20422	88998
36.21235	82069
36.22047	89480
36.22860	83941
36.23672	86540
36.24483	86063
36.25297	80519
36.26108	81800
36.26922	83427
36.27733	91474
36.28545	87386
36.29358	84908
36.30170	84462
36.30983	90553
36.31795	89488
36.32607	96532
36.33420	93775
36.34232	94513
36.35043	100851
36.35857	99511
36.36668	99903
36.37482	97166
36.38293	101471
36.39105	90384
36.39918	100232
36.40730	91654
36.41543	97904
36.42355	104280
36.43167	101727
36.43980	106781
36.44792	99923
36.45603	97612
36.46417	98417
36.47228	93696
36.48042	98848
36.48853	94123
36.49665	93465
36.50478	96143
36.51290	83538
36.52103	86707
36.52915	88624
36.53727	82666
36.54540	82897
36.55352	84197
36.56165	85258
36.56977	84419
36.57788	84703
36.58602	87140
36.59413	89754
36.60225	88097
36.61038	83329
36.61850	89405
36.62663	80789
36.63475	89205
36.64287	83643
36.65100	84475
36.65912	84991
36.66725	90704
36.67537	82735
36.68348	80717
36.69162	84785
36.69973	86441
36.70785	79848
36.71598	89439
36.72410	87150
36.73223	87105
36.74035	93193
36.74847	90872
36.75660	99065
36.76472	99064
36.77285	95556
36.78097	93551
36.78908	90670
36.79722	85767
36.80533	91542
36.81347	87931
36.82158	88269
36.82970	90026
36.83783	85338
36.84595	86186
36.85407	83912
36.86220	76959
36.87032	83075
36.87845	83255
36.88657	82692
36.89468	85288
36.90282	79403
36.91093	85921
36.91907	85222
36.92718	81426
36.93530	91110
36.94343	90899
36.95155	101018
36.95968	127976
36.96780	167847
36.97592	223723
36.98405	255536
36.99217	292705
37.00028	279402
37.00842	248861
37.01653	200016
37.02467	156908
37.03278	129869
37.04090	115336
37.04903	102173
37.05715	99116
37.06528	98069
37.07340	95658
37.08152	98590
37.08965	99825
37.09777	100109
37.10588	108780
37.11402	106266
37.12213	102698
37.13027	102240
37.13838	104783
37.14650	95984
37.15463	97575
37.16275	93427
37.17088	95550
37.17900	87310
37.18712	94008
37.19525	92791
37.20337	91788
37.21150	90611
37.21962	93947
37.22773	97412
37.23587	94897
37.24398	92099
37.25210	90214
37.26023	95854
37.26835	93663
37.27648	89169
37.28460	91879
37.29272	88877
37.30085	90909
37.30897	88250
37.31710	89873
37.32522	93657
37.33333	97224
37.34147	89614
37.34958	96039
37.35772	91941
37.36583	99963
37.37395	90725
37.38208	104896
37.39020	98459
37.39832	104650
37.40645	103600
37.41457	107683
37.42270	109300
37.43082	109683
37.43893	102706
37.44707	109849
37.45518	104022
37.46332	108081
37.47143	110096
37.47955	103620
37.48768	102590
