Z:\data\JTB-E02\BACandBLUE\JTB-E02-191-12.D Wed Dec 12 14:34:54 2018
Start of data points
2.09515	78436
2.10328	80786
2.11140	77255
2.11952	74005
2.12765	82643
2.13577	73676
2.14390	75194
2.15202	74590
2.16013	74522
2.16827	68775
2.17638	71544
2.18452	72065
2.19263	71245
2.20075	71267
2.20888	68893
2.21700	74051
2.22512	68242
2.23325	67540
2.24137	70438
2.24950	66956
2.25762	72477
2.26573	209872
2.27387	673839
2.28198	1094809
2.29012	1096882
2.29823	608904
2.30635	392625
2.31448	307612
2.32260	258435
2.33073	233880
2.33885	211401
2.34697	197112
2.35510	188874
2.36322	179806
2.37133	171525
2.37947	167048
2.38758	165731
2.39572	161228
2.40383	166057
2.41195	161372
2.42008	162711
2.42820	162418
2.43633	155529
2.44445	157490
2.45257	152641
2.46070	147049
2.46882	147328
2.47695	148879
2.48507	147415
2.49318	143079
2.50132	154096
2.50943	145442
2.51755	138821
2.52568	137464
2.53380	140909
2.54193	136857
2.55005	136657
2.55817	142452
2.56630	148311
2.57442	139265
2.58255	123867
2.59067	128253
2.59878	141125
2.60692	253373
2.61503	468326
2.62315	522529
2.63128	356057
2.63940	248377
2.64753	196829
2.65565	175918
2.66377	152214
2.67190	149815
2.68002	144311
2.68815	130788
2.69627	131077
2.70438	125752
2.71252	126885
2.72063	121577
2.72877	120015
2.73688	114803
2.74500	117869
2.75313	114021
2.76125	105587
2.76937	129204
2.77750	313106
2.78562	759730
2.79375	1093747
2.80187	865709
2.80998	517063
2.81812	396078
2.82623	369138
2.83437	314631
2.84248	235989
2.85060	216735
2.85873	191165
2.86685	176989
2.87498	166195
2.88310	151242
2.89122	144847
2.89935	139994
2.90747	137999
2.91558	128244
2.92372	125721
2.93183	123886
2.93997	119043
2.94808	120223
2.95620	120302
2.96433	139277
2.97245	134951
2.98058	135437
2.98870	123377
2.99682	119235
3.00495	123720
3.01307	121351
3.02118	116626
3.02932	117096
3.03743	116599
3.04557	109053
3.05368	100523
3.06180	106034
3.06993	103542
3.07805	140459
3.08618	342747
3.09430	928061
3.10242	2280041
3.11055	4471803
3.11867	5934332
3.12680	4887274
3.13492	3052234
3.14303	2039737
3.15117	1501931
3.15928	1180069
3.16740	1003604
3.17553	942701
3.18365	1281667
3.19178	2550358
3.19990	4308697
3.20802	4498617
3.21615	3279632
3.22427	2248316
3.23240	1714253
3.24052	1386100
3.24863	1145537
3.25677	976086
3.26488	829711
3.27302	727839
3.28113	662447
3.28925	766599
3.29738	1499858
3.30550	3468506
3.31362	5757620
3.32175	6415639
3.32987	5042884
3.33800	3344627
3.34612	2280917
3.35423	1690138
3.36237	1347014
3.37048	1109226
3.37862	962760
3.38673	860774
3.39485	755984
3.40298	704717
3.41110	637139
3.41922	585883
3.42735	558673
3.43547	550492
3.44360	533374
3.45172	509958
3.45983	497179
3.46797	608344
3.47608	751891
3.48422	800783
3.49233	665591
3.50045	535310
3.50858	446021
3.51670	408797
3.52483	391951
3.53295	395651
3.54107	416425
3.54920	438351
3.55732	412358
3.56543	369887
3.57357	334821
3.58168	314035
3.58982	298782
3.59793	298793
3.60605	281404
3.61418	280400
3.62230	276236
3.63043	281314
3.63855	280371
3.64667	282278
3.65480	377492
3.66292	1653187
3.67103	8274464
3.67917	2.157811E+07
3.68728	3.229234E+07
3.69542	3.239322E+07
3.70353	2.35178E+07
3.71165	1.586026E+07
3.71978	1.166758E+07
3.72790	9351811
3.73603	7719051
3.74415	6625125
3.75227	5666246
3.76040	4948161
3.76852	4385638
3.77665	3878829
3.78477	3474688
3.79288	3202253
3.80102	2983202
3.80913	2987005
3.81725	3173529
3.82538	3371213
3.83350	3172002
3.84163	2724290
3.84975	2390821
3.85787	2167684
3.86600	2000758
3.87412	1848362
3.88225	1721942
3.89037	1614919
3.89848	1561037
3.90662	1474560
3.91473	1454175
3.92287	1641982
3.93098	1973234
3.93910	2164974
3.94723	1999709
3.95535	1754300
3.96347	1727482
3.97160	1826803
3.97972	1784045
3.98785	1540644
3.99597	1335307
4.00408	1403809
4.01222	1795316
4.02033	2264949
4.02847	2303939
4.03658	1842008
4.04470	1403427
4.05283	1132274
4.06095	982704
4.06907	896122
4.07720	822615
4.08532	788106
4.09345	755501
4.10157	727856
4.10968	695051
4.11782	695921
4.12593	660091
4.13407	631816
4.14218	653206
4.15030	655119
4.15843	655783
4.16655	649813
4.17468	651947
4.18280	649124
4.19092	628395
4.19905	628445
4.20717	844124
4.21528	2619560
4.22342	7954749
4.23153	1.686527E+07
4.23967	2.469144E+07
4.24778	3.025697E+07
4.25590	3.407486E+07
4.26403	3.55627E+07
4.27215	3.068528E+07
4.28028	1.795261E+07
4.28840	1.040199E+07
4.29652	7638290
4.30465	6020579
4.31277	5013110
4.32090	4165915
4.32902	3581190
4.33713	3110628
4.34527	2700342
4.35338	2435852
4.36150	2250109
4.36963	2122613
4.37775	2026988
4.38588	1886316
4.39400	1690497
4.40212	1513386
4.41025	1366022
4.41837	1258460
4.42650	1175724
4.43462	1108844
4.44273	1032221
4.45087	954080
4.45898	920352
4.46710	868700
4.47523	833830
4.48335	798696
4.49148	777643
4.49960	748483
4.50772	718892
4.51585	692012
4.52397	670235
4.53210	646404
4.54022	642972
4.54833	637833
4.55647	639746
4.56458	626451
4.57272	598405
4.58083	576202
4.58895	546726
4.59708	531723
4.60520	534255
4.61332	516624
4.62145	530496
4.62957	636762
4.63770	914207
4.64582	1341374
4.65393	1531172
4.66207	1402337
4.67018	1070303
4.67832	843353
4.68643	731319
4.69455	635594
4.70268	574185
4.71080	540845
4.71892	504561
4.72705	477213
4.73517	450234
4.74330	444303
4.75142	433067
4.75953	419666
4.76767	412250
4.77578	396772
4.78392	388476
4.79203	410498
4.80015	480145
4.80828	600118
4.81640	684381
4.82453	658380
4.83265	594561
4.84077	549405
4.84890	597895
4.85702	635096
4.86513	638106
4.87327	588539
4.88138	502618
4.88952	454890
4.89763	427294
4.90575	403548
4.91388	385159
4.92200	382929
4.93013	379439
4.93825	423662
4.94637	719134
4.95450	1524936
4.96262	2979134
4.97075	4419130
4.97887	4881173
4.98698	4168955
4.99512	2987053
5.00323	2057521
5.01135	1492056
5.01948	1152513
5.02760	1079112
5.03573	1243896
5.04385	1601336
5.05197	1845779
5.06010	1774993
5.06822	1457839
5.07635	1190917
5.08447	1023881
5.09258	914866
5.10072	817979
5.10883	756965
5.11695	702023
5.12508	661525
5.13320	629139
5.14133	593608
5.14945	573657
5.15757	651636
5.16570	769340
5.17382	897877
5.18195	940485
5.19007	875337
5.19818	751854
5.20632	750717
5.21443	774075
5.22257	791727
5.23068	741265
5.23880	696707
5.24693	632387
5.25505	592481
5.26317	586307
5.27130	501127
5.27942	422904
5.28755	408396
5.29567	383366
5.30378	381762
5.31192	372006
5.32003	361427
5.32817	354178
5.33628	370414
5.34440	372149
5.35253	391832
5.36065	358583
5.36878	347338
5.37690	332568
5.38502	329979
5.39315	328125
5.40127	342172
5.40938	354207
5.41752	351275
5.42563	334304
5.43377	308715
5.44188	305777
5.45000	321308
5.45813	341004
5.46625	362901
5.47438	358342
5.48250	337161
5.49062	317145
5.49875	287486
5.50687	286527
5.51498	278899
5.52312	284903
5.53123	279936
5.53937	283612
5.54748	282628
5.55560	296774
5.56373	355865
5.57185	465770
5.57998	592812
5.58810	632905
5.59622	564056
5.60435	442710
5.61247	374699
5.62060	324856
5.62872	310294
5.63683	286765
5.64497	280819
5.65308	278438
5.66120	277244
5.66933	264398
5.67745	273812
5.68558	303245
5.69370	353067
5.70182	416471
5.70995	438427
5.71807	428132
5.72620	376438
5.73432	322339
5.74243	286322
5.75057	264121
5.75868	255578
5.76680	253773
5.77493	241088
5.78305	231729
5.79118	234854
5.79930	227352
5.80742	232351
5.81555	227448
5.82367	221479
5.83180	223700
5.83992	224365
5.84803	224611
5.85617	224174
5.86428	216165
5.87242	215684
5.88053	216062
5.88865	216775
5.89678	215381
5.90490	215246
5.91302	199682
5.92115	200633
5.92927	200100
5.93740	213302
5.94552	224661
5.95363	248311
5.96177	319086
5.96988	412464
5.97802	552459
5.98613	726524
5.99425	907867
6.00238	1061599
6.01050	1042246
6.01863	907168
6.02675	704045
6.03487	525325
6.04300	397966
6.05112	318070
6.05923	281730
6.06737	259138
6.07548	235545
6.08362	230680
6.09173	222510
6.09985	214431
6.10798	198534
6.11610	208561
6.12423	240781
6.13235	348984
6.14047	659374
6.14860	1123351
6.15672	1415476
6.16485	1360201
6.17297	1025072
6.18108	734204
6.18922	547480
6.19733	451772
6.20545	407083
6.21358	349304
6.22170	324249
6.22983	315710
6.23795	287239
6.24607	283551
6.25420	292630
6.26232	291330
6.27045	296607
6.27857	295157
6.28668	290375
6.29482	280310
6.30293	267764
6.31105	261366
6.31918	260893
6.32730	265798
6.33543	269079
6.34355	291442
6.35167	303238
6.35980	299714
6.36792	278299
6.37605	258137
6.38417	261406
6.39228	257939
6.40042	248948
6.40853	259730
6.41667	245405
6.42478	247716
6.43290	242388
6.44103	243620
6.44915	246621
6.45727	242580
6.46540	256490
6.47352	256550
6.48165	260301
6.48977	248152
6.49788	255691
6.50602	242572
6.51413	256568
6.52227	261067
6.53038	258830
6.53850	260587
6.54663	262728
6.55475	261198
6.56287	258582
6.57100	294841
6.57912	361501
6.58725	454292
6.59537	488743
6.60348	471215
6.61162	391759
6.61973	330352
6.62787	298210
6.63598	242934
6.64410	214479
6.65223	205587
6.66035	183237
6.66848	190619
6.67660	195036
6.68472	192573
6.69285	182951
6.70097	171856
6.70908	165482
6.71722	163445
6.72533	158026
6.73347	156158
6.74158	160103
6.74970	155064
6.75783	149881
6.76595	151344
6.77408	155199
6.78220	157317
6.79032	150704
6.79845	151812
6.80657	143137
6.81470	137765
6.82282	144603
6.83093	139745
6.83907	137452
6.84718	137873
6.85530	138722
6.86343	150515
6.87155	176601
6.87968	201763
6.88780	201601
6.89592	193999
6.90405	173172
6.91217	149765
6.92030	140957
6.92842	126761
6.93653	114856
6.94467	112592
6.95278	112580
6.96090	105876
6.96903	115829
6.97715	126262
6.98528	137529
6.99340	144482
7.00152	140955
7.00965	137838
7.01777	134799
7.02590	129877
7.03402	130851
7.04213	129416
7.05027	120522
7.05838	109458
7.06652	116065
7.07463	130134
7.08275	140559
7.09088	149042
7.09900	165081
7.10712	156021
7.11525	143140
7.12337	126194
7.13150	115805
7.13962	117534
7.14773	120696
7.15587	137632
7.16398	184683
7.17212	254806
7.18023	469915
7.18835	1216500
7.19648	3160011
7.20460	6303128
7.21273	9428485
7.22085	1.037367E+07
7.22897	8612741
7.23710	5230111
7.24522	2430526
7.25333	933031
7.26147	382271
7.26958	221100
7.27772	180846
7.28583	169643
7.29395	172812
7.30208	164791
7.31020	156232
7.31833	147311
7.32645	163462
7.33457	167709
7.34270	199639
7.35082	237781
7.35893	278816
7.36707	292808
7.37518	280917
7.38332	243574
7.39143	207914
7.39955	167184
7.40768	138280
7.41580	144719
7.42393	135903
7.43205	127880
7.44017	129750
7.44830	124219
7.45642	123694
7.46455	123647
7.47267	125435
7.48078	122762
7.48892	124491
7.49703	115943
7.50515	113681
7.51328	109097
7.52140	108749
7.52953	110203
7.53765	128331
7.54577	171507
7.55390	297259
7.56202	553277
7.57015	969633
7.57827	1527117
7.58638	1970604
7.59452	2144608
7.60263	1974828
7.61075	1551502
7.61888	1101068
7.62700	712915
7.63513	470028
7.64325	325350
7.65137	254607
7.65950	204286
7.66762	170338
7.67575	153746
7.68387	132976
7.69198	131343
7.70012	109209
7.70823	108487
7.71637	115151
7.72448	133325
7.73260	157528
7.74073	177153
7.74885	177828
7.75697	181261
7.76510	176816
7.77322	164851
7.78135	155409
7.78947	152568
7.79758	144890
7.80572	145550
7.81383	149825
7.82197	177274
7.83008	183138
7.83820	194995
7.84633	168038
7.85445	140894
7.86258	119470
7.87070	123307
7.87882	132862
7.88695	124529
7.89507	152216
7.90318	173754
7.91132	198077
7.91943	199169
7.92757	176502
7.93568	177668
7.94380	173390
7.95193	199173
7.96005	211800
7.96818	227258
7.97630	234093
7.98442	206214
7.99255	177528
8.00067	148481
8.00878	116175
8.01692	106496
8.02503	108556
8.03317	100111
8.04128	98218
8.04940	97982
8.05753	93009
8.06565	89918
8.07378	91813
8.08190	94249
8.09002	95157
8.09815	89864
8.10627	89053
8.11440	83545
8.12252	85479
8.13063	92911
8.13877	118444
8.14688	169521
8.15500	242363
8.16313	299385
8.17125	316577
8.17938	265490
8.18750	212288
8.19562	162293
8.20375	130729
8.21187	113080
8.22000	106039
8.22812	95921
8.23623	88026
8.24437	86370
8.25248	88079
8.26062	84535
8.26873	83372
8.27685	82542
8.28498	80350
8.29310	80610
8.30122	79145
8.30935	77150
8.31747	75633
8.32560	80882
8.33372	84970
8.34183	92538
8.34997	88024
8.35808	85006
8.36622	88072
8.37433	81000
8.38245	76811
8.39058	72693
8.39870	73161
8.40682	71386
8.41495	75990
8.42307	66188
8.43120	69123
8.43932	72338
8.44743	69297
8.45557	68043
8.46368	70397
8.47182	65519
8.47993	68058
8.48805	68981
8.49618	68625
8.50430	69956
8.51243	79437
8.52055	109131
8.52867	161574
8.53680	237850
8.54492	285850
8.55303	282236
8.56117	223626
8.56928	150031
8.57742	101454
8.58553	83713
8.59365	78661
8.60178	80382
8.60990	83244
8.61803	92460
8.62615	119225
8.63427	136849
8.64240	158238
8.65052	156150
8.65865	141541
8.66677	117679
8.67488	96723
8.68302	84736
8.69113	76896
8.69925	76337
8.70738	76302
8.71550	70264
8.72363	72782
8.73175	73946
8.73987	69334
8.74800	70827
8.75612	75029
8.76425	82428
8.77237	102910
8.78048	177839
8.78862	360088
8.79673	696863
8.80485	1056495
8.81298	1269037
8.82110	1200344
8.82923	946468
8.83735	675738
8.84547	476629
8.85360	379808
8.86172	323094
8.86985	271530
8.87797	246336
8.88608	218266
8.89422	206502
8.90233	187510
8.91047	180420
8.91858	184421
8.92670	239387
8.93483	312910
8.94295	404733
8.95107	434429
8.95920	392842
8.96732	301694
8.97545	231316
8.98357	196175
8.99168	202978
8.99982	218517
9.00793	215063
9.01607	198736
9.02418	181533
9.03230	151102
9.04043	140912
9.04855	133757
9.05667	131961
9.06480	121735
9.07292	116502
9.08105	121462
9.08917	122355
9.09728	117780
9.10542	132031
9.11353	151920
9.12167	200156
9.12978	222668
9.13790	235467
9.14603	222820
9.15415	186150
9.16228	158812
9.17040	138719
9.17852	134091
9.18665	124104
9.19477	122386
9.20288	114070
9.21102	112359
9.21913	111221
9.22727	121137
9.23538	114553
9.24350	115106
9.25163	116204
9.25975	111691
9.26788	104294
9.27600	106199
9.28412	102116
9.29225	99643
9.30037	91155
9.30850	101931
9.31662	99832
9.32473	101167
9.33287	96537
9.34098	98676
9.34910	95344
9.35723	91676
9.36535	86487
9.37348	85342
9.38160	87694
9.38972	88655
9.39785	90485
9.40597	96958
9.41410	110223
9.42222	128362
9.43033	150024
9.43847	185015
9.44658	220038
9.45470	250831
9.46283	261264
9.47095	241367
9.47908	214788
9.48720	171394
9.49532	137341
9.50345	119012
9.51157	116553
9.51970	115346
9.52782	135095
9.53593	140946
9.54407	146703
9.55218	149499
9.56032	128462
9.56843	122404
9.57655	108729
9.58468	95280
9.59280	86361
9.60092	82251
9.60905	79658
9.61717	81162
9.62530	74840
9.63342	80259
9.64153	71314
9.64967	72371
9.65778	65498
9.66592	66985
9.67403	66262
9.68215	68082
9.69028	70662
9.69840	66956
9.70653	65374
9.71465	70738
9.72277	73618
9.73090	75161
9.73902	77167
9.74713	74175
9.75527	67839
9.76338	65088
9.77152	62774
9.77963	61292
9.78775	58085
9.79588	58630
9.80400	60689
9.81213	56885
9.82025	59758
9.82837	64730
9.83650	63177
9.84462	59872
9.85273	61563
9.86087	64856
9.86898	67169
9.87712	66315
9.88523	61918
9.89335	61132
9.90148	62048
9.90960	60533
9.91773	63450
9.92585	60652
9.93397	61533
9.94210	71441
9.95022	91982
9.95835	118099
9.96647	160005
9.97458	204769
9.98272	239451
9.99083	224204
9.99895	206218
10.00708	170856
10.01520	142437
10.02333	128886
10.03145	132071
10.03957	139118
10.04770	129197
10.05582	120195
10.06395	117702
10.07207	107115
10.08018	99685
10.08832	97914
10.09643	100024
10.10455	94785
10.11268	85022
10.12080	84621
10.12893	83596
10.13705	83809
10.14517	85854
10.15330	85509
10.16142	77773
10.16955	86258
10.17767	81382
10.18578	76781
10.19392	75964
10.20203	72065
10.21017	71339
10.21828	78355
10.22640	72191
10.23453	73936
10.24265	79356
10.25077	88259
10.25890	132596
10.26702	297228
10.27515	790151
10.28327	1939079
10.29138	3943965
10.29952	6617032
10.30763	9534582
10.31577	1.288823E+07
10.32388	1.682647E+07
10.33200	2.250187E+07
10.34013	2.959584E+07
10.34825	3.799828E+07
10.35638	4.502735E+07
10.36450	4.68834E+07
10.37262	3.919892E+07
10.38075	2.268606E+07
10.38887	9692659
10.39698	4358907
10.40512	2748775
10.41323	2019528
10.42137	1507364
10.42948	1183461
10.43760	994478
10.44573	894485
10.45385	824941
10.46198	788412
10.47010	752652
10.47822	687424
10.48635	621032
10.49447	572245
10.50260	517591
10.51072	474903
10.51883	447707
10.52697	402920
10.53508	409009
10.54320	386266
10.55133	370599
10.55945	366833
10.56758	359359
10.57570	365578
10.58382	349530
10.59195	345974
10.60007	325244
10.60820	322621
10.61632	283587
10.62443	277049
10.63257	260205
10.64068	251803
10.64880	250497
10.65693	226605
10.66505	224658
10.67318	219374
10.68130	216978
10.68942	209438
10.69755	209130
10.70567	206772
10.71380	209816
10.72192	214137
10.73003	211990
10.73817	208451
10.74628	209241
10.75442	198801
10.76253	193129
10.77065	193393
10.77878	189235
10.78690	176802
10.79502	169075
10.80315	170715
10.81127	163628
10.81940	167909
10.82752	174043
10.83563	170165
10.84377	166311
10.85188	160318
10.86002	150518
10.86813	144551
10.87625	145111
10.88438	139422
10.89250	137112
10.90062	131746
10.90875	137004
10.91687	135516
10.92500	137999
10.93312	131531
10.94123	127795
10.94937	130383
10.95748	128871
10.96562	127908
10.97373	128391
10.98185	122490
10.98998	120294
10.99810	121972
11.00623	125664
11.01435	123016
11.02247	121671
11.03060	124099
11.03872	126311
11.04683	120844
11.05497	125468
11.06308	118182
11.07122	116945
11.07933	114939
11.08745	129309
11.09558	138156
11.10370	132144
11.11183	137617
11.11995	131935
11.12807	123356
11.13620	116296
11.14432	102612
11.15245	93621
11.16057	95479
11.16868	87554
11.17682	89291
11.18493	89322
11.19305	85490
11.20118	84822
11.20930	86157
11.21743	80695
11.22555	79094
11.23367	73836
11.24180	72045
11.24992	68627
11.25805	64889
11.26617	73660
11.27428	71321
11.28242	69061
11.29053	67035
11.29865	65555
11.30678	74947
11.31490	93529
11.32303	148543
11.33115	278737
11.33927	515374
11.34740	861007
11.35552	1208525
11.36365	1375121
11.37177	1331526
11.37988	1129899
11.38802	864523
11.39613	654498
11.40427	502547
11.41238	420437
11.42050	353562
11.42863	298683
11.43675	251190
11.44487	219447
11.45300	186392
11.46112	163301
11.46925	151965
11.47737	141634
11.48548	139537
11.49362	156131
11.50173	212295
11.50987	264272
11.51798	350009
11.52610	389323
11.53423	395399
11.54235	378701
11.55048	342431
11.55860	300829
11.56672	258002
11.57485	220456
11.58297	200401
11.59108	195457
11.59922	231571
11.60733	328298
11.61547	489410
11.62358	649822
11.63170	728518
11.63983	707066
11.64795	569386
11.65608	422592
11.66420	292401
11.67232	199858
11.68045	152459
11.68857	132013
11.69668	132754
11.70482	124244
11.71293	121419
11.72107	128227
11.72918	127500
11.73730	126173
11.74543	124025
11.75355	122173
11.76168	109157
11.76980	99818
11.77792	90988
11.78605	88651
11.79417	85946
11.80230	81998
11.81042	81520
11.81853	79851
11.82667	80205
11.83478	72947
11.84290	67969
11.85103	68940
11.85915	72462
11.86728	71930
11.87540	69542
11.88352	69078
11.89165	65609
11.89977	62436
11.90790	64052
11.91602	68192
11.92413	74211
11.93227	79327
11.94038	85423
11.94850	83421
11.95663	83889
11.96475	81392
11.97288	68622
11.98100	69903
11.98912	62384
11.99725	61168
12.00537	59444
12.01350	61699
12.02162	59521
12.02973	60719
12.03787	61329
12.04598	57962
12.05412	60963
12.06223	63115
12.07035	64653
12.07848	66227
12.08660	68895
12.09472	71148
12.10285	70186
12.11097	74914
12.11910	91314
12.12722	110063
12.13533	158807
12.14347	212242
12.15158	249705
12.15972	267297
12.16783	246159
12.17595	207465
12.18408	160549
12.19220	134729
12.20033	123394
12.20845	115005
12.21657	111762
12.22470	107798
12.23282	99798
12.24093	97893
12.24907	94969
12.25718	93024
12.26532	95349
12.27343	91653
12.28155	89172
12.28968	90103
12.29780	83358
12.30593	80786
12.31405	78546
12.32217	78173
12.33030	83867
12.33842	76478
12.34653	77837
12.35467	77062
12.36278	80604
12.37092	82335
12.37903	78438
12.38715	76633
12.39528	82098
12.40340	99175
12.41153	136310
12.41965	203621
12.42777	299963
12.43590	363125
12.44402	375879
12.45215	341216
12.46027	262227
12.46838	204639
12.47652	160392
12.48463	130339
12.49275	114579
12.50088	101988
12.50900	95216
12.51713	90271
12.52525	89108
12.53337	94002
12.54150	116894
12.54962	150051
12.55775	208417
12.56587	262372
12.57398	302948
12.58212	293871
12.59023	243336
12.59837	189046
12.60648	145418
12.61460	125051
12.62273	105968
12.63085	92533
12.63897	91602
12.64710	90301
12.65522	85407
12.66335	85655
12.67147	87573
12.67958	83224
12.68772	89891
12.69583	84139
12.70397	80086
12.71208	75181
12.72020	75078
12.72833	77811
12.73645	77566
12.74457	83537
12.75270	87901
12.76082	91133
12.76895	86805
12.77707	95585
12.78518	77671
12.79332	77171
12.80143	66160
12.80957	67528
12.81768	70244
12.82580	64642
12.83393	63584
12.84205	57396
12.85018	53706
12.85830	54649
12.86642	53518
12.87455	51628
12.88267	51161
12.89078	51961
12.89892	63947
12.90703	55470
12.91517	52566
12.92328	48078
12.93140	52965
12.93953	50785
12.94765	54308
12.95578	57125
12.96390	55465
12.97202	57165
12.98015	65431
12.98827	77524
12.99638	80778
13.00452	75473
13.01263	70613
13.02077	65098
13.02888	63821
13.03700	59519
13.04513	50485
13.05325	54276
13.06138	55659
13.06950	57131
13.07762	58746
13.08575	58351
13.09387	64484
13.10200	64788
13.11012	65050
13.11823	60483
13.12637	59715
13.13448	57346
13.14260	56704
13.15073	53755
13.15885	56562
13.16698	53944
13.17510	62693
13.18322	59381
13.19135	63294
13.19947	61138
13.20760	67921
13.21572	70637
13.22383	66437
13.23197	73059
13.24008	75897
13.24822	74245
13.25633	74347
13.26445	79214
13.27258	80228
13.28070	84702
13.28882	78977
13.29695	72306
13.30507	59329
13.31320	63615
13.32132	53075
13.32943	55594
13.33757	56338
13.34568	51863
13.35382	51074
13.36193	52676
13.37005	54346
13.37818	49888
13.38630	47159
13.39442	50537
13.40255	53100
13.41067	53324
13.41880	50537
13.42692	47900
13.43503	45529
13.44317	52411
13.45128	49686
13.45942	50393
13.46753	52812
13.47565	49698
13.48378	55079
13.49190	55516
13.50003	55434
13.50815	54302
13.51627	58426
13.52440	67190
13.53252	72215
13.54063	76540
13.54877	74926
13.55688	67773
13.56502	64593
13.57313	55578
13.58125	59226
13.58938	58009
13.59750	61209
13.60563	79147
13.61375	92689
13.62187	118152
13.63000	137537
13.63812	139915
13.64625	131767
13.65437	109780
13.66248	89214
13.67062	70588
13.67873	59451
13.68685	55156
13.69498	54393
13.70310	55405
13.71123	49549
13.71935	47785
13.72747	44145
13.73560	48794
13.74372	47584
13.75185	52643
13.75997	67923
13.76808	95792
13.77622	140075
13.78433	197402
13.79245	265050
13.80058	369545
13.80870	472297
13.81683	539901
13.82495	584367
13.83307	648411
13.84120	735601
13.84932	826823
13.85745	872870
13.86557	838983
13.87368	726523
13.88182	559492
13.88993	422189
13.89807	299348
13.90618	218862
13.91430	178252
13.92243	147216
13.93055	125934
13.93867	111270
13.94680	98028
13.95492	91535
13.96305	88713
13.97117	83252
13.97928	75428
13.98742	74048
13.99553	74224
14.00367	74657
14.01178	76772
14.01990	85880
14.02803	84360
14.03615	80195
14.04428	77940
14.05240	72860
14.06052	61434
14.06865	65088
14.07677	66073
14.08488	70012
14.09302	70263
14.10113	68838
14.10927	63896
14.11738	63134
14.12550	57251
14.13363	51245
14.14175	57196
14.14988	52988
14.15800	58347
14.16612	62149
14.17425	63777
14.18237	69558
14.19048	68785
14.19862	73958
14.20673	84604
14.21487	113254
14.22298	139056
14.23110	171878
14.23923	193723
14.24735	209943
14.25548	222481
14.26360	225208
14.27172	233444
14.27985	234249
14.28797	206248
14.29610	174692
14.30422	152553
14.31233	128140
14.32047	123316
14.32858	107634
14.33670	102685
14.34483	97804
14.35295	104074
14.36108	102590
14.36920	99032
14.37732	89761
14.38545	90137
14.39357	83843
14.40170	86867
14.40982	105801
14.41793	140747
14.42607	195242
14.43418	244472
14.44230	270156
14.45043	246146
14.45855	213331
14.46668	166545
14.47480	130233
14.48292	114607
14.49105	105710
14.49917	105204
14.50730	102232
14.51542	96541
14.52353	90858
14.53167	86778
14.53978	79033
14.54792	72187
14.55603	80345
14.56415	68515
14.57228	67806
14.58040	65932
14.58852	71455
14.59665	58708
14.60477	59509
14.61290	53190
14.62102	57934
14.62913	58893
14.63727	55331
14.64538	57406
14.65352	50213
14.66163	51726
14.66975	52817
14.67788	49284
14.68600	50068
14.69413	52410
14.70225	51978
14.71037	47387
14.71850	49459
14.72662	49795
14.73473	53253
14.74287	57278
14.75098	57192
14.75912	62540
14.76723	55257
14.77535	61455
14.78348	67230
14.79160	86071
14.79973	165502
14.80785	473500
14.81597	1420337
14.82410	3507726
14.83222	7128558
14.84033	1.20887E+07
14.84847	1.708724E+07
14.85658	2.047149E+07
14.86472	2.034005E+07
14.87283	1.640971E+07
14.88095	1.056784E+07
14.88908	5926227
14.89720	3286063
14.90533	2106677
14.91345	1580779
14.92157	1309570
14.92970	1133413
14.93782	982365
14.94595	893580
14.95407	796536
14.96218	751043
14.97032	683206
14.97843	631636
14.98655	599612
14.99468	568082
15.00280	538076
15.01093	521908
15.01905	480867
15.02717	456125
15.03530	420440
15.04342	406410
15.05155	381229
15.05967	377192
15.06778	350357
15.07592	338468
15.08403	321414
15.09217	308135
15.10028	294703
15.10840	292779
15.11653	281113
15.12465	273234
15.13277	289003
15.14090	315019
15.14902	381083
15.15715	422459
15.16527	455119
15.17338	397680
15.18152	332085
15.18963	247174
15.19777	185558
15.20588	149954
15.21400	122064
15.22213	111299
15.23025	109348
15.23837	102667
15.24650	102869
15.25462	96407
15.26275	86191
15.27087	89940
15.27898	86746
15.28712	80831
15.29523	79796
15.30337	77845
15.31148	81588
15.31960	75720
15.32773	75975
15.33585	74619
15.34398	72752
15.35210	71710
15.36022	72028
15.36835	70577
15.37647	73842
15.38458	84478
15.39272	84822
15.40083	87584
15.40897	81960
15.41708	85833
15.42520	77848
15.43333	78081
15.44145	65439
15.44958	63526
15.45770	71182
15.46582	65952
15.47395	73460
15.48207	84875
15.49018	105193
15.49832	142556
15.50643	196375
15.51457	256015
15.52268	287351
15.53080	296815
15.53893	280501
15.54705	245261
15.55518	196756
15.56330	154533
15.57142	125630
15.57955	104058
15.58767	96788
15.59580	82158
15.60392	78962
15.61203	71848
15.62017	75163
15.62828	73558
15.63640	76560
15.64453	71902
15.65265	75329
15.66078	73829
15.66890	77305
15.67702	75206
15.68515	71058
15.69327	62901
15.70140	62918
15.70952	56620
15.71763	52113
15.72577	55676
15.73388	57033
15.74202	53218
15.75013	61382
15.75825	78347
15.76638	138506
15.77450	301946
15.78262	631105
15.79075	1120865
15.79887	1636806
15.80700	1966064
15.81512	1841564
15.82323	1493803
15.83137	987187
15.83948	609702
15.84762	387367
15.85573	283718
15.86385	222165
15.87198	184170
15.88010	169703
15.88822	157786
15.89635	149047
15.90447	139735
15.91260	127467
15.92072	121574
15.92883	120427
15.93697	111040
15.94508	109756
15.95322	109115
15.96133	106081
15.96945	100786
15.97758	99023
15.98570	91986
15.99383	92886
16.00195	95108
16.01007	95574
16.01820	102831
16.02632	108487
16.03443	124347
16.04257	126901
16.05068	129989
16.05882	131334
16.06693	115214
16.07505	97733
16.08318	86248
16.09130	80545
16.09943	71834
16.10755	71325
16.11567	70745
16.12380	69671
16.13192	76131
16.14005	86284
16.14817	98368
16.15628	106405
16.16442	116495
16.17253	120561
16.18065	115172
16.18878	102669
16.19690	90842
16.20503	86049
16.21315	87735
16.22127	81180
16.22940	91813
16.23752	92669
16.24565	89420
16.25377	92428
16.26188	73253
16.27002	67896
16.27813	65437
16.28625	72746
16.29438	67460
16.30250	76882
16.31063	84557
16.31875	100972
16.32687	96802
16.33500	97100
16.34312	94743
16.35125	87783
16.35937	82567
16.36748	75366
16.37562	75829
16.38373	75556
16.39187	71224
16.39998	71876
16.40810	66898
16.41623	70219
16.42435	66972
16.43247	65884
16.44060	70326
16.44872	97173
16.45685	179172
16.46497	459995
16.47308	1120133
16.48122	2321051
16.48933	3841941
16.49747	5378765
16.50558	5671812
16.51370	4986943
16.52183	3550530
16.52995	2238116
16.53807	1287007
16.54620	772634
16.55432	521001
16.56245	399455
16.57057	349969
16.57868	311675
16.58682	287527
16.59493	262791
16.60307	247985
16.61118	227630
16.61930	206060
16.62743	195330
16.63555	190394
16.64368	174755
16.65180	168177
16.65992	149742
16.66805	145448
16.67617	140582
16.68428	145192
16.69242	137948
16.70053	132329
16.70867	128942
16.71678	112275
16.72490	109633
16.73303	99362
16.74115	95933
16.74928	93443
16.75740	98441
16.76552	119128
16.77365	148647
16.78177	176485
16.78990	187229
16.79802	156459
16.80613	128603
16.81427	109276
16.82238	88683
16.83050	77791
16.83863	68234
16.84675	66936
16.85488	65669
16.86300	68429
16.87112	62829
16.87925	59806
16.88737	63075
16.89550	60076
16.90362	59928
16.91173	57583
16.91987	59389
16.92798	55399
16.93612	54811
16.94423	57890
16.95235	58834
16.96048	59505
16.96860	64086
16.97672	58712
16.98485	60157
16.99297	59120
17.00110	58434
17.00922	61673
17.01733	66691
17.02547	65106
17.03358	64840
17.04172	74518
17.04983	88091
17.05795	110151
17.06608	139427
17.07420	161584
17.08232	160714
17.09045	145730
17.09857	115576
17.10670	96856
17.11482	85254
17.12293	78702
17.13107	79021
17.13918	85573
17.14732	77791
17.15543	79460
17.16355	86585
17.17168	82159
17.17980	77172
17.18793	73325
17.19605	68787
17.20417	62000
17.21230	63601
17.22042	64073
17.22853	56777
17.23667	58391
17.24478	62766
17.25292	60794
17.26103	61690
17.26915	61099
17.27728	60658
17.28540	63681
17.29353	60353
17.30165	58137
17.30977	63268
17.31790	61416
17.32602	72174
17.33413	91788
17.34227	129944
17.35038	174845
17.35852	209259
17.36663	226358
17.37475	220454
17.38288	207346
17.39100	174456
17.39913	165177
17.40725	137280
17.41537	136652
17.42350	130527
17.43162	125449
17.43975	124932
17.44787	127160
17.45598	122191
17.46412	115453
17.47223	110705
17.48035	97776
17.48848	92700
17.49660	90254
17.50473	88614
17.51285	84223
17.52097	81566
17.52910	90386
17.53722	80569
17.54535	80644
17.55347	80331
17.56158	91456
17.56972	127082
17.57783	228761
17.58597	511208
17.59408	1155175
17.60220	2213122
17.61033	3587958
17.61845	4855143
17.62657	5362164
17.63470	5036988
17.64282	4144171
17.65095	2884015
17.65907	1837982
17.66718	1095300
17.67532	668260
17.68343	449713
17.69157	341906
17.69968	274635
17.70780	243423
17.71593	216532
17.72405	197191
17.73217	183289
17.74030	167396
17.74842	151103
17.75655	138993
17.76467	129021
17.77278	120277
17.78092	113383
17.78903	100774
17.79717	95671
17.80528	94124
17.81340	88730
17.82153	87226
17.82965	88025
17.83778	90813
17.84590	94515
17.85402	106678
17.86215	125247
17.87027	156240
17.87838	189945
17.88652	209147
17.89463	202069
17.90277	170621
17.91088	133024
17.91900	109492
17.92713	89683
17.93525	82264
17.94338	74366
17.95150	69565
17.95962	70985
17.96775	68803
17.97587	64643
17.98400	62594
17.99212	60024
18.00023	65139
18.00837	66618
18.01648	69222
18.02460	99959
18.03273	128095
18.04085	191692
18.04898	259480
18.05710	360055
18.06522	495665
18.07335	884765
18.08147	1881987
18.08960	3877866
18.09772	6432793
18.10583	9149663
18.11397	1.068612E+07
18.12208	1.037656E+07
18.13020	8653899
18.13833	6320795
18.14645	4389334
18.15458	3182959
18.16270	2454445
18.17082	2033798
18.17895	1745957
18.18707	1546543
18.19520	1382816
18.20332	1213325
18.21143	1050725
18.21957	962642
18.22768	907212
18.23582	828187
18.24393	737635
18.25205	695777
18.26018	648847
18.26830	613479
18.27642	555465
18.28455	496144
18.29267	408752
18.30080	332689
18.30892	254087
18.31703	188124
18.32517	160352
18.33328	145991
18.34142	129315
18.34953	125561
18.35765	116255
18.36578	111477
18.37390	108256
18.38202	104847
18.39015	102315
18.39827	102296
18.40640	106330
18.41452	107334
18.42263	108671
18.43077	115586
18.43888	131237
18.44702	151046
18.45513	202024
18.46325	304110
18.47138	521899
18.47950	881699
18.48763	1362827
18.49575	1767220
18.50387	1921443
18.51200	1812424
18.52012	1455377
18.52823	1000996
18.53637	644327
18.54448	402243
18.55262	270622
18.56073	196434
18.56885	159218
18.57698	129430
18.58510	120371
18.59323	108325
18.60135	107321
18.60947	103298
18.61760	110832
18.62572	106497
18.63385	106951
18.64197	116134
18.65008	107135
18.65822	102550
18.66633	95376
18.67445	86971
18.68258	81973
18.69070	76033
18.69883	71272
18.70695	66803
18.71507	68301
18.72320	65894
18.73132	64151
18.73945	64126
18.74757	65442
18.75568	60711
18.76382	61148
18.77193	61198
18.78005	59900
18.78818	57974
18.79630	61806
18.80443	65899
18.81255	58160
18.82067	60961
18.82880	61909
18.83692	64797
18.84505	64641
18.85317	59131
18.86128	63147
18.86942	64205
18.87753	65499
18.88567	61022
18.89378	65993
18.90190	63099
18.91003	65890
18.91815	69361
18.92627	71241
18.93440	84503
18.94252	88572
18.95065	107084
18.95877	116595
18.96688	118372
18.97502	120957
18.98313	116305
18.99127	123232
18.99938	109547
19.00750	100541
19.01563	81099
19.02375	73047
19.03188	77996
19.04000	68595
19.04812	71437
19.05625	63938
19.06437	61984
19.07248	61649
19.08062	61409
19.08873	73688
19.09687	76879
19.10498	99997
19.11310	134588
19.12123	160000
19.12935	167034
19.13748	156316
19.14560	129394
19.15372	111491
19.16185	88910
19.16997	76593
19.17808	67773
19.18622	68175
19.19433	63673
19.20247	59852
19.21058	59056
19.21870	57876
19.22683	58844
19.23495	53666
19.24308	64847
19.25120	66255
19.25932	63239
19.26745	63184
19.27557	67638
19.28370	68376
19.29182	70224
19.29993	83691
19.30807	90559
19.31618	100308
19.32430	99603
19.33243	99896
19.34055	104289
19.34868	122744
19.35680	161865
19.36492	220340
19.37305	298885
19.38117	421635
19.38930	506017
19.39742	573544
19.40553	542703
19.41367	474591
19.42178	387329
19.42992	318196
19.43803	280519
19.44615	257516
19.45428	241372
19.46240	243280
19.47052	237543
19.47865	238255
19.48677	234147
19.49490	238581
19.50302	232106
19.51113	251350
19.51927	265249
19.52738	287540
19.53552	308808
19.54363	324684
19.55175	323862
19.55988	317527
19.56800	295340
19.57612	269783
19.58425	252089
19.59237	237676
19.60050	215392
19.60862	212064
19.61673	196453
19.62487	194757
19.63298	192168
19.64112	192761
19.64923	203554
19.65735	214115
19.66548	259832
19.67360	328349
19.68173	409937
19.68985	490711
19.69797	548560
19.70610	570378
19.71422	567153
19.72233	536479
19.73047	482795
19.73858	444884
19.74672	397055
19.75483	341953
19.76295	311600
19.77108	273965
19.77920	261855
19.78733	258432
19.79545	271269
19.80357	300850
19.81170	332590
19.81982	358058
19.82793	354908
19.83607	343267
19.84418	317138
19.85232	265934
19.86043	250037
19.86855	231359
19.87668	263783
19.88480	336088
19.89293	482486
19.90105	692881
19.90917	952243
19.91730	1148493
19.92542	1164338
19.93355	1020332
19.94167	820790
19.94978	633748
19.95792	491664
19.96603	412879
19.97415	365949
19.98228	338703
19.99040	313327
19.99853	301822
20.00665	289107
20.01477	280131
20.02290	275999
20.03102	270802
20.03915	266868
20.04727	252320
20.05538	251115
20.06352	234033
20.07163	233443
20.07977	239535
20.08788	258439
20.09600	274395
20.10413	302108
20.11225	298026
20.12037	288532
20.12850	267064
20.13662	238762
20.14475	212854
20.15287	213368
20.16098	217206
20.16912	247066
20.17723	306121
20.18537	425076
20.19348	570058
20.20160	673120
20.20973	752607
20.21785	746524
20.22597	711857
20.23410	607481
20.24222	520042
20.25035	445140
20.25847	454635
20.26658	530827
20.27472	712910
20.28283	991455
20.29097	1361638
20.29908	1695938
20.30720	1873779
20.31533	1771884
20.32345	1440166
20.33158	1065051
20.33970	766374
20.34782	560386
20.35595	415049
20.36407	326893
20.37218	285989
20.38032	245953
20.38843	231452
20.39657	205019
20.40468	204714
20.41280	193084
20.42093	188767
20.42905	186342
20.43718	187943
20.44530	193444
20.45342	204538
20.46155	224932
20.46967	226357
20.47780	224102
20.48592	226012
20.49403	206277
20.50217	196473
20.51028	181969
20.51840	174515
20.52653	164010
20.53465	165021
20.54278	172235
20.55090	171667
20.55902	179405
20.56715	184684
20.57527	180534
20.58340	174150
20.59152	171478
20.59963	160309
20.60777	159397
20.61588	148191
20.62400	148639
20.63213	143365
20.64025	145903
20.64838	145479
20.65650	150399
20.66462	159240
20.67275	157845
20.68087	161297
20.68900	153548
20.69712	159462
20.70523	148615
20.71337	141487
20.72148	140697
20.72962	136585
20.73773	132237
20.74585	133001
20.75398	139202
20.76210	148344
20.77022	149622
20.77835	169563
20.78647	185385
20.79460	219071
20.80272	318423
20.81083	492986
20.81897	757921
20.82708	1139205
20.83522	1419921
20.84333	1516142
20.85145	1308814
20.85958	957500
20.86770	640288
20.87582	420824
20.88395	287733
20.89207	225556
20.90020	197962
20.90832	179629
20.91643	172321
20.92457	170553
20.93268	168444
20.94082	174780
20.94893	172426
20.95705	187233
20.96518	185147
20.97330	176859
20.98143	168737
20.98955	159751
20.99767	142512
21.00580	133184
21.01392	135924
21.02203	124721
21.03017	127482
21.03828	133930
21.04642	135188
21.05453	135236
21.06265	135930
21.07078	137381
21.07890	127658
21.08703	128008
21.09515	127696
21.10327	132633
21.11140	124489
21.11952	124435
21.12765	129205
21.13577	127477
21.14388	143946
21.15202	182756
21.16013	232811
21.16825	318281
21.17638	387866
21.18450	439461
21.19263	413339
21.20075	366394
21.20887	308679
21.21700	244608
21.22512	211738
21.23325	179386
21.24137	165858
21.24948	156536
21.25762	151313
21.26573	141434
21.27387	131066
21.28198	125261
21.29010	119224
21.29823	116273
21.30635	114325
21.31447	112875
21.32260	109283
21.33072	106567
21.33885	114200
21.34697	110106
21.35508	107384
21.36322	113216
21.37133	115638
21.37947	116692
21.38758	128708
21.39570	140459
21.40383	175799
21.41195	230987
21.42007	297673
21.42820	355927
21.43632	368626
21.44445	334772
21.45257	296282
21.46068	241166
21.46882	194353
21.47693	175570
21.48507	163767
21.49318	153864
21.50130	141765
21.50943	136216
21.51755	125592
21.52568	121433
21.53380	111482
21.54192	111327
21.55005	107010
21.55817	106708
21.56628	108425
21.57442	110141
21.58253	120586
21.59067	142788
21.59878	162037
21.60690	183240
21.61503	206162
21.62315	206659
21.63128	187980
21.63940	186532
21.64752	196362
21.65565	219866
21.66377	275756
21.67188	315518
21.68002	356150
21.68813	368266
21.69627	356113
21.70438	345582
21.71250	295301
21.72063	254969
21.72875	216597
21.73688	172594
21.74500	153652
21.75312	141299
21.76125	130968
21.76937	126924
21.77750	119171
21.78562	115388
21.79373	115570
21.80187	112314
21.80998	106986
21.81810	118675
21.82623	114914
21.83435	124092
21.84248	139718
21.85060	165054
21.85872	204756
21.86685	231361
21.87497	246166
21.88310	236252
21.89122	220794
21.89933	184316
21.90747	161934
21.91558	159695
21.92372	143206
21.93183	134563
21.93995	132830
21.94808	129260
21.95620	112018
21.96432	106591
21.97245	99338
21.98057	96441
21.98870	93201
21.99682	86966
22.00493	89949
22.01307	86835
22.02118	84463
22.02932	89378
22.03743	97440
22.04555	109318
22.05368	115136
22.06180	115228
22.06992	124451
22.07805	116890
22.08617	104916
22.09430	105522
22.10242	102126
22.11053	99048
22.11867	89795
22.12678	87656
22.13492	88515
22.14303	85352
22.15115	88069
22.15928	83930
22.16740	82478
22.17553	80935
22.18365	78972
22.19177	83555
22.19990	80659
22.20802	82508
22.21613	77763
22.22427	82533
22.23238	83038
22.24052	86249
22.24863	92305
22.25675	92278
22.26488	93797
22.27300	97465
22.28113	100497
22.28925	108167
22.29737	112764
22.30550	120162
22.31362	123779
22.32175	122195
22.32987	119620
22.33798	115634
22.34612	109090
22.35423	107639
22.36235	101022
22.37048	95961
22.37860	103090
22.38673	93228
22.39485	108960
22.40297	141897
22.41110	187645
22.41922	268404
22.42735	384049
22.43547	469971
22.44358	504950
22.45172	481636
22.45983	391526
22.46795	310998
22.47608	236164
22.48420	189722
22.49233	176026
22.50045	182991
22.50857	203201
22.51670	230766
22.52482	238164
22.53295	240931
22.54107	233787
22.54918	204284
22.55732	174412
22.56543	154232
22.57357	135359
22.58168	127834
22.58980	113368
22.59793	106530
22.60605	102145
22.61417	100490
22.62230	96281
22.63042	86959
22.63855	84260
22.64667	86215
22.65478	87690
22.66292	97283
22.67103	102679
22.67917	101817
22.68728	116676
22.69540	121594
22.70353	146591
22.71165	200331
22.71977	260917
22.72790	317878
22.73602	360892
22.74415	370471
22.75227	356472
22.76038	294834
22.76852	242678
22.77663	207184
22.78477	196321
22.79288	230906
22.80100	303332
22.80913	432980
22.81725	555982
22.82538	693062
22.83350	729731
22.84162	697453
22.84975	583025
22.85787	472204
22.86598	356298
22.87412	293410
22.88223	251623
22.89037	241710
22.89848	243418
22.90660	247937
22.91473	258558
22.92285	288917
22.93098	329212
22.93910	391978
22.94722	435095
22.95535	419715
22.96347	388716
22.97160	324151
22.97972	248770
22.98783	185551
22.99597	154301
23.00408	125210
23.01220	118103
23.02033	101718
23.02845	96061
23.03658	90841
23.04470	80140
23.05282	86413
23.06095	83842
23.06907	83246
23.07720	84145
23.08532	95723
23.09343	94156
23.10157	93016
23.10968	95645
23.11780	90343
23.12593	85049
23.13405	84505
23.14218	84034
23.15030	81806
23.15842	79429
23.16655	76777
23.17467	74196
23.18280	74873
23.19092	76339
23.19903	75388
23.20717	67212
23.21528	67135
23.22342	67156
23.23153	73480
23.23965	74212
23.24778	74187
23.25590	79885
23.26402	100436
23.27215	131428
23.28027	144251
23.28840	168658
23.29652	162192
23.30463	155504
23.31277	130979
23.32088	111639
23.32902	99868
23.33713	96178
23.34525	107018
23.35338	135064
23.36150	178094
23.36963	240246
23.37775	292617
23.38587	323686
23.39400	335162
23.40212	319470
23.41023	273825
23.41837	233694
23.42648	197617
23.43462	175202
23.44273	151842
23.45085	148116
23.45898	139788
23.46710	139655
23.47523	128350
23.48335	128794
23.49147	115928
23.49960	112881
23.50772	108482
23.51583	104231
23.52397	105722
23.53208	100920
23.54022	95103
23.54833	92642
23.55645	96694
23.56458	99179
23.57270	107487
23.58083	121289
23.58895	138060
23.59707	161075
23.60520	219483
23.61332	246765
23.62145	267379
23.62957	266283
23.63768	232098
23.64582	193863
23.65393	153836
23.66205	123596
23.67018	117510
23.67830	117387
23.68643	122035
23.69455	121758
23.70267	105579
23.71080	96163
23.71892	92396
23.72705	87312
23.73517	82353
23.74328	80197
23.75142	78676
23.75953	79589
23.76765	81826
23.77578	126412
23.78390	218302
23.79203	390160
23.80015	649329
23.80827	929116
23.81640	1108736
23.82452	1137377
23.83265	1029616
23.84077	866629
23.84888	671353
23.85702	525375
23.86513	409503
23.87327	329063
23.88138	283319
23.88950	247388
23.89763	235498
23.90575	238919
23.91387	263712
23.92200	311113
23.93012	346861
23.93825	385524
23.94637	389463
23.95448	324282
23.96262	273782
23.97073	220723
23.97887	185883
23.98698	161832
23.99510	141829
24.00323	133940
24.01135	126511
24.01948	124681
24.02760	122428
24.03572	127151
24.04385	138272
24.05197	145340
24.06008	145626
24.06822	141618
24.07633	124986
24.08447	112841
24.09258	103160
24.10070	103281
24.10883	95290
24.11695	97910
24.12508	92847
24.13320	94031
24.14132	97224
24.14945	110061
24.15757	119385
24.16568	140099
24.17382	149965
24.18193	159706
24.19007	157774
24.19818	166617
24.20630	161870
24.21443	157190
24.22255	153824
24.23068	140663
24.23880	135329
24.24692	132142
24.25505	120106
24.26317	113004
24.27130	110482
24.27942	105755
24.28753	100103
24.29567	96631
24.30378	91129
24.31190	94029
24.32003	98005
24.32815	103794
24.33628	104389
24.34440	105841
24.35252	102670
24.36065	103436
24.36877	97286
24.37690	91384
24.38502	84566
24.39313	85522
24.40127	86419
24.40938	83591
24.41752	99523
24.42563	113099
24.43375	124048
24.44188	115165
24.45000	121134
24.45812	104733
24.46625	106799
24.47437	96650
24.48250	93403
24.49062	91003
24.49873	91765
24.50687	89308
24.51498	91105
24.52312	95728
24.53123	101480
24.53935	114374
24.54748	130490
24.55560	145139
24.56372	171263
24.57185	186729
24.57997	200841
24.58810	197615
24.59622	192265
24.60433	178277
24.61247	156573
24.62058	140323
24.62872	132728
24.63683	120517
24.64495	106433
24.65308	95146
24.66120	96732
24.66933	91101
24.67745	90890
24.68557	85988
24.69370	85160
24.70182	92030
24.70993	86366
24.71807	85115
24.72618	78340
24.73432	81131
24.74243	90299
24.75055	90446
24.75868	87081
24.76680	92403
24.77493	92236
24.78305	103921
24.79117	116456
24.79930	134931
24.80742	143637
24.81555	139546
24.82367	140145
24.83178	135349
24.83992	148305
24.84803	192002
24.85615	253948
24.86428	393075
24.87240	591010
24.88053	905610
24.88865	1311229
24.89677	1922641
24.90490	2441603
24.91302	2751052
24.92115	2731460
24.92927	2287312
24.93738	1693262
24.94552	1101431
24.95363	666504
24.96175	391677
24.96988	257039
24.97800	179196
24.98613	139371
24.99425	124655
25.00237	107556
25.01050	102920
25.01862	107360
25.02675	103352
25.03487	102033
25.04298	101913
25.05112	103859
25.05923	106011
25.06737	98562
25.07548	102054
25.08360	101471
25.09173	110270
25.09985	124448
25.10797	175133
25.11610	327016
25.12422	788018
25.13235	1862505
25.14047	3860862
25.14858	6883468
25.15672	1.015842E+07
25.16483	1.261764E+07
25.17297	1.347505E+07
25.18108	1.192104E+07
25.18920	8928833
25.19733	5663831
25.20545	3195795
25.21357	1721216
25.22170	906976
25.22982	517088
25.23795	335078
25.24607	279043
25.25418	285181
25.26232	359522
25.27043	485237
25.27857	612492
25.28668	738144
25.29480	770317
25.30293	716753
25.31105	572131
25.31918	442847
25.32730	317227
25.33542	222925
25.34355	163515
25.35167	135655
25.35978	124027
25.36792	114564
25.37603	99265
25.38417	95069
25.39228	93421
25.40040	85544
25.40853	85246
25.41665	86374
25.42478	82156
25.43290	81972
25.44102	79004
25.44915	78639
25.45727	80808
25.46540	78454
25.47352	76572
25.48163	82445
25.48977	76961
25.49788	74246
25.50600	80095
25.51413	85572
25.52225	81416
25.53038	82421
25.53850	75626
25.54662	76506
25.55475	76155
25.56287	72244
25.57100	69710
25.57912	75504
25.58723	76195
25.59537	72560
25.60348	74845
25.61160	72034
25.61973	72396
25.62785	72691
25.63598	67670
25.64410	67162
25.65222	61474
25.66035	62776
25.66847	61853
25.67660	66242
25.68472	68434
25.69283	72265
25.70097	74583
25.70908	75448
25.71722	80286
25.72533	79288
25.73345	79231
25.74158	78922
25.74970	75196
25.75782	74774
25.76595	75204
25.77407	76876
25.78220	69311
25.79032	64235
25.79843	61171
25.80657	62831
25.81468	67850
25.82282	62783
25.83093	68274
25.83905	64396
25.84718	67195
25.85530	77289
25.86343	92612
25.87155	87224
25.87967	86900
25.88780	71908
25.89592	64370
25.90403	66928
25.91217	63393
25.92028	69496
25.92842	69320
25.93653	69381
25.94465	67666
25.95278	69822
25.96090	75691
25.96903	79010
25.97715	75481
25.98527	76768
25.99340	72096
26.00152	71551
26.00963	66226
26.01777	65038
26.02588	62794
26.03402	61290
26.04213	64579
26.05025	60428
26.05838	61147
26.06650	65391
26.07463	66610
26.08275	69999
26.09087	73137
26.09900	80099
26.10712	83217
26.11525	87923
26.12337	84189
26.13148	86150
26.13962	80862
26.14773	81258
26.15585	79901
26.16398	85025
26.17210	90017
26.18023	91328
26.18835	88088
26.19647	86836
26.20460	82382
26.21272	82372
26.22085	86845
26.22897	84171
26.23708	94702
26.24522	120767
26.25333	169915
26.26145	235243
26.26958	274162
26.27770	295509
26.28583	302086
26.29395	310355
26.30207	306271
26.31020	315889
26.31832	331418
26.32645	320469
26.33457	313781
26.34268	312638
26.35082	317179
26.35893	324988
26.36707	326344
26.37518	352058
26.38330	410242
26.39143	472142
26.39955	557404
26.40767	641782
26.41580	719093
26.42392	721375
26.43205	674749
26.44017	596174
26.44828	516806
26.45642	439477
26.46453	395271
26.47267	373991
26.48078	356563
26.48890	353592
26.49703	345724
26.50515	338216
26.51328	327210
26.52140	320975
26.52952	301285
26.53765	299085
26.54577	287641
26.55388	281768
26.56202	291136
26.57013	277876
26.57827	276382
26.58638	277595
26.59450	274001
26.60263	284928
26.61075	277269
26.61888	277550
26.62700	277858
26.63512	273421
26.64325	266072
26.65137	267415
26.65948	277051
26.66762	262152
26.67573	274408
26.68387	265961
26.69198	266267
26.70010	253426
26.70823	257597
26.71635	251867
26.72448	256058
26.73260	243158
26.74072	256032
26.74885	252040
26.75697	250691
26.76510	238187
26.77322	247446
26.78133	249317
26.78947	244821
26.79758	247418
26.80570	241976
26.81383	250354
26.82195	249698
26.83008	253433
26.83820	245653
26.84632	245343
26.85445	235661
26.86257	233173
26.87070	231462
26.87882	234117
26.88693	231955
26.89507	222913
26.90318	222919
26.91132	232356
26.91943	221837
26.92755	217620
26.93568	216857
26.94380	213045
26.95192	226748
26.96005	212793
26.96817	219180
26.97630	219875
26.98442	238065
26.99253	256935
27.00067	274150
27.00878	318092
27.01692	380947
27.02503	449118
27.03315	535874
27.04128	601341
27.04940	630943
27.05752	585499
27.06565	521728
27.07377	462148
27.08190	392067
27.09002	352542
27.09813	317202
27.10627	292520
27.11438	288814
27.12252	290236
27.13063	285681
27.13875	298215
27.14688	287337
27.15500	272841
27.16313	267840
27.17125	258979
27.17937	272136
27.18750	286863
27.19562	317142
27.20373	335015
27.21187	357464
27.21998	353403
27.22812	355006
27.23623	311918
27.24435	285524
27.25248	249252
27.26060	227272
27.26873	229870
27.27685	209461
27.28497	198343
27.29310	191086
27.30122	195653
27.30935	188590
27.31747	187302
27.32558	181392
27.33372	180701
27.34183	180392
27.34995	184307
27.35808	189925
27.36620	190392
27.37433	188625
27.38245	192934
27.39057	191769
27.39870	189346
27.40682	180260
27.41495	180764
27.42307	166703
27.43118	162837
27.43932	165018
27.44743	153170
27.45555	157594
27.46368	161841
27.47180	162086
27.47993	158353
27.48805	158644
27.49617	147747
27.50430	146604
27.51242	155866
27.52055	149465
27.52867	149397
27.53678	143600
27.54492	152428
27.55303	150799
27.56117	144225
27.56928	158033
27.57740	163870
27.58553	176247
27.59365	192251
27.60177	235708
27.60990	267364
27.61802	280996
27.62615	296301
27.63427	265412
27.64238	224866
27.65052	202559
27.65863	168695
27.66677	160198
27.67488	151679
27.68300	143813
27.69113	144308
27.69925	147674
27.70738	147587
27.71550	149427
27.72362	142063
27.73175	129595
27.73987	132322
27.74798	124947
27.75612	126485
27.76423	115422
27.77237	119323
27.78048	132232
27.78860	139733
27.79673	148865
27.80485	160536
27.81298	153116
27.82110	148527
27.82922	146663
27.83735	134817
27.84547	129297
27.85358	121132
27.86172	120114
27.86983	113787
27.87797	107775
27.88608	109473
27.89420	109582
27.90233	112062
27.91045	113155
27.91858	110608
27.92670	108695
27.93482	114737
27.94295	109334
27.95107	102415
27.95920	106293
27.96732	103025
27.97543	97568
27.98357	100456
27.99168	101864
27.99980	97192
28.00793	102995
28.01605	114968
28.02418	116839
28.03230	118642
28.04042	127364
28.04855	146848
28.05667	150906
28.06480	175395
28.07292	174219
28.08103	173269
28.08917	161619
28.09728	135108
28.10540	124885
28.11353	114818
28.12165	104929
28.12978	100284
28.13790	98621
28.14602	98305
28.15415	89360
28.16227	93912
28.17040	92197
28.17852	92076
28.18663	93415
28.19477	98955
28.20288	111852
28.21102	141800
28.21913	177148
28.22725	228175
28.23538	267491
28.24350	288161
28.25162	277297
28.25975	252734
28.26787	219879
28.27600	179118
28.28412	140614
28.29223	111201
28.30037	110084
28.30848	106385
28.31662	117202
28.32473	135451
28.33285	163002
28.34098	175384
28.34910	180089
28.35723	168009
28.36535	160644
28.37347	152068
28.38160	140437
28.38972	140352
28.39783	144022
28.40597	149000
28.41408	153109
28.42222	157547
28.43033	155290
28.43845	159189
28.44658	147223
28.45470	127570
28.46283	119989
28.47095	116600
28.47907	111211
28.48720	103910
28.49532	101231
28.50343	116717
28.51157	114450
28.51968	118547
28.52782	114658
28.53593	112878
28.54405	110887
28.55218	109824
28.56030	100536
28.56843	88400
28.57655	90562
28.58467	88368
28.59280	88659
28.60092	81194
28.60905	76394
28.61717	84289
28.62528	87646
28.63342	90175
28.64153	96876
28.64965	96077
28.65778	106870
28.66590	99847
28.67403	104979
28.68215	100258
28.69027	94255
28.69840	86428
28.70652	90633
28.71465	82550
28.72277	83038
28.73088	78618
28.73902	77304
28.74713	73803
28.75527	72385
28.76338	69594
28.77150	71425
28.77963	81154
28.78775	81280
28.79587	89023
28.80400	99007
28.81212	111992
28.82025	126415
28.82837	134063
28.83648	139595
28.84462	137744
28.85273	123036
28.86087	112255
28.86898	106098
28.87710	105862
28.88523	110923
28.89335	126285
28.90147	151655
28.90960	183034
28.91772	203907
28.92585	205611
28.93397	185431
28.94208	158895
28.95022	132346
28.95833	111624
28.96647	105480
28.97458	99045
28.98270	93023
28.99083	86614
28.99895	83442
29.00708	82132
29.01520	80420
29.02332	82226
29.03145	86392
29.03957	84632
29.04768	83196
29.05582	80364
29.06393	83845
29.07207	84003
29.08018	81550
29.08830	89507
29.09643	96971
29.10455	97315
29.11268	108004
29.12080	109591
29.12892	102792
29.13705	92784
29.14517	84435
29.15328	83011
29.16142	81247
29.16953	73736
29.17767	75960
29.18578	85851
29.19390	92528
29.20203	120577
29.21015	170801
29.21828	242527
29.22640	314858
29.23452	374464
29.24265	380525
29.25077	353551
29.25890	297412
29.26702	243683
29.27513	200383
29.28327	165412
29.29138	142772
29.29950	117321
29.30763	97003
29.31575	96190
29.32388	83286
29.33200	79984
29.34012	81833
29.34825	84109
29.35637	75830
29.36450	73633
29.37262	73924
29.38073	74154
29.38887	75204
29.39698	80342
29.40512	77660
29.41323	79357
29.42135	82657
29.42948	85845
29.43760	82846
29.44572	84388
29.45385	81515
29.46197	84683
29.47010	83205
29.47822	79257
29.48633	80478
29.49447	79372
29.50258	76383
29.51072	79171
29.51883	78989
29.52695	82953
29.53508	89931
29.54320	86025
29.55132	84934
29.55945	90269
29.56757	79887
29.57570	80795
29.58382	83791
29.59193	79897
29.60007	71326
29.60818	76327
29.61632	68453
29.62443	70526
29.63255	72652
29.64068	78138
29.64880	76426
29.65693	73991
29.66505	71843
29.67317	72277
29.68130	77321
29.68942	83044
29.69753	94913
29.70567	110560
29.71378	114897
29.72192	114819
29.73003	114501
29.73815	108237
29.74628	92191
29.75440	80110
29.76253	83632
29.77065	74982
29.77877	73690
29.78690	74029
29.79502	67230
29.80315	71948
29.81127	69130
29.81938	67716
29.82752	69330
29.83563	62951
29.84375	67894
29.85188	66746
29.86000	72035
29.86813	72607
29.87625	79460
29.88437	85977
29.89250	110130
29.90062	146310
29.90875	197307
29.91687	236334
29.92498	250005
29.93312	230977
29.94123	188943
29.94935	149566
29.95748	114112
29.96560	95464
29.97373	80240
29.98185	73052
29.98997	79067
29.99810	80876
30.00622	86397
30.01435	90979
30.02247	95359
30.03058	98745
30.03872	103991
30.04683	104757
30.05497	107955
30.06308	107558
30.07120	101404
30.07933	107151
30.08745	104506
30.09557	102933
30.10370	98890
30.11182	102060
30.11995	105305
30.12807	97314
30.13618	100218
30.14432	94945
30.15243	93347
30.16057	95525
30.16868	92004
30.17680	89686
30.18493	92597
30.19305	89309
30.20118	87846
30.20930	93402
30.21742	93202
30.22555	91179
30.23367	92313
30.24178	92365
30.24992	82250
30.25803	81020
30.26617	76409
30.27428	76642
30.28240	74815
30.29053	78843
30.29865	77034
30.30678	75516
30.31490	70730
30.32302	71144
30.33115	69520
30.33927	74786
30.34738	73387
30.35552	77300
30.36363	74279
30.37177	77123
30.37988	77871
30.38800	77174
30.39613	73128
30.40425	68873
30.41238	71444
30.42050	65157
30.42862	67554
30.43675	67064
30.44487	69020
30.45300	72729
30.46112	70944
30.46923	63201
30.47737	68339
30.48548	72308
30.49360	70937
30.50173	68941
30.50985	70064
30.51798	73945
30.52610	71562
30.53422	75698
30.54235	69165
30.55047	80673
30.55860	68915
30.56672	73358
30.57483	76834
30.58297	77796
30.59108	74494
30.59920	73112
30.60733	77574
30.61545	67882
30.62358	72190
30.63170	69362
30.63982	76564
30.64795	70571
30.65607	79426
30.66420	72348
30.67232	69406
30.68043	68218
30.68857	65708
30.69668	66395
30.70482	69370
30.71293	66633
30.72105	63098
30.72918	64571
30.73730	70549
30.74542	69067
30.75355	71524
30.76167	66626
30.76980	70745
30.77792	68753
30.78603	80060
30.79417	103639
30.80228	131031
30.81042	206493
30.81853	289160
30.82665	367784
30.83478	382532
30.84290	352641
30.85103	287984
30.85915	214279
30.86727	160365
30.87540	119918
30.88352	94626
30.89163	86237
30.89977	85842
30.90788	87553
30.91602	79862
30.92413	80788
30.93225	73493
30.94038	72899
30.94850	71998
30.95663	72971
30.96475	76885
30.97287	86144
30.98100	83016
30.98912	81369
30.99723	80564
31.00537	80060
31.01348	66005
31.02162	72590
31.02973	73936
31.03785	72219
31.04598	70394
31.05410	67655
31.06223	72341
31.07035	71246
31.07847	68793
31.08660	71220
31.09472	78942
31.10285	82348
31.11097	96669
31.11908	112519
31.12722	123707
31.13533	129480
31.14345	120274
31.15158	112693
31.15970	104692
31.16783	111991
31.17595	109936
31.18407	117031
31.19220	121731
31.20032	133639
31.20845	143123
31.21657	173115
31.22468	216056
31.23282	258083
31.24093	290570
31.24907	300096
31.25718	274615
31.26530	225949
31.27343	170635
31.28155	134076
31.28967	108404
31.29780	86467
31.30592	75783
31.31405	76052
31.32217	85020
31.33028	91041
31.33842	97736
31.34653	99138
31.35467	105486
31.36278	113375
31.37090	112176
31.37903	102755
31.38715	97162
31.39527	82514
31.40340	81055
31.41152	75464
31.41965	74822
31.42777	69778
31.43588	71582
31.44402	69242
31.45213	67723
31.46027	71760
31.46838	65724
31.47650	71959
31.48463	72948
31.49275	73810
31.50088	76692
31.50900	82007
31.51712	84905
31.52525	82013
31.53337	91444
31.54148	86529
31.54962	93855
31.55773	87971
31.56587	83676
31.57398	91505
31.58210	84693
31.59023	88451
31.59835	83624
31.60648	81259
31.61460	74740
31.62272	71812
31.63085	67903
31.63897	72294
31.64708	73019
31.65522	76182
31.66333	84264
31.67147	86692
31.67958	101064
31.68770	117697
31.69583	130364
31.70395	128376
31.71208	116801
31.72020	110519
31.72832	94043
31.73645	90232
31.74457	83328
31.75270	75403
31.76082	75662
31.76893	66467
31.77707	68133
31.78518	69830
31.79330	62825
31.80143	71333
31.80955	72332
31.81768	68280
31.82580	74237
31.83392	70659
31.84205	74603
31.85017	68741
31.85830	67946
31.86642	80948
31.87453	75670
31.88267	74681
31.89078	79629
31.89892	77485
31.90703	79902
31.91515	73508
31.92328	72000
31.93140	72316
31.93952	76317
31.94765	71227
31.95577	76632
31.96390	73739
31.97202	80549
31.98013	88345
31.98827	94002
31.99638	94658
32.00452	100448
32.01263	110523
32.02075	113758
32.02888	118194
32.03700	116608
32.04513	111556
32.05325	107869
32.06137	100232
32.06950	98912
32.07762	88492
32.08573	92174
32.09387	79528
32.10198	81599
32.11012	82059
32.11823	81588
32.12635	82764
32.13448	76268
32.14260	80815
32.15073	82619
32.15885	70303
32.16697	74959
32.17510	70227
32.18322	73478
32.19133	72168
32.19947	66892
32.20758	68799
32.21572	70377
32.22383	70650
32.23195	72427
32.24008	67865
32.24820	71712
32.25633	68188
32.26445	66189
32.27257	72496
32.28070	72427
32.28882	73471
32.29695	74385
32.30507	76197
32.31318	71379
32.32132	72639
32.32943	69845
32.33755	68825
32.34568	67126
32.35380	69570
32.36193	70561
32.37005	70506
32.37817	71977
32.38630	70411
32.39442	66456
32.40255	72767
32.41067	68878
32.41878	68592
32.42692	67509
32.43503	69923
32.44315	65648
32.45128	68920
32.45940	70380
32.46753	65046
32.47565	64094
32.48377	61845
32.49190	63746
32.50002	63567
32.50815	64871
32.51627	69403
32.52438	69543
32.53252	72363
32.54063	71433
32.54877	66713
32.55688	67580
32.56500	66026
32.57313	65926
32.58125	68209
32.58937	66174
32.59750	67843
32.60562	60461
32.61375	68799
32.62187	70424
32.62998	68133
32.63812	66754
32.64623	67998
32.65437	62865
32.66248	64153
32.67060	67911
32.67873	66743
32.68685	68018
32.69498	75925
32.70310	83427
32.71122	72148
32.71935	82297
32.72747	72776
32.73558	77746
32.74372	71077
32.75183	69795
32.75997	71224
32.76808	69463
32.77620	63987
32.78433	64378
32.79245	63929
32.80058	66006
32.80870	67960
32.81682	64029
32.82495	64729
32.83307	72050
32.84118	64166
32.84932	63286
32.85743	66663
32.86557	65126
32.87368	67809
32.88180	68392
32.88993	71829
32.89805	81218
32.90618	92878
32.91430	96517
32.92242	103920
32.93055	105998
32.93867	108190
32.94680	99878
32.95492	91497
32.96303	77938
32.97117	79935
32.97928	83655
32.98740	90427
32.99553	122991
33.00365	162499
33.01178	209275
33.01990	250801
33.02802	288035
33.03615	269634
33.04427	233931
33.05240	190006
33.06052	150838
33.06863	141930
33.07677	136654
33.08488	149945
33.09302	166452
33.10113	169549
33.10925	187097
33.11738	185211
33.12550	190531
33.13362	185056
33.14175	167689
33.14987	159679
33.15800	141830
33.16612	135967
33.17423	133453
33.18237	129471
33.19048	110684
33.19862	102490
33.20673	96875
33.21485	87124
33.22298	83768
33.23110	90525
33.23922	83813
33.24735	89953
33.25547	84667
33.26360	83500
33.27172	82495
33.27983	81391
33.28797	83198
33.29608	75738
33.30422	75211
33.31233	75115
33.32045	75800
33.32858	75347
33.33670	75763
33.34483	73808
33.35295	90136
33.36107	88630
33.36920	96221
33.37732	104785
33.38543	106238
33.39357	109759
33.40168	101879
33.40982	97330
33.41793	88919
33.42605	81372
33.43418	71137
33.44230	72434
33.45043	69836
33.45855	65831
33.46667	73224
33.47480	68767
33.48292	68622
33.49103	66108
33.49917	75740
33.50728	71261
33.51542	74550
33.52353	88400
33.53165	88210
33.53978	95403
33.54790	95889
33.55603	106470
33.56415	118355
33.57227	136445
33.58040	145611
33.58852	142420
33.59665	128741
33.60477	111119
33.61288	89428
33.62102	81777
33.62913	76183
33.63725	71520
33.64538	70269
33.65350	78082
33.66163	86760
33.66975	90424
33.67787	88977
33.68600	94610
33.69412	87338
33.70225	87994
33.71037	76428
33.71848	79182
33.72662	76932
33.73473	76684
33.74287	75746
33.75098	69962
33.75910	68271
33.76723	67848
33.77535	68595
33.78347	79079
33.79160	69415
33.79972	72653
33.80785	65480
33.81597	68906
33.82408	68497
33.83222	71083
33.84033	65135
33.84847	70698
33.85658	75386
33.86470	72149
33.87283	72672
33.88095	72419
33.88907	74201
33.89720	76860
33.90532	85706
33.91345	77593
33.92157	75935
33.92968	76620
33.93782	72854
33.94593	76406
33.95407	68541
33.96218	66767
33.97030	70670
33.97843	66701
33.98655	68887
33.99468	69696
34.00280	65503
34.01092	67519
34.01905	70599
34.02717	63981
34.03528	60788
34.04342	68645
34.05153	67759
34.05967	67664
34.06778	66313
34.07590	70130
34.08403	70547
34.09215	67643
34.10028	67097
34.10840	72448
34.11652	76567
34.12465	69398
34.13277	68514
34.14090	66973
34.14902	66677
34.15713	71019
34.16527	72248
34.17338	70071
34.18150	69045
34.18963	72230
34.19775	72311
34.20588	65956
34.21400	69756
34.22212	69929
34.23025	69249
34.23837	67416
34.24650	66122
34.25462	68519
34.26273	65528
34.27087	65933
34.27898	63575
34.28710	66432
34.29523	64270
34.30335	64951
34.31148	64985
34.31960	66362
34.32772	73229
34.33585	65479
34.34397	65949
34.35210	67321
34.36022	66988
34.36833	66212
34.37647	69455
34.38458	68476
34.39272	68829
34.40083	67664
34.40895	67511
34.41708	70936
34.42520	72037
34.43332	64617
34.44145	68350
34.44957	69279
34.45770	70587
34.46582	69245
34.47393	73785
34.48207	69278
34.49018	69270
34.49832	67484
34.50643	65065
34.51455	65169
34.52268	65515
34.53080	72633
34.53892	69508
34.54705	73910
34.55517	73799
34.56330	80932
34.57142	87509
34.57953	100334
34.58767	101140
34.59578	103294
34.60392	95589
34.61203	92121
34.62015	90898
34.62828	87276
34.63640	85361
34.64453	78455
34.65265	83014
34.66077	80681
34.66890	80195
34.67702	81237
34.68513	81738
34.69327	73966
34.70138	70262
34.70952	71409
34.71763	69854
34.72575	70796
34.73388	68208
34.74200	69117
34.75013	73798
34.75825	69019
34.76637	76736
34.77450	68686
34.78262	74798
34.79075	79884
34.79887	80879
34.80698	86492
34.81512	78637
34.82323	74645
34.83135	72946
34.83948	72346
34.84760	72702
34.85573	74569
34.86385	78138
34.87197	78867
34.88010	79406
34.88822	78680
34.89635	74505
34.90447	69634
34.91258	71310
34.92072	70900
34.92883	76229
34.93695	70385
34.94508	72037
34.95320	70659
34.96133	83108
34.96945	77489
34.97757	88484
34.98570	94833
34.99382	96429
35.00195	96294
35.01007	96813
35.01818	88221
35.02632	81875
35.03443	72429
35.04257	74623
35.05068	77140
35.05880	77120
35.06693	71043
35.07505	75787
35.08317	73601
35.09130	72131
35.09942	70838
35.10755	67762
35.11567	73610
35.12378	73328
35.13192	72170
35.14003	71377
35.14817	71847
35.15628	81848
35.16440	78020
35.17253	79571
35.18065	78724
35.18878	76319
35.19690	83608
35.20502	76935
35.21315	77406
35.22127	79775
35.22938	71307
35.23752	77507
35.24563	75884
35.25377	79168
35.26188	73337
35.27000	79256
35.27813	79098
35.28625	72619
35.29438	74285
35.30250	80306
35.31062	74647
35.31875	75196
35.32687	72588
35.33498	77352
35.34312	71935
35.35123	74648
35.35937	75385
35.36748	68800
35.37560	75871
35.38373	73189
35.39185	76015
35.39998	78053
35.40810	81296
35.41622	83173
35.42435	83729
35.43247	90102
35.44060	82892
35.44872	90727
35.45683	85215
35.46497	83117
35.47308	84009
35.48120	85832
35.48933	84390
35.49745	89371
35.50558	85606
35.51370	83493
35.52182	82205
35.52995	87841
35.53807	87991
35.54620	83955
35.55432	76807
35.56243	83564
35.57057	76027
35.57868	79488
35.58682	71337
35.59493	77253
35.60305	74800
35.61118	74504
35.61930	73145
35.62742	73508
35.63555	71780
35.64367	77412
35.65180	76288
35.65992	74044
35.66803	75964
35.67617	78920
35.68428	75369
35.69242	76039
35.70053	75897
35.70865	75326
35.71678	80007
35.72490	80349
35.73302	87816
35.74115	81166
35.74927	89362
35.75740	90836
35.76552	101431
35.77363	117521
35.78177	131604
35.78988	139258
35.79802	141173
35.80613	138821
35.81425	118040
35.82238	103719
35.83050	91358
35.83863	89775
35.84675	80292
35.85487	87168
35.86300	83101
35.87112	86037
35.87923	82542
35.88737	82344
35.89548	80435
35.90362	83305
35.91173	79704
35.91985	79242
35.92798	82833
35.93610	76071
35.94423	78064
35.95235	80550
35.96047	80150
35.96860	80997
35.97672	81595
35.98483	79923
35.99297	79419
36.00108	80134
36.00922	80815
36.01733	79758
36.02545	77190
36.03358	77249
36.04170	83542
36.04983	83493
36.05795	82993
36.06607	84079
36.07420	89273
36.08232	82905
36.09045	81827
36.09857	82181
36.10668	83424
36.11482	79206
36.12293	83366
36.13105	85401
36.13918	86273
36.14730	92602
36.15543	97968
36.16355	106989
36.17167	103142
36.17980	99911
36.18792	94336
36.19605	95892
36.20417	93354
36.21228	83295
36.22042	82053
36.22853	82745
36.23667	78973
36.24478	81279
36.25290	78784
36.26103	76925
36.26915	79688
36.27727	80882
36.28540	79694
36.29352	79842
36.30165	79786
36.30977	84514
36.31788	81065
36.32602	82665
36.33413	81380
36.34227	86558
36.35038	94326
36.35850	89400
36.36663	90917
36.37475	86034
36.38287	90254
36.39100	86386
36.39912	87868
36.40725	92253
36.41537	93373
36.42348	92042
36.43162	93230
36.43973	93563
36.44787	97207
36.45598	95490
36.46410	87667
36.47223	89981
36.48035	87823
36.48848	80216
36.49660	87038
36.50472	86629
36.51285	85280
36.52097	80770
36.52908	81863
36.53722	80346
36.54533	86328
36.55347	82731
36.56158	84916
36.56970	84980
36.57783	80274
36.58595	81806
36.59408	79652
36.60220	79979
36.61032	83291
36.61845	80721
36.62657	77532
36.63470	85210
36.64282	83202
36.65093	83823
36.65907	83007
36.66718	81444
36.67530	83560
36.68343	76749
36.69155	76345
36.69968	82990
36.70780	84454
36.71592	83602
36.72405	81709
36.73217	83004
36.74030	89262
36.74842	86148
36.75653	87124
36.76467	90352
36.77278	86169
36.78090	86971
36.78903	90583
36.79715	82683
36.80528	89964
36.81340	84259
36.82152	80929
36.82965	77565
36.83777	85883
36.84590	79360
36.85402	82193
36.86213	76607
36.87027	75604
36.87838	80694
36.88652	79087
36.89463	74901
36.90275	80958
36.91088	77474
36.91900	79007
36.92712	80195
36.93525	76140
36.94337	84816
36.95150	92438
36.95962	114751
36.96773	151834
36.97587	193953
36.98398	245738
36.99212	267483
37.00023	274688
37.00835	252985
37.01648	194944
37.02460	156620
37.03272	127541
37.04085	105835
37.04897	97437
37.05710	95996
37.06522	88695
37.07333	90798
37.08147	91299
37.08958	98764
37.09772	104401
37.10583	99624
37.11395	102680
37.12208	104514
37.13020	103465
37.13833	100189
37.14645	95153
37.15457	92362
37.16270	89431
37.17082	91142
37.17893	89004
37.18707	86496
37.19518	86794
37.20332	82115
37.21143	87731
37.21955	90507
37.22768	91277
37.23580	95155
37.24393	96165
37.25205	88803
37.26017	84294
37.26830	90031
37.27642	87582
37.28455	88167
37.29267	87437
37.30078	87019
37.30892	88955
37.31703	88491
37.32515	86118
37.33328	87713
37.34140	91071
37.34953	92263
37.35765	87643
37.36577	92803
37.37390	85646
37.38202	90705
37.39015	99163
37.39827	93118
37.40638	95044
37.41452	104496
37.42263	99922
37.43077	100082
37.43888	100381
37.44700	109336
37.45513	110071
37.46325	104034
37.47137	114135
37.47950	102581
37.48762	99748
