C:\MassHunter\GCMS\1\data\JTB-E02\BACandBLUE\JTB-E18-012-08.D Wed Jun 19 09:11:22 2019
Start of data points
2.09525	70187
2.10337	72602
2.11150	73666
2.11962	67374
2.12773	71314
2.13587	69271
2.14398	67296
2.15210	65517
2.16023	67410
2.16835	67714
2.17648	62692
2.18460	60363
2.19272	57549
2.20085	62252
2.20897	60079
2.21710	61776
2.22522	57753
2.23333	55679
2.24147	55556
2.24958	59447
2.25770	63251
2.26583	127556
2.27395	614100
2.28208	1089826
2.29020	888676
2.29832	467197
2.30645	304547
2.31457	247210
2.32270	221890
2.33082	192978
2.33893	172127
2.34707	167643
2.35518	154449
2.36332	142618
2.37143	139455
2.37955	133444
2.38768	131342
2.39580	120932
2.40392	114339
2.41205	117130
2.42017	113712
2.42830	119686
2.43642	113400
2.44453	119649
2.45267	108882
2.46078	107392
2.46892	108393
2.47703	104280
2.48515	101604
2.49328	107397
2.50140	113624
2.50953	108094
2.51765	104714
2.52577	108267
2.53390	98487
2.54202	100260
2.55013	109038
2.55827	148436
2.56638	220953
2.57452	232949
2.58263	183983
2.59075	154620
2.59888	154140
2.60700	349372
2.61513	970156
2.62325	1283860
2.63137	875621
2.63950	522862
2.64762	357496
2.65573	269493
2.66387	214313
2.67198	190598
2.68012	168956
2.68823	156607
2.69635	143631
2.70448	133220
2.71260	134118
2.72073	123086
2.72885	118030
2.73697	121396
2.74510	113068
2.75322	115572
2.76135	107573
2.76947	110476
2.77758	144532
2.78572	372490
2.79383	693269
2.80195	684950
2.81008	435055
2.81820	327513
2.82633	297166
2.83445	254048
2.84257	217672
2.85070	179520
2.85882	169880
2.86695	152991
2.87507	146065
2.88318	131018
2.89132	128573
2.89943	120063
2.90755	119821
2.91568	116875
2.92380	110765
2.93193	114653
2.94005	108130
2.94817	101892
2.95630	106672
2.96442	112919
2.97255	128379
2.98067	127400
2.98878	120561
2.99692	119013
3.00503	124329
3.01317	116240
3.02128	115612
3.02940	105759
3.03753	101396
3.04565	95177
3.05377	96995
3.06190	93131
3.07002	96554
3.07815	129247
3.08627	603583
3.09438	2615829
3.10252	5086848
3.11063	5911800
3.11877	6000390
3.12688	5122156
3.13500	3505400
3.14313	2431804
3.15125	1839441
3.15938	1440992
3.16750	1169468
3.17562	1000623
3.18375	923429
3.19187	979589
3.19998	1357694
3.20812	1647905
3.21623	1455232
3.22437	1148037
3.23248	924819
3.24060	788026
3.24873	688783
3.25685	605975
3.26498	546671
3.27310	490893
3.28122	451346
3.28935	443650
3.29747	654337
3.30558	1676212
3.31372	3895158
3.32183	5790710
3.32997	5822176
3.33808	4412918
3.34620	3010753
3.35433	2186337
3.36245	1692860
3.37058	1386685
3.37870	1196782
3.38682	1032609
3.39495	922170
3.40307	822926
3.41120	757765
3.41932	709107
3.42743	686154
3.43557	640376
3.44368	627933
3.45180	596467
3.45993	561995
3.46805	566778
3.47618	569336
3.48430	579366
3.49242	546841
3.50055	511528
3.50867	492314
3.51680	441661
3.52492	425045
3.53303	407154
3.54117	383148
3.54928	372103
3.55742	349246
3.56553	319903
3.57365	332728
3.58178	395409
3.58990	461732
3.59802	453116
3.60615	412560
3.61427	390240
3.62240	384058
3.63052	390751
3.63863	406651
3.64677	399946
3.65488	403207
3.66302	419619
3.67113	797334
3.67925	2885729
3.68738	7407462
3.69550	1.067614E+07
3.70362	9463144
3.71175	6631349
3.71987	4861677
3.72800	3858868
3.73612	3211443
3.74423	2793676
3.75237	2456491
3.76048	2212566
3.76862	1998876
3.77673	1805585
3.78485	1678932
3.79298	1539563
3.80110	1480146
3.80923	1459154
3.81735	1746627
3.82547	2252739
3.83360	2562830
3.84172	2291467
3.84983	1879480
3.85797	1602730
3.86608	1443283
3.87422	1294082
3.88233	1175575
3.89045	1102636
3.89858	1016196
3.90670	921054
3.91483	883918
3.92295	843147
3.93107	890940
3.93920	994489
3.94732	1031659
3.95545	1502029
3.96357	3826409
3.97168	9219151
3.97982	1.370753E+07
3.98793	1.334364E+07
3.99605	9068877
4.00418	7040594
4.01230	1.356081E+07
4.02043	2.984962E+07
4.02855	4.350066E+07
4.03667	4.332672E+07
4.04480	2.972814E+07
4.05292	1.491219E+07
4.06105	7860147
4.06917	5104008
4.07728	3777572
4.08542	2977088
4.09353	2526929
4.10165	2164242
4.10978	1919984
4.11790	1741222
4.12603	1588809
4.13415	1450858
4.14227	1380824
4.15040	1350567
4.15852	1305547
4.16665	1298320
4.17477	1217485
4.18288	1143701
4.19102	1076112
4.19913	1009649
4.20727	942583
4.21538	983737
4.22350	1768209
4.23163	4574605
4.23975	9641671
4.24787	1.398592E+07
4.25600	1.463128E+07
4.26412	1.12654E+07
4.27225	7089098
4.28037	4544341
4.28848	3221841
4.29662	2484848
4.30473	2039389
4.31287	1766350
4.32098	1570673
4.32910	1404785
4.33723	1295953
4.34535	1215516
4.35347	1135192
4.36160	1079229
4.36972	1065119
4.37785	1045759
4.38597	1017035
4.39408	956411
4.40222	845650
4.41033	791483
4.41847	739257
4.42658	695494
4.43470	672704
4.44283	634689
4.45095	599828
4.45908	575590
4.46720	553179
4.47532	541993
4.48345	504443
4.49157	513997
4.49968	508547
4.50782	495268
4.51593	498771
4.52407	498499
4.53218	504567
4.54030	500508
4.54843	495448
4.55655	482601
4.56468	486543
4.57280	484018
4.58092	468776
4.58905	442666
4.59717	439130
4.60530	426712
4.61342	417551
4.62153	411412
4.62967	428651
4.63778	483824
4.64590	642331
4.65403	808224
4.66215	856026
4.67028	751513
4.67840	609196
4.68652	548495
4.69465	507076
4.70277	490972
4.71090	462547
4.71902	429875
4.72713	402105
4.73527	393000
4.74338	377099
4.75150	371436
4.75963	371647
4.76775	359854
4.77588	343284
4.78400	352784
4.79212	344066
4.80025	364388
4.80837	428180
4.81650	555936
4.82462	655458
4.83273	651923
4.84087	590717
4.84898	539465
4.85712	531647
4.86523	507749
4.87335	491917
4.88148	476683
4.88960	454762
4.89772	426069
4.90585	390888
4.91397	381639
4.92210	370902
4.93022	368582
4.93833	364967
4.94647	394010
4.95458	563444
4.96272	1079273
4.97083	2054152
4.97895	3087920
4.98708	3519230
4.99520	3173922
5.00333	2434897
5.01145	1787112
5.01957	1350045
5.02770	1078322
5.03582	924911
5.04393	889633
5.05207	867650
5.06018	899203
5.06832	853924
5.07643	797958
5.08455	726019
5.09268	666656
5.10080	601253
5.10893	571975
5.11705	529221
5.12517	496199
5.13330	468454
5.14142	455717
5.14953	445539
5.15767	450991
5.16578	502459
5.17392	564099
5.18203	623808
5.19015	631397
5.19828	603602
5.20640	558939
5.21453	557303
5.22265	571649
5.23077	557323
5.23890	539138
5.24702	493165
5.25515	468650
5.26327	435606
5.27138	415041
5.27952	387612
5.28763	370914
5.29575	366926
5.30388	357111
5.31200	352951
5.32013	349498
5.32825	343210
5.33637	348458
5.34450	361745
5.35262	382190
5.36075	398857
5.36887	379058
5.37698	368340
5.38512	332438
5.39323	351850
5.40135	343275
5.40948	371177
5.41760	365046
5.42573	360270
5.43385	345562
5.44197	324258
5.45010	328202
5.45822	331583
5.46635	332126
5.47447	354456
5.48258	349785
5.49072	316284
5.49883	305716
5.50697	289995
5.51508	276649
5.52320	281987
5.53133	283874
5.53945	289031
5.54757	288754
5.55570	276542
5.56382	297614
5.57195	331402
5.58007	413965
5.58818	518938
5.59632	565712
5.60443	499461
5.61257	424206
5.62068	355539
5.62880	314857
5.63693	303769
5.64505	310105
5.65318	323390
5.66130	330002
5.66942	320014
5.67755	294321
5.68567	293301
5.69378	298385
5.70192	311695
5.71003	332350
5.71817	337913
5.72628	321707
5.73440	306985
5.74253	278415
5.75065	264454
5.75878	274771
5.76690	263416
5.77502	249545
5.78315	245381
5.79127	240232
5.79938	236833
5.80752	249114
5.81563	241286
5.82377	240629
5.83188	233592
5.84000	229745
5.84813	246661
5.85625	244830
5.86438	238165
5.87250	243492
5.88062	236823
5.88875	232461
5.89687	224707
5.90500	228999
5.91312	205190
5.92123	187543
5.92937	185196
5.93748	174818
5.94560	188992
5.95373	187573
5.96185	188077
5.96998	201163
5.97810	224595
5.98622	257199
5.99435	291080
6.00247	332400
6.01060	344590
6.01872	341361
6.02683	303944
6.03497	272788
6.04308	246979
6.05122	227541
6.05933	215230
6.06745	190963
6.07558	190139
6.08370	175638
6.09182	179395
6.09995	176889
6.10807	172040
6.11620	167982
6.12432	171759
6.13243	178925
6.14057	192801
6.14868	267788
6.15682	367592
6.16493	450615
6.17305	448698
6.18118	392999
6.18930	335652
6.19742	294417
6.20555	261700
6.21367	249807
6.22180	234946
6.22992	228233
6.23803	222056
6.24617	229378
6.25428	220405
6.26242	230440
6.27053	231504
6.27865	238846
6.28678	248094
6.29490	231849
6.30303	223072
6.31115	215344
6.31927	209436
6.32740	214793
6.33552	205111
6.34363	234206
6.35177	257481
6.35988	274733
6.36802	277174
6.37613	262062
6.38425	239585
6.39238	227771
6.40050	232736
6.40863	228964
6.41675	220477
6.42487	217407
6.43300	218128
6.44112	211348
6.44923	217793
6.45737	206535
6.46548	206807
6.47362	209130
6.48173	216277
6.48985	206164
6.49798	216429
6.50610	216048
6.51423	215406
6.52235	220669
6.53047	219358
6.53860	221988
6.54672	217455
6.55485	207362
6.56297	223954
6.57108	220091
6.57922	242230
6.58733	292950
6.59545	370908
6.60358	403999
6.61170	374535
6.61983	317850
6.62795	282469
6.63607	252597
6.64420	240020
6.65232	221375
6.66045	238373
6.66857	319853
6.67668	567032
6.68482	931768
6.69293	1239890
6.70107	1241797
6.70918	990192
6.71730	691657
6.72543	480988
6.73355	371626
6.74167	308641
6.74980	278079
6.75792	252846
6.76605	240972
6.77417	221296
6.78228	219161
6.79042	204807
6.79853	186871
6.80667	179348
6.81478	175705
6.82290	167376
6.83103	157820
6.83915	159867
6.84728	162403
6.85540	158115
6.86352	160758
6.87165	170768
6.87977	206604
6.88788	260612
6.89602	268729
6.90413	250751
6.91227	200906
6.92038	156131
6.92850	133596
6.93663	118360
6.94475	112042
6.95288	109072
6.96100	110856
6.96912	114375
6.97725	124191
6.98537	141393
6.99348	150035
7.00162	159595
7.00973	156168
7.01787	140250
7.02598	125502
7.03410	115572
7.04223	107090
7.05035	109737
7.05848	100329
7.06660	102594
7.07472	104267
7.08285	108701
7.09097	114758
7.09910	129802
7.10722	129622
7.11533	123820
7.12347	115364
7.13158	106458
7.13970	96010
7.14783	99770
7.15595	120267
7.16408	173977
7.17220	253545
7.18032	339142
7.18845	409510
7.19657	492405
7.20470	777198
7.21282	1371333
7.22093	2020661
7.22907	2160985
7.23718	1669751
7.24530	1013300
7.25343	551984
7.26155	300183
7.26968	190210
7.27780	149963
7.28592	138632
7.29405	140945
7.30217	133659
7.31030	132650
7.31842	128481
7.32653	122838
7.33467	122024
7.34278	122860
7.35092	124102
7.35903	122409
7.36715	138390
7.37528	131686
7.38340	138870
7.39152	128458
7.39965	122485
7.40777	111401
7.41590	113764
7.42402	119112
7.43213	119320
7.44027	127730
7.44838	133719
7.45652	121212
7.46463	113818
7.47275	115804
7.48088	113097
7.48900	109621
7.49713	105387
7.50525	102719
7.51337	99550
7.52150	101438
7.52962	94667
7.53773	98065
7.54587	102910
7.55398	131026
7.56212	196451
7.57023	324649
7.57835	523867
7.58648	779724
7.59460	963462
7.60273	1002908
7.61085	906521
7.61897	700178
7.62710	484638
7.63522	312488
7.64333	218231
7.65147	164697
7.65958	132107
7.66772	119784
7.67583	106480
7.68395	102851
7.69208	98716
7.70020	87648
7.70833	88709
7.71645	90017
7.72457	89833
7.73270	88689
7.74082	93012
7.74895	104416
7.75707	108409
7.76518	104407
7.77332	97743
7.78143	101256
7.78955	97396
7.79768	101045
7.80580	102451
7.81393	104018
7.82205	109644
7.83017	124339
7.83830	125703
7.84642	116964
7.85455	107375
7.86267	94455
7.87078	93540
7.87892	91562
7.88703	86225
7.89517	102507
7.90328	108616
7.91140	124167
7.91953	125646
7.92765	127321
7.93577	118336
7.94390	115200
7.95202	132435
7.96015	135561
7.96827	147742
7.97638	142224
7.98452	128879
7.99263	112084
8.00077	100187
8.00888	94515
8.01700	86690
8.02513	79759
8.03325	79125
8.04137	77014
8.04950	76536
8.05762	79498
8.06575	76772
8.07387	75373
8.08198	80309
8.09012	80027
8.09823	74468
8.10637	76414
8.11448	77937
8.12260	76007
8.13073	73582
8.13885	76218
8.14698	76228
8.15510	86365
8.16322	98199
8.17135	111685
8.17947	117331
8.18758	105194
8.19572	97467
8.20383	84384
8.21197	79082
8.22008	74565
8.22820	73090
8.23633	72954
8.24445	73840
8.25258	77154
8.26070	75208
8.26882	70835
8.27695	68279
8.28507	72410
8.29318	74643
8.30132	68942
8.30943	68396
8.31757	73860
8.32568	65795
8.33380	72572
8.34193	76830
8.35005	78920
8.35818	81793
8.36630	79952
8.37442	77571
8.38255	77291
8.39067	74715
8.39880	80642
8.40692	77986
8.41503	74716
8.42317	75937
8.43128	73627
8.43940	66290
8.44753	65024
8.45565	63717
8.46378	63172
8.47190	65682
8.48002	65220
8.48815	64941
8.49627	62976
8.50440	62255
8.51252	66247
8.52063	83877
8.52877	120029
8.53688	211401
8.54502	346136
8.55313	448889
8.56125	410019
8.56938	330702
8.57750	209946
8.58562	133682
8.59375	103622
8.60187	91213
8.61000	95210
8.61812	101892
8.62623	108090
8.63437	115634
8.64248	105155
8.65062	92463
8.65873	89934
8.66685	89664
8.67498	78290
8.68310	74877
8.69122	77359
8.69935	71707
8.70747	72577
8.71560	78501
8.72372	72133
8.73183	72265
8.73997	69911
8.74808	71366
8.75622	72324
8.76433	69026
8.77245	81725
8.78058	136788
8.78870	259015
8.79683	456037
8.80495	711585
8.81307	860510
8.82120	849269
8.82932	688072
8.83743	506413
8.84557	363085
8.85368	302962
8.86182	263752
8.86993	226341
8.87805	204658
8.88618	195238
8.89430	190842
8.90243	179046
8.91055	167382
8.91867	165705
8.92680	159067
8.93492	171118
8.94305	180654
8.95117	184461
8.95928	192381
8.96742	183396
8.97553	166783
8.98365	152945
8.99178	146092
8.99990	156551
9.00803	156059
9.01615	160343
9.02427	153503
9.03240	142633
9.04052	134532
9.04865	128831
9.05677	124993
9.06488	117688
9.07302	120410
9.08113	117363
9.08925	112992
9.09738	112920
9.10550	114430
9.11363	122178
9.12175	132363
9.12987	151754
9.13800	166686
9.14612	171550
9.15425	159201
9.16237	154219
9.17048	135543
9.17862	120712
9.18673	119538
9.19487	112653
9.20298	116587
9.21110	111522
9.21923	110520
9.22735	108118
9.23547	101830
9.24360	104942
9.25172	99779
9.25985	102952
9.26797	107678
9.27608	101406
9.28422	102531
9.29233	106163
9.30047	99800
9.30858	97954
9.31670	101901
9.32483	103155
9.33295	97299
9.34108	93192
9.34920	99251
9.35732	93511
9.36545	97828
9.37357	89329
9.38168	96796
9.38982	93362
9.39793	87443
9.40607	84995
9.41418	87871
9.42230	91611
9.43043	95435
9.43855	101410
9.44668	124481
9.45480	141239
9.46292	159481
9.47105	161860
9.47917	158894
9.48728	146893
9.49542	115921
9.50353	102899
9.51167	100037
9.51978	101110
9.52790	108326
9.53603	113052
9.54415	129456
9.55228	129945
9.56040	128563
9.56852	117958
9.57665	103839
9.58477	87896
9.59290	74872
9.60102	76530
9.60913	75369
9.61727	78292
9.62538	80976
9.63350	74090
9.64163	61858
9.64975	57725
9.65788	65013
9.66600	57984
9.67412	61143
9.68225	59566
9.69037	61534
9.69850	59658
9.70662	61089
9.71473	54659
9.72287	58501
9.73098	54559
9.73910	55375
9.74723	57013
9.75535	52811
9.76348	50979
9.77160	54504
9.77972	52185
9.78785	51712
9.79597	52127
9.80410	53097
9.81222	49176
9.82033	51010
9.82847	52702
9.83658	53140
9.84472	55649
9.85283	51685
9.86095	51024
9.86908	52027
9.87720	59768
9.88532	63446
9.89345	56614
9.90157	55683
9.90970	52235
9.91782	54154
9.92593	56375
9.93407	57321
9.94218	73544
9.95032	97217
9.95843	150622
9.96655	195038
9.97468	236286
9.98280	248030
9.99093	214781
9.99905	179298
10.00717	145225
10.01530	128814
10.02342	116533
10.03153	100089
10.03967	95704
10.04778	85682
10.05592	81836
10.06403	84839
10.07215	80856
10.08028	81345
10.08840	76317
10.09653	73605
10.10465	72505
10.11277	70937
10.12090	75701
10.12902	73076
10.13713	71357
10.14527	68127
10.15338	66216
10.16152	62922
10.16963	66270
10.17775	61283
10.18588	56664
10.19400	60567
10.20213	59039
10.21025	58572
10.21837	62742
10.22650	58508
10.23462	59725
10.24275	60637
10.25087	64567
10.25898	74499
10.26712	104445
10.27523	205467
10.28335	466443
10.29148	976156
10.29960	1730559
10.30773	2681212
10.31585	3830152
10.32397	5457001
10.33210	7851246
10.34022	1.057706E+07
10.34835	1.158432E+07
10.35647	1.034267E+07
10.36458	7463226
10.37272	4906749
10.38083	3453803
10.38897	2756970
10.39708	2324259
10.40520	1881028
10.41333	1451205
10.42145	1087960
10.42957	822842
10.43770	638879
10.44582	568906
10.45395	510896
10.46207	467929
10.47018	435041
10.47832	393593
10.48643	375197
10.49457	326069
10.50268	300701
10.51080	285354
10.51893	260084
10.52705	245233
10.53517	245674
10.54330	228369
10.55142	219266
10.55955	212836
10.56767	213654
10.57578	203933
10.58392	192691
10.59203	192283
10.60017	181639
10.60828	173521
10.61640	173388
10.62453	160760
10.63265	152806
10.64078	154403
10.64890	146432
10.65702	142926
10.66515	133792
10.67327	140544
10.68138	134177
10.68952	129707
10.69763	126716
10.70577	129205
10.71388	128746
10.72200	138484
10.73013	130658
10.73825	128135
10.74638	125953
10.75450	118928
10.76262	119956
10.77075	112351
10.77887	113789
10.78698	115023
10.79512	107253
10.80323	106087
10.81137	106437
10.81948	107481
10.82760	108682
10.83573	104802
10.84385	110007
10.85198	108216
10.86010	103487
10.86822	101417
10.87635	94057
10.88447	84815
10.89260	91164
10.90072	85097
10.90883	83803
10.91697	84418
10.92508	83065
10.93320	79902
10.94133	81495
10.94945	80600
10.95758	76385
10.96570	79587
10.97382	72861
10.98195	77410
10.99007	80575
10.99820	85616
11.00632	83382
11.01443	75670
11.02257	80973
11.03068	81192
11.03882	82470
11.04693	78643
11.05505	77290
11.06318	78728
11.07130	76081
11.07942	70985
11.08755	73707
11.09567	76912
11.10380	74216
11.11192	73140
11.12003	76993
11.12817	74281
11.13628	67975
11.14442	66220
11.15253	68181
11.16065	61613
11.16878	67060
11.17690	65942
11.18503	63443
11.19315	68598
11.20127	64722
11.20940	69008
11.21752	65561
11.22563	63613
11.23377	64296
11.24188	57109
11.25002	56931
11.25813	51582
11.26625	53128
11.27438	47963
11.28250	50470
11.29063	46515
11.29875	45047
11.30687	49604
11.31500	56907
11.32312	72487
11.33123	128018
11.33937	210505
11.34748	367943
11.35562	569558
11.36373	737547
11.37185	775051
11.37998	707655
11.38810	546264
11.39623	415745
11.40435	305799
11.41247	245663
11.42060	198437
11.42872	164911
11.43685	127654
11.44497	104137
11.45308	90249
11.46122	80034
11.46933	74362
11.47745	71600
11.48558	76504
11.49370	74165
11.50183	85030
11.50995	104567
11.51807	113985
11.52620	122807
11.53432	119274
11.54245	110269
11.55057	103479
11.55868	93519
11.56682	88354
11.57493	81685
11.58305	76354
11.59118	77663
11.59930	84916
11.60743	88527
11.61555	121990
11.62367	144387
11.63180	158776
11.63992	158214
11.64805	142958
11.65617	123460
11.66428	91899
11.67242	85253
11.68053	76422
11.68867	74294
11.69678	71746
11.70490	71613
11.71303	73040
11.72115	74877
11.72927	77035
11.73740	69609
11.74552	69974
11.75365	72790
11.76177	64800
11.76988	65405
11.77802	60000
11.78613	61153
11.79427	59791
11.80238	59394
11.81050	57338
11.81863	57151
11.82675	55706
11.83488	52539
11.84300	59976
11.85112	58131
11.85925	58166
11.86737	56345
11.87548	57111
11.88362	54990
11.89173	50895
11.89987	49927
11.90798	49967
11.91610	49047
11.92423	53416
11.93235	57244
11.94048	62027
11.94860	61967
11.95672	62832
11.96485	60546
11.97297	55982
11.98108	60594
11.98922	100092
11.99733	173355
12.00547	343650
12.01358	549559
12.02170	743801
12.02983	792027
12.03795	707798
12.04608	508352
12.05420	361399
12.06232	249434
12.07045	194524
12.07857	155157
12.08670	150451
12.09482	141163
12.10293	126129
12.11107	127142
12.11918	126198
12.12730	125384
12.13543	128686
12.14355	141631
12.15168	156831
12.15980	161896
12.16792	162244
12.17605	140152
12.18417	131809
12.19230	115563
12.20042	113839
12.20853	97902
12.21667	97183
12.22478	99675
12.23292	97285
12.24103	83497
12.24915	84594
12.25728	86741
12.26540	77659
12.27352	76262
12.28165	82224
12.28977	78767
12.29790	83436
12.30602	74507
12.31413	76479
12.32227	74217
12.33038	70502
12.33852	71036
12.34663	66964
12.35475	68198
12.36288	69815
12.37100	66479
12.37912	66363
12.38725	74209
12.39537	69078
12.40350	75876
12.41162	88426
12.41973	110263
12.42787	125437
12.43598	148785
12.44412	143530
12.45223	134628
12.46035	115407
12.46848	101010
12.47660	89136
12.48473	84493
12.49285	78257
12.50097	75168
12.50910	71597
12.51722	77485
12.52533	68612
12.53347	68491
12.54158	66700
12.54972	72659
12.55783	86078
12.56595	98831
12.57408	104894
12.58220	110407
12.59033	92499
12.59845	82654
12.60657	76676
12.61470	72296
12.62282	65160
12.63093	70201
12.63907	69092
12.64718	62543
12.65532	64612
12.66343	60843
12.67155	55284
12.67968	53049
12.68780	55659
12.69593	46506
12.70405	52028
12.71217	48895
12.72030	46717
12.72842	48938
12.73655	51542
12.74467	56474
12.75278	61755
12.76092	62668
12.76903	63031
12.77715	56546
12.78528	55076
12.79340	47857
12.80153	44266
12.80965	46011
12.81777	46001
12.82590	45452
12.83402	38749
12.84215	42953
12.85027	40006
12.85838	38893
12.86652	40534
12.87463	40207
12.88277	40061
12.89088	39766
12.89900	37956
12.90713	39785
12.91525	40532
12.92337	40423
12.93150	37321
12.93962	40002
12.94775	44269
12.95587	55065
12.96398	82080
12.97212	150130
12.98023	247763
12.98837	337133
12.99648	384831
13.00460	365258
13.01273	266346
13.02085	188128
13.02897	136474
13.03710	102324
13.04522	85913
13.05335	77415
13.06147	64812
13.06958	64267
13.07772	59021
13.08583	61660
13.09397	54431
13.10208	52072
13.11020	53341
13.11833	53624
13.12645	52453
13.13458	47852
13.14270	52432
13.15082	49820
13.15895	47919
13.16707	47928
13.17518	50090
13.18332	47731
13.19143	50218
13.19957	51014
13.20768	51376
13.21580	49554
13.22393	53036
13.23205	58061
13.24018	52959
13.24830	57622
13.25642	48568
13.26455	50701
13.27267	48968
13.28080	48523
13.28892	49674
13.29703	45604
13.30517	39582
13.31328	48020
13.32140	42585
13.32953	41283
13.33765	41510
13.34578	38179
13.35390	41677
13.36202	42947
13.37015	42310
13.37827	38673
13.38640	40926
13.39452	39328
13.40263	37884
13.41077	36225
13.41888	37420
13.42700	39159
13.43513	35405
13.44325	38167
13.45138	37258
13.45950	38474
13.46762	41691
13.47575	39735
13.48387	39371
13.49200	38361
13.50012	42111
13.50823	40079
13.51637	41952
13.52448	43029
13.53262	42997
13.54073	41082
13.54885	39559
13.55698	40545
13.56510	35583
13.57322	39090
13.58135	43088
13.58947	40790
13.59760	41017
13.60572	46842
13.61383	47857
13.62197	49102
13.63008	52114
13.63822	53298
13.64633	52686
13.65445	44819
13.66258	44253
13.67070	37071
13.67882	37966
13.68695	37057
13.69507	36937
13.70320	35776
13.71132	35622
13.71943	41585
13.72757	38139
13.73568	45773
13.74382	67719
13.75193	147404
13.76005	353596
13.76818	811927
13.77630	1501978
13.78443	2257262
13.79255	2682585
13.80067	2572937
13.80880	2075299
13.81692	1448212
13.82503	969624
13.83317	691928
13.84128	571188
13.84942	563315
13.85753	527169
13.86565	497796
13.87378	437262
13.88190	370550
13.89003	310757
13.89815	269465
13.90627	235434
13.91440	217676
13.92252	194179
13.93065	180026
13.93877	176693
13.94688	170725
13.95502	174328
13.96313	174832
13.97125	197495
13.97938	237769
13.98750	271467
13.99563	296695
14.00375	300857
14.01187	283665
14.02000	233214
14.02812	179822
14.03625	172435
14.04437	153418
14.05248	140653
14.06062	138120
14.06873	138166
14.07685	131310
14.08498	130425
14.09310	126545
14.10123	127346
14.10935	126578
14.11747	122076
14.12560	116971
14.13372	127600
14.14185	128020
14.14997	147033
14.15808	168958
14.16622	195367
14.17433	199029
14.18247	195177
14.19058	194735
14.19870	226438
14.20683	277039
14.21495	342217
14.22307	390540
14.23120	391560
14.23932	347706
14.24745	289201
14.25557	240963
14.26368	222917
14.27182	202273
14.27993	184699
14.28807	167115
14.29618	149410
14.30430	137349
14.31243	121079
14.32055	122974
14.32868	113729
14.33680	105013
14.34492	102007
14.35305	100206
14.36117	95346
14.36928	93706
14.37742	83048
14.38553	74470
14.39367	68223
14.40178	64328
14.40990	68096
14.41803	73072
14.42615	77718
14.43428	75515
14.44240	72629
14.45052	73404
14.45865	68226
14.46677	66128
14.47488	59453
14.48302	63446
14.49113	64990
14.49927	67296
14.50738	68836
14.51550	70579
14.52363	76308
14.53175	81057
14.53988	88868
14.54800	79994
14.55612	73267
14.56425	66684
14.57237	60715
14.58050	56593
14.58862	56727
14.59673	53163
14.60487	49360
14.61298	49125
14.62110	51162
14.62923	50176
14.63735	44243
14.64548	43609
14.65360	41769
14.66172	45638
14.66985	45705
14.67797	42591
14.68610	45124
14.69422	46108
14.70233	51338
14.71047	44655
14.71858	44868
14.72672	47563
14.73483	47900
14.74295	46964
14.75108	54678
14.75920	52422
14.76732	57414
14.77545	54694
14.78357	59031
14.79170	67450
14.79982	107547
14.80793	255999
14.81607	636811
14.82418	1483845
14.83232	2780019
14.84043	3983513
14.84855	4715663
14.85668	4455553
14.86480	3338703
14.87292	2247609
14.88105	1383230
14.88917	885168
14.89730	609880
14.90542	459123
14.91353	369734
14.92167	315731
14.92978	284959
14.93792	248678
14.94603	225116
14.95415	205580
14.96228	193961
14.97040	182824
14.97853	169359
14.98665	157634
14.99477	151583
15.00290	142287
15.01102	136222
15.01913	137152
15.02727	128423
15.03538	113348
15.04352	115818
15.05163	116085
15.05975	106151
15.06788	105886
15.07600	103315
15.08413	97106
15.09225	87222
15.10037	89178
15.10850	87652
15.11662	85903
15.12473	86384
15.13287	87412
15.14098	91150
15.14912	97542
15.15723	102807
15.16535	98815
15.17348	97266
15.18160	85634
15.18973	69303
15.19785	62969
15.20597	61280
15.21410	56637
15.22222	57743
15.23035	53622
15.23847	55202
15.24658	52601
15.25472	56478
15.26283	46691
15.27095	51342
15.27908	46570
15.28720	44812
15.29533	43916
15.30345	46520
15.31157	46519
15.31970	47008
15.32782	42101
15.33595	43961
15.34407	43114
15.35218	42575
15.36032	44922
15.36843	40752
15.37657	42174
15.38468	40975
15.39280	44469
15.40093	43411
15.40905	45996
15.41717	43784
15.42530	42222
15.43342	44542
15.44155	40390
15.44967	42138
15.45778	42352
15.46592	39757
15.47403	41858
15.48217	48042
15.49028	63551
15.49840	76602
15.50653	100434
15.51465	125161
15.52277	136553
15.53090	147838
15.53902	153665
15.54715	142000
15.55527	147150
15.56338	148690
15.57152	137995
15.57963	127913
15.58777	102673
15.59588	79251
15.60400	68423
15.61213	55636
15.62025	51832
15.62838	49445
15.63650	47906
15.64462	45668
15.65275	43736
15.66087	45876
15.66898	44154
15.67712	42747
15.68523	40650
15.69337	39952
15.70148	41826
15.70960	40337
15.71773	38194
15.72585	39682
15.73398	41732
15.74210	42811
15.75022	43891
15.75835	49195
15.76647	66874
15.77460	103138
15.78272	160982
15.79083	230098
15.79897	299210
15.80708	329502
15.81520	285759
15.82333	229481
15.83145	164646
15.83958	123390
15.84770	97070
15.85582	80026
15.86395	73206
15.87207	69648
15.88020	65350
15.88832	62879
15.89643	58472
15.90457	58954
15.91268	63831
15.92080	56594
15.92893	59078
15.93705	54706
15.94518	53662
15.95330	60384
15.96142	74330
15.96955	95361
15.97767	125128
15.98580	152861
15.99392	170798
16.00203	163765
16.01017	136372
16.01828	115100
16.02642	106876
16.03453	93102
16.04265	81288
16.05078	75549
16.05890	75458
16.06702	67878
16.07515	63813
16.08327	64032
16.09140	62045
16.09952	52229
16.10763	54799
16.11577	51631
16.12388	53937
16.13202	55447
16.14013	55395
16.14825	58568
16.15638	56429
16.16450	61982
16.17262	61905
16.18075	53996
16.18887	54706
16.19700	53309
16.20512	47414
16.21323	52610
16.22137	49884
16.22948	50403
16.23762	50346
16.24573	49808
16.25385	46556
16.26198	46465
16.27010	46443
16.27823	47677
16.28635	47523
16.29447	52052
16.30260	50330
16.31072	53833
16.31883	60227
16.32697	53406
16.33508	54819
16.34322	59110
16.35133	62308
16.35945	79151
16.36758	112633
16.37570	159505
16.38383	204544
16.39195	224669
16.40007	220860
16.40820	184569
16.41632	152032
16.42445	115447
16.43257	94692
16.44068	80951
16.44882	81324
16.45693	110688
16.46505	185491
16.47318	334501
16.48130	583510
16.48943	868006
16.49755	998858
16.50567	932081
16.51380	728148
16.52192	509832
16.53005	332358
16.53817	226424
16.54628	170528
16.55442	143683
16.56253	118697
16.57067	108193
16.57878	107489
16.58690	99799
16.59503	98676
16.60315	95259
16.61127	102048
16.61940	109020
16.62752	115007
16.63565	115472
16.64377	105870
16.65188	99382
16.66002	86536
16.66813	76791
16.67627	75107
16.68438	70718
16.69250	61874
16.70063	70696
16.70875	63950
16.71687	60924
16.72500	56864
16.73312	55670
16.74125	57531
16.74937	53123
16.75748	59760
16.76562	57580
16.77373	60223
16.78187	61697
16.78998	64673
16.79810	60779
16.80623	54287
16.81435	48323
16.82248	51207
16.83060	47965
16.83872	49439
16.84685	49640
16.85497	46067
16.86308	48038
16.87122	45470
16.87933	47948
16.88747	42462
16.89558	42875
16.90370	41597
16.91183	44851
16.91995	44209
16.92808	40714
16.93620	38500
16.94432	40838
16.95245	39673
16.96057	42529
16.96868	42721
16.97682	40835
16.98493	43503
16.99307	38075
17.00118	40423
17.00930	42931
17.01743	42170
17.02555	42342
17.03368	43173
17.04180	41705
17.04992	46208
17.05805	46503
17.06617	49385
17.07430	51365
17.08242	49990
17.09053	50786
17.09867	46308
17.10678	48981
17.11490	46814
17.12303	42408
17.13115	46210
17.13928	45157
17.14740	48093
17.15552	49841
17.16365	43583
17.17177	48816
17.17990	44989
17.18802	45873
17.19613	42379
17.20427	40598
17.21238	39647
17.22052	41983
17.22863	42232
17.23675	41553
17.24488	37283
17.25300	38730
17.26112	44877
17.26925	42622
17.27737	38766
17.28550	41663
17.29362	42786
17.30173	42507
17.30987	40252
17.31798	42145
17.32612	52216
17.33423	52350
17.34235	55666
17.35048	64917
17.35860	71986
17.36672	70037
17.37485	71126
17.38297	63721
17.39110	62229
17.39922	57555
17.40733	58106
17.41547	57202
17.42358	50907
17.43172	52891
17.43983	50911
17.44795	55985
17.45608	53790
17.46420	53382
17.47233	47784
17.48045	51204
17.48857	47977
17.49670	47199
17.50482	44831
17.51293	41688
17.52107	46570
17.52918	45590
17.53732	47646
17.54543	46141
17.55355	47192
17.56168	46760
17.56980	63429
17.57793	84456
17.58605	138414
17.59417	224448
17.60230	350758
17.61042	483635
17.61855	611832
17.62667	623531
17.63478	533152
17.64292	400386
17.65103	303461
17.65915	251529
17.66728	235386
17.67540	245569
17.68353	250743
17.69165	237325
17.69977	202473
17.70790	161120
17.71602	137295
17.72415	120439
17.73227	101264
17.74038	86858
17.74852	78058
17.75663	77720
17.76475	75423
17.77288	73317
17.78100	70353
17.78913	75160
17.79725	88307
17.80537	125107
17.81350	216153
17.82162	367628
17.82975	584911
17.83787	776180
17.84598	865694
17.85412	776784
17.86223	626728
17.87037	470193
17.87848	348621
17.88660	265173
17.89473	208401
17.90285	180468
17.91097	145003
17.91910	133293
17.92722	126134
17.93535	112550
17.94347	109033
17.95158	102877
17.95972	95128
17.96783	87920
17.97597	83839
17.98408	82431
17.99220	82014
18.00033	76621
18.00845	75667
18.01657	79542
18.02470	87394
18.03282	98346
18.04095	109811
18.04907	119027
18.05718	124596
18.06532	151339
18.07343	236364
18.08157	436479
18.08968	792008
18.09780	1165940
18.10593	1481306
18.11405	1565800
18.12218	1390243
18.13030	1134567
18.13842	848419
18.14655	664174
18.15467	538939
18.16278	459657
18.17092	386343
18.17903	357945
18.18717	319119
18.19528	286640
18.20340	262547
18.21153	245827
18.21965	215115
18.22778	214843
18.23590	195110
18.24402	183292
18.25215	167798
18.26027	165637
18.26840	152308
18.27652	142689
18.28463	153204
18.29277	178227
18.30088	245861
18.30900	300533
18.31713	336217
18.32525	337474
18.33338	360997
18.34150	365068
18.34962	373231
18.35775	372264
18.36587	381770
18.37400	366340
18.38212	372971
18.39023	362739
18.39837	364688
18.40648	363421
18.41460	365408
18.42273	355342
18.43085	360937
18.43898	363323
18.44710	373290
18.45522	387461
18.46335	393911
18.47147	438995
18.47960	491507
18.48772	529789
18.49583	557082
18.50397	532610
18.51208	497058
18.52022	427360
18.52833	391378
18.53645	353256
18.54458	335926
18.55270	318203
18.56082	307073
18.56895	311464
18.57707	291975
18.58520	298997
18.59332	292065
18.60143	287309
18.60957	296360
18.61768	296418
18.62582	284864
18.63393	285113
18.64205	286364
18.65018	272468
18.65830	275355
18.66643	273644
18.67455	269181
18.68267	252260
18.69080	246460
18.69892	242796
18.70703	236278
18.71517	234261
18.72328	237329
18.73142	231227
18.73953	229377
18.74765	223350
18.75578	224719
18.76390	215995
18.77203	218374
18.78015	214252
18.78827	219246
18.79640	206352
18.80452	206702
18.81263	213766
18.82077	200307
18.82888	210879
18.83702	205896
18.84513	198126
18.85325	202989
18.86138	196362
18.86950	197936
18.87763	197658
18.88575	195180
18.89387	187850
18.90200	190985
18.91012	194617
18.91825	192699
18.92637	187421
18.93448	194262
18.94262	193791
18.95073	196703
18.95885	203953
18.96698	203837
18.97510	201293
18.98323	200389
18.99135	192304
18.99947	181333
19.00760	179961
19.01572	171837
19.02385	171196
19.03197	171608
19.04008	162374
19.04822	158844
19.05633	159521
19.06447	157605
19.07258	157771
19.08070	176988
19.08883	205075
19.09695	240822
19.10507	292926
19.11320	333978
19.12132	356603
19.12945	333914
19.13757	290530
19.14568	259239
19.15382	223636
19.16193	197401
19.17007	184748
19.17818	178477
19.18630	165769
19.19443	162604
19.20255	154208
19.21067	155766
19.21880	152300
19.22692	147886
19.23505	147295
19.24317	138473
19.25128	144214
19.25942	136147
19.26753	136431
19.27567	136983
19.28378	133569
19.29190	127673
19.30003	142365
19.30815	139073
19.31628	141616
19.32440	148952
19.33252	140422
19.34065	135199
19.34877	137014
19.35688	145451
19.36502	161145
19.37313	175387
19.38127	195828
19.38938	195017
19.39750	206014
19.40563	185250
19.41375	165291
19.42188	154052
19.43000	138821
19.43812	127179
19.44625	136797
19.45437	123080
19.46248	120200
19.47062	123435
19.47873	125751
19.48687	130341
19.49498	155532
19.50310	196387
19.51123	241173
19.51935	266675
19.52748	283940
19.53560	261408
19.54372	217852
19.55185	184642
19.55997	152801
19.56810	140090
19.57622	125293
19.58433	116304
19.59247	113846
19.60058	108235
19.60870	104662
19.61683	96974
19.62495	97694
19.63308	104921
19.64120	109900
19.64932	124201
19.65745	157873
19.66557	193845
19.67370	252555
19.68182	296679
19.68993	316434
19.69807	316908
19.70618	297333
19.71432	261672
19.72243	236300
19.73055	203162
19.73868	184585
19.74680	169106
19.75492	151065
19.76305	136594
19.77117	130885
19.77930	126985
19.78742	122342
19.79553	130735
19.80367	137972
19.81178	153666
19.81992	140513
19.82803	139554
19.83615	133105
19.84428	124275
19.85240	123650
19.86052	139208
19.86865	230244
19.87677	475097
19.88490	986778
19.89302	1838562
19.90113	2894306
19.90927	3789150
19.91738	4139560
19.92552	3891616
19.93363	3064446
19.94175	2241896
19.94988	1579576
19.95800	1109135
19.96613	848753
19.97425	729972
19.98237	636502
19.99050	582397
19.99862	535216
20.00673	488786
20.01487	478455
20.02298	449356
20.03112	424623
20.03923	382520
20.04735	348167
20.05548	315817
20.06360	267652
20.07173	228840
20.07985	210282
20.08797	195149
20.09610	182609
20.10422	178102
20.11235	168490
20.12047	159030
20.12858	143271
20.13672	132972
20.14483	124010
20.15295	118940
20.16108	125450
20.16920	133948
20.17733	158910
20.18545	180857
20.19357	204209
20.20170	233652
20.20982	241912
20.21795	236629
20.22607	217607
20.23418	181363
20.24232	166025
20.25043	160229
20.25855	166388
20.26668	201467
20.27480	244154
20.28293	301639
20.29105	340089
20.29917	345813
20.30730	320228
20.31542	291035
20.32355	245268
20.33167	192491
20.33978	167423
20.34792	136641
20.35603	120094
20.36417	110114
20.37228	100349
20.38040	90163
20.38853	86190
20.39665	89996
20.40477	83735
20.41290	78280
20.42102	83523
20.42915	88403
20.43727	94444
20.44538	97048
20.45352	109855
20.46163	115201
20.46977	126592
20.47788	129955
20.48600	127704
20.49413	121617
20.50225	114089
20.51037	100585
20.51850	91887
20.52662	79812
20.53475	83185
20.54287	82964
20.55098	81488
20.55912	75880
20.56723	73826
20.57537	73523
20.58348	75825
20.59160	73320
20.59973	76696
20.60785	67756
20.61598	65664
20.62410	65366
20.63222	67489
20.64035	67348
20.64847	67686
20.65658	70688
20.66472	69896
20.67283	68897
20.68097	66969
20.68908	68293
20.69720	71148
20.70533	62669
20.71345	59567
20.72158	62078
20.72970	65021
20.73782	59427
20.74595	60107
20.75407	65039
20.76220	65540
20.77032	70433
20.77843	65043
20.78657	77503
20.79468	96661
20.80280	123677
20.81093	178935
20.81905	252331
20.82718	306530
20.83530	312430
20.84342	275341
20.85155	220493
20.85967	155238
20.86780	109673
20.87592	89214
20.88403	78752
20.89217	69193
20.90028	66430
20.90842	66327
20.91653	66501
20.92465	68392
20.93278	68688
20.94090	65845
20.94902	68840
20.95715	68270
20.96527	69881
20.97340	67528
20.98152	64596
20.98963	62269
20.99777	63954
21.00588	60528
21.01402	60588
21.02213	59738
21.03025	60384
21.03838	61140
21.04650	62953
21.05462	62745
21.06275	64066
21.07087	64992
21.07900	64698
21.08712	71477
21.09523	71470
21.10337	64536
21.11148	64902
21.11962	60372
21.12773	63235
21.13585	64732
21.14398	71160
21.15210	88887
21.16023	103172
21.16835	115544
21.17647	119785
21.18460	118620
21.19272	110978
21.20083	91433
21.20897	86529
21.21708	74473
21.22522	68967
21.23333	65932
21.24145	63022
21.24958	67015
21.25770	60797
21.26583	59287
21.27395	62785
21.28207	61061
21.29020	57198
21.29832	58924
21.30643	61604
21.31457	54478
21.32268	51491
21.33082	56172
21.33893	54253
21.34705	55734
21.35518	54047
21.36330	56747
21.37143	60510
21.37955	57784
21.38767	63137
21.39580	68115
21.40392	78808
21.41205	90244
21.42017	94131
21.42828	95556
21.43642	90341
21.44453	81014
21.45265	77296
21.46078	70489
21.46890	70356
21.47703	62264
21.48515	70502
21.49327	59333
21.50140	64234
21.50952	57714
21.51765	56175
21.52577	59145
21.53388	57375
21.54202	56273
21.55013	57291
21.55827	55422
21.56638	55212
21.57450	56425
21.58263	62658
21.59075	63703
21.59887	66548
21.60700	69813
21.61512	74685
21.62325	80557
21.63137	80892
21.63948	81169
21.64762	88305
21.65573	96426
21.66387	95259
21.67198	93285
21.68010	92088
21.68823	93694
21.69635	92493
21.70447	86664
21.71260	78547
21.72072	72495
21.72885	68752
21.73697	61767
21.74508	57141
21.75322	56328
21.76133	56783
21.76947	58332
21.77758	62576
21.78570	61098
21.79383	67055
21.80195	65458
21.81008	74388
21.81820	71102
21.82632	74936
21.83445	80897
21.84257	84213
21.85068	84367
21.85882	82084
21.86693	83556
21.87507	75981
21.88318	73030
21.89130	65407
21.89943	59897
21.90755	62059
21.91568	56743
21.92380	59453
21.93192	57648
21.94005	55168
21.94817	51032
21.95630	51832
21.96442	51634
21.97253	50790
21.98067	50322
21.98878	54508
21.99690	44536
22.00503	42556
22.01315	53118
22.02128	50435
22.02940	48805
22.03752	53865
22.04565	59832
22.05377	56294
22.06190	58197
22.07002	48754
22.07813	53926
22.08627	52880
22.09438	49671
22.10250	49537
22.11063	47601
22.11875	48069
22.12688	49760
22.13500	47556
22.14312	49898
22.15125	52453
22.15937	51048
22.16750	53170
22.17562	50960
22.18373	51622
22.19187	46334
22.19998	48805
22.20812	50103
22.21623	46194
22.22435	48530
22.23248	55022
22.24060	53335
22.24872	53569
22.25685	53488
22.26497	50405
22.27310	52605
22.28122	53413
22.28933	55254
22.29747	55916
22.30558	61923
22.31372	64437
22.32183	61032
22.32995	61230
22.33808	60686
22.34620	62576
22.35432	56222
22.36245	57109
22.37057	55672
22.37870	56478
22.38682	59233
22.39493	63453
22.40307	83882
22.41118	100235
22.41932	121636
22.42743	130577
22.43555	139765
22.44368	136872
22.45180	123730
22.45993	99854
22.46805	90542
22.47617	76338
22.48430	69217
22.49242	73950
22.50053	79029
22.50867	85668
22.51678	89703
22.52492	90305
22.53303	87615
22.54115	83662
22.54928	79932
22.55740	70955
22.56553	69791
22.57365	66139
22.58177	63201
22.58990	58103
22.59802	61000
22.60615	61529
22.61427	57724
22.62238	55420
22.63052	51158
22.63863	55305
22.64675	53791
22.65488	54218
22.66300	55288
22.67113	56668
22.67925	55035
22.68737	59195
22.69550	58527
22.70362	60584
22.71175	67719
22.71987	67590
22.72798	68985
22.73612	65703
22.74423	66278
22.75235	64918
22.76048	65940
22.76860	63894
22.77673	56488
22.78485	60124
22.79297	66099
22.80110	68191
22.80922	77660
22.81735	83029
22.82547	90038
22.83358	92378
22.84172	80788
22.84983	72857
22.85797	69350
22.86608	68484
22.87420	68619
22.88233	70572
22.89045	79738
22.89857	82309
22.90670	95812
22.91482	101173
22.92295	122902
22.93107	137033
22.93918	142268
22.94732	140429
22.95543	127204
22.96357	117181
22.97168	100141
22.97980	91844
22.98793	82237
22.99605	79220
23.00418	79828
23.01230	82365
23.02042	74233
23.02855	76087
23.03667	76912
23.04478	74270
23.05292	70257
23.06103	73577
23.06917	77243
23.07728	76220
23.08540	72735
23.09353	74847
23.10165	76469
23.10978	75684
23.11790	73271
23.12602	70744
23.13415	69913
23.14227	70622
23.15038	71875
23.15852	69311
23.16663	69842
23.17477	69089
23.18288	68635
23.19100	65230
23.19913	68285
23.20725	67363
23.21538	65248
23.22350	69497
23.23162	68317
23.23975	65526
23.24787	69066
23.25600	73570
23.26412	80905
23.27223	82393
23.28037	76330
23.28848	78527
23.29660	70520
23.30473	68353
23.31285	69686
23.32098	66588
23.32910	69493
23.33722	78831
23.34535	93492
23.35347	110837
23.36160	158568
23.36972	218693
23.37783	301157
23.38597	406544
23.39408	529661
23.40222	639579
23.41033	721271
23.41845	768524
23.42658	818475
23.43470	842453
23.44282	834584
23.45095	797046
23.45907	774470
23.46720	732989
23.47532	675722
23.48343	616738
23.49157	564236
23.49968	543224
23.50782	490406
23.51593	438068
23.52405	409071
23.53218	381484
23.54030	351662
23.54842	330459
23.55655	312330
23.56467	307581
23.57280	290652
23.58092	295091
23.58903	295777
23.59717	306656
23.60528	310841
23.61342	313241
23.62153	302262
23.62965	278673
23.63778	261217
23.64590	235703
23.65403	218856
23.66215	221501
23.67027	234859
23.67840	223685
23.68652	221225
23.69463	207301
23.70277	186111
23.71088	168669
23.71902	152611
23.72713	144721
23.73525	136345
23.74338	130171
23.75150	154981
23.75963	201105
23.76775	325174
23.77587	580862
23.78400	975828
23.79212	1474477
23.80023	1844397
23.80837	1956201
23.81648	1790905
23.82462	1521590
23.83273	1255934
23.84085	945508
23.84898	743970
23.85710	615881
23.86523	492903
23.87335	434368
23.88147	360437
23.88960	324177
23.89772	304820
23.90585	288860
23.91397	275052
23.92208	255094
23.93022	243447
23.93833	227566
23.94645	210971
23.95458	204573
23.96270	184607
23.97083	173515
23.97895	166025
23.98707	161140
23.99520	158883
24.00332	174908
24.01145	228560
24.01957	364997
24.02768	554077
24.03582	790428
24.04393	929523
24.05207	936903
24.06018	790004
24.06830	570978
24.07643	373104
24.08455	262118
24.09267	194109
24.10080	164823
24.10892	141109
24.11705	133233
24.12517	133173
24.13328	130659
24.14142	124045
24.14953	125028
24.15767	122045
24.16578	126690
24.17390	116221
24.18203	118690
24.19015	123855
24.19827	118789
24.20640	121869
24.21452	114721
24.22265	120001
24.23077	112046
24.23888	111123
24.24702	105282
24.25513	101195
24.26327	91117
24.27138	91713
24.27950	85017
24.28763	83040
24.29575	88859
24.30388	86263
24.31200	89050
24.32012	89614
24.32825	83451
24.33637	86117
24.34448	84804
24.35262	80776
24.36073	82166
24.36887	79316
24.37698	89239
24.38510	105984
24.39323	146308
24.40135	178170
24.40948	200837
24.41760	215926
24.42572	198538
24.43385	191261
24.44197	170722
24.45010	166547
24.45822	171918
24.46633	173662
24.47447	174974
24.48258	184306
24.49070	201087
24.49883	209281
24.50695	214652
24.51508	215050
24.52320	213167
24.53132	207194
24.53945	202532
24.54757	204995
24.55570	198813
24.56382	196885
24.57193	204105
24.58007	188486
24.58818	180891
24.59630	181731
24.60443	166609
24.61255	166962
24.62068	170000
24.62880	160897
24.63692	155927
24.64505	159934
24.65317	158747
24.66130	154565
24.66942	157821
24.67753	151219
24.68567	146742
24.69378	145252
24.70192	142497
24.71003	148711
24.71815	142854
24.72628	132677
24.73440	139631
24.74252	135869
24.75065	133205
24.75877	137221
24.76690	139567
24.77502	135527
24.78313	135261
24.79127	152045
24.79938	145407
24.80752	142875
24.81563	140354
24.82375	141979
24.83188	140880
24.84000	152321
24.84812	176864
24.85625	211010
24.86437	259405
24.87250	331066
24.88062	422779
24.88873	524503
24.89687	619106
24.90498	629044
24.91312	550510
24.92123	465503
24.92935	348507
24.93748	254471
24.94560	204702
24.95373	164590
24.96185	136666
24.96997	137059
24.97810	137900
24.98622	121696
24.99433	126879
25.00247	128924
25.01058	121155
25.01872	120394
25.02683	122532
25.03495	120688
25.04308	118569
25.05120	114944
25.05933	111459
25.06745	118392
25.07557	116102
25.08370	119259
25.09182	126114
25.09995	150544
25.10807	212564
25.11618	387325
25.12432	745896
25.13243	1368128
25.14055	2104834
25.14868	2820773
25.15680	3080063
25.16493	2821014
25.17305	2187200
25.18117	1478721
25.18930	863963
25.19742	508102
25.20555	300918
25.21367	213649
25.22178	173977
25.22992	151598
25.23803	140657
25.24617	159708
25.25428	173296
25.26240	195852
25.27053	221332
25.27865	220360
25.28677	215893
25.29490	195324
25.30302	164854
25.31115	140600
25.31927	120914
25.32738	109128
25.33552	98795
25.34363	98453
25.35177	87976
25.35988	83675
25.36800	80433
25.37613	73082
25.38425	74660
25.39237	71530
25.40050	76349
25.40862	71227
25.41675	69288
25.42487	67501
25.43298	70742
25.44112	71058
25.44923	66571
25.45737	67718
25.46548	66507
25.47360	64780
25.48173	69745
25.48985	68898
25.49798	72076
25.50610	67749
25.51422	69613
25.52235	67449
25.53047	62109
25.53858	62625
25.54672	63943
25.55483	59953
25.56297	61345
25.57108	59450
25.57920	61311
25.58733	63033
25.59545	65700
25.60358	64390
25.61170	63635
25.61982	66025
25.62795	61759
25.63607	61351
25.64418	60596
25.65232	57204
25.66043	58462
25.66857	59334
25.67668	59922
25.68480	69918
25.69293	84012
25.70105	104343
25.70918	115436
25.71730	118693
25.72542	120877
25.73355	134339
25.74167	132482
25.74980	139791
25.75792	130561
25.76603	139281
25.77417	141521
25.78228	140470
25.79040	146283
25.79853	151710
25.80665	150802
25.81478	152786
25.82290	151455
25.83102	157967
25.83915	166542
25.84727	174241
25.85540	183089
25.86352	188956
25.87163	178660
25.87977	167382
25.88788	158279
25.89600	147988
25.90413	145838
25.91225	137670
25.92038	138873
25.92850	135246
25.93662	140180
25.94475	128431
25.95287	128027
25.96100	134338
25.96912	127612
25.97723	126648
25.98537	120805
25.99348	118270
26.00162	115336
26.00973	115155
26.01785	115101
26.02598	116473
26.03410	117896
26.04222	116162
26.05035	110312
26.05847	115087
26.06660	110938
26.07472	113091
26.08283	106467
26.09097	110277
26.09908	107014
26.10722	112140
26.11533	114477
26.12345	111537
26.13158	108450
26.13970	109422
26.14783	110647
26.15595	110826
26.16407	113951
26.17220	105432
26.18032	105285
26.18843	108881
26.19657	101733
26.20468	97542
26.21282	96692
26.22093	95027
26.22905	91662
26.23718	97078
26.24530	93072
26.25343	96687
26.26155	90071
26.26967	94933
26.27780	85508
26.28592	89681
26.29405	82063
26.30217	82857
26.31028	77787
26.31842	76622
26.32653	82918
26.33465	75389
26.34278	76589
26.35090	72583
26.35903	78734
26.36715	80128
26.37527	85852
26.38340	90001
26.39152	100920
26.39965	108584
26.40777	109969
26.41588	111513
26.42402	110391
26.43213	95820
26.44025	99269
26.44838	84352
26.45650	82394
26.46463	77339
26.47275	78145
26.48087	78070
26.48900	79382
26.49712	75239
26.50525	75108
26.51337	69746
26.52148	63344
26.52962	64662
26.53773	66829
26.54587	66060
26.55398	60771
26.56210	61713
26.57023	66089
26.57835	62822
26.58647	65599
26.59460	61914
26.60272	66994
26.61085	63188
26.61897	59275
26.62708	59801
26.63522	61806
26.64333	57127
26.65147	60302
26.65958	62936
26.66770	65509
26.67583	71575
26.68395	69595
26.69207	67748
26.70020	60251
26.70832	56154
26.71645	57787
26.72457	56429
26.73268	57154
26.74082	55739
26.74893	53643
26.75707	54326
26.76518	54295
26.77330	51535
26.78143	54455
26.78955	53357
26.79768	56760
26.80580	62052
26.81392	62194
26.82205	56725
26.83017	58133
26.83828	58765
26.84642	56967
26.85453	57302
26.86267	55889
26.87078	51977
26.87890	58048
26.88703	53239
26.89515	54725
26.90328	48372
26.91140	51251
26.91952	51957
26.92765	50752
26.93577	46212
26.94390	51503
26.95202	52453
26.96013	52312
26.96827	56329
26.97638	64186
26.98450	81892
26.99263	108236
27.00075	151734
27.00888	211968
27.01700	274289
27.02512	341467
27.03325	374806
27.04137	382391
27.04950	358028
27.05762	326238
27.06573	288862
27.07387	247472
27.08198	206211
27.09010	177240
27.09823	152991
27.10635	139637
27.11448	136886
27.12260	126576
27.13072	125651
27.13885	112219
27.14697	111194
27.15510	110716
27.16322	110851
27.17133	107563
27.17947	107467
27.18758	108119
27.19572	107296
27.20383	105371
27.21195	106900
27.22008	98799
27.22820	93537
27.23632	87882
27.24445	88957
27.25257	92635
27.26070	86038
27.26882	81749
27.27693	80599
27.28507	80903
27.29318	73221
27.30132	70529
27.30943	71008
27.31755	71259
27.32568	70882
27.33380	66149
27.34193	65478
27.35005	66895
27.35817	66457
27.36630	66062
27.37442	64508
27.38253	70033
27.39067	64863
27.39878	61103
27.40692	62679
27.41503	62677
27.42315	65180
27.43128	59570
27.43940	57334
27.44753	55474
27.45565	59097
27.46377	59538
27.47190	56529
27.48002	58440
27.48813	59095
27.49627	53963
27.50438	54419
27.51252	61941
27.52063	53841
27.52875	57411
27.53688	58354
27.54500	57099
27.55313	57241
27.56125	54171
27.56937	58044
27.57750	60958
27.58562	68315
27.59375	77401
27.60187	80624
27.60998	85570
27.61812	82365
27.62623	78355
27.63435	65990
27.64248	66683
27.65060	61214
27.65873	58667
27.66685	52809
27.67497	54577
27.68310	53189
27.69122	53039
27.69935	53051
27.70747	51574
27.71558	55496
27.72372	55437
27.73183	52729
27.73995	53219
27.74808	50431
27.75620	47208
27.76433	49131
27.77245	54943
27.78057	51470
27.78870	56774
27.79682	59151
27.80495	50062
27.81307	54272
27.82118	52826
27.82932	54439
27.83743	49482
27.84557	51946
27.85368	55639
27.86180	53327
27.86993	50568
27.87805	48333
27.88617	53925
27.89430	50347
27.90242	48368
27.91055	51588
27.91867	47469
27.92678	45199
27.93492	50412
27.94303	47199
27.95117	47195
27.95928	48761
27.96740	45146
27.97553	41591
27.98365	45946
27.99178	46769
27.99990	44118
28.00802	52354
28.01615	52278
28.02427	55706
28.03238	55790
28.04052	55193
28.04863	57097
28.05677	62869
28.06488	62800
28.07300	64884
28.08113	60558
28.08925	60937
28.09738	56376
28.10550	57889
28.11362	59633
28.12175	49910
28.12987	57685
28.13798	50484
28.14612	43970
28.15423	48937
28.16237	48983
28.17048	49002
28.17860	49681
28.18673	52050
28.19485	60195
28.20298	71181
28.21110	75368
28.21922	85463
28.22735	87184
28.23547	85913
28.24360	81606
28.25172	80035
28.25983	65704
28.26797	61356
28.27608	54761
28.28420	52310
28.29233	53963
28.30045	56801
28.30858	60454
28.31670	65361
28.32482	70593
28.33295	80957
28.34107	84293
28.34920	96277
28.35732	102373
28.36543	104464
28.37357	110663
28.38168	119692
28.38982	130078
28.39793	132959
28.40605	130512
28.41418	133776
28.42230	126181
28.43042	119198
28.43855	110842
28.44667	109373
28.45480	93761
28.46292	96784
28.47103	93886
28.47917	89943
28.48728	86938
28.49542	81177
28.50353	80251
28.51165	78695
28.51978	72647
28.52790	78125
28.53602	75176
28.54415	64929
28.55227	65874
28.56040	70294
28.56852	65535
28.57663	59611
28.58477	64725
28.59288	59465
28.60102	61513
28.60913	66047
28.61725	61166
28.62538	61225
28.63350	63856
28.64163	64756
28.64975	67298
28.65787	69111
28.66600	69954
28.67412	68420
28.68223	66303
28.69037	68126
28.69848	61420
28.70662	62072
28.71473	59414
28.72285	60789
28.73098	57205
28.73910	52863
28.74723	61120
28.75535	58287
28.76347	65773
28.77160	77558
28.77972	85283
28.78783	84542
28.79597	80904
28.80408	74474
28.81222	71988
28.82033	68270
28.82845	66978
28.83658	58315
28.84470	62187
28.85283	57037
28.86095	58419
28.86907	54855
28.87720	57374
28.88532	61124
28.89345	65854
28.90157	71541
28.90968	69401
28.91782	68327
28.92593	60349
28.93405	60957
28.94218	57831
28.95030	60968
28.95843	58946
28.96655	63323
28.97467	60798
28.98280	60188
28.99092	55551
28.99905	53667
29.00717	53840
29.01528	48664
29.02342	45164
29.03153	48780
29.03967	51199
29.04778	49952
29.05590	44217
29.06403	46223
29.07215	48214
29.08027	49777
29.08840	53681
29.09652	56291
29.10465	51375
29.11277	53329
29.12088	51018
29.12902	51192
29.13713	48309
29.14527	46956
29.15338	48881
29.16150	52199
29.16963	50400
29.17775	51873
29.18587	55757
29.19400	61206
29.20212	73310
29.21025	86652
29.21837	100657
29.22648	102038
29.23462	98529
29.24273	104630
29.25087	115340
29.25898	131645
29.26710	155634
29.27523	169098
29.28335	160899
29.29148	147633
29.29960	123609
29.30772	92144
29.31585	72393
29.32397	59564
29.33208	57134
29.34022	51466
29.34833	46006
29.35647	49563
29.36458	44495
29.37270	47135
29.38083	44774
29.38895	48037
29.39708	47056
29.40520	51721
29.41332	50528
29.42145	48192
29.42957	51841
29.43770	49772
29.44582	50732
29.45393	50910
29.46207	46736
29.47018	48317
29.47830	48538
29.48643	48601
29.49455	55269
29.50268	55260
29.51080	55353
29.51892	57175
29.52705	49135
29.53517	51311
29.54330	52286
29.55142	48782
29.55953	47536
29.56767	46507
29.57578	45583
29.58390	46533
29.59203	46643
29.60015	43362
29.60828	44962
29.61640	44847
29.62452	44381
29.63265	46233
29.64077	49448
29.64890	49235
29.65702	39799
29.66513	43687
29.67327	48228
29.68138	46636
29.68952	48484
29.69763	51998
29.70575	51945
29.71388	51627
29.72200	51013
29.73012	49154
29.73825	48316
29.74637	49603
29.75450	45482
29.76262	44879
29.77073	44896
29.77887	45166
29.78698	40910
29.79512	43860
29.80323	38147
29.81135	41647
29.81948	41537
29.82760	39945
29.83573	41026
29.84385	36552
29.85197	43953
29.86010	40862
29.86822	43780
29.87633	50053
29.88447	57288
29.89258	65965
29.90072	70293
29.90883	77413
29.91695	73072
29.92508	66059
29.93320	64452
29.94133	66865
29.94945	52878
29.95757	51786
29.96570	54628
29.97382	57228
29.98193	54445
29.99007	63998
29.99818	65999
30.00632	73997
30.01443	76704
30.02255	84716
30.03068	79615
30.03880	86396
30.04693	88537
30.05505	86315
30.06317	86912
30.07130	81238
30.07942	87453
30.08755	87827
30.09567	83215
30.10378	82390
30.11192	81097
30.12003	77288
30.12815	78026
30.13628	74091
30.14440	77077
30.15253	70820
30.16065	72728
30.16877	70833
30.17690	71711
30.18502	68607
30.19315	72735
30.20127	73823
30.20938	70741
30.21752	71527
30.22563	65858
30.23375	60162
30.24188	62647
30.25000	60013
30.25813	56993
30.26625	53232
30.27437	53342
30.28250	48560
30.29062	53442
30.29875	52960
30.30687	51990
30.31498	47316
30.32312	51658
30.33123	52014
30.33937	50825
30.34748	50294
30.35560	53551
30.36373	51551
30.37185	51415
30.37997	47934
30.38810	49783
30.39622	48400
30.40435	46006
30.41247	43926
30.42058	47205
30.42872	44170
30.43683	46344
30.44497	47208
30.45308	51103
30.46120	46250
30.46933	44849
30.47745	44511
30.48558	43800
30.49370	42515
30.50182	48088
30.50995	46312
30.51807	46095
30.52618	45688
30.53432	45375
30.54243	44769
30.55057	43100
30.55868	45104
30.56680	45574
30.57493	49246
30.58305	48173
30.59118	46772
30.59930	44289
30.60742	45957
30.61555	46170
30.62367	52639
30.63178	60145
30.63992	67371
30.64803	72339
30.65617	76605
30.66428	84441
30.67240	80370
30.68053	84518
30.68865	82737
30.69678	84048
30.70490	91350
30.71302	92092
30.72115	89839
30.72927	95479
30.73740	91089
30.74552	92969
30.75363	99060
30.76177	93721
30.76988	97248
30.77800	96678
30.78613	107718
30.79425	119393
30.80238	132398
30.81050	138704
30.81862	150601
30.82675	144542
30.83487	133030
30.84300	121967
30.85112	111941
30.85923	103838
30.86737	104589
30.87548	101507
30.88362	95067
30.89173	96743
30.89985	94167
30.90798	95681
30.91610	93315
30.92422	95244
30.93235	92146
30.94047	91587
30.94860	94692
30.95672	95373
30.96483	86426
30.97297	94077
30.98108	90203
30.98922	86196
30.99733	84998
31.00545	84617
31.01358	90510
31.02170	92001
31.02982	90173
31.03795	99003
31.04607	90965
31.05420	93934
31.06232	89995
31.07043	93655
31.07857	93629
31.08668	93461
31.09482	109690
31.10293	113886
31.11105	118034
31.11918	116106
31.12730	108308
31.13543	106325
31.14355	101629
31.15167	94846
31.15980	90545
31.16792	92840
31.17603	96176
31.18417	101194
31.19228	107935
31.20042	122218
31.20853	144675
31.21665	169981
31.22478	178793
31.23290	188522
31.24103	174895
31.24915	158190
31.25727	139158
31.26540	110635
31.27352	104471
31.28163	86610
31.28977	84395
31.29788	76443
31.30602	77570
31.31413	73972
31.32225	80609
31.33038	74424
31.33850	77487
31.34663	79944
31.35475	72183
31.36287	75243
31.37100	72078
31.37912	71077
31.38725	77616
31.39537	77426
31.40348	80899
31.41162	71960
31.41973	72844
31.42785	70265
31.43598	71160
31.44410	66817
31.45223	64302
31.46035	64297
31.46847	63513
31.47660	63231
31.48472	70286
31.49285	65300
31.50097	67514
31.50908	66601
31.51722	73430
31.52533	69225
31.53347	68947
31.54158	66288
31.54970	67057
31.55783	65060
31.56595	64535
31.57407	64419
31.58220	60820
31.59032	60591
31.59845	61024
31.60657	59429
31.61468	64115
31.62282	60065
31.63093	60917
31.63907	63805
31.64718	59597
31.65530	59957
31.66343	61532
31.67155	66119
31.67968	65486
31.68780	67370
31.69592	60436
31.70405	58292
31.71217	67166
31.72028	56963
31.72842	58708
31.73653	56917
31.74467	57359
31.75278	57017
31.76090	56466
31.76903	60564
31.77715	55165
31.78528	60196
31.79340	59273
31.80152	60213
31.80965	60258
31.81777	53905
31.82588	63238
31.83402	56772
31.84213	56207
31.85027	54080
31.85838	63163
31.86650	60752
31.87463	61747
31.88275	58837
31.89088	61832
31.89900	63561
31.90712	69969
31.91525	74236
31.92337	75933
31.93150	79730
31.93962	82297
31.94773	82484
31.95587	84832
31.96398	89395
31.97210	94099
31.98023	97735
31.98835	92181
31.99648	101403
32.00460	98844
32.01272	99005
32.02085	97598
32.02897	88012
32.03710	90695
32.04522	85468
32.05333	83918
32.06147	82925
32.06958	76851
32.07770	84225
32.08583	76423
32.09395	80078
32.10208	77395
32.11020	73585
32.11832	67416
32.12645	70365
32.13457	64522
32.14270	65321
32.15082	60161
32.15893	63278
32.16707	64871
32.17518	56778
32.18332	58986
32.19143	63236
32.19955	61268
32.20768	57919
32.21580	61043
32.22392	58645
32.23205	56541
32.24017	58276
32.24830	58987
32.25642	57860
32.26453	64573
32.27267	62713
32.28078	61053
32.28892	60463
32.29703	60545
32.30515	56851
32.31328	56851
32.32140	55558
32.32953	56296
32.33765	55599
32.34577	58191
32.35390	57427
32.36202	58372
32.37013	57182
32.37827	55542
32.38638	58283
32.39452	57536
32.40263	55703
32.41075	55850
32.41888	53653
32.42700	51934
32.43513	52073
32.44325	52332
32.45137	51884
32.45950	50122
32.46762	54130
32.47573	53026
32.48387	55033
32.49198	55996
32.50012	52600
32.50823	53069
32.51635	50712
32.52448	50656
32.53260	46027
32.54073	52740
32.54885	51099
32.55697	51059
32.56510	52693
32.57322	55908
32.58135	53539
32.58947	52825
32.59758	51551
32.60572	53297
32.61383	52342
32.62195	53056
32.63008	51600
32.63820	51337
32.64633	52575
32.65445	62116
32.66257	66249
32.67070	68568
32.67882	70593
32.68695	65980
32.69507	66909
32.70318	60358
32.71132	61746
32.71943	57467
32.72757	56995
32.73568	57771
32.74380	56117
32.75193	55864
32.76005	53696
32.76817	49833
32.77630	52537
32.78442	49903
32.79255	55493
32.80067	46525
32.80878	49757
32.81692	50994
32.82503	51693
32.83317	56245
32.84128	49290
32.84940	49512
32.85753	48152
32.86565	55193
32.87377	50727
32.88190	48712
32.89002	50857
32.89815	53436
32.90627	57545
32.91438	52002
32.92252	55474
32.93063	54108
32.93877	51248
32.94688	52391
32.95500	52228
32.96313	57330
32.97125	58968
32.97938	57760
32.98750	59367
32.99562	71118
33.00375	81408
33.01187	80603
33.01998	79619
33.02812	72400
33.03623	64108
33.04437	63469
33.05248	60352
33.06060	56899
33.06873	64649
33.07685	62307
33.08498	76111
33.09310	73653
33.10122	76874
33.10935	81131
33.11747	85094
33.12558	82114
33.13372	84261
33.14183	75865
33.14997	69694
33.15808	68004
33.16620	62290
33.17433	65162
33.18245	55425
33.19058	63844
33.19870	59111
33.20682	57990
33.21495	57629
33.22307	59599
33.23120	54638
33.23932	53287
33.24743	54671
33.25557	53244
33.26368	54960
33.27180	53226
33.27993	56256
33.28805	53362
33.29618	53428
33.30430	52206
33.31242	56310
33.32055	52388
33.32867	55239
33.33680	56477
33.34492	59300
33.35303	55387
33.36117	67538
33.36928	60908
33.37742	62456
33.38553	63972
33.39365	60684
33.40178	52917
33.40990	57136
33.41802	51663
33.42615	53915
33.43427	49760
33.44240	51673
33.45052	52182
33.45863	49298
33.46677	46135
33.47488	51200
33.48302	51306
33.49113	50060
33.49925	51422
33.50738	51272
33.51550	51925
33.52362	54732
33.53175	53544
33.53987	56288
33.54800	62446
33.55612	59743
33.56423	65809
33.57237	61134
33.58048	63649
33.58862	57609
33.59673	60838
33.60485	52449
33.61298	50098
33.62110	54404
33.62923	55259
33.63735	56064
33.64547	59889
33.65360	58043
33.66172	59296
33.66983	58685
33.67797	57010
33.68608	54261
33.69422	49550
33.70233	52693
33.71045	48104
33.71858	50180
33.72670	51718
33.73483	52488
33.74295	53042
33.75107	52357
33.75920	51557
33.76732	49221
33.77545	48253
33.78357	48023
33.79168	53251
33.79982	49167
33.80793	50061
33.81605	51438
33.82418	48332
33.83230	58949
33.84043	51893
33.84855	48305
33.85667	52221
33.86480	54168
33.87292	54838
33.88105	50034
33.88917	57857
33.89728	53438
33.90542	56051
33.91353	58704
33.92165	56398
33.92978	56051
33.93790	52907
33.94603	52029
33.95415	57468
33.96227	56165
33.97040	52374
33.97852	52437
33.98665	56049
33.99477	57040
34.00288	52073
34.01102	57437
34.01913	51731
34.02727	53656
34.03538	54530
34.04350	52684
34.05163	55241
34.05975	55675
34.06787	48441
34.07600	51868
34.08412	55040
34.09225	55445
34.10037	56104
34.10848	53853
34.11662	51290
34.12473	53723
34.13287	55244
34.14098	57498
34.14910	57871
34.15723	50916
34.16535	53454
34.17348	57939
34.18160	57065
34.18972	55499
34.19785	53303
34.20597	50891
34.21408	58210
34.22222	54243
34.23033	52686
34.23847	52199
34.24658	54041
34.25470	57765
34.26283	56932
34.27095	55161
34.27908	56554
34.28720	58935
34.29532	54047
34.30345	55237
34.31157	57997
34.31968	60523
34.32782	57842
34.33593	60008
34.34407	52319
34.35218	53992
34.36030	52367
34.36843	59321
34.37655	53699
34.38468	51873
34.39280	57255
34.40092	54031
34.40905	56100
34.41717	52596
34.42530	53329
34.43342	57543
34.44153	52632
34.44967	52969
34.45778	54682
34.46590	54073
34.47403	55394
34.48215	54490
34.49028	53321
34.49840	55478
34.50652	60114
34.51465	61439
34.52277	65398
34.53090	70840
34.53902	82994
34.54713	88901
34.55527	93152
34.56338	96586
34.57150	92908
34.57963	87665
34.58775	92071
34.59588	84610
34.60400	83072
34.61212	81526
34.62025	77492
34.62837	77470
34.63650	70521
34.64462	68435
34.65273	70786
34.66087	70466
34.66898	69041
34.67712	67217
34.68523	62839
34.69335	60282
34.70148	68283
34.70960	63747
34.71772	67245
34.72585	63388
34.73397	63094
34.74210	64094
34.75022	57792
34.75833	60997
34.76647	64332
34.77458	62827
34.78272	64616
34.79083	63646
34.79895	68842
34.80708	64295
34.81520	67563
34.82333	68874
34.83145	65724
34.83957	66047
34.84770	65827
34.85582	60145
34.86393	61592
34.87207	66342
34.88018	61963
34.88832	63130
34.89643	63299
34.90455	62783
34.91268	63693
34.92080	70132
34.92893	63728
34.93705	66214
34.94517	70242
34.95330	68373
34.96142	67698
34.96953	71773
34.97767	76476
34.98578	74142
34.99392	79280
35.00203	74183
35.01015	68566
35.01828	57124
35.02640	61668
35.03453	58009
35.04265	64818
35.05077	60533
35.05890	64009
35.06702	63049
35.07515	62135
35.08327	65783
35.09138	60925
35.09952	58574
35.10763	58102
35.11575	53766
35.12388	57921
35.13200	59146
35.14013	58287
35.14825	57416
35.15637	61484
35.16450	67333
35.17262	59175
35.18075	58153
35.18887	57781
35.19698	57745
35.20512	59454
35.21323	61962
35.22137	67131
35.22948	60534
35.23760	62491
35.24573	58527
35.25385	55870
35.26197	56833
35.27010	60998
35.27822	57527
35.28635	63396
35.29447	61675
35.30258	57868
35.31072	62186
35.31883	59298
35.32697	60373
35.33508	58010
35.34320	60064
35.35133	56635
35.35945	59657
35.36757	58155
35.37570	58265
35.38382	60852
35.39195	56972
35.40007	58393
35.40818	60851
35.41632	60565
35.42443	61077
35.43257	61930
35.44068	66072
35.44880	63294
35.45693	63176
35.46505	63791
35.47318	66915
35.48130	66434
35.48942	65041
35.49755	66159
35.50567	61859
35.51378	64780
35.52192	59811
35.53003	60675
35.53817	61570
35.54628	58779
35.55440	59574
35.56253	61224
35.57065	58013
35.57878	63089
35.58690	65814
35.59502	62917
35.60315	57533
35.61127	60645
35.61938	64845
35.62752	64327
35.63563	59050
35.64377	64208
35.65188	58164
35.66000	64428
35.66813	66710
35.67625	67302
35.68438	66772
35.69250	63906
35.70062	63802
35.70875	65355
35.71687	68268
35.72500	61172
35.73312	64929
35.74123	69814
35.74937	73931
35.75748	78786
35.76560	76481
35.77373	79392
35.78185	74506
35.78998	70507
35.79810	71273
35.80622	71085
35.81435	62302
35.82247	64007
35.83060	64119
35.83872	67506
35.84683	62548
35.85497	64263
35.86308	65009
35.87122	63535
35.87933	61182
35.88745	62676
35.89558	64464
35.90370	67479
35.91182	60290
35.91995	59229
35.92807	65447
35.93620	67286
35.94432	61972
35.95243	58902
35.96057	62206
35.96868	60980
35.97682	61466
35.98493	60068
35.99305	65953
36.00118	68085
36.00930	65929
36.01742	66148
36.02555	69097
36.03367	66886
36.04180	68920
36.04992	64860
36.05803	69258
36.06617	73581
36.07428	63942
36.08242	67389
36.09053	64082
36.09865	67036
36.10678	61304
36.11490	67586
36.12303	72082
36.13115	68938
36.13927	69249
36.14740	68008
36.15552	70279
36.16363	70324
36.17177	77458
36.17988	78591
36.18802	77323
36.19613	81074
36.20425	86590
36.21238	83495
36.22050	83692
36.22863	78848
36.23675	80635
36.24487	86798
36.25300	83965
36.26112	89258
36.26925	96037
36.27737	91949
36.28548	93858
36.29362	92892
36.30173	95690
36.30985	107258
36.31798	113111
36.32610	111239
36.33423	108770
36.34235	98910
36.35047	98953
36.35860	96873
36.36672	95954
36.37485	98718
36.38297	97067
36.39108	100733
36.39922	97743
36.40733	101538
36.41545	97307
36.42358	95515
36.43170	95634
36.43983	100492
36.44795	92368
36.45607	90143
36.46420	88371
36.47232	91555
36.48045	92716
36.48857	90069
36.49668	87229
36.50482	89136
36.51293	89311
36.52107	84896
36.52918	84908
36.53730	87890
36.54543	85468
36.55355	91753
36.56167	89438
36.56980	90591
36.57792	86677
36.58605	86428
36.59417	84565
36.60228	83235
36.61042	86379
36.61853	83183
36.62667	82722
36.63478	87523
36.64290	82296
36.65103	85498
36.65915	85357
36.66727	85181
36.67540	86574
36.68352	86340
36.69165	89725
36.69977	83306
36.70788	88290
36.71602	84359
36.72413	88622
36.73227	81641
36.74038	84252
36.74850	83168
36.75663	81814
36.76475	80927
36.77288	79336
36.78100	83029
36.78912	76149
36.79725	79500
36.80537	75387
36.81348	79028
36.82162	79789
36.82973	73853
36.83787	78710
36.84598	80984
36.85410	77729
36.86223	79590
36.87035	75843
36.87848	81087
36.88660	75859
36.89472	81445
36.90285	72689
36.91097	75756
36.91910	80880
36.92722	81787
36.93533	80957
36.94347	85181
36.95158	91105
36.95970	94175
36.96783	91822
36.97595	98005
36.98408	95233
36.99220	90316
37.00032	87082
37.00845	84629
37.01657	80360
37.02470	82332
37.03282	77556
37.04093	79716
37.04907	82814
37.05718	75992
37.06532	85343
37.07343	81933
37.08155	82728
37.08968	80313
37.09780	84439
37.10592	81910
37.11405	78138
37.12217	80933
37.13030	81884
37.13842	80290
37.14653	79263
37.15467	81285
37.16278	79277
37.17092	78126
37.17903	79429
37.18715	84616
37.19528	85036
37.20340	84612
37.21152	81390
37.21965	80576
37.22777	75853
37.23590	80273
37.24402	81321
37.25213	80292
37.26027	82769
37.26838	75105
37.27652	74577
37.28463	77234
37.29275	79396
37.30088	78076
37.30900	81822
37.31713	84110
37.32525	85456
37.33337	93658
37.34150	109656
37.34962	109125
37.35773	113016
37.36587	109275
37.37398	106892
37.38212	111038
37.39023	109341
37.39835	99323
37.40648	101575
37.41460	98578
37.42273	98894
37.43085	91800
37.43897	95784
37.44710	98454
37.45522	97654
37.46333	93508
37.47147	91938
37.47958	88683
37.48772	92145
