Z:\data\JTB-E02\BACandBLUE\JTB-E18-005-07.D Wed Apr 10 11:56:36 2019
Start of data points
2.09515	69638
2.10327	67944
2.11140	65899
2.11952	65469
2.12765	69685
2.13577	64463
2.14388	61883
2.15202	65921
2.16013	61343
2.16827	59314
2.17638	60023
2.18450	56785
2.19263	58115
2.20075	59634
2.20888	55096
2.21700	56413
2.22512	55777
2.23325	58359
2.24137	55146
2.24948	54636
2.25762	57128
2.26573	61913
2.27387	276573
2.28198	1363898
2.29010	1551409
2.29823	776480
2.30635	485691
2.31448	394002
2.32260	372271
2.33072	325360
2.33885	290254
2.34697	262765
2.35508	241856
2.36322	209884
2.37133	200823
2.37947	188488
2.38758	173700
2.39570	177223
2.40383	170815
2.41195	158194
2.42008	156297
2.42820	160348
2.43632	158179
2.44445	151281
2.45257	144377
2.46070	142461
2.46882	136319
2.47693	136484
2.48507	124887
2.49318	134669
2.50130	138344
2.50943	135300
2.51755	126337
2.52568	126138
2.53380	127611
2.54192	127458
2.55005	127684
2.55817	224045
2.56630	707117
2.57442	930652
2.58253	695969
2.59067	515393
2.59878	428942
2.60692	509395
2.61503	1364709
2.62315	1971926
2.63128	1330028
2.63940	828303
2.64752	595065
2.65565	455415
2.66377	391694
2.67190	329707
2.68002	293378
2.68813	265220
2.69627	248830
2.70438	230746
2.71252	211863
2.72063	209654
2.72875	196477
2.73688	194104
2.74500	197212
2.75312	182140
2.76125	178141
2.76937	175806
2.77750	214067
2.78562	768209
2.79373	2141156
2.80187	2182588
2.80998	1370338
2.81812	996794
2.82623	812569
2.83435	679474
2.84248	576554
2.85060	500416
2.85873	433015
2.86685	380120
2.87497	351374
2.88310	318230
2.89122	290776
2.89933	272136
2.90747	257020
2.91558	240479
2.92372	227977
2.93183	221143
2.93995	206761
2.94808	192333
2.95620	196463
2.96433	211942
2.97245	246252
2.98057	233291
2.98870	236884
2.99682	425012
3.00495	712950
3.01307	693850
3.02118	551055
3.02932	449010
3.03743	392413
3.04555	348347
3.05368	308014
3.06180	323802
3.06993	367874
3.07805	422572
3.08617	1325335
3.09430	5863421
3.10242	1.224347E+07
3.11055	1.823982E+07
3.11867	2.137608E+07
3.12678	1.796542E+07
3.13492	1.283589E+07
3.14303	9728867
3.15115	7763875
3.15928	6272711
3.16740	5222792
3.17553	4347093
3.18365	3767656
3.19177	3483360
3.19990	3609725
3.20802	3428624
3.21615	2824077
3.22427	2401749
3.23238	2104276
3.24052	1873925
3.24863	1672582
3.25677	1509145
3.26488	1344315
3.27300	1250337
3.28113	1153356
3.28925	1121291
3.29737	1283808
3.30550	2110995
3.31362	3483107
3.32175	4343332
3.32987	4143927
3.33798	3448027
3.34612	2824448
3.35423	2344105
3.36237	2053027
3.37048	1797048
3.37860	1627527
3.38673	1489242
3.39485	1387757
3.40297	1276179
3.41110	1207675
3.41922	1182185
3.42735	1192527
3.43547	1142674
3.44358	1033206
3.45172	965205
3.45983	902169
3.46797	839019
3.47608	797726
3.48420	789803
3.49233	745664
3.50045	710032
3.50858	684622
3.51670	682036
3.52482	748733
3.53295	889082
3.54107	927786
3.54918	853453
3.55732	762874
3.56543	726671
3.57357	749501
3.58168	829876
3.58980	839736
3.59793	751795
3.60605	666719
3.61418	626412
3.62230	611680
3.63042	596059
3.63855	593161
3.64667	579274
3.65480	566324
3.66292	728542
3.67103	2372501
3.67917	7961646
3.68728	1.377628E+07
3.69540	1.339588E+07
3.70353	9314750
3.71165	6413593
3.71978	5054262
3.72790	4236959
3.73602	3673490
3.74415	3299733
3.75227	2919339
3.76040	2661232
3.76852	2422438
3.77663	2242478
3.78477	2068189
3.79288	1929712
3.80102	1858296
3.80913	2025883
3.81725	2670515
3.82538	3223128
3.83350	3001436
3.84162	2468874
3.84975	2094248
3.85787	1860074
3.86600	1709236
3.87412	1574474
3.88223	1478092
3.89037	1398238
3.89848	1324435
3.90662	1255768
3.91473	1206334
3.92285	1215254
3.93098	1299988
3.93910	1374947
3.94722	1882628
3.95535	5232199
3.96347	1.540505E+07
3.97160	2.762541E+07
3.97972	3.260859E+07
3.98783	2.851635E+07
3.99597	2.059665E+07
4.00408	2.007973E+07
4.01222	3.535862E+07
4.02033	5.700106E+07
4.02845	6.860999E+07
4.03658	6.5855E+07
4.04470	4.789854E+07
4.05283	2.812865E+07
4.06095	1.76251E+07
4.06907	1.268449E+07
4.07720	9828190
4.08532	7898325
4.09343	6545252
4.10157	5520593
4.10968	4814024
4.11782	4216347
4.12593	3779309
4.13405	3408141
4.14218	3094345
4.15030	2888138
4.15843	2654044
4.16655	2487525
4.17467	2333579
4.18280	2259721
4.19092	2113995
4.19903	1979233
4.20717	1886945
4.21528	2289101
4.22342	4378525
4.23153	8518604
4.23965	1.231101E+07
4.24778	1.250074E+07
4.25590	9620483
4.26403	6655232
4.27215	4874983
4.28027	3783221
4.28840	3074511
4.29652	2537038
4.30465	2187948
4.31277	1930223
4.32088	1752515
4.32902	1604791
4.33713	1521030
4.34525	1428218
4.35338	1358639
4.36150	1368234
4.36963	1412103
4.37775	1431662
4.38587	1379394
4.39400	1232711
4.40212	1141539
4.41025	1062156
4.41837	1029811
4.42648	978468
4.43462	946725
4.44273	910623
4.45087	889920
4.45898	875251
4.46710	872882
4.47523	850204
4.48335	845850
4.49147	843751
4.49960	861068
4.50772	816846
4.51585	786739
4.52397	760376
4.53208	748724
4.54022	750192
4.54833	736809
4.55647	732000
4.56458	719697
4.57270	698731
4.58083	673721
4.58895	658202
4.59707	631490
4.60520	641533
4.61332	638997
4.62145	638714
4.62957	701456
4.63768	882040
4.64582	1111710
4.65393	1212414
4.66207	1095932
4.67018	937812
4.67830	839104
4.68643	801155
4.69455	748787
4.70268	714691
4.71080	657253
4.71892	626193
4.72705	608501
4.73517	583963
4.74328	571929
4.75142	546367
4.75953	541049
4.76767	535167
4.77578	526157
4.78390	537015
4.79203	582624
4.80015	767569
4.80828	1022310
4.81640	1186904
4.82452	1090164
4.83265	920447
4.84077	824967
4.84890	813359
4.85702	810659
4.86513	777720
4.87327	742147
4.88138	704803
4.88950	672447
4.89763	636321
4.90575	628293
4.91388	599891
4.92200	588324
4.93012	593355
4.93825	630447
4.94637	779357
4.95450	1193104
4.96262	1789792
4.97073	2294560
4.97887	2386462
4.98698	2145255
4.99510	1823239
5.00323	1513042
5.01135	1297705
5.01948	1162988
5.02760	1086396
5.03572	1068441
5.04385	1088135
5.05197	1078176
5.06010	1031102
5.06822	952118
5.07633	904799
5.08447	846930
5.09258	802743
5.10072	783065
5.10883	767859
5.11695	740025
5.12508	718553
5.13320	689638
5.14132	680298
5.14945	668374
5.15757	700213
5.16570	781426
5.17382	837308
5.18193	829195
5.19007	800216
5.19818	794989
5.20632	805350
5.21443	836614
5.22255	836678
5.23068	815643
5.23880	763551
5.24692	697821
5.25505	648872
5.26317	611459
5.27130	573063
5.27942	561460
5.28753	529920
5.29567	533021
5.30378	527316
5.31192	515357
5.32003	514032
5.32815	526995
5.33628	547381
5.34440	571408
5.35253	593053
5.36065	576759
5.36877	531987
5.37690	520352
5.38502	545205
5.39313	580892
5.40127	620598
5.40938	640661
5.41752	608079
5.42563	551067
5.43375	524236
5.44188	500389
5.45000	524631
5.45813	542666
5.46625	577067
5.47437	550377
5.48250	525169
5.49062	478975
5.49875	457247
5.50687	454083
5.51498	436746
5.52312	435034
5.53123	427663
5.53935	437340
5.54748	439397
5.55560	499395
5.56373	632316
5.57185	874657
5.57997	1085437
5.58810	1161947
5.59622	1004890
5.60435	816974
5.61247	665414
5.62058	561645
5.62872	523475
5.63683	503591
5.64495	486525
5.65308	462394
5.66120	459977
5.66933	444867
5.67745	432169
5.68557	442783
5.69370	452094
5.70182	458282
5.70995	451252
5.71807	449183
5.72618	439167
5.73432	447136
5.74243	434490
5.75057	421265
5.75868	421797
5.76680	409499
5.77493	406045
5.78305	405441
5.79117	401133
5.79930	387567
5.80742	393018
5.81555	397817
5.82367	433639
5.83178	468300
5.83992	542852
5.84803	587088
5.85617	598251
5.86428	574435
5.87240	525472
5.88053	507419
5.88865	514096
5.89678	509321
5.90490	463804
5.91302	418802
5.92115	378239
5.92927	383712
5.93738	381914
5.94552	386740
5.95363	394786
5.96177	404386
5.96988	431145
5.97800	444586
5.98613	456901
5.99425	492780
6.00238	503188
6.01050	521861
6.01862	623422
6.02675	738034
6.03487	766299
6.04298	704194
6.05112	570184
6.05923	457591
6.06737	399421
6.07548	356241
6.08360	348088
6.09173	324028
6.09985	314370
6.10798	303207
6.11610	295880
6.12422	304016
6.13235	347397
6.14047	438559
6.14860	551985
6.15672	601583
6.16483	566529
6.17297	503141
6.18108	428938
6.18920	412460
6.19733	360752
6.20545	350086
6.21358	334379
6.22170	318240
6.22982	307634
6.23795	310095
6.24607	312532
6.25420	346445
6.26232	372645
6.27043	393272
6.27857	379378
6.28668	357410
6.29480	319117
6.30293	305263
6.31105	300337
6.31918	309406
6.32730	371732
6.33542	467550
6.34355	584665
6.35167	621823
6.35980	546529
6.36792	436982
6.37603	386167
6.38417	336586
6.39228	323989
6.40042	311543
6.40853	289760
6.41665	287642
6.42478	272256
6.43290	268043
6.44102	246294
6.44915	253821
6.45727	245354
6.46540	247496
6.47352	245096
6.48163	237229
6.48977	237482
6.49788	232636
6.50602	235060
6.51413	236653
6.52225	239339
6.53038	241688
6.53850	231433
6.54663	238099
6.55475	235277
6.56287	282908
6.57100	413179
6.57912	643265
6.58723	830760
6.59537	843768
6.60348	685870
6.61162	500898
6.61973	375759
6.62785	321788
6.63598	282156
6.64410	284658
6.65223	359801
6.66035	607800
6.66847	1089518
6.67660	1493355
6.68472	1488538
6.69283	1425980
6.70097	1037242
6.70908	768242
6.71722	621948
6.72533	516592
6.73345	459536
6.74158	412914
6.74970	383080
6.75783	368378
6.76595	344901
6.77407	329525
6.78220	310788
6.79032	304773
6.79845	298209
6.80657	314636
6.81468	356729
6.82282	408827
6.83093	455676
6.83905	480180
6.84718	467437
6.85530	454989
6.86343	436783
6.87155	455506
6.87967	441906
6.88780	379711
6.89592	327964
6.90405	263195
6.91217	220715
6.92028	202054
6.92842	193074
6.93653	180852
6.94467	170468
6.95278	170883
6.96090	173775
6.96903	192472
6.97715	222492
6.98527	256888
6.99340	271693
7.00152	245139
7.00965	228943
7.01777	205968
7.02588	188815
7.03402	178060
7.04213	179341
7.05027	190363
7.05838	224128
7.06650	258975
7.07463	315529
7.08275	343268
7.09087	346651
7.09900	321311
7.10712	261045
7.11525	227233
7.12337	202501
7.13148	185503
7.13962	193233
7.14773	214461
7.15587	254943
7.16398	321301
7.17210	359989
7.18023	356286
7.18835	335627
7.19648	362427
7.20460	584413
7.21272	1042030
7.22085	1596900
7.22897	1843227
7.23708	1569923
7.24522	1066631
7.25333	664313
7.26147	441022
7.26958	290359
7.27770	231110
7.28583	211689
7.29395	202433
7.30208	200952
7.31020	195811
7.31832	199940
7.32645	212222
7.33457	223534
7.34270	239599
7.35082	246026
7.35893	245063
7.36707	230822
7.37518	218026
7.38330	199712
7.39143	193063
7.39955	177551
7.40768	173295
7.41580	171289
7.42392	170993
7.43205	166847
7.44017	165010
7.44830	158586
7.45642	163748
7.46453	163199
7.47267	160913
7.48078	162934
7.48890	160931
7.49703	152784
7.50515	149417
7.51328	161801
7.52140	196282
7.52952	301199
7.53765	604204
7.54577	1253022
7.55390	2311515
7.56202	3595208
7.57013	4766037
7.57827	5261031
7.58638	4914953
7.59452	3972942
7.60263	2821396
7.61075	1856747
7.61888	1215119
7.62700	814619
7.63512	616756
7.64325	463076
7.65137	386740
7.65950	325625
7.66762	270000
7.67573	242746
7.68387	217095
7.69198	191679
7.70012	173941
7.70823	177558
7.71635	180294
7.72448	189790
7.73260	212601
7.74072	229790
7.74885	259319
7.75697	277659
7.76510	291507
7.77322	286145
7.78133	288596
7.78947	283380
7.79758	286870
7.80572	296179
7.81383	294959
7.82195	287954
7.83008	269908
7.83820	227203
7.84633	206551
7.85445	206175
7.86257	209305
7.87070	219404
7.87882	241653
7.88693	280030
7.89507	308127
7.90318	311250
7.91132	284861
7.91943	244539
7.92755	219804
7.93568	224719
7.94380	226452
7.95193	249988
7.96005	253748
7.96817	255714
7.97630	244282
7.98442	217687
7.99255	198852
8.00067	177667
8.00878	171492
8.01692	162875
8.02503	160916
8.03315	160778
8.04128	158205
8.04940	155321
8.05753	147604
8.06565	142807
8.07377	146411
8.08190	144866
8.09002	142482
8.09815	140322
8.10627	133536
8.11438	139312
8.12252	137991
8.13063	147479
8.13875	158230
8.14688	168111
8.15500	177952
8.16313	177702
8.17125	168071
8.17937	156219
8.18750	152675
8.19562	136723
8.20375	134514
8.21187	133826
8.21998	130330
8.22812	129662
8.23623	124853
8.24437	125798
8.25248	131724
8.26060	133983
8.26873	127740
8.27685	121057
8.28497	123814
8.29310	128834
8.30122	123798
8.30935	127316
8.31747	139562
8.32558	142671
8.33372	145492
8.34183	154567
8.34997	149431
8.35808	137615
8.36620	155800
8.37433	166976
8.38245	192497
8.39058	213102
8.39870	205112
8.40682	191791
8.41495	169044
8.42307	137515
8.43118	131991
8.43932	129237
8.44743	118874
8.45557	118073
8.46368	119734
8.47180	123108
8.47993	120275
8.48805	120321
8.49618	120513
8.50430	135312
8.51242	194789
8.52055	410482
8.52867	914623
8.53678	1671377
8.54492	2360371
8.55303	2524014
8.56117	2018225
8.56928	1239611
8.57740	705495
8.58553	435739
8.59365	362208
8.60178	375116
8.60990	407849
8.61802	423251
8.62615	401095
8.63427	333017
8.64240	277956
8.65052	233224
8.65863	208375
8.66677	191408
8.67488	178947
8.68300	176779
8.69113	170499
8.69925	171980
8.70738	172777
8.71550	160368
8.72362	168526
8.73175	161245
8.73987	156468
8.74800	160626
8.75612	187197
8.76423	249499
8.77237	398646
8.78048	676228
8.78860	1028362
8.79673	1251110
8.80485	1247240
8.81298	1027255
8.82110	730915
8.82922	531691
8.83735	426195
8.84547	395830
8.85360	376243
8.86172	372893
8.86983	351606
8.87797	336633
8.88608	310705
8.89422	279116
8.90233	285587
8.91045	266648
8.91858	270717
8.92670	250570
8.93482	269083
8.94295	274379
8.95107	280906
8.95920	263931
8.96732	260179
8.97543	248725
8.98357	261574
8.99168	262091
8.99982	263067
9.00793	253022
9.01605	239881
9.02418	226670
9.03230	210450
9.04043	206735
9.04855	208420
9.05667	193994
9.06480	197754
9.07292	197561
9.08103	193855
9.08917	193813
9.09728	212142
9.10542	231726
9.11353	255437
9.12165	279640
9.12978	281648
9.13790	270114
9.14603	251523
9.15415	225799
9.16227	213450
9.17040	201315
9.17852	198987
9.18665	194257
9.19477	194860
9.20288	197002
9.21102	193880
9.21913	192895
9.22725	196053
9.23538	197801
9.24350	192590
9.25163	185040
9.25975	183955
9.26787	185421
9.27600	185681
9.28412	181084
9.29225	165639
9.30037	171276
9.30848	171301
9.31662	169104
9.32473	167574
9.33285	171192
9.34098	162283
9.34910	170846
9.35723	165843
9.36535	156858
9.37347	161495
9.38160	154314
9.38972	159653
9.39785	167339
9.40597	174559
9.41408	206956
9.42222	247908
9.43033	310998
9.43847	401226
9.44658	452613
9.45470	472217
9.46283	429701
9.47095	368694
9.47907	309211
9.48720	246405
9.49532	217374
9.50345	204255
9.51157	206897
9.51968	242408
9.52782	278496
9.53593	284535
9.54407	280722
9.55218	251608
9.56030	241651
9.56843	222688
9.57655	204141
9.58467	202537
9.59280	217507
9.60092	218868
9.60905	216903
9.61717	198356
9.62528	171618
9.63342	152102
9.64153	139558
9.64967	134997
9.65778	136234
9.66590	133035
9.67403	127165
9.68215	128007
9.69028	131747
9.69840	116924
9.70652	120624
9.71465	114693
9.72277	115911
9.73088	111233
9.73902	109762
9.74713	109335
9.75527	103607
9.76338	106217
9.77150	107494
9.77963	106952
9.78775	101957
9.79588	97156
9.80400	101436
9.81212	97873
9.82025	98407
9.82837	101493
9.83650	94172
9.84462	105788
9.85273	110547
9.86087	130359
9.86898	142630
9.87710	129757
9.88523	121939
9.89335	108302
9.90148	105211
9.90960	99282
9.91772	100939
9.92585	103006
9.93397	124702
9.94210	170085
9.95022	224531
9.95833	287972
9.96647	319334
9.97458	325981
9.98270	296998
9.99083	246870
9.99895	221228
10.00708	194442
10.01520	185204
10.02332	171971
10.03145	166340
10.03957	157812
10.04770	144200
10.05582	145532
10.06393	143674
10.07207	146684
10.08018	150859
10.08832	146397
10.09643	144874
10.10455	141291
10.11268	140400
10.12080	138989
10.12892	131663
10.13705	125750
10.14517	123146
10.15330	121959
10.16142	116019
10.16953	117714
10.17767	115522
10.18578	107487
10.19392	112681
10.20203	110398
10.21015	105826
10.21828	110427
10.22640	110040
10.23453	112737
10.24265	117356
10.25077	133685
10.25890	168086
10.26702	286267
10.27513	580349
10.28327	1134970
10.29138	1896039
10.29952	2806539
10.30763	3967550
10.31575	5624247
10.32388	7841248
10.33200	9717900
10.34013	1.062505E+07
10.34825	9617642
10.35637	7712356
10.36450	6514204
10.37262	6248592
10.38073	5970281
10.38887	5119984
10.39698	4077928
10.40512	2877858
10.41323	2007052
10.42135	1478991
10.42948	1245462
10.43760	1235353
10.44573	1272868
10.45385	1272032
10.46197	1210173
10.47010	1091519
10.47822	959340
10.48635	867086
10.49447	795899
10.50258	721282
10.51072	654275
10.51883	615957
10.52695	563106
10.53508	542529
10.54320	498377
10.55133	481308
10.55945	460750
10.56757	423884
10.57570	408208
10.58382	393761
10.59195	381993
10.60007	360868
10.60818	346430
10.61632	336155
10.62443	317447
10.63255	322368
10.64068	304776
10.64880	297867
10.65693	283201
10.66505	267983
10.67317	263083
10.68130	263754
10.68942	265708
10.69755	260565
10.70567	266043
10.71378	264175
10.72192	259741
10.73003	253474
10.73817	245831
10.74628	227894
10.75440	227095
10.76253	215024
10.77065	216587
10.77877	202420
10.78690	213813
10.79502	209196
10.80315	210362
10.81127	211596
10.81938	208418
10.82752	217626
10.83563	210529
10.84377	193125
10.85188	188499
10.86000	178892
10.86813	176516
10.87625	167956
10.88438	162688
10.89250	172530
10.90062	161564
10.90875	164590
10.91687	156493
10.92498	149527
10.93312	146123
10.94123	150513
10.94937	155499
10.95748	169940
10.96560	198370
10.97373	228133
10.98185	254486
10.98998	258792
10.99810	248677
11.00622	225202
11.01435	205277
11.02247	200627
11.03058	185124
11.03872	169347
11.04683	168711
11.05497	163705
11.06308	164389
11.07120	160099
11.07933	170696
11.08745	173691
11.09558	184197
11.10370	187033
11.11182	188377
11.11995	179706
11.12807	174795
11.13620	159462
11.14432	156764
11.15243	152119
11.16057	153886
11.16868	147762
11.17680	145023
11.18493	147967
11.19305	150424
11.20118	145654
11.20930	144481
11.21742	141892
11.22555	128401
11.23367	128583
11.24180	119385
11.24992	115247
11.25803	106913
11.26617	109960
11.27428	102382
11.28242	104958
11.29053	114939
11.29865	129591
11.30678	216108
11.31490	418210
11.32302	829163
11.33115	1528654
11.33927	2375235
11.34740	2969964
11.35552	3217723
11.36363	2884936
11.37177	2271810
11.37988	1673019
11.38802	1279900
11.39613	1109695
11.40425	1004791
11.41238	928405
11.42050	840731
11.42862	747381
11.43675	651745
11.44487	567005
11.45300	497298
11.46112	441475
11.46923	417481
11.47737	375693
11.48548	367876
11.49362	380459
11.50173	391587
11.50985	412184
11.51798	399597
11.52610	384783
11.53423	341039
11.54235	319794
11.55047	290651
11.55860	266563
11.56672	260369
11.57483	260969
11.58297	253919
11.59108	249543
11.59922	239217
11.60733	252673
11.61545	277226
11.62358	271796
11.63170	268948
11.63983	244499
11.64795	222309
11.65607	201025
11.66420	192778
11.67232	190714
11.68043	204190
11.68857	197095
11.69668	198303
11.70482	201775
11.71293	199837
11.72105	201002
11.72918	202348
11.73730	200415
11.74543	200057
11.75355	195205
11.76167	178063
11.76980	171210
11.77792	162788
11.78605	160008
11.79417	151955
11.80228	140340
11.81042	140182
11.81853	138207
11.82665	145202
11.83478	151977
11.84290	149477
11.85103	144584
11.85915	142541
11.86727	134454
11.87540	125794
11.88352	128737
11.89165	123274
11.89977	128708
11.90788	154556
11.91602	203748
11.92413	263299
11.93227	323886
11.94038	330892
11.94850	306635
11.95663	265176
11.96475	221328
11.97287	246825
11.98100	430796
11.98912	927144
11.99725	1873301
12.00537	3028389
12.01348	4145295
12.02162	4307177
12.02973	3968546
12.03787	3298212
12.04598	2466033
12.05410	1831661
12.06223	1454405
12.07035	1311810
12.07847	1187040
12.08660	1140683
12.09472	1063219
12.10285	1047086
12.11097	1009974
12.11908	1083815
12.12722	1243613
12.13533	1390555
12.14347	1457194
12.15158	1416416
12.15970	1301779
12.16783	1080416
12.17595	942742
12.18408	836716
12.19220	851424
12.20032	787174
12.20845	810976
12.21657	769359
12.22468	722389
12.23282	702867
12.24093	635372
12.24907	629257
12.25718	615136
12.26530	597279
12.27343	561026
12.28155	541336
12.28968	526661
12.29780	529891
12.30592	489535
12.31405	480212
12.32217	462780
12.33030	441188
12.33842	461957
12.34653	425591
12.35467	422932
12.36278	436752
12.37090	413708
12.37903	433770
12.38715	481377
12.39528	537773
12.40340	639610
12.41152	669576
12.41965	667708
12.42777	605791
12.43590	568206
12.44402	500371
12.45213	455738
12.46027	430280
12.46838	417439
12.47650	407870
12.48463	393638
12.49275	391016
12.50088	371441
12.50900	361269
12.51712	348624
12.52525	350838
12.53337	332211
12.54150	346118
12.54962	352868
12.55773	364238
12.56587	382614
12.57398	381912
12.58212	359855
12.59023	347663
12.59835	329259
12.60648	309177
12.61460	313379
12.62272	323821
12.63085	303968
12.63897	302592
12.64710	290440
12.65522	276345
12.66333	255299
12.67147	245319
12.67958	228125
12.68772	197890
12.69583	185242
12.70395	172535
12.71208	169186
12.72020	163558
12.72833	172164
12.73645	179752
12.74457	178361
12.75270	176889
12.76082	168542
12.76893	162059
12.77707	154887
12.78518	155692
12.79332	154979
12.80143	145169
12.80955	145480
12.81768	140254
12.82580	136139
12.83393	128001
12.84205	130143
12.85017	119930
12.85830	121752
12.86642	121904
12.87453	119541
12.88267	114063
12.89078	122158
12.89892	123209
12.90703	121491
12.91515	119480
12.92328	121246
12.93140	121166
12.93953	132114
12.94765	155300
12.95577	250431
12.96390	481100
12.97202	894542
12.98015	1402384
12.98827	1694162
12.99638	1599432
13.00452	1237589
13.01263	841444
13.02075	565144
13.02888	402189
13.03700	318446
13.04513	267465
13.05325	250037
13.06137	218785
13.06950	205271
13.07762	192724
13.08575	185856
13.09387	174223
13.10198	170784
13.11012	159162
13.11823	149571
13.12635	154252
13.13448	152618
13.14260	145995
13.15073	142628
13.15885	147794
13.16697	138121
13.17510	144472
13.18322	136216
13.19135	133884
13.19947	137070
13.20758	142106
13.21572	140310
13.22383	142450
13.23197	142045
13.24008	138326
13.24820	133276
13.25633	130464
13.26445	127108
13.27257	129346
13.28070	123445
13.28882	118930
13.29695	113540
13.30507	116923
13.31318	117969
13.32132	120862
13.32943	113498
13.33757	109154
13.34568	108401
13.35380	106268
13.36193	106846
13.37005	109085
13.37818	111084
13.38630	106394
13.39442	108371
13.40255	105117
13.41067	107008
13.41878	108610
13.42692	109183
13.43503	104805
13.44317	102663
13.45128	105969
13.45940	109177
13.46753	116685
13.47565	111602
13.48378	107203
13.49190	107619
13.50002	112558
13.50815	113475
13.51627	109079
13.52438	105635
13.53252	114617
13.54063	105157
13.54877	100750
13.55688	107666
13.56500	101305
13.57313	109842
13.58125	110748
13.58938	120476
13.59750	123203
13.60562	128734
13.61375	120164
13.62187	125519
13.63000	129016
13.63812	119331
13.64623	117900
13.65437	113538
13.66248	104617
13.67060	104217
13.67873	105067
13.68685	97219
13.69498	101870
13.70310	97527
13.71122	95671
13.71935	96211
13.72747	102996
13.73560	117195
13.74372	183276
13.75183	345915
13.75997	663943
13.76808	1206509
13.77622	1809074
13.78433	2256915
13.79245	2300963
13.80058	2082407
13.80870	1790296
13.81682	1470828
13.82495	1275760
13.83307	1179646
13.84120	1149634
13.84932	1135802
13.85743	1032862
13.86557	976849
13.87368	869805
13.88182	750040
13.88993	674380
13.89805	588745
13.90618	535704
13.91430	494111
13.92242	457534
13.93055	434739
13.93867	446128
13.94680	467756
13.95492	522426
13.96303	724135
13.97117	982767
13.97928	1277791
13.98742	1526191
13.99553	1600307
14.00365	1404759
14.01178	1203471
14.01990	1035082
14.02803	795697
14.03615	734470
14.04427	633459
14.05240	574290
14.06052	551881
14.06863	547808
14.07677	513043
14.08488	508292
14.09302	514202
14.10113	468805
14.10925	473346
14.11738	448465
14.12550	449551
14.13363	499250
14.14175	557651
14.14987	631232
14.15800	712740
14.16612	753533
14.17423	728517
14.18237	686475
14.19048	687622
14.19862	736803
14.20673	839874
14.21485	907766
14.22298	912089
14.23110	890040
14.23923	802739
14.24735	706678
14.25547	643444
14.26360	580764
14.27172	525545
14.27985	483208
14.28797	440737
14.29608	413017
14.30422	388923
14.31233	360389
14.32045	350171
14.32858	349095
14.33670	336702
14.34483	320372
14.35295	305040
14.36107	281030
14.36920	273294
14.37732	251677
14.38545	238588
14.39357	212194
14.40168	226673
14.40982	220314
14.41793	220214
14.42607	208729
14.43418	193511
14.44230	194625
14.45043	180875
14.45855	174643
14.46667	174390
14.47480	176164
14.48292	176811
14.49105	188501
14.49917	187963
14.50728	202611
14.51542	212586
14.52353	230209
14.53167	248889
14.53978	245771
14.54790	239566
14.55603	212933
14.56415	193708
14.57228	172903
14.58040	173852
14.58852	158086
14.59665	145161
14.60477	147143
14.61288	135161
14.62102	131876
14.62913	124971
14.63727	122392
14.64538	127045
14.65350	122272
14.66163	118694
14.66975	116762
14.67788	116394
14.68600	118704
14.69412	112402
14.70225	112742
14.71037	113425
14.71848	113646
14.72662	112404
14.73473	127432
14.74287	137002
14.75098	141810
14.75910	144878
14.76723	155949
14.77535	153076
14.78348	160211
14.79160	186760
14.79972	307150
14.80785	622797
14.81597	1317262
14.82410	2256929
14.83222	3111146
14.84033	3679332
14.84847	3572531
14.85658	2917558
14.86470	2094957
14.87283	1430084
14.88095	1034635
14.88908	793047
14.89720	637101
14.90532	558295
14.91345	477599
14.92157	445504
14.92970	399449
14.93782	366156
14.94593	349585
14.95407	345239
14.96218	321415
14.97030	304302
14.97843	284008
14.98655	278406
14.99468	258696
15.00280	247520
15.01092	241797
15.01905	222475
15.02717	222356
15.03530	219777
15.04342	210337
15.05153	205879
15.05967	199777
15.06778	198567
15.07592	189925
15.08403	180935
15.09215	177308
15.10028	171688
15.10840	168297
15.11652	158438
15.12465	169872
15.13277	160646
15.14090	157596
15.14902	154870
15.15713	159135
15.16527	152165
15.17338	139870
15.18152	131593
15.18963	124474
15.19775	120415
15.20588	110672
15.21400	113163
15.22213	110403
15.23025	114404
15.23837	102655
15.24650	102072
15.25462	104562
15.26273	101568
15.27087	98953
15.27898	101441
15.28712	94422
15.29523	97237
15.30335	92325
15.31148	94345
15.31960	96565
15.32773	94888
15.33585	90379
15.34397	86435
15.35210	90905
15.36022	89696
15.36833	93142
15.37647	90408
15.38458	85288
15.39272	89842
15.40083	88665
15.40895	89093
15.41708	89202
15.42520	83743
15.43333	89095
15.44145	87468
15.44957	91040
15.45770	93527
15.46582	109899
15.47395	127392
15.48207	170886
15.49018	248443
15.49832	336495
15.50643	415472
15.51455	452110
15.52268	479431
15.53080	452972
15.53893	403925
15.54705	362186
15.55517	309034
15.56330	264615
15.57142	222600
15.57955	210308
15.58767	192752
15.59578	170451
15.60392	156926
15.61203	151933
15.62017	142306
15.62828	137646
15.63640	129579
15.64453	126324
15.65265	129722
15.66077	124263
15.66890	112272
15.67702	119288
15.68515	109115
15.69327	102033
15.70138	106922
15.70952	104272
15.71763	100284
15.72577	100216
15.73388	95300
15.74200	101433
15.75013	97884
15.75825	115312
15.76637	141325
15.77450	194967
15.78262	252397
15.79075	327738
15.79887	359600
15.80698	366638
15.81512	312627
15.82323	267133
15.83137	222629
15.83948	194523
15.84760	167275
15.85573	151697
15.86385	146543
15.87198	138695
15.88010	131308
15.88822	128241
15.89635	127247
15.90447	123507
15.91258	125493
15.92072	121030
15.92883	118425
15.93697	119589
15.94508	120521
15.95320	140523
15.96133	151737
15.96945	179843
15.97758	224115
15.98570	249320
15.99382	261088
16.00195	247766
16.01007	244845
16.01818	229490
16.02632	232101
16.03443	224384
16.04257	224129
16.05068	210517
16.05880	198766
16.06693	182556
16.07505	165032
16.08318	156838
16.09130	148201
16.09942	141516
16.10755	132300
16.11567	131773
16.12380	133587
16.13192	126655
16.14003	131564
16.14817	133929
16.15628	135266
16.16440	136677
16.17253	140467
16.18065	127928
16.18878	112042
16.19690	117440
16.20502	112589
16.21315	110426
16.22127	117527
16.22940	110545
16.23752	106177
16.24563	104068
16.25377	109221
16.26188	98591
16.27002	103174
16.27813	105197
16.28625	110277
16.29438	117570
16.30250	115334
16.31062	120504
16.31875	116601
16.32687	116513
16.33500	114959
16.34312	113829
16.35123	116509
16.35937	136465
16.36748	164884
16.37562	212998
16.38373	256641
16.39185	281301
16.39998	270292
16.40810	264894
16.41622	212390
16.42435	186518
16.43247	169187
16.44060	152803
16.44872	150389
16.45683	165246
16.46497	218879
16.47308	337157
16.48122	509218
16.48933	659729
16.49745	744777
16.50558	682206
16.51370	542790
16.52183	391170
16.52995	301906
16.53807	244663
16.54620	213476
16.55432	185691
16.56243	176017
16.57057	169937
16.57868	160096
16.58682	148692
16.59493	149800
16.60305	142645
16.61118	139449
16.61930	128963
16.62743	134535
16.63555	131123
16.64367	128352
16.65180	131652
16.65992	123458
16.66805	113473
16.67617	112596
16.68428	111632
16.69242	112903
16.70053	113936
16.70865	110158
16.71678	103945
16.72490	99833
16.73303	104469
16.74115	100305
16.74927	91257
16.75740	96233
16.76552	101178
16.77365	93563
16.78177	99977
16.78988	100138
16.79802	95171
16.80613	98317
16.81425	90805
16.82238	87742
16.83050	83581
16.83863	88538
16.84675	88705
16.85487	91669
16.86300	94127
16.87112	97607
16.87925	92491
16.88737	97383
16.89548	87236
16.90362	83661
16.91173	83825
16.91987	91147
16.92798	83201
16.93610	81506
16.94423	81635
16.95235	79749
16.96047	77361
16.96860	77773
16.97672	74418
16.98485	76637
16.99297	81368
17.00108	78742
17.00922	80404
17.01733	82964
17.02547	82118
17.03358	86053
17.04170	83084
17.04983	87689
17.05795	87586
17.06608	88743
17.07420	89639
17.08232	87796
17.09045	80744
17.09857	96089
17.10668	90524
17.11482	101888
17.12293	107764
17.13107	116011
17.13918	117878
17.14730	112121
17.15543	119753
17.16355	117581
17.17168	104638
17.17980	104857
17.18792	98677
17.19605	95386
17.20417	93192
17.21228	90580
17.22042	80706
17.22853	80919
17.23667	83716
17.24478	85039
17.25290	82139
17.26103	82760
17.26915	85208
17.27728	77902
17.28540	80819
17.29352	81839
17.30165	85347
17.30977	83070
17.31790	102053
17.32602	118547
17.33413	125435
17.34227	145780
17.35038	156872
17.35850	154863
17.36663	151472
17.37475	147572
17.38288	138761
17.39100	140789
17.39912	135043
17.40725	136466
17.41537	135133
17.42350	135268
17.43162	132556
17.43973	136126
17.44787	134061
17.45598	131130
17.46410	121809
17.47223	119501
17.48035	107041
17.48848	107091
17.49660	101777
17.50472	99932
17.51285	100439
17.52097	97046
17.52910	99163
17.53722	97736
17.54533	101930
17.55347	98283
17.56158	98427
17.56972	99972
17.57783	103117
17.58595	118271
17.59408	146049
17.60220	181047
17.61032	231715
17.61845	273557
17.62657	311149
17.63470	307577
17.64282	307975
17.65093	331842
17.65907	1262832
17.66718	7980501
17.67532	1.719849E+07
17.68343	1.966156E+07
17.69155	1.944409E+07
17.69968	1.862128E+07
17.70780	1.741969E+07
17.71593	1.619086E+07
17.72405	1.529566E+07
17.73217	1.417177E+07
17.74030	1.331336E+07
17.74842	1.239917E+07
17.75653	1.129175E+07
17.76467	1.05945E+07
17.77278	1.00051E+07
17.78092	9287255
17.78903	8717909
17.79715	8095639
17.80528	7512604
17.81340	7103390
17.82153	6804127
17.82965	6553926
17.83777	6107978
17.84590	5745514
17.85402	5425827
17.86213	5190396
17.87027	4963997
17.87838	4742050
17.88652	4539255
17.89463	4312508
17.90275	4104844
17.91088	3872515
17.91900	3711659
17.92713	3539138
17.93525	3450470
17.94337	3291604
17.95150	3144529
17.95962	3038395
17.96775	2924998
17.97587	2810560
17.98398	2648331
17.99212	2586837
18.00023	2540746
18.00835	2398442
18.01648	2311887
18.02460	2254618
18.03273	2209784
18.04085	2165658
18.04897	2127050
18.05710	2073960
18.06522	2090630
18.07335	2151333
18.08147	2326807
18.08958	2658216
18.09772	2908410
18.10583	3010598
18.11397	2961259
18.12208	2821123
18.13020	2541118
18.13833	2275338
18.14645	2122056
18.15457	1970877
18.16270	1868216
18.17082	1806339
18.17895	1706072
18.18707	1626529
18.19518	1544253
18.20332	1457641
18.21143	1412643
18.21957	1360270
18.22768	1304757
18.23580	1273770
18.24393	1224016
18.25205	1190859
18.26017	1137057
18.26830	1101003
18.27642	1078389
18.28455	1011859
18.29267	958069
18.30078	928623
18.30892	883267
18.31703	881542
18.32517	837990
18.33328	837109
18.34140	815156
18.34953	795236
18.35765	776662
18.36578	762354
18.37390	752534
18.38202	738608
18.39015	726592
18.39827	720236
18.40638	715178
18.41452	698353
18.42263	690818
18.43077	697101
18.43888	713665
18.44700	716093
18.45513	722158
18.46325	742698
18.47138	755591
18.47950	776095
18.48762	756947
18.49575	744164
18.50387	735237
18.51198	687525
18.52012	654812
18.52823	630697
18.53637	616766
18.54448	593377
18.55260	577640
18.56073	557007
18.56885	563220
18.57698	547396
18.58510	538413
18.59322	550463
18.60135	529457
18.60947	519297
18.61760	521437
18.62572	518999
18.63383	530393
18.64197	531282
18.65008	515779
18.65820	496721
18.66633	504292
18.67445	471675
18.68258	467659
18.69070	462083
18.69882	444774
18.70695	444887
18.71507	449435
18.72320	432481
18.73132	422166
18.73943	426803
18.74757	418806
18.75568	427522
18.76382	427112
18.77193	411197
18.78005	410689
18.78818	398008
18.79630	401103
18.80442	386459
18.81255	388160
18.82067	398879
18.82880	385992
18.83692	389689
18.84503	375931
18.85317	386677
18.86128	368067
18.86942	363217
18.87753	367911
18.88565	361483
18.89378	372100
18.90190	364092
18.91002	348508
18.91815	361099
18.92627	350193
18.93440	378658
18.94252	380675
18.95063	399679
18.95877	425749
18.96688	456215
18.97502	453907
18.98313	438178
18.99125	417533
18.99938	388982
19.00750	367434
19.01563	368272
19.02375	347819
19.03187	344573
19.04000	338476
19.04812	340577
19.05623	329505
19.06437	325671
19.07248	340357
19.08062	360304
19.08873	409866
19.09685	475767
19.10498	530831
19.11310	590100
19.12123	582736
19.12935	555573
19.13747	492321
19.14560	450367
19.15372	415052
19.16185	382193
19.16997	364958
19.17808	344024
19.18622	344136
19.19433	343298
19.20245	329678
19.21058	319422
19.21870	301999
19.22683	305177
19.23495	298595
19.24307	288671
19.25120	272766
19.25932	282564
19.26745	279800
19.27557	279588
19.28368	289310
19.29182	293752
19.29993	300471
19.30805	307715
19.31618	305726
19.32430	304255
19.33243	312586
19.34055	309361
19.34867	313176
19.35680	317535
19.36492	351460
19.37305	379790
19.38117	401054
19.38928	412996
19.39742	404647
19.40553	391109
19.41367	368508
19.42178	352611
19.42990	340008
19.43803	317492
19.44615	304960
19.45427	298165
19.46240	297708
19.47052	294434
19.47865	285373
19.48677	294806
19.49488	313115
19.50302	335589
19.51113	386674
19.51927	445078
19.52738	471372
19.53550	476025
19.54363	445349
19.55175	384143
19.55987	338147
19.56800	301780
19.57612	274630
19.58425	258858
19.59237	242849
19.60048	243405
19.60862	235493
19.61673	234621
19.62487	227151
19.63298	234482
19.64110	256799
19.64923	312710
19.65735	394564
19.66548	502879
19.67360	569750
19.68172	614137
19.68985	605772
19.69797	557374
19.70608	500062
19.71422	420549
19.72233	376673
19.73047	342770
19.73858	329827
19.74670	316039
19.75483	305987
19.76295	290720
19.77108	277296
19.77920	276957
19.78732	274489
19.79545	280648
19.80357	306861
19.81170	309355
19.81982	311051
19.82793	301970
19.83607	286888
19.84418	270879
19.85230	268211
19.86043	286901
19.86855	351577
19.87668	511325
19.88480	793888
19.89292	1191080
19.90105	1590451
19.90917	1890383
19.91730	1937224
19.92542	1836932
19.93353	1561100
19.94167	1325073
19.94978	1153684
19.95792	1006231
19.96603	916515
19.97415	850389
19.98228	780010
19.99040	771389
19.99852	725545
20.00665	680185
20.01477	644391
20.02290	630607
20.03102	599417
20.03913	573131
20.04727	530264
20.05538	487089
20.06352	461979
20.07163	447178
20.07975	451017
20.08788	470744
20.09600	476922
20.10412	491175
20.11225	463674
20.12037	429000
20.12850	391882
20.13662	373549
20.14473	369329
20.15287	403001
20.16098	497944
20.16912	674349
20.17723	990646
20.18535	1396281
20.19348	1814460
20.20160	2164588
20.20973	2312963
20.21785	2189357
20.22597	1935739
20.23410	1631036
20.24222	1324280
20.25033	1197383
20.25847	1196725
20.26658	1338612
20.27472	1509725
20.28283	1671360
20.29095	1735512
20.29908	1656825
20.30720	1484617
20.31533	1201931
20.32345	944635
20.33157	727775
20.33970	569311
20.34782	463888
20.35593	379634
20.36407	332901
20.37218	304562
20.38032	278105
20.38843	257860
20.39655	245495
20.40468	244228
20.41280	225390
20.42093	233594
20.42905	233082
20.43717	232621
20.44530	239582
20.45342	253383
20.46155	251666
20.46967	247233
20.47778	241023
20.48592	228489
20.49403	229488
20.50215	214432
20.51028	198366
20.51840	195724
20.52653	191844
20.53465	182541
20.54277	183097
20.55090	176693
20.55902	179164
20.56715	179995
20.57527	175367
20.58338	177501
20.59152	167332
20.59963	173782
20.60777	166366
20.61588	167585
20.62400	162516
20.63213	162816
20.64025	165328
20.64837	167386
20.65650	171528
20.66462	164151
20.67275	169323
20.68087	161682
20.68898	165284
20.69712	162935
20.70523	154030
20.71337	156336
20.72148	153692
20.72960	146894
20.73773	153482
20.74585	159024
20.75397	157374
20.76210	159693
20.77022	160359
20.77835	165944
20.78647	186648
20.79458	212853
20.80272	274120
20.81083	361775
20.81897	440332
20.82708	489230
20.83520	474952
20.84333	417253
20.85145	333717
20.85958	272089
20.86770	226391
20.87582	200691
20.88395	187702
20.89207	176507
20.90018	167955
20.90832	171082
20.91643	175760
20.92457	187961
20.93268	184945
20.94080	194872
20.94893	200816
20.95705	187737
20.96518	188660
20.97330	187350
20.98142	177473
20.98955	164891
20.99767	162971
21.00580	159575
21.01392	149448
21.02203	162302
21.03017	152609
21.03828	155779
21.04640	159488
21.05453	159564
21.06265	156702
21.07078	159296
21.07890	161287
21.08702	169113
21.09515	163298
21.10327	165167
21.11140	154371
21.11952	151776
21.12763	142036
21.13577	151814
21.14388	168102
21.15200	184195
21.16013	201678
21.16825	217118
21.17638	227402
21.18450	216180
21.19262	198218
21.20075	189669
21.20887	171662
21.21700	162395
21.22512	165233
21.23323	152619
21.24137	153816
21.24948	151075
21.25762	142378
21.26573	145356
21.27385	138126
21.28198	141131
21.29010	134995
21.29822	137370
21.30635	133809
21.31447	130796
21.32260	129524
21.33072	132913
21.33883	137465
21.34697	132397
21.35508	129158
21.36322	133018
21.37133	130189
21.37945	131030
21.38758	143646
21.39570	154755
21.40382	164480
21.41195	185211
21.42007	198210
21.42820	199650
21.43632	199066
21.44443	191087
21.45257	177988
21.46068	177931
21.46882	169227
21.47693	160228
21.48505	156061
21.49318	157586
21.50130	152597
21.50943	151016
21.51755	154329
21.52567	152749
21.53380	152689
21.54192	154208
21.55003	147812
21.55817	150232
21.56628	148320
21.57442	145546
21.58253	152570
21.59065	148230
21.59878	146507
21.60690	157336
21.61503	150636
21.62315	162939
21.63127	164811
21.63940	180364
21.64752	187680
21.65565	189797
21.66377	197978
21.67188	202377
21.68002	191886
21.68813	187044
21.69625	177340
21.70438	171549
21.71250	164251
21.72063	165282
21.72875	160974
21.73687	166459
21.74500	154977
21.75312	160611
21.76125	160986
21.76937	157403
21.77748	163213
21.78562	171182
21.79373	176052
21.80185	180817
21.80998	180039
21.81810	193552
21.82623	192504
21.83435	197879
21.84247	198067
21.85060	191373
21.85872	188763
21.86685	184054
21.87497	170110
21.88308	161992
21.89122	154339
21.89933	141549
21.90747	137210
21.91558	134595
21.92370	136783
21.93183	133003
21.93995	128983
21.94807	127287
21.95620	115851
21.96432	124280
21.97245	116902
21.98057	116374
21.98868	118117
21.99682	119688
22.00493	112484
22.01307	119352
22.02118	121577
22.02930	116412
22.03743	116452
22.04555	120402
22.05368	123157
22.06180	122559
22.06992	119962
22.07805	125197
22.08617	119269
22.09428	125363
22.10242	119066
22.11053	120616
22.11867	127773
22.12678	126054
22.13490	123908
22.14303	123400
22.15115	119540
22.15928	122717
22.16740	127017
22.17552	118112
22.18365	116413
22.19177	123284
22.19988	120890
22.20802	122712
22.21613	119477
22.22427	121748
22.23238	117135
22.24050	130082
22.24863	133118
22.25675	121167
22.26488	129371
22.27300	125105
22.28112	117248
22.28925	126985
22.29737	124298
22.30550	130408
22.31362	130943
22.32173	129411
22.32987	132287
22.33798	127241
22.34610	130682
22.35423	124842
22.36235	125885
22.37048	122877
22.37860	122751
22.38672	122553
22.39485	127208
22.40297	141960
22.41110	156176
22.41922	180055
22.42733	200996
22.43547	203630
22.44358	201243
22.45172	196178
22.45983	176486
22.46795	167581
22.47608	161834
22.48420	150493
22.49232	153802
22.50045	168114
22.50857	174641
22.51670	172722
22.52482	178094
22.53293	173186
22.54107	180627
22.54918	166611
22.55732	169416
22.56543	168777
22.57355	161466
22.58168	149599
22.58980	146778
22.59792	140531
22.60605	147948
22.61417	135752
22.62230	137817
22.63042	136315
22.63853	128390
22.64667	131509
22.65478	129350
22.66292	137273
22.67103	134345
22.67915	135705
22.68728	139038
22.69540	136017
22.70353	139844
22.71165	146761
22.71977	148914
22.72790	160263
22.73602	151759
22.74413	151055
22.75227	146887
22.76038	152758
22.76852	139955
22.77663	142216
22.78475	139634
22.79288	147645
22.80100	150608
22.80913	151999
22.81725	156647
22.82537	157431
22.83350	149224
22.84162	150565
22.84973	148428
22.85787	154331
22.86598	151276
22.87412	163972
22.88223	177703
22.89035	196285
22.89848	220458
22.90660	237977
22.91473	248945
22.92285	258216
22.93097	257400
22.93910	257290
22.94722	243490
22.95535	232203
22.96347	211473
22.97158	200759
22.97972	176008
22.98783	166080
22.99595	163655
23.00408	153394
23.01220	154949
23.02033	145276
23.02845	144029
23.03657	137599
23.04470	137985
23.05282	132266
23.06095	130582
23.06907	128090
23.07718	134606
23.08532	130458
23.09343	126315
23.10157	124227
23.10968	128098
23.11780	131036
23.12593	132079
23.13405	128353
23.14217	135776
23.15030	132839
23.15842	127367
23.16655	126408
23.17467	137049
23.18278	134174
23.19092	136624
23.19903	139349
23.20717	140698
23.21528	138586
23.22340	141408
23.23153	142097
23.23965	140607
23.24777	141494
23.25590	135643
23.26402	149421
23.27215	156695
23.28027	147109
23.28838	148751
23.29652	140630
23.30463	141791
23.31277	142133
23.32088	137980
23.32900	150138
23.33713	151728
23.34525	156858
23.35338	190719
23.36150	201375
23.36962	232028
23.37775	244477
23.38587	267590
23.39398	271284
23.40212	266262
23.41023	273185
23.41837	275259
23.42648	276110
23.43460	274817
23.44273	276046
23.45085	258165
23.45898	251736
23.46710	246822
23.47522	239465
23.48335	233695
23.49147	230463
23.49960	224523
23.50772	206646
23.51583	208748
23.52397	203627
23.53208	200496
23.54020	189929
23.54833	187874
23.55645	187878
23.56458	200404
23.57270	213422
23.58082	239766
23.58895	285325
23.59707	329342
23.60520	368191
23.61332	379551
23.62143	390217
23.62957	349883
23.63768	303629
23.64580	263147
23.65393	227805
23.66205	215642
23.67018	202430
23.67830	199227
23.68642	194212
23.69455	187386
23.70267	184431
23.71080	170808
23.71892	167217
23.72703	158139
23.73517	160036
23.74328	169995
23.75142	242693
23.75953	454750
23.76765	911844
23.77578	1871570
23.78390	3025078
23.79202	4030276
23.80015	4636723
23.80827	4380989
23.81640	3729795
23.82452	2750868
23.83263	1886922
23.84077	1362700
23.84888	1029910
23.85702	832815
23.86513	686270
23.87325	595221
23.88138	523073
23.88950	469736
23.89762	424005
23.90575	403735
23.91387	383746
23.92200	369117
23.93012	351284
23.93823	330065
23.94637	316400
23.95448	288451
23.96262	273323
23.97073	274114
23.97885	263854
23.98698	248943
23.99510	269029
24.00323	350655
24.01135	530777
24.01947	918653
24.02760	1475264
24.03572	1986228
24.04383	2213763
24.05197	2032759
24.06008	1533619
24.06822	1039194
24.07633	681191
24.08445	446475
24.09258	340428
24.10070	277178
24.10883	243993
24.11695	236807
24.12507	224658
24.13320	220273
24.14132	216826
24.14945	224330
24.15757	209827
24.16568	215614
24.17382	226638
24.18193	202375
24.19005	209959
24.19818	204421
24.20630	199013
24.21443	201650
24.22255	201845
24.23067	201168
24.23880	182930
24.24692	173197
24.25505	164536
24.26317	168654
24.27128	161544
24.27942	150452
24.28753	152159
24.29565	154142
24.30378	151803
24.31190	154235
24.32003	148361
24.32815	155402
24.33627	151264
24.34440	159158
24.35252	155469
24.36065	148386
24.36877	151890
24.37688	168477
24.38502	184736
24.39313	206446
24.40127	237816
24.40938	247524
24.41750	257675
24.42563	237670
24.43375	224074
24.44187	201199
24.45000	175789
24.45812	160832
24.46625	151336
24.47437	158044
24.48248	168209
24.49062	173977
24.49873	178021
24.50687	175310
24.51498	184441
24.52310	185382
24.53123	182099
24.53935	178053
24.54748	183057
24.55560	181136
24.56372	179192
24.57185	175171
24.57997	172080
24.58808	164975
24.59622	163126
24.60433	147760
24.61247	142872
24.62058	135954
24.62870	134035
24.63683	138725
24.64495	134699
24.65308	130060
24.66120	134786
24.66932	135062
24.67745	135568
24.68557	131283
24.69368	127360
24.70182	127637
24.70993	125049
24.71807	124188
24.72618	120442
24.73430	125879
24.74243	135317
24.75055	123968
24.75868	119532
24.76680	124499
24.77492	136369
24.78305	145019
24.79117	153796
24.79930	159499
24.80742	171978
24.81553	164540
24.82367	166247
24.83178	175330
24.83990	173104
24.84803	195346
24.85615	217504
24.86428	268247
24.87240	341430
24.88052	429831
24.88865	526532
24.89677	581855
24.90490	602997
24.91302	556101
24.92113	476952
24.92927	385180
24.93738	288778
24.94550	245287
24.95363	218759
24.96175	196144
24.96988	184112
24.97800	177009
24.98612	178870
24.99425	180984
25.00237	171495
25.01050	178097
25.01862	173348
25.02673	173315
25.03487	171017
25.04298	170964
25.05112	169681
25.05923	167244
25.06735	169281
25.07548	168956
25.08360	177528
25.09172	181579
25.09985	197417
25.10797	245881
25.11610	375121
25.12422	630763
25.13233	1062026
25.14047	1580057
25.14858	2059327
25.15672	2274292
25.16483	2111616
25.17295	1691657
25.18108	1247813
25.18920	861918
25.19733	598039
25.20545	419065
25.21357	319334
25.22170	264060
25.22982	239020
25.23793	227663
25.24607	227870
25.25418	242666
25.26232	264381
25.27043	286342
25.27855	298891
25.28668	294065
25.29480	267406
25.30293	235673
25.31105	222928
25.31917	201093
25.32730	194124
25.33542	192935
25.34355	180737
25.35167	182826
25.35978	171701
25.36792	162958
25.37603	161560
25.38415	158176
25.39228	159059
25.40040	157745
25.40853	156964
25.41665	153453
25.42477	157748
25.43290	150603
25.44102	155307
25.44915	162676
25.45727	155443
25.46538	160626
25.47352	159248
25.48163	155453
25.48975	160465
25.49788	157094
25.50600	157506
25.51413	154041
25.52225	151144
25.53037	144984
25.53850	150805
25.54662	141057
25.55475	140669
25.56287	138949
25.57098	151827
25.57912	148403
25.58723	145685
25.59537	149584
25.60348	146383
25.61160	145879
25.61973	138370
25.62785	142651
25.63597	138215
25.64410	136671
25.65222	142666
25.66035	140070
25.66847	137690
25.67658	134202
25.68472	137595
25.69283	135471
25.70097	137371
25.70908	135531
25.71720	126151
25.72533	129365
25.73345	123495
25.74157	128374
25.74970	125946
25.75782	130767
25.76595	142257
25.77407	166905
25.78218	188905
25.79032	215199
25.79843	223508
25.80657	209843
25.81468	191618
25.82280	165506
25.83093	151831
25.83905	150178
25.84718	158287
25.85530	158632
25.86342	158880
25.87155	157247
25.87967	151651
25.88778	142993
25.89592	136445
25.90403	126096
25.91217	121639
25.92028	116883
25.92840	118048
25.93653	117473
25.94465	114754
25.95278	113029
25.96090	115537
25.96902	110584
25.97715	111862
25.98527	107389
25.99340	105329
26.00152	100959
26.00963	108851
26.01777	106735
26.02588	105044
26.03400	104806
26.04213	104806
26.05025	107741
26.05838	108448
26.06650	110744
26.07462	111272
26.08275	120586
26.09087	120212
26.09900	130735
26.10712	133659
26.11523	140429
26.12337	144839
26.13148	159785
26.13960	157238
26.14773	163233
26.15585	168185
26.16398	173543
26.17210	164139
26.18022	161949
26.18835	157956
26.19647	158446
26.20460	147999
26.21272	148890
26.22083	139011
26.22897	148899
26.23708	142349
26.24522	135886
26.25333	141669
26.26145	151815
26.26958	143795
26.27770	146824
26.28582	138450
26.29395	141291
26.30207	136351
26.31020	140222
26.31832	134396
26.32643	134524
26.33457	132695
26.34268	137758
26.35082	130972
26.35893	148559
26.36705	162339
26.37518	191274
26.38330	227125
26.39143	282564
26.39955	320407
26.40767	362222
26.41580	371743
26.42392	336447
26.43203	298575
26.44017	261807
26.44828	213939
26.45642	193525
26.46453	165007
26.47265	158326
26.48078	155592
26.48890	146890
26.49703	141708
26.50515	136089
26.51327	138624
26.52140	132617
26.52952	131080
26.53763	127074
26.54577	122783
26.55388	121023
26.56202	126875
26.57013	124623
26.57825	133209
26.58638	130442
26.59450	122875
26.60263	123140
26.61075	122593
26.61887	117574
26.62700	120495
26.63512	117308
26.64325	115698
26.65137	111628
26.65948	114584
26.66762	119727
26.67573	118690
26.68385	114907
26.69198	118838
26.70010	114269
26.70823	108292
26.71635	117678
26.72447	115916
26.73260	114671
26.74072	115654
26.74885	111545
26.75697	113720
26.76508	112362
26.77322	115667
26.78133	112000
26.78945	118179
26.79758	117488
26.80570	121228
26.81383	125064
26.82195	126731
26.83007	121621
26.83820	123707
26.84632	121162
26.85445	123455
26.86257	121259
26.87068	123954
26.87882	116217
26.88693	132842
26.89507	115641
26.90318	120880
26.91130	116203
26.91943	111746
26.92755	116751
26.93567	113113
26.94380	116497
26.95192	118599
26.96005	117125
26.96817	131718
26.97628	155934
26.98442	204359
26.99253	288989
27.00067	405156
27.00878	589325
27.01690	733552
27.02503	859425
27.03315	874113
27.04128	822543
27.04940	689111
27.05752	573680
27.06565	459580
27.07377	370941
27.08188	304013
27.09002	260595
27.09813	243980
27.10627	217978
27.11438	212796
27.12250	199748
27.13063	182626
27.13875	185214
27.14688	179670
27.15500	170978
27.16312	171853
27.17125	159885
27.17937	164808
27.18748	158820
27.19562	162488
27.20373	151822
27.21187	148048
27.21998	144559
27.22810	140079
27.23623	142136
27.24435	141916
27.25248	138290
27.26060	136901
27.26872	140836
27.27685	128553
27.28497	128173
27.29310	120617
27.30122	122657
27.30933	124769
27.31747	125701
27.32558	122931
27.33370	121131
27.34183	120419
27.34995	122570
27.35808	118871
27.36620	120958
27.37432	118707
27.38245	118824
27.39057	128020
27.39870	112565
27.40682	117915
27.41493	113186
27.42307	112667
27.43118	115028
27.43932	116240
27.44743	117503
27.45555	104815
27.46368	114435
27.47180	109914
27.47992	105771
27.48805	108504
27.49617	107371
27.50430	109517
27.51242	111037
27.52053	109932
27.52867	111203
27.53678	114101
27.54492	109366
27.55303	112974
27.56115	111074
27.56928	112693
27.57740	116772
27.58552	124023
27.59365	126873
27.60177	134299
27.60990	140341
27.61802	137046
27.62613	129997
27.63427	123966
27.64238	117697
27.65052	118809
27.65863	109733
27.66675	114096
27.67488	105552
27.68300	108533
27.69113	110893
27.69925	105624
27.70737	107714
27.71550	113618
27.72362	110518
27.73173	111792
27.73987	106224
27.74798	103539
27.75612	106075
27.76423	105129
27.77235	104144
27.78048	109172
27.78860	103435
27.79673	107005
27.80485	104239
27.81297	105181
27.82110	100351
27.82922	99834
27.83733	105182
27.84547	104373
27.85358	102174
27.86172	100782
27.86983	101788
27.87795	100656
27.88608	101585
27.89420	99191
27.90233	102421
27.91045	101223
27.91857	100577
27.92670	100943
27.93482	95835
27.94295	96680
27.95107	93380
27.95918	95032
27.96732	98528
27.97543	98160
27.98355	94169
27.99168	96574
27.99980	100698
28.00793	95261
28.01605	97343
28.02417	104150
28.03230	105975
28.04042	110269
28.04855	111017
28.05667	120329
28.06478	123233
28.07292	122203
28.08103	112968
28.08917	117484
28.09728	115767
28.10540	117379
28.11353	109803
28.12165	108412
28.12977	106167
28.13790	100181
28.14602	101279
28.15415	100014
28.16227	95970
28.17038	95694
28.17852	105324
28.18663	114848
28.19477	110492
28.20288	121049
28.21100	133276
28.21913	145243
28.22725	153561
28.23537	148610
28.24350	137169
28.25162	131066
28.25975	125350
28.26787	117614
28.27598	111774
28.28412	109060
28.29223	107053
28.30037	107679
28.30848	107872
28.31660	110486
28.32473	114798
28.33285	120548
28.34098	129276
28.34910	135631
28.35722	149666
28.36535	154132
28.37347	167699
28.38158	172886
28.38972	178936
28.39783	178741
28.40597	184298
28.41408	180948
28.42220	175009
28.43033	180896
28.43845	168499
28.44658	160807
28.45470	152561
28.46282	148377
28.47095	150746
28.47907	155837
28.48720	151822
28.49532	155162
28.50343	158803
28.51157	156875
28.51968	154942
28.52780	153555
28.53593	150135
28.54405	146318
28.55218	143109
28.56030	136371
28.56842	132773
28.57655	127380
28.58467	128213
28.59280	128027
28.60092	124842
28.60903	127258
28.61717	129793
28.62528	132269
28.63340	136983
28.64153	133141
28.64965	133143
28.65778	141376
28.66590	143131
28.67402	137549
28.68215	137684
28.69027	127376
28.69840	127922
28.70652	122043
28.71463	109830
28.72277	115464
28.73088	110429
28.73902	112400
28.74713	114063
28.75525	120593
28.76338	119734
28.77150	131063
28.77962	138868
28.78775	157196
28.79587	157848
28.80400	156313
28.81212	143459
28.82023	133661
28.82837	126449
28.83648	124713
28.84462	116845
28.85273	114581
28.86085	116047
28.86898	110924
28.87710	113565
28.88523	117705
28.89335	113762
28.90147	117231
28.90960	115481
28.91772	118918
28.92583	119415
28.93397	109247
28.94208	117491
28.95022	113278
28.95833	115160
28.96645	118023
28.97458	107489
28.98270	109933
28.99083	110158
28.99895	106713
29.00707	105192
29.01520	101515
29.02332	103493
29.03143	101790
29.03957	104620
29.04768	101487
29.05582	98840
29.06393	101264
29.07205	98921
29.08018	101474
29.08830	98246
29.09643	99240
29.10455	102656
29.11267	102800
29.12080	108126
29.12892	99046
29.13705	95380
29.14517	99418
29.15328	95225
29.16142	101817
29.16953	98711
29.17765	97386
29.18578	100969
29.19390	98098
29.20203	100957
29.21015	111759
29.21827	124682
29.22640	127853
29.23452	138412
29.24265	171421
29.25077	222847
29.25888	303777
29.26702	378309
29.27513	402372
29.28325	379761
29.29138	350920
29.29950	275371
29.30763	211315
29.31575	176277
29.32387	159807
29.33200	140523
29.34012	137671
29.34825	128098
29.35637	128608
29.36448	123691
29.37262	121716
29.38073	125040
29.38887	123066
29.39698	126871
29.40510	122212
29.41323	121677
29.42135	123829
29.42947	123795
29.43760	123258
29.44572	118476
29.45385	117874
29.46197	119975
29.47008	126707
29.47822	122770
29.48633	119774
29.49447	132117
29.50258	131938
29.51070	129304
29.51883	128159
29.52695	127559
29.53508	121604
29.54320	119251
29.55132	118370
29.55945	109120
29.56757	105052
29.57568	107477
29.58382	103621
29.59193	106149
29.60007	104107
29.60818	101561
29.61630	103041
29.62443	104721
29.63255	101186
29.64068	99366
29.64880	98751
29.65692	105756
29.66505	101234
29.67317	95111
29.68128	98991
29.68942	93068
29.69753	95554
29.70567	98430
29.71378	92852
29.72190	95556
29.73003	95712
29.73815	95110
29.74628	95063
29.75440	92778
29.76252	94034
29.77065	89586
29.77877	95478
29.78690	90919
29.79502	94153
29.80313	89923
29.81127	87085
29.81938	90203
29.82750	90309
29.83563	92746
29.84375	95219
29.85188	101082
29.86000	101438
29.86812	97195
29.87625	104787
29.88437	116562
29.89250	122835
29.90062	135419
29.90873	134892
29.91687	136265
29.92498	125958
29.93312	116559
29.94123	110458
29.94935	100045
29.95748	100648
29.96560	105784
29.97372	107692
29.98185	100366
29.98997	105150
29.99810	118719
30.00622	120954
30.01433	127679
30.02247	134372
30.03058	126313
30.03872	134548
30.04683	134924
30.05495	131088
30.06308	133425
30.07120	133667
30.07932	134244
30.08745	125994
30.09557	121384
30.10370	121288
30.11182	127706
30.11993	115684
30.12807	121324
30.13618	124250
30.14432	125285
30.15243	113148
30.16055	120421
30.16868	109090
30.17680	116269
30.18493	111040
30.19305	111182
30.20117	118160
30.20930	117462
30.21742	117991
30.22553	110455
30.23367	117011
30.24178	107634
30.24992	100732
30.25803	98620
30.26615	96225
30.27428	99999
30.28240	97615
30.29053	96817
30.29865	95505
30.30677	96411
30.31490	100625
30.32302	90773
30.33113	95789
30.33927	94194
30.34738	89557
30.35552	92394
30.36363	92476
30.37175	93580
30.37988	94490
30.38800	88676
30.39613	89334
30.40425	91532
30.41237	89026
30.42050	87339
30.42862	89856
30.43675	89828
30.44487	90459
30.45298	90967
30.46112	89656
30.46923	93054
30.47735	90300
30.48548	93460
30.49360	89739
30.50173	100567
30.50985	91876
30.51797	94129
30.52610	94044
30.53422	90732
30.54235	89713
30.55047	93317
30.55858	91320
30.56672	94042
30.57483	88637
30.58297	84542
30.59108	86247
30.59920	90566
30.60733	85959
30.61545	97176
30.62357	91025
30.63170	84133
30.63982	90641
30.64795	88068
30.65607	87454
30.66418	89750
30.67232	87758
30.68043	89692
30.68857	94675
30.69668	86613
30.70480	91324
30.71293	95236
30.72105	95090
30.72918	95857
30.73730	93082
30.74542	91342
30.75355	93850
30.76167	96286
30.76978	94634
30.77792	102127
30.78603	94170
30.79417	108636
30.80228	114388
30.81040	119305
30.81853	123834
30.82665	124670
30.83478	111839
30.84290	105236
30.85102	108500
30.85915	96777
30.86727	95842
30.87538	93882
30.88352	100969
30.89163	102932
30.89977	101397
30.90788	94329
30.91600	103256
30.92413	100701
30.93225	95256
30.94038	95094
30.94850	96524
30.95662	99164
30.96475	98430
30.97287	100520
30.98100	97366
30.98912	98890
30.99723	92979
31.00537	96925
31.01348	93955
31.02160	92650
31.02973	92830
31.03785	98636
31.04598	101599
31.05410	101518
31.06222	103610
31.07035	100304
31.07847	105234
31.08660	115337
31.09472	120494
31.10283	125062
31.11097	126230
31.11908	130031
31.12720	120709
31.13533	116325
31.14345	105202
31.15158	102992
31.15970	98761
31.16782	100871
31.17595	100961
31.18407	103768
31.19220	110119
31.20032	130159
31.20843	147906
31.21657	169485
31.22468	185950
31.23282	187270
31.24093	196053
31.24905	174234
31.25718	155519
31.26530	128908
31.27342	120421
31.28155	105623
31.28967	100594
31.29780	96817
31.30592	96902
31.31403	93656
31.32217	94691
31.33028	91018
31.33842	94679
31.34653	94530
31.35465	89455
31.36278	86796
31.37090	88615
31.37902	83707
31.38715	88803
31.39527	90030
31.40340	90946
31.41152	90414
31.41963	91438
31.42777	95546
31.43588	101242
31.44402	100209
31.45213	98242
31.46025	93600
31.46838	97591
31.47650	94549
31.48463	103297
31.49275	95822
31.50087	98535
31.50900	98894
31.51712	99840
31.52523	99648
31.53337	99531
31.54148	108393
31.54962	99005
31.55773	98336
31.56585	95155
31.57398	96735
31.58210	92686
31.59023	99057
31.59835	91675
31.60647	93191
31.61460	86410
31.62272	90568
31.63085	96884
31.63897	89142
31.64708	91544
31.65522	96703
31.66333	96191
31.67145	98561
31.67958	107647
31.68770	105326
31.69583	108888
31.70395	110974
31.71207	115846
31.72020	119541
31.72832	130493
31.73645	136473
31.74457	141640
31.75268	149748
31.76082	146816
31.76893	147396
31.77707	153089
31.78518	151899
31.79330	142560
31.80143	154522
31.80955	139562
31.81767	138949
31.82580	133893
31.83392	128896
31.84205	128151
31.85017	122064
31.85828	132239
31.86642	127938
31.87453	121072
31.88267	118604
31.89078	115555
31.89890	112007
31.90703	109561
31.91515	104657
31.92327	107024
31.93140	111681
31.93952	112667
31.94765	120500
31.95577	124805
31.96388	122197
31.97202	135037
31.98013	137425
31.98827	143113
31.99638	140885
32.00450	140491
32.01263	139592
32.02075	135689
32.02888	127759
32.03700	126357
32.04512	130725
32.05325	125871
32.06137	118183
32.06948	131213
32.07762	127490
32.08573	132402
32.09387	128901
32.10198	122221
32.11010	124775
32.11823	122599
32.12635	116418
32.13448	111920
32.14260	122726
32.15072	113147
32.15885	105945
32.16697	103873
32.17508	103731
32.18322	109738
32.19133	109987
32.19947	104606
32.20758	107151
32.21570	107937
32.22383	107426
32.23195	103497
32.24008	104246
32.24820	108263
32.25632	108431
32.26445	116234
32.27257	121239
32.28070	120584
32.28882	118725
32.29693	116312
32.30507	111549
32.31318	109641
32.32130	111078
32.32943	106782
32.33755	119441
32.34568	108195
32.35380	110134
32.36192	110160
32.37005	106845
32.37817	108679
32.38630	105162
32.39442	107211
32.40253	109809
32.41067	103578
32.41878	97508
32.42692	104846
32.43503	98839
32.44315	100974
32.45128	103063
32.45940	97264
32.46752	95960
32.47565	103970
32.48377	95545
32.49190	99450
32.50002	92658
32.50813	94141
32.51627	94842
32.52438	92202
32.53252	89474
32.54063	98868
32.54875	99546
32.55688	95747
32.56500	96270
32.57312	97135
32.58125	101350
32.58937	107626
32.59750	103043
32.60562	106904
32.61373	106474
32.62187	102810
32.62998	113004
32.63812	111712
32.64623	121419
32.65435	129283
32.66248	142572
32.67060	140564
32.67873	147467
32.68685	152450
32.69497	143723
32.70310	145539
32.71122	136864
32.71933	132177
32.72747	116721
32.73558	123139
32.74372	109214
32.75183	109655
32.75995	108031
32.76808	101135
32.77620	104192
32.78433	103317
32.79245	98320
32.80057	92826
32.80870	99928
32.81682	95694
32.82495	97409
32.83307	97189
32.84118	96045
32.84932	95251
32.85743	101363
32.86555	90118
32.87368	96498
32.88180	87791
32.88993	92438
32.89805	95056
32.90617	98894
32.91430	89502
32.92242	91656
32.93055	91008
32.93867	88295
32.94678	96169
32.95492	94653
32.96303	90004
32.97115	94802
32.97928	92829
32.98740	93544
32.99553	96933
33.00365	101397
33.01177	102643
33.01990	99475
33.02802	102347
33.03615	97956
33.04427	98997
33.05238	98936
33.06052	103438
33.06863	115140
33.07677	119311
33.08488	130705
33.09300	131025
33.10113	139930
33.10925	146616
33.11737	153550
33.12550	149580
33.13362	148714
33.14175	141649
33.14987	131170
33.15798	107591
33.16612	107057
33.17423	97790
33.18237	96775
33.19048	100505
33.19860	98857
33.20673	97212
33.21485	106792
33.22297	100607
33.23110	100140
33.23922	105039
33.24735	102142
33.25547	101622
33.26358	102499
33.27172	100105
33.27983	102709
33.28797	99866
33.29608	96865
33.30420	97760
33.31233	96219
33.32045	93521
33.32858	94656
33.33670	96617
33.34482	95759
33.35295	99735
33.36107	90521
33.36918	93220
33.37732	99918
33.38543	92477
33.39357	95441
33.40168	94418
33.40980	100369
33.41793	102077
33.42605	107350
33.43418	113598
33.44230	113732
33.45042	119919
33.45855	110986
33.46667	105145
33.47480	104281
33.48292	98192
33.49103	94788
33.49917	94166
33.50728	91517
33.51540	91950
33.52353	96726
33.53165	89576
33.53978	94409
33.54790	91468
33.55602	90985
33.56415	93983
33.57227	97757
33.58040	92276
33.58852	97121
33.59663	89569
33.60477	91305
33.61288	90571
33.62100	89449
33.62913	93249
33.63725	97301
33.64538	97800
33.65350	99854
33.66162	99325
33.66975	106037
33.67787	104178
33.68600	93623
33.69412	92308
33.70223	95046
33.71037	99792
33.71848	93296
33.72662	109506
33.73473	112062
33.74285	121669
33.75098	123254
33.75910	126043
33.76722	123387
33.77535	119407
33.78347	116899
33.79160	105643
33.79972	99293
33.80783	100382
33.81597	97428
33.82408	97288
33.83222	100722
33.84033	106076
33.84845	117268
33.85658	113991
33.86470	118356
33.87283	115060
33.88095	122287
33.88907	123206
33.89720	123630
33.90532	127257
33.91343	131535
33.92157	128515
33.92968	133016
33.93782	120300
33.94593	116856
33.95405	116119
33.96218	111714
33.97030	107604
33.97843	103727
33.98655	101753
33.99467	101767
34.00280	96059
34.01092	107173
34.01903	96944
34.02717	99864
34.03528	99677
34.04342	105814
34.05153	107677
34.05965	103847
34.06778	107504
34.07590	110282
34.08403	108563
34.09215	101002
34.10027	109426
34.10840	104406
34.11652	100097
34.12465	103653
34.13277	97248
34.14088	98229
34.14902	96689
34.15713	99547
34.16525	105920
34.17338	102055
34.18150	111463
34.18963	114068
34.19775	118475
34.20587	124196
34.21400	122221
34.22212	121847
34.23025	127261
34.23837	116818
34.24648	118966
34.25462	117370
34.26273	112953
34.27087	120649
34.27898	123135
34.28710	116110
34.29523	117263
34.30335	114800
34.31147	117377
34.31960	116786
34.32772	117366
34.33585	119010
34.34397	118933
34.35208	119235
34.36022	118883
34.36833	116572
34.37647	117878
34.38458	116079
34.39270	118364
34.40083	110729
34.40895	110842
34.41707	113296
34.42520	113043
34.43332	118189
34.44145	121436
34.44957	115903
34.45768	108843
34.46582	117348
34.47393	113815
34.48207	121150
34.49018	108731
34.49830	112219
34.50643	110152
34.51455	113820
34.52268	117105
34.53080	124125
34.53892	128817
34.54705	142769
34.55517	147461
34.56328	147367
34.57142	155501
34.57953	153372
34.58767	152472
34.59578	140842
34.60390	144379
34.61203	148152
34.62015	147360
34.62828	149973
34.63640	143453
34.64452	145500
34.65265	141053
34.66077	137991
34.66888	132820
34.67702	130602
34.68513	139177
34.69327	128385
34.70138	123727
34.70950	129561
34.71763	123394
34.72575	131074
34.73388	121924
34.74200	121980
34.75012	122483
34.75825	116095
34.76637	119861
34.77450	118838
34.78262	117721
34.79073	115660
34.79887	110174
34.80698	118146
34.81510	114976
34.82323	112202
34.83135	115041
34.83948	117847
34.84760	123667
34.85572	119232
34.86385	112429
34.87197	111348
34.88010	118023
34.88822	116350
34.89633	113681
34.90447	120910
34.91258	120391
34.92072	129038
34.92883	127998
34.93695	133012
34.94508	134603
34.95320	132594
34.96132	135841
34.96945	140793
34.97757	138245
34.98570	142411
34.99382	144978
35.00193	135390
35.01007	144288
35.01818	144699
35.02632	149168
35.03443	145633
35.04255	157952
35.05068	141270
35.05880	151514
35.06692	146952
35.07505	140846
35.08317	142126
35.09130	132564
35.09942	128671
35.10753	120745
35.11567	122097
35.12378	124737
35.13192	123016
35.14003	117618
35.14815	122154
35.15628	119104
35.16440	123137
35.17253	120972
35.18065	119508
35.18877	121029
35.19690	126037
35.20502	117613
35.21313	125908
35.22127	125010
35.22938	129937
35.23752	136835
35.24563	139615
35.25375	139631
35.26188	135404
35.27000	141783
35.27813	129076
35.28625	129247
35.29437	127824
35.30250	118936
35.31062	117876
35.31875	118956
35.32687	113564
35.33498	119935
35.34312	116151
35.35123	113714
35.35935	118723
35.36748	123399
35.37560	118179
35.38373	131986
35.39185	136448
35.39997	146880
35.40810	161840
35.41622	176654
35.42435	180397
35.43247	188925
35.44058	181817
35.44872	177009
35.45683	168947
35.46495	156521
35.47308	142713
35.48120	140566
35.48933	134346
35.49745	129835
35.50557	126655
35.51370	124571
35.52182	127920
35.52995	128558
35.53807	127486
35.54618	128887
35.55432	131895
35.56243	135010
35.57057	127706
35.57868	127123
35.58680	119399
35.59493	126406
35.60305	113645
35.61117	121817
35.61930	108463
35.62742	106875
35.63555	107648
35.64367	114737
35.65178	114044
35.65992	112049
35.66803	120333
35.67617	123310
35.68428	120867
35.69240	133601
35.70053	131432
35.70865	133134
35.71677	141242
35.72490	133422
35.73302	136261
35.74115	135428
35.74927	126021
35.75738	123761
35.76552	128478
35.77363	130233
35.78177	127529
35.78988	130263
35.79800	123542
35.80613	119929
35.81425	118455
35.82238	124674
35.83050	121278
35.83862	118278
35.84675	118255
35.85487	117342
35.86298	112661
35.87112	121314
35.87923	120243
35.88737	122300
35.89548	116853
35.90360	126178
35.91173	126528
35.91985	119313
35.92798	117746
35.93610	119659
35.94422	117103
35.95235	113583
35.96047	119224
35.96860	115614
35.97672	123198
35.98483	123171
35.99297	127137
36.00108	122038
36.00920	129573
36.01733	128177
36.02545	130631
36.03358	128124
36.04170	129557
36.04982	132330
36.05795	121520
36.06607	123212
36.07420	122556
36.08232	121206
36.09043	116732
36.09857	115197
36.10668	123415
36.11482	113718
36.12293	113722
36.13105	115613
36.13918	118881
36.14730	122437
36.15542	117153
36.16355	125521
36.17167	121655
36.17980	123996
36.18792	123562
36.19603	121587
36.20417	121471
36.21228	112101
36.22042	114180
36.22853	114422
36.23665	109336
36.24478	121353
36.25290	115972
36.26102	122556
36.26915	115889
36.27727	123339
36.28540	117298
36.29352	123461
36.30163	123324
36.30977	126699
36.31788	127489
36.32602	132884
36.33413	134902
36.34225	132287
36.35038	125143
36.35850	118267
36.36663	120666
36.37475	119023
36.38287	118545
36.39100	119832
36.39912	119869
36.40723	117474
36.41537	123615
36.42348	122094
36.43162	121733
36.43973	123879
36.44785	132933
36.45598	137166
36.46410	130242
36.47223	132575
36.48035	125578
36.48847	129903
36.49660	134001
36.50472	133666
36.51283	129785
36.52097	131951
36.52908	129075
36.53722	129262
36.54533	128053
36.55345	116609
36.56158	120816
36.56970	118676
36.57783	120035
36.58595	109416
36.59407	112179
36.60220	106439
36.61032	110851
36.61845	118692
36.62657	120495
36.63468	124604
36.64282	127513
36.65093	129048
36.65905	135471
36.66718	138708
36.67530	137544
36.68343	134162
36.69155	136129
36.69967	134221
36.70780	130216
36.71592	123108
36.72405	131363
36.73217	123075
36.74028	117693
36.74842	129202
36.75653	114607
36.76467	114076
36.77278	116904
36.78090	108703
36.78903	113367
36.79715	116162
36.80527	102516
36.81340	112235
36.82152	113053
36.82965	108005
36.83777	104440
36.84588	106324
36.85402	105913
36.86213	111617
36.87027	112180
36.87838	115938
36.88650	115402
36.89463	117012
36.90275	113254
36.91087	116974
36.91900	110668
36.92712	116069
36.93525	114189
36.94337	110131
36.95148	109962
36.95962	104087
36.96773	108950
36.97587	116164
36.98398	114712
36.99210	108311
37.00023	111283
37.00835	108635
37.01648	109122
37.02460	105938
37.03272	108971
37.04085	109582
37.04897	116550
37.05708	118260
37.06522	115302
37.07333	122907
37.08147	111306
37.08958	114365
37.09770	125812
37.10583	124310
37.11395	129320
37.12208	128254
37.13020	126653
37.13832	132260
37.14645	133178
37.15457	127794
37.16270	126520
37.17082	123085
37.17893	117501
37.18707	117608
37.19518	112618
37.20330	122416
37.21143	121845
37.21955	114127
37.22768	108468
37.23580	104464
37.24392	116517
37.25205	108158
37.26017	111184
37.26830	109268
37.27642	114314
37.28453	115330
37.29267	119510
37.30078	115509
37.30890	124407
37.31703	114487
37.32515	116909
37.33328	120160
37.34140	120913
37.34952	126289
37.35765	129002
37.36577	136324
37.37390	134446
37.38202	136821
37.39013	134059
37.39827	137993
37.40638	137838
37.41452	131226
37.42263	131053
37.43075	128800
37.43888	125433
37.44700	130263
37.45512	125617
37.46325	128973
37.47137	126573
37.47950	137197
37.48762	126705
