Z:\data\JTB-E02\BACandBLUE\JTB-E02-190-09.D Tue Dec 11 12:42:30 2018
Start of data points
2.09518,96810
2.10332,94278
2.11143,96002
2.11955,92835
2.12768,98359
2.13580,98914
2.14393,99507
2.15205,100504
2.16017,96422
2.16830,94377
2.17642,98553
2.18455,92689
2.19267,90123
2.20078,89240
2.20892,89542
2.21703,85232
2.22515,87932
2.23328,86628
2.24140,85817
2.24953,232991
2.25765,1012499
2.26577,972338
2.27390,466716
2.28202,302105
2.29015,248562
2.29827,218599
2.30638,199294
2.31452,183726
2.32263,175003
2.33077,161679
2.33888,157816
2.34700,140560
2.35513,144011
2.36325,134576
2.37137,124881
2.37950,122966
2.38762,116664
2.39575,114540
2.40387,122519
2.41198,113426
2.42012,111429
2.42823,108400
2.43637,110317
2.44448,104194
2.45260,103345
2.46073,104032
2.46885,100365
2.47697,98402
2.48510,101258
2.49322,96167
2.50135,96608
2.50947,89763
2.51758,96216
2.52572,88830
2.53383,90386
2.54197,95447
2.55008,95253
2.55820,89990
2.56633,86900
2.57445,98208
2.58258,92046
2.59070,90249
2.59882,93887
2.60695,88273
2.61507,92285
2.62318,86618
2.63132,89529
2.63943,88984
2.64757,86632
2.65568,87611
2.66380,84304
2.67193,82043
2.68005,88843
2.68818,84049
2.69630,86893
2.70442,88905
2.71255,85534
2.72067,82058
2.72880,84246
2.73692,86695
2.74503,84631
2.75317,80268
2.76128,80768
2.76940,79114
2.77753,79965
2.78565,80420
2.79378,81072
2.80190,78362
2.81002,84704
2.81815,76025
2.82627,79156
2.83440,75307
2.84252,82816
2.85063,75248
2.85877,75882
2.86688,83950
2.87500,79535
2.88313,81226
2.89125,75572
2.89938,80659
2.90750,72495
2.91562,78019
2.92375,79163
2.93187,73896
2.94000,76365
2.94812,77811
2.95623,72360
2.96437,79711
2.97248,78968
2.98062,79501
2.98873,75800
2.99685,82104
3.00498,75584
3.01310,83056
3.02122,74398
3.02935,69005
3.03747,79186
3.04560,75382
3.05372,76760
3.06183,77757
3.06997,77449
3.07808,72099
3.08622,81440
3.09433,79910
3.10245,75411
3.11058,75373
3.11870,75196
3.12683,76263
3.13495,77049
3.14307,78032
3.15120,77293
3.15932,75481
3.16743,74982
3.17557,73936
3.18368,72937
3.19182,73690
3.19993,75881
3.20805,73486
3.21618,73676
3.22430,70351
3.23243,72434
3.24055,72303
3.24867,73276
3.25680,71784
3.26492,77107
3.27303,104292
3.28117,247784
3.28928,584520
3.29742,903755
3.30553,877481
3.31365,661415
3.32178,453742
3.32990,342354
3.33803,285025
3.34615,246531
3.35427,223785
3.36240,203201
3.37052,188705
3.37865,180307
3.38677,168705
3.39488,157825
3.40302,150235
3.41113,148462
3.41925,138392
3.42738,136605
3.43550,126064
3.44363,127285
3.45175,124293
3.45987,114383
3.46800,122470
3.47612,116058
3.48425,119027
3.49237,115209
3.50048,107386
3.50862,102685
3.51673,105823
3.52485,110507
3.53298,100357
3.54110,99044
3.54923,104775
3.55735,96592
3.56547,101341
3.57360,94257
3.58172,98943
3.58985,97883
3.59797,96119
3.60608,94594
3.61422,92435
3.62233,90958
3.63047,89272
3.63858,89989
3.64670,85196
3.65483,93572
3.66295,94133
3.67107,92797
3.67920,89191
3.68732,89342
3.69545,88349
3.70357,91261
3.71168,84436
3.71982,86564
3.72793,87136
3.73607,90502
3.74418,84148
3.75230,86299
3.76043,84135
3.76855,83459
3.77668,86533
3.78480,86105
3.79292,86638
3.80105,80281
3.80917,87965
3.81728,82087
3.82542,80083
3.83353,84012
3.84167,81913
3.84978,78139
3.85790,80231
3.86603,82194
3.87415,81324
3.88228,77239
3.89040,76318
3.89852,81717
3.90665,79937
3.91477,76448
3.92288,76692
3.93102,77088
3.93913,74229
3.94727,73169
3.95538,78413
3.96350,74004
3.97163,78182
3.97975,77659
3.98788,79571
3.99600,75781
4.00412,75714
4.01225,75114
4.02037,76588
4.02850,72322
4.03662,77603
4.04473,73144
4.05287,78873
4.06098,70011
4.06910,78348
4.07723,71802
4.08535,73960
4.09348,73702
4.10160,71800
4.10972,77402
4.11785,73925
4.12597,101354
4.13410,162935
4.14222,238496
4.15033,254793
4.15847,231197
4.16658,188377
4.17472,176852
4.18283,155675
4.19095,141421
4.19908,149510
4.20720,179154
4.21532,261672
4.22345,315195
4.23157,304796
4.23970,252907
4.24782,215462
4.25593,183023
4.26407,175950
4.27218,157871
4.28032,147262
4.28843,132761
4.29655,126800
4.30468,117278
4.31280,115702
4.32092,115380
4.32905,107095
4.33717,108695
4.34530,107118
4.35342,99503
4.36153,100149
4.36967,99600
4.37778,96639
4.38592,93533
4.39403,92399
4.40215,88751
4.41028,89014
4.41840,88426
4.42653,83213
4.43465,106072
4.44277,85942
4.45090,84476
4.45902,87466
4.46713,83296
4.47527,78545
4.48338,80572
4.49152,85679
4.49963,82129
4.50775,77443
4.51588,78418
4.52400,83750
4.53213,79973
4.54025,80996
4.54837,76238
4.55650,78479
4.56462,79868
4.57273,82737
4.58087,76820
4.58898,81125
4.59712,75999
4.60523,77479
4.61335,71194
4.62148,75142
4.62960,74449
4.63773,74776
4.64585,73241
4.65397,75288
4.66210,70770
4.67022,74435
4.67835,70781
4.68647,72170
4.69458,69464
4.70272,72194
4.71083,69053
4.71895,72235
4.72708,66337
4.73520,71613
4.74333,69164
4.75145,71277
4.75957,73891
4.76770,69643
4.77582,71565
4.78395,79986
4.79207,73618
4.80018,69090
4.80832,68215
4.81643,74217
4.82457,71668
4.83268,68974
4.84080,69066
4.84893,70772
4.85705,71627
4.86517,69271
4.87330,70322
4.88142,63511
4.88955,70219
4.89767,71170
4.90578,65203
4.91392,66587
4.92203,67119
4.93017,71872
4.93828,95736
4.94640,149608
4.95453,222496
4.96265,274787
4.97077,255652
4.97890,228057
4.98702,181821
4.99515,149123
5.00327,134487
5.01138,119524
5.01952,111810
5.02763,126909
5.03577,103948
5.04388,103160
5.05200,101485
5.06013,93778
5.06825,95570
5.07638,89253
5.08450,92647
5.09262,88660
5.10075,82455
5.10887,83193
5.11698,83611
5.12512,82805
5.13323,83608
5.14137,81976
5.14948,83551
5.15760,80917
5.16573,80167
5.17385,81871
5.18198,79700
5.19010,78056
5.19822,80195
5.20635,81857
5.21447,75392
5.22260,80811
5.23072,75866
5.23883,81472
5.24697,83761
5.25508,80041
5.26320,80006
5.27133,78482
5.27945,73818
5.28758,78421
5.29570,74428
5.30382,74643
5.31195,79424
5.32007,70184
5.32820,68567
5.33632,67032
5.34443,66281
5.35257,68291
5.36068,66103
5.36880,66569
5.37693,69896
5.38505,64298
5.39318,67228
5.40130,65139
5.40942,65435
5.41755,69233
5.42567,68607
5.43380,68787
5.44192,65586
5.45003,69379
5.45817,63009
5.46628,67497
5.47442,60745
5.48253,63776
5.49065,63752
5.49878,65782
5.50690,63359
5.51502,62405
5.52315,62263
5.53127,59922
5.53940,62142
5.54752,65180
5.55563,57718
5.56377,63244
5.57188,68585
5.58002,62596
5.58813,63330
5.59625,65770
5.60438,63881
5.61250,69991
5.62062,70410
5.62875,66777
5.63687,65411
5.64500,67501
5.65312,61779
5.66123,60420
5.66937,64161
5.67748,58952
5.68562,71536
5.69373,61839
5.70185,65899
5.70998,59957
5.71810,60515
5.72623,62955
5.73435,60281
5.74247,58233
5.75060,58949
5.75872,58885
5.76683,58440
5.77497,59571
5.78308,57215
5.79122,57714
5.79933,60697
5.80745,60139
5.81558,58630
5.82370,62278
5.83183,61296
5.83995,58823
5.84807,59264
5.85620,63734
5.86432,56037
5.87245,55176
5.88057,63728
5.88868,54819
5.89682,56142
5.90493,60001
5.91305,53016
5.92118,54055
5.92930,57090
5.93743,53377
5.94555,57992
5.95367,62112
5.96180,57001
5.96992,62687
5.97805,68270
5.98617,61586
5.99428,57913
6.00242,61045
6.01053,53529
6.01867,55151
6.02678,54366
6.03490,56121
6.04303,55620
6.05115,55690
6.05927,50215
6.06740,52224
6.07552,53331
6.08365,52205
6.09177,56030
6.09988,53988
6.10802,53203
6.11613,56515
6.12427,57919
6.13238,53753
6.14050,59535
6.14863,58315
6.15675,65827
6.16487,66820
6.17300,69428
6.18112,65650
6.18925,70117
6.19737,72119
6.20548,70340
6.21362,73982
6.22173,80708
6.22987,80492
6.23798,84699
6.24610,85439
6.25423,79063
6.26235,64205
6.27048,68260
6.27860,61651
6.28672,61377
6.29485,62788
6.30297,61378
6.31108,58873
6.31922,54035
6.32733,58205
6.33547,60776
6.34358,62398
6.35170,53524
6.35983,56600
6.36795,57171
6.37608,53839
6.38420,56164
6.39232,55376
6.40045,54648
6.40857,52856
6.41668,59138
6.42482,54686
6.43293,54168
6.44107,55874
6.44918,52131
6.45730,52481
6.46543,51295
6.47355,53003
6.48168,55383
6.48980,58310
6.49792,56225
6.50605,55726
6.51417,51166
6.52230,55024
6.53042,56446
6.53853,54101
6.54667,54745
6.55478,52949
6.56290,55467
6.57103,49853
6.57915,51920
6.58728,52441
6.59540,52949
6.60352,53715
6.61165,53048
6.61977,50046
6.62790,51798
6.63602,49873
6.64413,51024
6.65227,47354
6.66038,53536
6.66852,53321
6.67663,50772
6.68475,53483
6.69288,52134
6.70100,47576
6.70912,47162
6.71725,54333
6.72537,52605
6.73350,51565
6.74162,46689
6.74973,52254
6.75787,50812
6.76598,52517
6.77412,51535
6.78223,52154
6.79035,52099
6.79848,49034
6.80660,48852
6.81472,51005
6.82285,49771
6.83097,50742
6.83910,48339
6.84722,44807
6.85533,45870
6.86347,49380
6.87158,50708
6.87972,49215
6.88783,48812
6.89595,48041
6.90408,50948
6.91220,49010
6.92033,47532
6.92845,48133
6.93657,45257
6.94470,45991
6.95282,45107
6.96093,46549
6.96907,45558
6.97718,44816
6.98532,46024
6.99343,49383
7.00155,46262
7.00968,45825
7.01780,49678
7.02593,42887
7.03405,42414
7.04217,51887
7.05030,52714
7.05842,47537
7.06655,44617
7.07467,44649
7.08278,45163
7.09092,43682
7.09903,47674
7.10715,48463
7.11528,46178
7.12340,47036
7.13153,45253
7.13965,40923
7.14777,49064
7.15590,46633
7.16402,47535
7.17215,45081
7.18027,41311
7.18838,45944
7.19652,45292
7.20463,43020
7.21275,40980
7.22088,43865
7.22900,46293
7.23713,42379
7.24525,40117
7.25337,46717
7.26150,47313
7.26962,44263
7.27775,45788
7.28587,48902
7.29398,44969
7.30212,43832
7.31023,42325
7.31837,45531
7.32648,42741
7.33460,43669
7.34273,45898
7.35085,42729
7.35897,44081
7.36710,46335
7.37522,43522
7.38335,43686
7.39147,43472
7.39958,42840
7.40772,44120
7.41583,42781
7.42397,40806
7.43208,46736
7.44020,45386
7.44833,43772
7.45645,45472
7.46457,47394
7.47270,42717
7.48082,46881
7.48895,45030
7.49707,44701
7.50518,42101
7.51332,46289
7.52143,48829
7.52957,41695
7.53768,45738
7.54580,49662
7.55393,44583
7.56205,45370
7.57018,45206
7.57830,43336
7.58642,42754
7.59455,48994
7.60267,43634
7.61078,42900
7.61892,46013
7.62703,40460
7.63517,40309
7.64328,40920
7.65140,43507
7.65953,44799
7.66765,47606
7.67578,43954
7.68390,48154
7.69202,42079
7.70015,44365
7.70827,44256
7.71640,42957
7.72452,44259
7.73263,39889
7.74077,41413
7.74888,41645
7.75700,39793
7.76513,42536
7.77325,43489
7.78138,40322
7.78950,45678
7.79762,43168
7.80575,40712
7.81387,39978
7.82200,42240
7.83012,43002
7.83823,40665
7.84637,39796
7.85448,44563
7.86260,43793
7.87073,44921
7.87885,41558
7.88698,43130
7.89510,44619
7.90322,39408
7.91135,38302
7.91947,41077
7.92760,41072
7.93572,38274
7.94383,45677
7.95197,42748
7.96008,43492
7.96822,42447
7.97633,43487
7.98445,42691
7.99258,41640
8.00070,43863
8.00882,42615
8.01695,45248
8.02507,38295
8.03320,41879
8.04132,43675
8.04943,46182
8.05757,41930
8.06568,44389
8.07382,44155
8.08193,38840
8.09005,42394
8.09818,41790
8.10630,46431
8.11443,44454
8.12255,43147
8.13067,40351
8.13880,40571
8.14692,45886
8.15503,38359
8.16317,38074
8.17128,46179
8.17942,38257
8.18753,40532
8.19565,42201
8.20378,44199
8.21190,42085
8.22003,44584
8.22815,45751
8.23627,42484
8.24440,39338
8.25252,38122
8.26063,40830
8.26877,38842
8.27688,38330
8.28502,35094
8.29313,42771
8.30125,42819
8.30938,38534
8.31750,36640
8.32563,38712
8.33375,38287
8.34187,42055
8.35000,41451
8.35812,45215
8.36625,41161
8.37437,40274
8.38248,46586
8.39062,44406
8.39873,46680
8.40685,44997
8.41498,45041
8.42310,42229
8.43123,38768
8.43935,44084
8.44747,39812
8.45560,40422
8.46372,40799
8.47185,44171
8.47997,41896
8.48808,44719
8.49622,43469
8.50433,47254
8.51245,39033
8.52058,40160
8.52870,40760
8.53683,41159
8.54495,39251
8.55307,38677
8.56120,39780
8.56932,44396
8.57745,39294
8.58557,41561
8.59368,39544
8.60182,35718
8.60993,36014
8.61807,37450
8.62618,40306
8.63430,40332
8.64243,45014
8.65055,38894
8.65867,39363
8.66680,39896
8.67492,40950
8.68305,35214
8.69117,43920
8.69928,38778
8.70742,38926
8.71553,40927
8.72367,40654
8.73178,40125
8.73990,37712
8.74803,38657
8.75615,37668
8.76428,39060
8.77240,41358
8.78052,46781
8.78865,49837
8.79677,64906
8.80488,84703
8.81302,110115
8.82113,118775
8.82927,106498
8.83738,95864
8.84550,85442
8.85363,67958
8.86175,60716
8.86988,54642
8.87800,56040
8.88612,55380
8.89425,51977
8.90237,50110
8.91048,53113
8.91862,43179
8.92673,48831
8.93487,47234
8.94298,44729
8.95110,44792
8.95923,45084
8.96735,47621
8.97548,51003
8.98360,43963
8.99172,46851
8.99985,41939
9.00797,47336
9.01610,43687
9.02422,45754
9.03233,42297
9.04047,41804
9.04858,49419
9.05670,40948
9.06483,43524
9.07295,46584
9.08108,39907
9.08920,45213
9.09732,41305
9.10545,44719
9.11357,40659
9.12170,43540
9.12982,40235
9.13793,39980
9.14607,40397
9.15418,43738
9.16232,46685
9.17043,42260
9.17855,44662
9.18668,46290
9.19480,42078
9.20292,42144
9.21105,40261
9.21917,38592
9.22730,43421
9.23542,40234
9.24353,40963
9.25167,41933
9.25978,38980
9.26792,37080
9.27603,41819
9.28415,44573
9.29228,41419
9.30040,41103
9.30852,42038
9.31665,39512
9.32477,40421
9.33290,44834
9.34102,45309
9.34913,41114
9.35727,36596
9.36538,41042
9.37352,43127
9.38163,41353
9.38975,43835
9.39788,44776
9.40600,39415
9.41413,39733
9.42225,41843
9.43037,40563
9.43850,43786
9.44662,38846
9.45473,40630
9.46287,43131
9.47098,38787
9.47912,41100
9.48723,36365
9.49535,35120
9.50348,41809
9.51160,43084
9.51973,38937
9.52785,38531
9.53597,41976
9.54410,42047
9.55222,39216
9.56035,45383
9.56847,45569
9.57658,38717
9.58472,42262
9.59283,40994
9.60095,40776
9.60908,38891
9.61720,37614
9.62533,41909
9.63345,41762
9.64157,39719
9.64970,37984
9.65782,40820
9.66595,38524
9.67407,37270
9.68218,40418
9.69032,38090
9.69843,43448
9.70655,32875
9.71468,38338
9.72280,37494
9.73093,42118
9.73905,39443
9.74717,37935
9.75530,39063
9.76342,35816
9.77155,40971
9.77967,38769
9.78778,38142
9.79592,36181
9.80403,34840
9.81217,41156
9.82028,39793
9.82840,34799
9.83653,36853
9.84465,45011
9.85277,37870
9.86090,40109
9.86902,40315
9.87715,37503
9.88527,40909
9.89338,36707
9.90152,38964
9.90963,39522
9.91777,36706
9.92588,41538
9.93400,34724
9.94213,38933
9.95025,38376
9.95837,38422
9.96650,35209
9.97462,37768
9.98275,38160
9.99087,40479
9.99898,40010
10.00712,42272
10.01523,49471
10.02337,47445
10.03148,43640
10.03960,52850
10.04773,42198
10.05585,41012
10.06398,46567
10.07210,38255
10.08022,38748
10.08835,41749
10.09647,45002
10.10458,40237
10.11272,42797
10.12083,33363
10.12897,38004
10.13708,41696
10.14520,36447
10.15333,41512
10.16145,39545
10.16958,38100
10.17770,38294
10.18582,41216
10.19395,35739
10.20207,37925
10.21020,42548
10.21832,38374
10.22643,40242
10.23457,43587
10.24268,37835
10.25080,38127
10.25893,32435
10.26705,40989
10.27518,40535
10.28330,38643
10.29142,36092
10.29955,40326
10.30767,40775
10.31580,40581
10.32392,43577
10.33203,39393
10.34017,42386
10.34828,39557
10.35640,40003
10.36453,39122
10.37265,38671
10.38078,37774
10.38890,38973
10.39702,36368
10.40515,38704
10.41327,36843
10.42140,38263
10.42952,39233
10.43763,36264
10.44577,37201
10.45388,36211
10.46202,39894
10.47013,38516
10.47825,36799
10.48638,40201
10.49450,40198
10.50262,40221
10.51075,42409
10.51887,36992
10.52700,41656
10.53512,39859
10.54323,36147
10.55137,38892
10.55948,37244
10.56762,38581
10.57573,43775
10.58385,39902
10.59198,35986
10.60010,37601
10.60823,39693
10.61635,36718
10.62447,37633
10.63260,39142
10.64072,40876
10.64883,38058
10.65697,34733
10.66508,36047
10.67322,38645
10.68133,37175
10.68945,36843
10.69758,34827
10.70570,42725
10.71383,39832
10.72195,40123
10.73007,39634
10.73820,34427
10.74632,37128
10.75443,36158
10.76257,39601
10.77068,38742
10.77882,40198
10.78693,36521
10.79505,38872
10.80318,39000
10.81130,43819
10.81943,39124
10.82755,36839
10.83567,38316
10.84380,39500
10.85192,40739
10.86005,36015
10.86817,37653
10.87628,39597
10.88442,42730
10.89253,38205
10.90065,37825
10.90878,37447
10.91690,38075
10.92503,34321
10.93315,39140
10.94127,38451
10.94940,35185
10.95752,36315
10.96565,35994
10.97377,40667
10.98188,34910
10.99002,40302
10.99813,40533
11.00625,37459
11.01438,40893
11.02250,37360
11.03063,39017
11.03875,38318
11.04687,38422
11.05500,40371
11.06312,33447
11.07125,35481
11.07937,36462
11.08748,37959
11.09562,37253
11.10373,35500
11.11187,38327
11.11998,36584
11.12810,37445
11.13623,36793
11.14435,37643
11.15247,35998
11.16060,40791
11.16872,39128
11.17685,41537
11.18497,38285
11.19308,40722
11.20122,37259
11.20933,35038
11.21747,35407
11.22558,36640
11.23370,34017
11.24183,34473
11.24995,38155
11.25808,33215
11.26620,41614
11.27432,34648
11.28245,37127
11.29057,34734
11.29868,34266
11.30682,39016
11.31493,36496
11.32307,36516
11.33118,38281
11.33930,33898
11.34743,37316
11.35555,34560
11.36368,41408
11.37180,36065
11.37992,38637
11.38805,37193
11.39617,37279
11.40430,35712
11.41242,36161
11.42053,36217
11.42867,38562
11.43678,38425
11.44490,32136
11.45303,36575
11.46115,40127
11.46928,41838
11.47740,43541
11.48552,40586
11.49365,33963
11.50177,33074
11.50990,33128
11.51802,35566
11.52613,35806
11.53427,33615
11.54238,35237
11.55050,35748
11.55863,39287
11.56675,43194
11.57488,37249
11.58300,35688
11.59112,35145
11.59925,37650
11.60737,35391
11.61550,36222
11.62362,35141
11.63173,37316
11.63987,33832
11.64798,38223
11.65612,34954
11.66423,37543
11.67235,35641
11.68048,33052
11.68860,36002
11.69672,38722
11.70485,38172
11.71297,36133
11.72110,38701
11.72922,37890
11.73733,37911
11.74547,37164
11.75358,38368
11.76172,36886
11.76983,41857
11.77795,36195
11.78608,34212
11.79420,34724
11.80232,44109
11.81045,36230
11.81857,38172
11.82670,37087
11.83482,38047
11.84293,36450
11.85107,36138
11.85918,36472
11.86732,39217
11.87543,41361
11.88355,35423
11.89168,35399
11.89980,34865
11.90793,38805
11.91605,38801
11.92417,36597
11.93230,36714
11.94042,35831
11.94853,39858
11.95667,35896
11.96478,41814
11.97292,38302
11.98103,36705
11.98915,35144
11.99728,35155
12.00540,35583
12.01353,36862
12.02165,36428
12.02977,38583
12.03790,33989
12.04602,34709
12.05415,39886
12.06227,33711
12.07038,32559
12.07852,35454
12.08663,34883
12.09475,41175
12.10288,38951
12.11100,35934
12.11913,34960
12.12725,35782
12.13537,36473
12.14350,39243
12.15162,35599
12.15975,39183
12.16787,43402
12.17598,43307
12.18412,38833
12.19223,42991
12.20035,35327
12.20848,42291
12.21660,37573
12.22473,36789
12.23285,37163
12.24097,35668
12.24910,38138
12.25722,34077
12.26535,35085
12.27347,35782
12.28158,40158
12.28972,39776
12.29783,36524
12.30597,32912
12.31408,35819
12.32220,37383
12.33033,36126
12.33845,36903
12.34657,37634
12.35470,37718
12.36282,36537
12.37095,33927
12.37907,39167
12.38718,37739
12.39532,38731
12.40343,33713
12.41157,43165
12.41968,37824
12.42780,36324
12.43593,38917
12.44405,41909
12.45218,41212
12.46030,38643
12.46842,37901
12.47655,36978
12.48467,39186
12.49278,41243
12.50092,38050
12.50903,36380
12.51717,35182
12.52528,35112
12.53340,37170
12.54153,32368
12.54965,36462
12.55778,37062
12.56590,37795
12.57402,36864
12.58215,41255
12.59027,36032
12.59838,35731
12.60652,35916
12.61463,37747
12.62277,36300
12.63088,35160
12.63900,36645
12.64713,35545
12.65525,36282
12.66338,36235
12.67150,35241
12.67962,37512
12.68775,36039
12.69587,34725
12.70400,39114
12.71212,35839
12.72023,33270
12.72837,34525
12.73648,36793
12.74460,41551
12.75273,35609
12.76085,35774
12.76898,38811
12.77710,41774
12.78522,41549
12.79335,36180
12.80147,37850
12.80960,41484
12.81772,34324
12.82583,39771
12.83397,35541
12.84208,35903
12.85020,34894
12.85833,38121
12.86645,34439
12.87458,33985
12.88270,36249
12.89082,34958
12.89895,33373
12.90707,34919
12.91520,41715
12.92332,38653
12.93143,35912
12.93957,37684
12.94768,34015
12.95582,35898
12.96393,36695
12.97205,40032
12.98018,34226
12.98830,37296
12.99642,35541
13.00455,38756
13.01267,35254
13.02080,32718
13.02892,35546
13.03703,35169
13.04517,39386
13.05328,41360
13.06142,35697
13.06953,38240
13.07765,35251
13.08578,38048
13.09390,35254
13.10203,35816
13.11015,37709
13.11827,35874
13.12640,36538
13.13452,32513
13.14263,37965
13.15077,36039
13.15888,38234
13.16702,36000
13.17513,35347
13.18325,33148
13.19138,37759
13.19950,32693
13.20763,32429
13.21575,35945
13.22387,33986
13.23200,36833
13.24012,35495
13.24823,34874
13.25637,28768
13.26448,33758
13.27262,33070
13.28073,34987
13.28885,36121
13.29698,34655
13.30510,35836
13.31323,37422
13.32135,36830
13.32947,34757
13.33760,33978
13.34572,35437
13.35385,35332
13.36197,36263
13.37008,37057
13.37822,39347
13.38633,37161
13.39445,35338
13.40258,33097
13.41070,33094
13.41883,38371
13.42695,34301
13.43507,37516
13.44320,29933
13.45132,36517
13.45945,42535
13.46757,38333
13.47568,34100
13.48382,35026
13.49193,32642
13.50007,35988
13.50818,37114
13.51630,32812
13.52443,36146
13.53255,34218
13.54067,36228
13.54880,32032
13.55692,36178
13.56505,39137
13.57317,35042
13.58128,37467
13.58942,33138
13.59753,33732
13.60567,38139
13.61378,35423
13.62190,30971
13.63003,31998
13.63815,35699
13.64627,40686
13.65440,36930
13.66252,35337
13.67065,36635
13.67877,37668
13.68688,34473
13.69502,34953
13.70313,33891
13.71127,38305
13.71938,36492
13.72750,32866
13.73563,34859
13.74375,37320
13.75188,33355
13.76000,34669
13.76812,35832
13.77625,35152
13.78437,35183
13.79248,35235
13.80062,36581
13.80873,39774
13.81687,35210
13.82498,35076
13.83310,34670
13.84123,33799
13.84935,36689
13.85748,37688
13.86560,34197
13.87372,37563
13.88185,34634
13.88997,34850
13.89810,33515
13.90622,36634
13.91433,35606
13.92247,34225
13.93058,36811
13.93870,35531
13.94683,36789
13.95495,37420
13.96308,37869
13.97120,33103
13.97932,37255
13.98745,36068
13.99557,33346
14.00370,33989
14.01182,34708
14.01993,34974
14.02807,34845
14.03618,33842
14.04430,35003
14.05243,36781
14.06055,34928
14.06868,37069
14.07680,34904
14.08492,37127
14.09305,36464
14.10117,35027
14.10930,40723
14.11742,36206
14.12553,35301
14.13367,31422
14.14178,38966
14.14992,35189
14.15803,35113
14.16615,36199
14.17428,39104
14.18240,36919
14.19052,39986
14.19865,37406
14.20677,39780
14.21490,41720
14.22302,41096
14.23113,40873
14.23927,42239
14.24738,43346
14.25552,42698
14.26363,38565
14.27175,45166
14.27988,42678
14.28800,40450
14.29612,38339
14.30425,37784
14.31237,39510
14.32050,38282
14.32862,37170
14.33673,38678
14.34487,37204
14.35298,38824
14.36112,36810
14.36923,38559
14.37735,36966
14.38548,36246
14.39360,35645
14.40173,32395
14.40985,38635
14.41797,35288
14.42610,35510
14.43422,34809
14.44233,35425
14.45047,37816
14.45858,35266
14.46672,36734
14.47483,35625
14.48295,36987
14.49108,38101
14.49920,31600
14.50733,34501
14.51545,36841
14.52357,33667
14.53170,35625
14.53982,33925
14.54795,36378
14.55607,36327
14.56418,39713
14.57232,38745
14.58043,36859
14.58855,34396
14.59668,35688
14.60480,33763
14.61293,38326
14.62105,37376
14.62917,32332
14.63730,36670
14.64542,35347
14.65355,39355
14.66167,32000
14.66978,35548
14.67792,34511
14.68603,36972
14.69415,32865
14.70228,35088
14.71040,34680
14.71853,35605
14.72665,34158
14.73477,34063
14.74290,34333
14.75102,42820
14.75915,32939
14.76727,38926
14.77538,33512
14.78352,34630
14.79163,35019
14.79977,34018
14.80788,37718
14.81600,32675
14.82413,36038
14.83225,35971
14.84037,39598
14.84850,41118
14.85662,40696
14.86475,37283
14.87287,39411
14.88098,37564
14.88912,38894
14.89723,40219
14.90537,37755
14.91348,40585
14.92160,38537
14.92973,37178
14.93785,36175
14.94598,40633
14.95410,37447
14.96222,37186
14.97035,37842
14.97847,32824
14.98658,32636
14.99472,36714
15.00283,33358
15.01097,34041
15.01908,36013
15.02720,31883
15.03533,37503
15.04345,37368
15.05158,37854
15.05970,39234
15.06782,42483
15.07595,35355
15.08407,35088
15.09218,36421
15.10032,37231
15.10843,36794
15.11657,37458
15.12468,35846
15.13280,41058
15.14093,35186
15.14905,35199
15.15718,36682
15.16530,38573
15.17342,31875
15.18155,33846
15.18967,36106
15.19780,36059
15.20592,38310
15.21403,38477
15.22217,34545
15.23028,37473
15.23840,35162
15.24653,38583
15.25465,34813
15.26278,32579
15.27090,32937
15.27902,32239
15.28715,34563
15.29527,35562
15.30340,33136
15.31152,34025
15.31963,35861
15.32777,38685
15.33588,35413
15.34400,33008
15.35213,30140
15.36025,36283
15.36838,35567
15.37650,34698
15.38462,36073
15.39275,35679
15.40087,31943
15.40900,35616
15.41712,30292
15.42523,33842
15.43337,35725
15.44148,35140
15.44962,36520
15.45773,36371
15.46585,34762
15.47398,38688
15.48210,35395
15.49022,40157
15.49835,37399
15.50647,34447
15.51460,35925
15.52272,33280
15.53083,34906
15.53897,34293
15.54708,33918
15.55522,33585
15.56333,34168
15.57145,32436
15.57958,35928
15.58770,34179
15.59583,32878
15.60395,33885
15.61207,32939
15.62020,32467
15.62832,34130
15.63643,33687
15.64457,33613
15.65268,35503
15.66082,32399
15.66893,34163
15.67705,32381
15.68518,35109
15.69330,35117
15.70143,36437
15.70955,33578
15.71767,35366
15.72580,32037
15.73392,34409
15.74203,32233
15.75017,33338
15.75828,35312
15.76642,32493
15.77453,35159
15.78265,32335
15.79078,36028
15.79890,35544
15.80703,36328
15.81515,35355
15.82327,33242
15.83140,34670
15.83952,35550
15.84765,34469
15.85577,32830
15.86388,32266
15.87202,34204
15.88013,35695
15.88825,37258
15.89638,36978
15.90450,35590
15.91263,33905
15.92075,35758
15.92887,38768
15.93700,37743
15.94512,40781
15.95325,34058
15.96137,34801
15.96948,33692
15.97762,32901
15.98573,34083
15.99387,34247
16.00198,35592
16.01010,35646
16.01823,37199
16.02635,38469
16.03447,36133
16.04260,39891
16.05072,42812
16.05885,40572
16.06697,38021
16.07508,37050
16.08322,39301
16.09133,38035
16.09947,36175
16.10758,38055
16.11570,39129
16.12383,36438
16.13195,37094
16.14007,35197
16.14820,34666
16.15632,33851
16.16445,32820
16.17257,33615
16.18068,31317
16.18882,32123
16.19693,32853
16.20507,36395
16.21318,30781
16.22130,38562
16.22943,37865
16.23755,37109
16.24568,34627
16.25380,34256
16.26192,34995
16.27005,33363
16.27817,34894
16.28628,37603
16.29442,36943
16.30253,34978
16.31067,33987
16.31878,35127
16.32690,31577
16.33503,38201
16.34315,35456
16.35128,37092
16.35940,39409
16.36752,34886
16.37565,37105
16.38377,36393
16.39188,34562
16.40002,35260
16.40813,35750
16.41627,34902
16.42438,31939
16.43250,33248
16.44063,38616
16.44875,30703
16.45688,34361
16.46500,34772
16.47312,36943
16.48125,38767
16.48937,35558
16.49750,34657
16.50562,35641
16.51373,42562
16.52187,41622
16.52998,41689
16.53810,36541
16.54623,34352
16.55435,38543
16.56248,38406
16.57060,38925
16.57872,36755
16.58685,34403
16.59497,34860
16.60310,35119
16.61122,32930
16.61933,42996
16.62747,33507
16.63558,37296
16.64372,37135
16.65183,39966
16.65995,34579
16.66808,33403
16.67620,32954
16.68432,35963
16.69245,32958
16.70057,38368
16.70870,36604
16.71682,35327
16.72493,35260
16.73307,38029
16.74118,30952
16.74932,38245
16.75743,36333
16.76555,36291
16.77368,31950
16.78180,30519
16.78993,31511
16.79805,38738
16.80617,38815
16.81430,36379
16.82242,36560
16.83053,33626
16.83867,34676
16.84678,40932
16.85492,36789
16.86303,33964
16.87115,36049
16.87928,33851
16.88740,34170
16.89553,33380
16.90365,38557
16.91177,35044
16.91990,34038
16.92802,32517
16.93613,34643
16.94427,33617
16.95238,33743
16.96052,36089
16.96863,39670
16.97675,39048
16.98488,33729
16.99300,34568
17.00113,35244
17.00925,31409
17.01737,35053
17.02550,36757
17.03362,37833
17.04175,36166
17.04987,36489
17.05798,33740
17.06612,32416
17.07423,34520
17.08235,36354
17.09048,36640
17.09860,33719
17.10673,39540
17.11485,37707
17.12297,33488
17.13110,39412
17.13922,37485
17.14735,35325
17.15547,36125
17.16358,39922
17.17172,34884
17.17983,37375
17.18795,36361
17.19608,39055
17.20420,35738
17.21233,33064
17.22045,35961
17.22857,39755
17.23670,37567
17.24482,36434
17.25295,34380
17.26107,34838
17.26918,37489
17.27732,35182
17.28543,30800
17.29357,35826
17.30168,36943
17.30980,32577
17.31793,35996
17.32605,35412
17.33417,37403
17.34230,40445
17.35042,36076
17.35855,37463
17.36667,34577
17.37478,35931
17.38292,36895
17.39103,36998
17.39917,33436
17.40728,37308
17.41540,37021
17.42353,38855
17.43165,35433
17.43978,32850
17.44790,36159
17.45602,38165
17.46415,38219
17.47227,35630
17.48038,37940
17.48852,37543
17.49663,34732
17.50477,37572
17.51288,35024
17.52100,32734
17.52913,36290
17.53725,33978
17.54538,31719
17.55350,34439
17.56162,36706
17.56975,36899
17.57787,37638
17.58598,37417
17.59412,37584
17.60223,38997
17.61037,42286
17.61848,34791
17.62660,33621
17.63473,35494
17.64285,32831
17.65098,36302
17.65910,36428
17.66722,33512
17.67535,34151
17.68347,36756
17.69160,36531
17.69972,37476
17.70783,34763
17.71597,38658
17.72408,38675
17.73220,35585
17.74033,34501
17.74845,38435
17.75658,32194
17.76470,32369
17.77282,34426
17.78095,36137
17.78907,36589
17.79720,33424
17.80532,36417
17.81343,34923
17.82157,37859
17.82968,34778
17.83782,38269
17.84593,34270
17.85405,37652
17.86218,36703
17.87030,37160
17.87842,36950
17.88655,36962
17.89467,40676
17.90280,35140
17.91092,38740
17.91903,39718
17.92717,34665
17.93528,33831
17.94342,36869
17.95153,34382
17.95965,36183
17.96778,36400
17.97590,33047
17.98402,33959
17.99215,35659
18.00027,35562
18.00840,36717
18.01652,33044
18.02463,37661
18.03277,35785
18.04088,33121
18.04902,35878
18.05713,32108
18.06525,35119
18.07338,39564
18.08150,34311
18.08963,41776
18.09775,39106
18.10587,41101
18.11400,45490
18.12212,42762
18.13023,44937
18.13837,43488
18.14648,41041
18.15462,40435
18.16273,38921
18.17085,37129
18.17898,38064
18.18710,37645
18.19523,39396
18.20335,38255
18.21147,38119
18.21960,42333
18.22772,39052
18.23583,38526
18.24397,36363
18.25208,36537
18.26022,38528
18.26833,37933
18.27645,37966
18.28458,35027
18.29270,34848
18.30083,36523
18.30895,35240
18.31707,36423
18.32520,33932
18.33332,37808
18.34145,34697
18.34957,35999
18.35768,37304
18.36582,38658
18.37393,34810
18.38205,35155
18.39018,37779
18.39830,36220
18.40643,36268
18.41455,38582
18.42267,33262
18.43080,34098
18.43892,40937
18.44705,34003
18.45517,35834
18.46328,36206
18.47142,37760
18.47953,35179
18.48767,36720
18.49578,39113
18.50390,34816
18.51203,35831
18.52015,35507
18.52827,33838
18.53640,35664
18.54452,34458
18.55265,36873
18.56077,40021
18.56888,35946
18.57702,35906
18.58513,34750
18.59327,34582
18.60138,35012
18.60950,41008
18.61763,35468
18.62575,41265
18.63387,35386
18.64200,35062
18.65012,30674
18.65825,33785
18.66637,34730
18.67448,32581
18.68262,36096
18.69073,36512
18.69887,37681
18.70698,42393
18.71510,37750
18.72323,38996
18.73135,32511
18.73948,36850
18.74760,36491
18.75572,35809
18.76385,35737
18.77197,33155
18.78008,39772
18.78822,36545
18.79633,36319
18.80447,37164
18.81258,36635
18.82070,32751
18.82883,36136
18.83695,35689
18.84508,34389
18.85320,33956
18.86132,36682
18.86945,34312
18.87757,31830
18.88570,35504
18.89382,32055
18.90193,36468
18.91007,34872
18.91818,36432
18.92630,32069
18.93443,33832
18.94255,33010
18.95068,30940
18.95880,34736
18.96692,32342
18.97505,31800
18.98317,33066
18.99130,34839
18.99942,37143
19.00753,38521
19.01567,38831
19.02378,34903
19.03190,34637
19.04003,33468
19.04815,35107
19.05628,35091
19.06440,32342
19.07252,36188
19.08065,32472
19.08877,35395
19.09690,34933
19.10502,33323
19.11313,39155
19.12127,39920
19.12938,39599
19.13752,38917
19.14563,33106
19.15375,34651
19.16188,37954
19.17000,34178
19.17812,33433
19.18625,36528
19.19437,30942
19.20250,37380
19.21062,34197
19.21873,37179
19.22687,34224
19.23498,32968
19.24312,40137
19.25123,32045
19.25935,39355
19.26748,32853
19.27560,33024
19.28373,36115
19.29185,37876
19.29997,43208
19.30810,38731
19.31622,37138
19.32433,38289
19.33247,36281
19.34058,38537
19.34872,35002
19.35683,38597
19.36495,35199
19.37308,35716
19.38120,34506
19.38933,36666
19.39745,36891
19.40557,39590
19.41370,36211
19.42182,38355
19.42993,35127
19.43807,35296
19.44618,37914
19.45432,36984
19.46243,40144
19.47055,40649
19.47868,35071
19.48680,37589
19.49493,36213
19.50305,38636
19.51117,37535
19.51930,47349
19.52742,43011
19.53555,40709
19.54367,43788
19.55178,40434
19.55992,40214
19.56803,38212
19.57615,45882
19.58428,36719
19.59240,39227
19.60053,39760
19.60865,38636
19.61677,38012
19.62490,37549
19.63302,40957
19.64115,36659
19.64927,40307
19.65738,39021
19.66552,39637
19.67363,44760
19.68175,55224
19.68988,56197
19.69800,61157
19.70613,53667
19.71425,51026
19.72237,45754
19.73050,46400
19.73862,45621
19.74675,38797
19.75487,39323
19.76298,41738
19.77112,39528
19.77923,43126
19.78737,39223
19.79548,40355
19.80360,42860
19.81173,37599
19.81985,42719
19.82797,39511
19.83610,41987
19.84422,40270
19.85235,38220
19.86047,37443
19.86858,36584
19.87672,34820
19.88483,39367
19.89297,37178
19.90108,38999
19.90920,43634
19.91733,37200
19.92545,39805
19.93358,44678
19.94170,44261
19.94982,47378
19.95795,41315
19.96607,43598
19.97418,39481
19.98232,37094
19.99043,39264
19.99857,42413
20.00668,36535
20.01480,36721
20.02293,38777
20.03105,38306
20.03918,37575
20.04730,37299
20.05542,40624
20.06355,39125
20.07167,41498
20.07978,37451
20.08792,37245
20.09603,36758
20.10417,36864
20.11228,42372
20.12040,42628
20.12853,34003
20.13665,37748
20.14478,37211
20.15290,37809
20.16102,33507
20.16915,40140
20.17727,35752
20.18540,35627
20.19352,38538
20.20163,39015
20.20977,37115
20.21788,36873
20.22600,40786
20.23413,44658
20.24225,38526
20.25038,44187
20.25850,39011
20.26662,43207
20.27475,41294
20.28287,43404
20.29100,43296
20.29912,48846
20.30723,45286
20.31537,53086
20.32348,55270
20.33162,52758
20.33973,51760
20.34785,52828
20.35598,44657
20.36410,44450
20.37222,42139
20.38035,42430
20.38847,41359
20.39660,39778
20.40472,43767
20.41283,41537
20.42097,40889
20.42908,39283
20.43722,41464
20.44533,46509
20.45345,43945
20.46158,43224
20.46970,38951
20.47782,40964
20.48595,44645
20.49407,46544
20.50220,42654
20.51032,39226
20.51843,40346
20.52657,43671
20.53468,43782
20.54282,39587
20.55093,40773
20.55905,41945
20.56718,39008
20.57530,40935
20.58343,37336
20.59155,41709
20.59967,36320
20.60780,38907
20.61592,41855
20.62403,40837
20.63217,37664
20.64028,38790
20.64842,41008
20.65653,40842
20.66465,40721
20.67278,35449
20.68090,42386
20.68903,40821
20.69715,39269
20.70527,37868
20.71340,39227
20.72152,41886
20.72963,38311
20.73777,39502
20.74588,38946
20.75402,42104
20.76213,35114
20.77025,36372
20.77838,39948
20.78650,39738
20.79463,38281
20.80275,33891
20.81087,37342
20.81900,44158
20.82712,38001
20.83525,44151
20.84337,38588
20.85148,40198
20.85962,44669
20.86773,37287
20.87585,39186
20.88398,41850
20.89210,39002
20.90023,37744
20.90835,37644
20.91647,43011
20.92460,40651
20.93272,38735
20.94085,38095
20.94897,40550
20.95708,43666
20.96522,41599
20.97333,36877
20.98147,38606
20.98958,36424
20.99770,35302
21.00583,35540
21.01395,36752
21.02207,38508
21.03020,39457
21.03832,36850
21.04645,39611
21.05457,36920
21.06268,39969
21.07082,36332
21.07893,38010
21.08707,40978
21.09518,43351
21.10330,36892
21.11143,39772
21.11955,37127
21.12767,37763
21.13580,38384
21.14392,39519
21.15205,43687
21.16017,38953
21.16828,40975
21.17642,36523
21.18453,39147
21.19267,41427
21.20078,45091
21.20890,38359
21.21703,38650
21.22515,40546
21.23328,37336
21.24140,39026
21.24952,40077
21.25765,39014
21.26577,38410
21.27388,38366
21.28202,38014
21.29013,37381
21.29827,36685
21.30638,38631
21.31450,38070
21.32263,37638
21.33075,37120
21.33888,34782
21.34700,37964
21.35512,37446
21.36325,38144
21.37137,36208
21.37950,34582
21.38762,36055
21.39573,39147
21.40387,37096
21.41198,36328
21.42010,36756
21.42823,35494
21.43635,37510
21.44448,37333
21.45260,35305
21.46072,41841
21.46885,37492
21.47697,36031
21.48510,37388
21.49322,35453
21.50133,34783
21.50947,36561
21.51758,36352
21.52570,38855
21.53383,36199
21.54195,34263
21.55008,36552
21.55820,33259
21.56632,34268
21.57445,35157
21.58257,40225
21.59070,36743
21.59882,38076
21.60693,34168
21.61507,33929
21.62318,37706
21.63132,35808
21.63943,39623
21.64755,36402
21.65568,36086
21.66380,37634
21.67192,40076
21.68005,40311
21.68817,36847
21.69630,38114
21.70442,36019
21.71253,37170
21.72067,34340
21.72878,33033
21.73692,34151
21.74503,37387
21.75315,35198
21.76128,34339
21.76940,36977
21.77753,36164
21.78565,38931
21.79377,34135
21.80190,35212
21.81002,34419
21.81813,36491
21.82627,37330
21.83438,32895
21.84252,35837
21.85063,35072
21.85875,38984
21.86688,37371
21.87500,35395
21.88313,40848
21.89125,37137
21.89937,35690
21.90750,36545
21.91562,34523
21.92373,34566
21.93187,34941
21.93998,34264
21.94812,36475
21.95623,32329
21.96435,32558
21.97248,30512
21.98060,33886
21.98873,32344
21.99685,36881
22.00497,33832
22.01310,38085
22.02122,37867
22.02935,34346
22.03747,33423
22.04558,35784
22.05372,38606
22.06183,36328
22.06995,36170
22.07808,35560
22.08620,40895
22.09433,35967
22.10245,37426
22.11057,39458
22.11870,34226
22.12682,34482
22.13495,34198
22.14307,34735
22.15118,34537
22.15932,36774
22.16743,37417
22.17557,36125
22.18368,35608
22.19180,33469
22.19993,36501
22.20805,38528
22.21617,38149
22.22430,35306
22.23242,38983
22.24055,40996
22.24867,37250
22.25678,37840
22.26492,33758
22.27303,31121
22.28117,39506
22.28928,38115
22.29740,32813
22.30553,37504
22.31365,32475
22.32177,34217
22.32990,37586
22.33802,33925
22.34615,37011
22.35427,35298
22.36238,35100
22.37052,33007
22.37863,33394
22.38677,36953
22.39488,33652
22.40300,36511
22.41113,36476
22.41925,37606
22.42738,40334
22.43550,35517
22.44362,40333
22.45175,33285
22.45987,35366
22.46798,39943
22.47612,39427
22.48423,38133
22.49237,37465
22.50048,33618
22.50860,34515
22.51673,35418
22.52485,34921
22.53298,35533
22.54110,33757
22.54922,37754
22.55735,37169
22.56547,34859
22.57358,36298
22.58172,36053
22.58983,35946
22.59797,40660
22.60608,37384
22.61420,35243
22.62233,37426
22.63045,41779
22.63858,38651
22.64670,37933
22.65482,37152
22.66295,35120
22.67107,37435
22.67920,42379
22.68732,36116
22.69543,37905
22.70357,36359
22.71168,35894
22.71980,37651
22.72793,39088
22.73605,37071
22.74418,37830
22.75230,40772
22.76042,35719
22.76855,35545
22.77667,39007
22.78480,37388
22.79292,34480
22.80103,38824
22.80917,36526
22.81728,38421
22.82542,37676
22.83353,34764
22.84165,37843
22.84978,34550
22.85790,43860
22.86602,38833
22.87415,36373
22.88227,37427
22.89040,38132
22.89852,42677
22.90663,37647
22.91477,37158
22.92288,40394
22.93102,37242
22.93913,37627
22.94725,38025
22.95538,40978
22.96350,43389
22.97162,40183
22.97975,37653
22.98787,39950
22.99600,40029
23.00412,34139
23.01223,36333
23.02037,37892
23.02848,39839
23.03662,36434
23.04473,38466
23.05285,33922
23.06098,34751
23.06910,36811
23.07723,34049
23.08535,36962
23.09347,38514
23.10160,38068
23.10972,40168
23.11783,39106
23.12597,36050
23.13408,38975
23.14222,39019
23.15033,36222
23.15845,39100
23.16658,37382
23.17470,38029
23.18283,38593
23.19095,38889
23.19907,34965
23.20720,38283
23.21532,37158
23.22345,36436
23.23157,36091
23.23968,35441
23.24782,37148
23.25593,36083
23.26405,35811
23.27218,35451
23.28030,36433
23.28843,37653
23.29655,41420
23.30467,35874
23.31280,35235
23.32092,39000
23.32905,33161
23.33717,34813
23.34528,38565
23.35342,39647
23.36153,35213
23.36965,34344
23.37778,37613
23.38590,33760
23.39403,37668
23.40215,36208
23.41027,34648
23.41840,35906
23.42652,37832
23.43465,37743
23.44277,34661
23.45088,38169
23.45902,36118
23.46713,39159
23.47527,36694
23.48338,34938
23.49150,35098
23.49963,33906
23.50775,35842
23.51587,36417
23.52400,35226
23.53212,35579
23.54025,42951
23.54837,37115
23.55648,34720
23.56462,42892
23.57273,38941
23.58087,40432
23.58898,38202
23.59710,35859
23.60523,37509
23.61335,33783
23.62147,35258
23.62960,37261
23.63772,35422
23.64585,34520
23.65397,39489
23.66208,33543
23.67022,35476
23.67833,37464
23.68647,37772
23.69458,36043
23.70270,34782
23.71083,34349
23.71895,34935
23.72708,37495
23.73520,35177
23.74332,36020
23.75145,34775
23.75957,39461
23.76768,44019
23.77582,58521
23.78393,85342
23.79207,126792
23.80018,172106
23.80830,221103
23.81643,256420
23.82455,256249
23.83268,223105
23.84080,198213
23.84892,159789
23.85705,142410
23.86517,114966
23.87330,106088
23.88142,86514
23.88953,82151
23.89767,78520
23.90578,71506
23.91390,70576
23.92203,60684
23.93015,58105
23.93828,59424
23.94640,62760
23.95452,54339
23.96265,58782
23.97077,55454
23.97890,52620
23.98702,52632
23.99513,49580
24.00327,46376
24.01138,49978
24.01950,47754
24.02763,47626
24.03575,49578
24.04388,47270
24.05200,47870
24.06012,45881
24.06825,45788
24.07637,45057
24.08450,41550
24.09262,41160
24.10073,46403
24.10887,41632
24.11698,41975
24.12512,41816
24.13323,40089
24.14135,43884
24.14948,46165
24.15760,47785
24.16572,44679
24.17385,41288
24.18197,42115
24.19010,40876
24.19822,42953
24.20633,42932
24.21447,42268
24.22258,41850
24.23072,44694
24.23883,41577
24.24695,43640
24.25508,37490
24.26320,42982
24.27133,41982
24.27945,49883
24.28757,46190
24.29570,44303
24.30382,42935
24.31193,41020
24.32007,44711
24.32818,41831
24.33632,39217
24.34443,39463
24.35255,42063
24.36068,41930
24.36880,40624
24.37693,41660
24.38505,45456
24.39317,39596
24.40130,44022
24.40942,39000
24.41753,43689
24.42567,43883
24.43378,42741
24.44192,42686
24.45003,40144
24.45815,38108
24.46628,39078
24.47440,39886
24.48253,41500
24.49065,39588
24.49877,42300
24.50690,39013
24.51502,40655
24.52315,39229
24.53127,39644
24.53938,36765
24.54752,39000
24.55563,44914
24.56375,39348
24.57188,41858
24.58000,42010
24.58813,37646
24.59625,37685
24.60437,39070
24.61250,39426
24.62062,36700
24.62875,39957
24.63687,37954
24.64498,41366
24.65312,38100
24.66123,41448
24.66937,40401
24.67748,36736
24.68560,40819
24.69373,42320
24.70185,42670
24.70997,43100
24.71810,40385
24.72622,38429
24.73435,38500
24.74247,37446
24.75058,37873
24.75872,37077
24.76683,37273
24.77497,35955
24.78308,37813
24.79120,35894
24.79933,38702
24.80745,37895
24.81557,36528
24.82370,35780
24.83182,38322
24.83995,40827
24.84807,38447
24.85618,42126
24.86432,37993
24.87243,39623
24.88057,40036
24.88868,39622
24.89680,41652
24.90493,38727
24.91305,36571
24.92118,39524
24.92930,40099
24.93742,38940
24.94555,42719
24.95367,37010
24.96178,36092
24.96992,34877
24.97803,36818
24.98617,37400
24.99428,37439
25.00240,35915
25.01053,38983
25.01865,34700
25.02678,33551
25.03490,34364
25.04302,37281
25.05115,38179
25.05927,38388
25.06738,33053
25.07552,37753
25.08363,41642
25.09177,38431
25.09988,35327
25.10800,34989
25.11613,37758
25.12425,37905
25.13238,39922
25.14050,37441
25.14862,37639
25.15675,44461
25.16487,41459
25.17300,45408
25.18112,42174
25.18923,42625
25.19737,39059
25.20548,39211
25.21360,44132
25.22173,36991
25.22985,40310
25.23798,41619
25.24610,40225
25.25422,38516
25.26235,44488
25.27047,39034
25.27860,38648
25.28672,39242
25.29483,41241
25.30297,38615
25.31108,39519
25.31922,38294
25.32733,40598
25.33545,38469
25.34358,35849
25.35170,37889
25.35982,35623
25.36795,37582
25.37607,37683
25.38420,36937
25.39232,41242
25.40043,40999
25.40857,39129
25.41668,40396
25.42482,35048
25.43293,34354
25.44105,35387
25.44918,30143
25.45730,40782
25.46542,35244
25.47355,36666
25.48167,41848
25.48980,38287
25.49792,43123
25.50603,39979
25.51417,40210
25.52228,34770
25.53042,33694
25.53853,39365
25.54665,38484
25.55478,37637
25.56290,37872
25.57103,39094
25.57915,38933
25.58727,34964
25.59540,36721
25.60352,36972
25.61163,36828
25.61977,36756
25.62788,40375
25.63602,36491
25.64413,38082
25.65225,38542
25.66038,37226
25.66850,33814
25.67663,34230
25.68475,39966
25.69287,41478
25.70100,37652
25.70912,39848
25.71725,35257
25.72537,36961
25.73348,39517
25.74162,35484
25.74973,35142
25.75785,38269
25.76598,34099
25.77410,37276
25.78223,38640
25.79035,37850
25.79847,34281
25.80660,34986
25.81472,36312
25.82285,35120
25.83097,35346
25.83908,38767
25.84722,37601
25.85533,39609
25.86345,36206
25.87158,38877
25.87970,36604
25.88783,35582
25.89595,39111
25.90407,33276
25.91220,34218
25.92032,36932
25.92845,32598
25.93657,33877
25.94468,34284
25.95282,38256
25.96093,36148
25.96907,38856
25.97718,38203
25.98530,39323
25.99343,36641
26.00155,36143
26.00967,35268
26.01780,34023
26.02592,37948
26.03405,40006
26.04217,34626
26.05028,35111
26.05842,39017
26.06653,37706
26.07467,34349
26.08278,38907
26.09090,38624
26.09903,36329
26.10715,35554
26.11527,36634
26.12340,37212
26.13152,37625
26.13965,39148
26.14777,38727
26.15588,41210
26.16402,40955
26.17213,39778
26.18027,41831
26.18838,37875
26.19650,37194
26.20463,34352
26.21275,38928
26.22088,40155
26.22900,35446
26.23712,36761
26.24525,37616
26.25337,32019
26.26148,35412
26.26962,37763
26.27773,37268
26.28587,34622
26.29398,36264
26.30210,39434
26.31023,36720
26.31835,34055
26.32648,37735
26.33460,31872
26.34272,35312
26.35085,36440
26.35897,33899
26.36710,34149
26.37522,36393
26.38333,37211
26.39147,39668
26.39958,40430
26.40770,39170
26.41583,34895
26.42395,37288
26.43208,38976
26.44020,40641
26.44832,39134
26.45645,37610
26.46457,35604
26.47270,36447
26.48082,36498
26.48893,34340
26.49707,35651
26.50518,38160
26.51332,36969
26.52143,35046
26.52955,38377
26.53768,33877
26.54580,36988
26.55392,33086
26.56205,39562
26.57017,34189
26.57830,36538
26.58642,43010
26.59453,35621
26.60267,39875
26.61078,38791
26.61892,37926
26.62703,38648
26.63515,38639
26.64328,37637
26.65140,37804
26.65952,36055
26.66765,34606
26.67577,36910
26.68390,39839
26.69202,35325
26.70013,34597
26.70827,37510
26.71638,36388
26.72452,37171
26.73263,33397
26.74075,34881
26.74888,32533
26.75700,37020
26.76513,38202
26.77325,42397
26.78137,35361
26.78950,33356
26.79762,36241
26.80573,36066
26.81387,39490
26.82198,40846
26.83012,37825
26.83823,34818
26.84635,34011
26.85448,35599
26.86260,35260
26.87073,37586
26.87885,35363
26.88697,39886
26.89510,36990
26.90322,36606
26.91133,36880
26.91947,39360
26.92758,33896
26.93572,36129
26.94383,33997
26.95195,35027
26.96008,35119
26.96820,34734
26.97633,33069
26.98445,36562
26.99257,34288
27.00070,33992
27.00882,40394
27.01695,43280
27.02507,44342
27.03318,47684
27.04132,52493
27.04943,57990
27.05755,58246
27.06568,58233
27.07380,55149
27.08193,54429
27.09005,52146
27.09817,53355
27.10630,47677
27.11442,43053
27.12255,45514
27.13067,43605
27.13878,39930
27.14692,44111
27.15503,43496
27.16317,41128
27.17128,43766
27.17940,42107
27.18753,38590
27.19565,42184
27.20377,40049
27.21190,47373
27.22002,43471
27.22815,42719
27.23627,47217
27.24438,40530
27.25252,41092
27.26063,38085
27.26877,37753
27.27688,35260
27.28500,36828
27.29313,41384
27.30125,40718
27.30937,36060
27.31750,36413
27.32562,35726
27.33375,42393
27.34187,37906
27.34998,35455
27.35812,38946
27.36623,38269
27.37437,38702
27.38248,38691
27.39060,41500
27.39873,38810
27.40685,37504
27.41498,34843
27.42310,35954
27.43122,38605
27.43935,37050
27.44747,37628
27.45558,34154
27.46372,40002
27.47183,37153
27.47997,37780
27.48808,35575
27.49620,37046
27.50433,32859
27.51245,36450
27.52058,42593
27.52870,37519
27.53682,38231
27.54495,35560
27.55307,38599
27.56120,41239
27.56932,35195
27.57743,43896
27.58557,37597
27.59368,33504
27.60180,39069
27.60993,36898
27.61805,38147
27.62618,37488
27.63430,40518
27.64242,38911
27.65055,36108
27.65867,41495
27.66680,38503
27.67492,37307
27.68303,36296
27.69117,36014
27.69928,37771
27.70740,39191
27.71553,35187
27.72365,38073
27.73178,36451
27.73990,36801
27.74802,41166
27.75615,35778
27.76427,34423
27.77240,40337
27.78052,37974
27.78863,37481
27.79677,37420
27.80488,39373
27.81302,41067
27.82113,37322
27.82925,38128
27.83738,36374
27.84550,42558
27.85362,34107
27.86175,37632
27.86987,40563
27.87800,36925
27.88612,39526
27.89423,33336
27.90237,36479
27.91048,38910
27.91862,33488
27.92673,41483
27.93485,35153
27.94298,43913
27.95110,39929
27.95922,37168
27.96735,37876
27.97547,36256
27.98360,36591
27.99172,36942
27.99983,36439
28.00797,38520
28.01608,40308
28.02422,35990
28.03233,39421
28.04045,37180
28.04858,41058
28.05670,39275
28.06483,35590
28.07295,37533
28.08107,42950
28.08920,38293
28.09732,37840
28.10543,41228
28.11357,38140
28.12168,38180
28.12982,38461
28.13793,39729
28.14605,40333
28.15418,39658
28.16230,41617
28.17043,44431
28.17855,38536
28.18667,40903
28.19480,41100
28.20292,42388
28.21105,39437
28.21917,37543
28.22728,40917
28.23542,37399
28.24353,41040
28.25165,36412
28.25978,38089
28.26790,36327
28.27603,37883
28.28415,37368
28.29227,38874
28.30040,37418
28.30852,38199
28.31665,37962
28.32477,37976
28.33288,35916
28.34102,37920
28.34913,38307
28.35725,38142
28.36538,41722
28.37350,41583
28.38163,38421
28.38975,41380
28.39787,40573
28.40600,40503
28.41412,39340
28.42225,41385
28.43037,39662
28.43848,41696
28.44662,45156
28.45473,46208
28.46287,43301
28.47098,42314
28.47910,40956
28.48723,38725
28.49535,42429
28.50347,39691
28.51160,38369
28.51972,42210
28.52785,38192
28.53597,40745
28.54408,36900
28.55222,40941
28.56033,43290
28.56847,38252
28.57658,40265
28.58470,37719
28.59283,39503
28.60095,38162
28.60908,40238
28.61720,40373
28.62532,43627
28.63345,38361
28.64157,41747
28.64968,40065
28.65782,36075
28.66593,36723
28.67407,42242
28.68218,41985
28.69030,43062
28.69843,37747
28.70655,42817
28.71468,37139
28.72280,38978
28.73092,40583
28.73905,39687
28.74717,36675
28.75528,43163
28.76342,36394
28.77153,37486
28.77967,37830
28.78778,38874
28.79590,44883
28.80403,44269
28.81215,46268
28.82028,41294
28.82840,40755
28.83652,38671
28.84465,41292
28.85277,42006
28.86090,45599
28.86902,42319
28.87713,36488
28.88527,33443
28.89338,40955
28.90150,40554
28.90963,43275
28.91775,35192
28.92588,42675
28.93400,38904
28.94212,40142
28.95025,40891
28.95837,42841
28.96650,36737
28.97462,39242
28.98273,38659
28.99087,41579
28.99898,44111
29.00712,39815
29.01523,41631
29.02335,36678
29.03148,38311
29.03960,42190
29.04772,39108
29.05585,35931
29.06397,36893
29.07210,36025
29.08022,38455
29.08833,37828
29.09647,40567
29.10458,38914
29.11272,36856
29.12083,38609
29.12895,41056
29.13708,39362
29.14520,43654
29.15332,40118
29.16145,39631
29.16957,40991
29.17770,38286
29.18582,39468
29.19393,41920
29.20207,38390
29.21018,37727
29.21832,39722
29.22643,41862
29.23455,36573
29.24268,36537
29.25080,38973
29.25893,41083
29.26705,38018
29.27517,44974
29.28330,39597
29.29142,40654
29.29953,42802
29.30767,38253
29.31578,42195
29.32392,36908
29.33203,39340
29.34015,39509
29.34828,46034
29.35640,41239
29.36453,44056
29.37265,41835
29.38077,41753
29.38890,41206
29.39702,43012
29.40513,35073
29.41327,46371
29.42138,42629
29.42952,39790
29.43763,39891
29.44575,40337
29.45388,36944
29.46200,36391
29.47013,41194
29.47825,41054
29.48637,37579
29.49450,36412
29.50262,38256
29.51075,40743
29.51887,39868
29.52698,42177
29.53512,39408
29.54323,38176
29.55135,43817
29.55948,42204
29.56760,37912
29.57573,41878
29.58385,43114
29.59197,42848
29.60010,41805
29.60822,42094
29.61635,38262
29.62447,39984
29.63258,40229
29.64072,40554
29.64883,43652
29.65697,42310
29.66508,42216
29.67320,41476
29.68133,44131
29.68945,40015
29.69757,37078
29.70570,38131
29.71382,43702
29.72195,37893
29.73007,37709
29.73818,37001
29.74632,43132
29.75443,38637
29.76257,39197
29.77068,37289
29.77880,41605
29.78693,37028
29.79505,41603
29.80317,40750
29.81130,38757
29.81942,43024
29.82755,43169
29.83567,42042
29.84378,41401
29.85192,47415
29.86003,40505
29.86817,37261
29.87628,36791
29.88440,38392
29.89253,42698
29.90065,40360
29.90878,38447
29.91690,40579
29.92502,42563
29.93315,40537
29.94127,44957
29.94938,42388
29.95752,43102
29.96563,37042
29.97377,44033
29.98188,40804
29.99000,41605
29.99813,41811
30.00625,39023
30.01438,42804
30.02250,41300
30.03062,46871
30.03875,41140
30.04687,44713
30.05500,43380
30.06312,41524
30.07123,46512
30.07937,46544
30.08748,42964
30.09560,43675
30.10373,42222
30.11185,39679
30.11998,40788
30.12810,39278
30.13622,44338
30.14435,41730
30.15247,43083
30.16060,45497
30.16872,36704
30.17683,41130
30.18497,42313
30.19308,42563
30.20120,43388
30.20933,41318
30.21745,42378
30.22558,39440
30.23370,44595
30.24182,39863
30.24995,38171
30.25807,36942
30.26620,41822
30.27432,42644
30.28243,39738
30.29057,40336
30.29868,42346
30.30682,39050
30.31493,43771
30.32305,42115
30.33118,38680
30.33930,40938
30.34742,40681
30.35555,40722
30.36367,38847
30.37180,42078
30.37992,43558
30.38803,42276
30.39617,38138
30.40428,43251
30.41242,43838
30.42053,42500
30.42865,42735
30.43678,42294
30.44490,41932
30.45302,41468
30.46115,41974
30.46927,37836
30.47740,38799
30.48552,38546
30.49363,39159
30.50177,42139
30.50988,39845
30.51802,42838
30.52613,41119
30.53425,40279
30.54238,43164
30.55050,45248
30.55863,42072
30.56675,36703
30.57487,42910
30.58300,38972
30.59112,39079
30.59923,43356
30.60737,39282
30.61548,39791
30.62362,41669
30.63173,46090
30.63985,41066
30.64798,40533
30.65610,42225
30.66423,39861
30.67235,39560
30.68047,42773
30.68860,43432
30.69672,42740
30.70485,41731
30.71297,39467
30.72108,46500
30.72922,40453
30.73733,38673
30.74545,37537
30.75358,39507
30.76170,39991
30.76983,40661
30.77795,40129
30.78607,42303
30.79420,37810
30.80232,42362
30.81045,42649
30.81857,39202
30.82668,42839
30.83482,39981
30.84293,45509
30.85105,42446
30.85918,46104
30.86730,38966
30.87543,38321
30.88355,42155
30.89167,41299
30.89980,40481
30.90792,41556
30.91605,41387
30.92417,45987
30.93228,42698
30.94042,46524
30.94853,41934
30.95667,41463
30.96478,40761
30.97290,40824
30.98103,40252
30.98915,41649
30.99727,41223
31.00540,39682
31.01352,41851
31.02165,41389
31.02977,42045
31.03788,41192
31.04602,45617
31.05413,43385
31.06227,41182
31.07038,43512
31.07850,42800
31.08663,44929
31.09475,42585
31.10288,44484
31.11100,43970
31.11912,45966
31.12725,41194
31.13537,46541
31.14348,44456
31.15162,41910
31.15973,44708
31.16787,39456
31.17598,42602
31.18410,44648
31.19223,39640
31.20035,44503
31.20848,44688
31.21660,49149
31.22472,47504
31.23285,47489
31.24097,50442
31.24908,54251
31.25722,51593
31.26533,48173
31.27347,45579
31.28158,44503
31.28970,43335
31.29783,40754
31.30595,43624
31.31408,41432
31.32220,44374
31.33032,46937
31.33845,46688
31.34657,47370
31.35470,43819
31.36282,49232
31.37093,41947
31.37907,45354
31.38718,43052
31.39530,41521
31.40343,43701
31.41155,45620
31.41968,43771
31.42780,41552
31.43592,39277
31.44405,41965
31.45217,45646
31.46030,47805
31.46842,43642
31.47653,42727
31.48467,43501
31.49278,45902
31.50090,44590
31.50903,42006
31.51715,43668
31.52528,47931
31.53340,44509
31.54152,45470
31.54965,48156
31.55777,42884
31.56590,41217
31.57402,46565
31.58213,43608
31.59027,42609
31.59838,45699
31.60652,45536
31.61463,44587
31.62275,45914
31.63088,45025
31.63900,47040
31.64712,46177
31.65525,45290
31.66337,43291
31.67150,42828
31.67962,45908
31.68773,43293
31.69587,43133
31.70398,46220
31.71212,42801
31.72023,47578
31.72835,45869
31.73648,46579
31.74460,42840
31.75273,43321
31.76085,45112
31.76897,44526
31.77710,44582
31.78522,47059
31.79333,46221
31.80147,43634
31.80958,45374
31.81772,42555
31.82583,42515
31.83395,45064
31.84208,44317
31.85020,45910
31.85833,45687
31.86645,43857
31.87457,45806
31.88270,45368
31.89082,47127
31.89895,46840
31.90707,46155
31.91518,47904
31.92332,45529
31.93143,42996
31.93955,46386
31.94768,44033
31.95580,44772
31.96393,44371
31.97205,41831
31.98017,45141
31.98830,43635
31.99642,43728
32.00455,49966
32.01267,50544
32.02078,45000
32.02892,43061
32.03703,44758
32.04515,43308
32.05328,45036
32.06140,43182
32.06953,45261
32.07765,45863
32.08577,43196
32.09390,45189
32.10202,47586
32.11015,45376
32.11827,42248
32.12638,43033
32.13452,49263
32.14263,47674
32.15077,41520
32.15888,44882
32.16700,46872
32.17513,44758
32.18325,45482
32.19137,47679
32.19950,47147
32.20762,45186
32.21575,45234
32.22387,44340
32.23198,46658
32.24012,43736
32.24823,41389
32.25637,48476
32.26448,45554
32.27260,41948
32.28073,46511
32.28885,46357
32.29697,43826
32.30510,47909
32.31322,46032
32.32135,48313
32.32947,44000
32.33758,48686
32.34572,48420
32.35383,48462
32.36197,45894
32.37008,43534
32.37820,45166
32.38633,45835
32.39445,49724
32.40258,51588
32.41070,43647
32.41882,46770
32.42695,52849
32.43507,47567
32.44318,46787
32.45132,45527
32.45943,49834
32.46757,48479
32.47568,44619
32.48380,51112
32.49193,46003
32.50005,51017
32.50818,46053
32.51630,55371
32.52442,47825
32.53255,44211
32.54067,47018
32.54880,47459
32.55692,48747
32.56503,43296
32.57317,48017
32.58128,47476
32.58940,42770
32.59753,45792
32.60565,46312
32.61378,46157
32.62190,50076
32.63002,48644
32.63815,48898
32.64627,44851
32.65440,47112
32.66252,47248
32.67063,48876
32.67877,48625
32.68688,49948
32.69500,50440
32.70313,43975
32.71125,43882
32.71938,47224
32.72750,47154
32.73562,46924
32.74375,52382
32.75187,48670
32.76000,50401
32.76812,47858
32.77623,47792
32.78437,49322
32.79248,44290
32.80062,46652
32.80873,47733
32.81685,50432
32.82498,47001
32.83310,50121
32.84122,46595
32.84935,49302
32.85747,46619
32.86560,47486
32.87372,43816
32.88183,45176
32.88997,47803
32.89808,46648
32.90622,44849
32.91433,45665
32.92245,48037
32.93058,47857
32.93870,54959
32.94683,48896
32.95495,50584
32.96307,47226
32.97120,48741
32.97932,51774
32.98743,48018
32.99557,47923
33.00368,46462
33.01182,49934
33.01993,45799
33.02805,49788
33.03618,49635
33.04430,48856
33.05243,54247
33.06055,42231
33.06867,47317
33.07680,44139
33.08492,49811
33.09303,48330
33.10117,50837
33.10928,49066
33.11742,49470
33.12553,57214
33.13365,52787
33.14178,49318
33.14990,52943
33.15803,53077
33.16615,49268
33.17427,53425
33.18240,48465
33.19052,51594
33.19865,43938
33.20677,47063
33.21488,44807
33.22302,49159
33.23113,48594
33.23925,47893
33.24738,47346
33.25550,51899
33.26363,46549
33.27175,50547
33.27987,52647
33.28800,55128
33.29612,48997
33.30425,49979
33.31237,50864
33.32048,49923
33.32862,47527
33.33673,49875
33.34485,49743
33.35298,48162
33.36110,54569
33.36923,50506
33.37735,54895
33.38547,51555
33.39360,53092
33.40172,52112
33.40985,52261
33.41797,50654
33.42608,47482
33.43422,54682
33.44233,51578
33.45047,52617
33.45858,54333
33.46670,50561
33.47483,47491
33.48295,53868
33.49107,52617
33.49920,49374
33.50732,49524
33.51545,47984
33.52357,51714
33.53168,50792
33.53982,52048
33.54793,51457
33.55607,49796
33.56418,49231
33.57230,55208
33.58043,53345
33.58855,51995
33.59668,51754
33.60480,53129
33.61292,54126
33.62105,50341
33.62917,55170
33.63728,54137
33.64542,52406
33.65353,52485
33.66167,48904
33.66978,50697
33.67790,52513
33.68603,49225
33.69415,49319
33.70228,49670
33.71040,48885
33.71852,51602
33.72665,56264
33.73477,48160
33.74288,51375
33.75102,49200
33.75913,49640
33.76727,51402
33.77538,51924
33.78350,48579
33.79163,53846
33.79975,53890
33.80788,55608
33.81600,56969
33.82412,54094
33.83225,52262
33.84037,53305
33.84850,55797
33.85662,57715
33.86473,49777
33.87287,52602
33.88098,52994
33.88910,53172
33.89723,53547
33.90535,56198
33.91348,54703
33.92160,53976
33.92972,51543
33.93785,51048
33.94597,51525
33.95410,51832
33.96222,52069
33.97033,53425
33.97847,55319
33.98658,54366
33.99472,54181
34.00283,54095
34.01095,57633
34.01908,53854
34.02720,54581
34.03532,55235
34.04345,50311
34.05157,59816
34.05970,56904
34.06782,55819
34.07593,56368
34.08407,52344
34.09218,56270
34.10032,54919
34.10843,55497
34.11655,52630
34.12468,52442
34.13280,55296
34.14092,57851
34.14905,62622
34.15717,57220
34.16530,56241
34.17342,56495
34.18153,53387
34.18967,57284
34.19778,56432
34.20592,54503
34.21403,50736
34.22215,54735
34.23028,59244
34.23840,55674
34.24653,56400
34.25465,55766
34.26277,53850
34.27090,53060
34.27902,63055
34.28713,56951
34.29527,56578
34.30338,56200
34.31152,61779
34.31963,60079
34.32775,48885
34.33588,52414
34.34400,54549
34.35213,56413
34.36025,58122
34.36837,56374
34.37650,57962
34.38462,59965
34.39275,57201
34.40087,58379
34.40898,54112
34.41712,58360
34.42523,63179
34.43335,61536
34.44148,55012
34.44960,60088
34.45773,58003
34.46585,56028
34.47397,66274
34.48210,59126
34.49022,57602
34.49835,54711
34.50647,56452
34.51458,57404
34.52272,61131
34.53083,60371
34.53895,61476
34.54708,60696
34.55520,62739
34.56333,60340
34.57145,62401
34.57957,56769
34.58770,59133
34.59582,59760
34.60395,57813
34.61207,57205
34.62018,57249
34.62832,56456
34.63643,63873
34.64457,54993
34.65268,63753
34.66080,59516
34.66893,58552
34.67705,58331
34.68517,59874
34.69330,58201
34.70142,59530
34.70955,60207
34.71767,58579
34.72578,59185
34.73392,57927
34.74203,57927
34.75017,58458
34.75828,59120
34.76640,62427
34.77453,58491
34.78265,61999
34.79077,59618
34.79890,58087
34.80702,64378
34.81515,61402
34.82327,60032
34.83138,62154
34.83952,59232
34.84763,59542
34.85577,60581
34.86388,63648
34.87200,59198
34.88013,61850
34.88825,61660
34.89638,62868
34.90450,60472
34.91262,61663
34.92075,63911
34.92887,60520
34.93698,60067
34.94512,59325
34.95323,63045
34.96137,60682
34.96948,54263
34.97760,59646
34.98573,58062
34.99385,56157
35.00198,63417
35.01010,59852
35.01822,66313
35.02635,60626
35.03447,61587
35.04260,61820
35.05072,57397
35.05883,61977
35.06697,64157
35.07508,60497
35.08320,60430
35.09133,59423
35.09945,67944
35.10758,62702
35.11570,64532
35.12382,64559
35.13195,61665
35.14007,66253
35.14820,64249
35.15632,66878
35.16443,64581
35.17257,62057
35.18068,62869
35.18880,62637
35.19693,64320
35.20505,62831
35.21318,62465
35.22130,65233
35.22942,64527
35.23755,65865
35.24567,63666
35.25380,63880
35.26192,62706
35.27003,64093
35.27817,60859
35.28628,66591
35.29442,63563
35.30253,66057
35.31065,67570
35.31878,61425
35.32690,63897
35.33502,65623
35.34315,58945
35.35127,61757
35.35940,63223
35.36752,57900
35.37563,64079
35.38377,61536
35.39188,60119
35.40002,65772
35.40813,62552
35.41625,59190
35.42438,69728
35.43250,64910
35.44063,67355
35.44875,65202
35.45687,63444
35.46500,65706
35.47312,64927
35.48123,63272
35.48937,60158
35.49748,63143
35.50562,66653
35.51373,62842
35.52185,64451
35.52998,67385
35.53810,61727
35.54623,63009
35.55435,64304
35.56247,60727
35.57060,64889
35.57872,62634
35.58683,65926
35.59497,62407
35.60308,63350
35.61122,68686
35.61933,67107
35.62745,69149
35.63558,66215
35.64370,63950
35.65183,64197
35.65995,58821
35.66807,65948
35.67620,63310
35.68432,68316
35.69245,65928
35.70057,64389
35.70868,65385
35.71682,66334
35.72493,66653
35.73305,63647
35.74118,67041
35.74930,62490
35.75743,65976
35.76555,65056
35.77367,67315
35.78180,70712
35.78992,67760
35.79805,65059
35.80617,70881
35.81428,69263
35.82242,67185
35.83053,69863
35.83865,70447
35.84678,75810
35.85490,75628
35.86303,68799
35.87115,70393
35.87927,65343
35.88740,70099
35.89552,68556
35.90365,75463
35.91177,68688
35.91988,71367
35.92802,72923
35.93613,70284
35.94427,72086
35.95238,69886
35.96050,68474
35.96863,72079
35.97675,76477
35.98487,72140
35.99300,71761
36.00112,66944
36.00925,70786
36.01737,67160
36.02548,64243
36.03362,66786
36.04173,69328
36.04987,72229
36.05798,70791
36.06610,66469
36.07423,67466
36.08235,70243
36.09048,68648
36.09860,68785
36.10672,71661
36.11485,67368
36.12297,71147
36.13108,72519
36.13922,70760
36.14733,67955
36.15547,73146
36.16358,71084
36.17170,66691
36.17983,74771
36.18795,72641
36.19608,70734
36.20420,67440
36.21232,64181
36.22045,66109
36.22857,61775
36.23668,63994
36.24482,64227
36.25293,66931
36.26107,67954
36.26918,68185
36.27730,66380
36.28543,75991
36.29355,69080
36.30168,68099
36.30980,68477
36.31792,66734
36.32605,80222
36.33417,69668
36.34230,71625
36.35042,68924
36.35853,65085
36.36667,72284
36.37478,71513
36.38290,66221
36.39103,68542
36.39915,69235
36.40728,72829
36.41540,71284
36.42352,70880
36.43165,78745
36.43977,72653
36.44790,67030
36.45602,67451
36.46413,68417
36.47227,70521
36.48038,65073
36.48852,66870
36.49663,73181
36.50475,75537
36.51288,71483
36.52100,67050
36.52912,73391
36.53725,73376
36.54537,73834
36.55350,66519
36.56162,65648
36.56973,68885
36.57787,67605
36.58598,70645
36.59412,74349
36.60223,72919
36.61035,71844
36.61848,72911
36.62660,76030
36.63472,70324
36.64285,68235
36.65097,71576
36.65910,68204
36.66722,77196
36.67533,65683
36.68347,71129
36.69158,71705
36.69972,70248
36.70783,73795
36.71595,70451
36.72408,70213
36.73220,74826
36.74033,66599
36.74845,76333
36.75657,68665
36.76470,71231
36.77282,74494
36.78093,75386
36.78907,75259
36.79718,70633
36.80532,74313
36.81343,74889
36.82155,69976
36.82968,72857
36.83780,71891
36.84593,74241
36.85405,74612
36.86217,74932
36.87030,71946
36.87842,74369
36.88653,77431
36.89467,84149
36.90278,73211
36.91092,72491
36.91903,71898
36.92715,71831
36.93528,73143
36.94340,73249
36.95153,68365
36.95965,73526
36.96777,71893
36.97590,73619
36.98402,70636
36.99215,78172
37.00027,75417
37.00838,76011
37.01652,79693
37.02463,77713
37.03275,75988
37.04088,75280
37.04900,74556
37.05713,70733
37.06525,75758
37.07337,72018
37.08150,78279
37.08962,74769
37.09775,78680
37.10587,77538
37.11398,73937
37.12212,70652
37.13023,72325
37.13837,75973
37.14648,75127
37.15460,73153
37.16273,77618
37.17085,77245
37.17897,76569
37.18710,77948
37.19522,78601
37.20335,75126
37.21147,77011
37.21958,75730
37.22772,73464
37.23583,78379
37.24397,79619
37.25208,76248
37.26020,81710
37.26833,83207
37.27645,74786
37.28458,79611
37.29270,75738
37.30082,78793
37.30895,79070
37.31707,78542
37.32518,79971
37.33332,76465
37.34143,77873
37.34957,76278
37.35768,77620
37.36580,76786
37.37393,76874
37.38205,81273
37.39018,84380
37.39830,86691
37.40642,84183
37.41455,84484
37.42267,82055
37.43078,80677
37.43892,81971
37.44703,79046
37.45517,82028
37.46328,79066
37.47140,76605
37.47953,82121
37.48765,83895
