Z:\data\JTB-E02\BACandBLUE\JTB-E02-197-12.D Thu Feb 21 13:03:46 2019
Start of data points
2.09512,73490
2.10323,75272
2.11137,74341
2.11948,74025
2.12760,71395
2.13573,73242
2.14385,71456
2.15197,66755
2.16010,71628
2.16822,68293
2.17635,68764
2.18447,62010
2.19258,62698
2.20072,65606
2.20883,64659
2.21697,64860
2.22508,61291
2.23320,60784
2.24133,60265
2.24945,63299
2.25758,59702
2.26570,60832
2.27382,158586
2.28195,961146
2.29007,1562279
2.29818,744259
2.30632,407600
2.31443,333549
2.32257,280782
2.33068,249776
2.33880,223478
2.34693,209698
2.35505,184433
2.36318,176413
2.37130,166148
2.37942,153412
2.38755,152827
2.39567,145494
2.40378,131711
2.41192,136104
2.42003,131755
2.42817,141391
2.43628,148775
2.44440,127243
2.45253,123469
2.46065,116678
2.46878,115443
2.47690,114396
2.48502,112280
2.49315,106575
2.50127,120080
2.50940,115527
2.51752,112942
2.52563,107858
2.53377,107004
2.54188,98365
2.55000,105967
2.55813,104003
2.56625,114271
2.57438,139976
2.58250,134036
2.59062,117285
2.59875,115210
2.60687,120949
2.61500,264514
2.62312,492838
2.63123,359121
2.63937,220196
2.64748,182330
2.65562,166125
2.66373,148690
2.67185,131066
2.67998,124263
2.68810,122292
2.69622,109907
2.70435,109466
2.71247,100756
2.72060,105721
2.72872,100998
2.73683,99376
2.74497,95348
2.75308,98522
2.76122,91679
2.76933,93894
2.77745,92957
2.78558,91958
2.79370,91388
2.80182,89188
2.80995,89960
2.81807,93914
2.82620,89551
2.83432,87643
2.84243,82621
2.85057,86642
2.85868,81466
2.86682,82324
2.87493,86691
2.88305,80125
2.89118,85714
2.89930,79757
2.90743,79659
2.91555,84358
2.92367,79691
2.93180,81599
2.93992,77277
2.94803,75458
2.95617,77195
2.96428,80602
2.97242,89504
2.98053,95549
2.98865,88065
2.99678,81505
3.00490,78228
3.01303,83169
3.02115,87319
3.02927,80336
3.03740,77802
3.04552,75004
3.05365,78502
3.06177,72314
3.06988,78370
3.07802,78830
3.08613,109592
3.09425,398061
3.10238,1145018
3.11050,2036570
3.11863,3358095
3.12675,3376424
3.13487,2027338
3.14300,1342626
3.15112,1072930
3.15925,884050
3.16737,732028
3.17548,637558
3.18362,553503
3.19173,475842
3.19985,426653
3.20798,379839
3.21610,350093
3.22423,307566
3.23235,287964
3.24047,264041
3.24860,253790
3.25672,233698
3.26485,218453
3.27297,208014
3.28108,195693
3.28922,194056
3.29733,289843
3.30547,852685
3.31358,2226309
3.32170,3685649
3.32983,3749713
3.33795,2911376
3.34607,2176629
3.35420,1757535
3.36232,1508202
3.37045,1318009
3.37857,1127586
3.38668,1032993
3.39482,911512
3.40293,865146
3.41107,787914
3.41918,736866
3.42730,698609
3.43543,640966
3.44355,613441
3.45167,591619
3.45980,554365
3.46792,532064
3.47605,526307
3.48417,539376
3.49228,521393
3.50042,486664
3.50853,456687
3.51667,432977
3.52478,429345
3.53290,413187
3.54103,389053
3.54915,387734
3.55728,377137
3.56540,361360
3.57352,388762
3.58165,454919
3.58977,529831
3.59788,492630
3.60602,428422
3.61413,383346
3.62227,364752
3.63038,354791
3.63850,356649
3.64663,328746
3.65475,315228
3.66288,298854
3.67100,294582
3.67912,295732
3.68725,296836
3.69537,278310
3.70350,272280
3.71162,263822
3.71973,264382
3.72787,249879
3.73598,250280
3.74410,229715
3.75223,249130
3.76035,235837
3.76848,224889
3.77660,223842
3.78472,223429
3.79285,221091
3.80097,223770
3.80910,319597
3.81722,897578
3.82533,2029941
3.83347,2557803
3.84158,1893891
3.84970,1205823
3.85783,912902
3.86595,770608
3.87408,675071
3.88220,591317
3.89032,521436
3.89845,481126
3.90657,452272
3.91470,419940
3.92282,398344
3.93093,378628
3.93907,365610
3.94718,336364
3.95532,396073
3.96343,736995
3.97155,1563944
3.97968,2258463
3.98780,2054118
3.99592,1354814
4.00405,1289694
4.01217,3058783
4.02030,7399953
4.02842,1.076969E+07
4.03653,9447244
4.04467,5741424
4.05278,3159650
4.06092,2052239
4.06903,1536981
4.07715,1215836
4.08528,1004213
4.09340,886249
4.10153,730550
4.10965,658307
4.11777,580279
4.12590,532911
4.13402,497063
4.14213,450971
4.15027,447671
4.15838,447641
4.16652,437661
4.17463,420966
4.18275,398787
4.19088,396253
4.19900,366724
4.20713,339481
4.21525,324435
4.22337,324196
4.23150,429173
4.23962,651433
4.24773,799798
4.25587,707715
4.26398,541948
4.27212,443044
4.28023,396610
4.28835,360954
4.29648,342055
4.30460,307672
4.31273,285870
4.32085,276121
4.32897,265185
4.33710,259663
4.34522,254093
4.35335,248326
4.36147,234295
4.36958,231174
4.37772,222760
4.38583,230544
4.39395,219268
4.40208,214809
4.41020,207567
4.41833,205601
4.42645,204686
4.43457,196540
4.44270,199687
4.45082,197097
4.45895,184671
4.46707,191635
4.47518,182145
4.48332,185007
4.49143,180616
4.49955,185320
4.50768,178014
4.51580,178650
4.52393,175157
4.53205,173216
4.54017,169691
4.54830,169975
4.55642,160813
4.56455,164647
4.57267,168876
4.58078,172605
4.58892,158111
4.59703,163679
4.60517,158661
4.61328,151484
4.62140,158014
4.62953,161920
4.63765,158023
4.64577,156981
4.65390,154663
4.66202,153185
4.67015,155672
4.67827,151384
4.68638,161193
4.69452,154268
4.70263,156945
4.71077,143426
4.71888,150907
4.72700,157808
4.73513,145236
4.74325,143858
4.75138,144885
4.75950,142666
4.76762,141475
4.77575,139979
4.78387,142421
4.79198,144965
4.80012,147205
4.80823,151118
4.81637,178044
4.82448,176876
4.83260,175840
4.84073,163619
4.84885,170683
4.85698,170372
4.86510,167002
4.87322,159789
4.88135,157927
4.88947,184682
4.89760,153549
4.90572,149094
4.91383,136142
4.92197,142151
4.93008,143168
4.93820,141116
4.94633,174971
4.95445,294359
4.96258,591222
4.97070,1135399
4.97882,1544283
4.98695,1656943
4.99507,1483498
5.00320,1151390
5.01132,937422
5.01943,762943
5.02757,661999
5.03568,585232
5.04380,554495
5.05193,496827
5.06005,480140
5.06818,449841
5.07630,422082
5.08442,411315
5.09255,383909
5.10067,376740
5.10880,363642
5.11692,350888
5.12503,341530
5.13317,321269
5.14128,318158
5.14942,315514
5.15753,303918
5.16565,288019
5.17378,288891
5.18190,286503
5.19002,274928
5.19815,272720
5.20627,274609
5.21440,270509
5.22252,249127
5.23063,250097
5.23877,244588
5.24688,257365
5.25502,250821
5.26313,242180
5.27125,234009
5.27938,222715
5.28750,219262
5.29562,214175
5.30375,214239
5.31187,206482
5.32000,198737
5.32812,205946
5.33623,199254
5.34437,235324
5.35248,232989
5.36062,235366
5.36873,222591
5.37685,208431
5.38498,192465
5.39310,201977
5.40123,202916
5.40935,203545
5.41747,196783
5.42560,198284
5.43372,184758
5.44183,184261
5.44997,174647
5.45808,179299
5.46622,184500
5.47433,175757
5.48245,179462
5.49058,175358
5.49870,171238
5.50683,177495
5.51495,171150
5.52307,173618
5.53120,174884
5.53932,177137
5.54745,171514
5.55557,166243
5.56368,162176
5.57182,161427
5.57993,160259
5.58805,164892
5.59618,177482
5.60430,190555
5.61243,192160
5.62055,181683
5.62867,174386
5.63680,176693
5.64492,182785
5.65305,191913
5.66117,180663
5.66928,181709
5.67742,175025
5.68553,183320
5.69365,188631
5.70178,221978
5.70990,237782
5.71803,241701
5.72615,218990
5.73427,194405
5.74240,173936
5.75052,171686
5.75865,159316
5.76677,158456
5.77488,163992
5.78302,157956
5.79113,153803
5.79927,150908
5.80738,155473
5.81550,148093
5.82363,147329
5.83175,151361
5.83987,145772
5.84800,147180
5.85612,144894
5.86425,150444
5.87237,146005
5.88048,146776
5.88862,139913
5.89673,141367
5.90487,129211
5.91298,113990
5.92110,109841
5.92923,100925
5.93735,105946
5.94548,106331
5.95360,101657
5.96172,105858
5.96985,109070
5.97797,109004
5.98608,123048
5.99422,126677
6.00233,123254
6.01047,125549
6.01858,115301
6.02670,116780
6.03483,107917
6.04295,111544
6.05108,111241
6.05920,111820
6.06732,109684
6.07545,106248
6.08357,112011
6.09168,104571
6.09982,98768
6.10793,102653
6.11607,96139
6.12418,101705
6.13230,99106
6.14043,101395
6.14855,105425
6.15668,104366
6.16480,109925
6.17292,118949
6.18105,118479
6.18917,120377
6.19730,108562
6.20542,116768
6.21353,115625
6.22167,124874
6.22978,125981
6.23790,121901
6.24603,125665
6.25415,124268
6.26228,122325
6.27040,132462
6.27852,130292
6.28665,129633
6.29477,139144
6.30290,134703
6.31102,133618
6.31913,144163
6.32727,144974
6.33538,143446
6.34350,149236
6.35163,154651
6.35975,161010
6.36788,164244
6.37600,156907
6.38412,157700
6.39225,158681
6.40037,163899
6.40850,161692
6.41662,173172
6.42473,173616
6.43287,176933
6.44098,188473
6.44912,184788
6.45723,192677
6.46535,185679
6.47348,190381
6.48160,182371
6.48972,190785
6.49785,192818
6.50597,202565
6.51410,200966
6.52222,197442
6.53033,201231
6.53847,200799
6.54658,204823
6.55472,209712
6.56283,212488
6.57095,221983
6.57908,220624
6.58720,221934
6.59533,220251
6.60345,221265
6.61157,218362
6.61970,221339
6.62782,230955
6.63593,222974
6.64407,229255
6.65218,239335
6.66032,267179
6.66843,368807
6.67655,569452
6.68468,788568
6.69280,851355
6.70093,719536
6.70905,515334
6.71717,390461
6.72530,332299
6.73342,314316
6.74153,295135
6.74967,288579
6.75778,285656
6.76592,278508
6.77403,271808
6.78215,268773
6.79028,278965
6.79840,269982
6.80653,277000
6.81465,276399
6.82277,276980
6.83090,265603
6.83902,264624
6.84715,268762
6.85527,287186
6.86338,288006
6.87152,307640
6.87963,288697
6.88775,285891
6.89588,271207
6.90400,260787
6.91213,256062
6.92025,261280
6.92837,255534
6.93650,261957
6.94462,257651
6.95275,262130
6.96087,263866
6.96898,272557
6.97712,286161
6.98523,309096
6.99337,303771
7.00148,309304
7.00960,308635
7.01773,300039
7.02585,286931
7.03397,282553
7.04210,283545
7.05022,281606
7.05835,280008
7.06647,285271
7.07458,283202
7.08272,294372
7.09083,285462
7.09897,298066
7.10708,297982
7.11520,273910
7.12333,287791
7.13145,251215
7.13957,192442
7.14770,180481
7.15582,180812
7.16395,206171
7.17207,212318
7.18018,217655
7.18832,194569
7.19643,177201
7.20457,156754
7.21268,139729
7.22080,136895
7.22893,128540
7.23705,128044
7.24518,123504
7.25330,118641
7.26142,109276
7.26955,107820
7.27767,113811
7.28578,108494
7.29392,109153
7.30203,111147
7.31017,117131
7.31828,108294
7.32640,113553
7.33453,119631
7.34265,124916
7.35078,126777
7.35890,121126
7.36702,117153
7.37515,109939
7.38327,104541
7.39140,96027
7.39952,102820
7.40763,95164
7.41577,93814
7.42388,92761
7.43200,87571
7.44013,93498
7.44825,88908
7.45638,95060
7.46450,89540
7.47262,89663
7.48075,83252
7.48887,83266
7.49700,86521
7.50512,90776
7.51323,93424
7.52137,91354
7.52948,86171
7.53760,85034
7.54573,79699
7.55385,84846
7.56198,87192
7.57010,85462
7.57822,82852
7.58635,82111
7.59447,83511
7.60260,81425
7.61072,83575
7.61883,83050
7.62697,78414
7.63508,79241
7.64322,80153
7.65133,82230
7.65945,80372
7.66758,80214
7.67570,78584
7.68382,82560
7.69195,78045
7.70007,83020
7.70820,83578
7.71632,76636
7.72443,81533
7.73257,80245
7.74068,81925
7.74882,78489
7.75693,75011
7.76505,77459
7.77318,79204
7.78130,83056
7.78942,78901
7.79755,77985
7.80567,81144
7.81380,77695
7.82192,84060
7.83003,76467
7.83817,81611
7.84628,77298
7.85442,77665
7.86253,71853
7.87065,71552
7.87878,77766
7.88690,86185
7.89503,81096
7.90315,73893
7.91127,75608
7.91940,73600
7.92752,72340
7.93563,79254
7.94377,106416
7.95188,158263
7.96002,224404
7.96813,260317
7.97625,249242
7.98438,204033
7.99250,160399
8.00063,123633
8.00875,103307
8.01687,92951
8.02500,89443
8.03312,86213
8.04125,79041
8.04937,76296
8.05748,74003
8.06562,73253
8.07373,74978
8.08185,76035
8.08998,75109
8.09810,75391
8.10623,71375
8.11435,72707
8.12247,72724
8.13060,71765
8.13872,72883
8.14685,72541
8.15497,68867
8.16308,69225
8.17122,74328
8.17933,70996
8.18745,69543
8.19558,66597
8.20370,66557
8.21183,69411
8.21995,68164
8.22807,61398
8.23620,66488
8.24432,64975
8.25245,83336
8.26057,76635
8.26868,79120
8.27682,76762
8.28493,75387
8.29307,75713
8.30118,69812
8.30930,69771
8.31743,66482
8.32555,71107
8.33367,70322
8.34180,70021
8.34992,67597
8.35805,70466
8.36617,68419
8.37428,70836
8.38242,68600
8.39053,70411
8.39867,65166
8.40678,67230
8.41490,70300
8.42303,64845
8.43115,65674
8.43928,69222
8.44740,64382
8.45552,63907
8.46365,63229
8.47177,66254
8.47988,63908
8.48802,64363
8.49613,66722
8.50427,61566
8.51238,59564
8.52050,62598
8.52863,58870
8.53675,59733
8.54488,61895
8.55300,56478
8.56112,61577
8.56925,65012
8.57737,68467
8.58548,73132
8.59362,69325
8.60173,74855
8.60987,74165
8.61798,89539
8.62610,141848
8.63423,230476
8.64235,309089
8.65048,341073
8.65860,304173
8.66672,229097
8.67485,181032
8.68297,158522
8.69110,129564
8.69922,119733
8.70733,91343
8.71547,81812
8.72358,78738
8.73170,87965
8.73983,116758
8.74795,204326
8.75608,360440
8.76420,582046
8.77232,771444
8.78045,796352
8.78857,705832
8.79670,541552
8.80482,388121
8.81293,306755
8.82107,250118
8.82918,220891
8.83730,192178
8.84543,176225
8.85355,156677
8.86168,143878
8.86980,130457
8.87792,107517
8.88605,103251
8.89417,95996
8.90230,101347
8.91042,112371
8.91853,133678
8.92667,143161
8.93478,148343
8.94292,147837
8.95103,144836
8.95915,134860
8.96728,141252
8.97540,134652
8.98352,132366
8.99165,124120
8.99977,127888
9.00790,121273
9.01602,120950
9.02413,114591
9.03227,117168
9.04038,112682
9.04852,115726
9.05663,117192
9.06475,116540
9.07288,114168
9.08100,117580
9.08913,119105
9.09725,109743
9.10537,111115
9.11350,110079
9.12162,107843
9.12973,105612
9.13787,105918
9.14598,104266
9.15412,99346
9.16223,98434
9.17035,100185
9.17848,97265
9.18660,107329
9.19473,100430
9.20285,99200
9.21097,101364
9.21910,94658
9.22722,89274
9.23535,96515
9.24347,99218
9.25158,89082
9.25972,89958
9.26783,90756
9.27595,87191
9.28408,82840
9.29220,91895
9.30033,89594
9.30845,85259
9.31657,87267
9.32470,90665
9.33282,92186
9.34095,91085
9.34907,85280
9.35718,85200
9.36532,82787
9.37343,87714
9.38155,89829
9.38968,85438
9.39780,79532
9.40593,81690
9.41405,83447
9.42217,81665
9.43030,85010
9.43842,78145
9.44655,80598
9.45467,81004
9.46278,84272
9.47092,81173
9.47903,80457
9.48717,86587
9.49528,85988
9.50340,89637
9.51153,89034
9.51965,96455
9.52777,87995
9.53590,88633
9.54402,85138
9.55215,87937
9.56027,91761
9.56838,89638
9.57652,91086
9.58463,87495
9.59277,75277
9.60088,81227
9.60900,77185
9.61713,83932
9.62525,81054
9.63337,77772
9.64150,69745
9.64962,69856
9.65775,66194
9.66587,65724
9.67398,62289
9.68212,61096
9.69023,58526
9.69837,60872
9.70648,59638
9.71460,54020
9.72273,53303
9.73085,55083
9.73898,57944
9.74710,54885
9.75522,57202
9.76335,58502
9.77147,53916
9.77958,52649
9.78772,50810
9.79583,59928
9.80397,51010
9.81208,49509
9.82020,51131
9.82833,51059
9.83645,51618
9.84458,58138
9.85270,64694
9.86082,73012
9.86895,78956
9.87707,87977
9.88520,88243
9.89332,81671
9.90143,69861
9.90957,66420
9.91768,61424
9.92580,62291
9.93393,63728
9.94205,59421
9.95018,68851
9.95830,68666
9.96642,72305
9.97455,80114
9.98267,90475
9.99080,92580
9.99892,91573
10.00703,87473
10.01517,79183
10.02328,74280
10.03140,65292
10.03953,67140
10.04765,60694
10.05578,63291
10.06390,58453
10.07202,54863
10.08015,54624
10.08827,60631
10.09640,56668
10.10452,55937
10.11263,56095
10.12077,58577
10.12888,55202
10.13702,56240
10.14513,54816
10.15325,60095
10.16138,59073
10.16950,54516
10.17762,55135
10.18575,52682
10.19387,51640
10.20200,52868
10.21012,53044
10.21823,53826
10.22637,54197
10.23448,49813
10.24262,54225
10.25073,52642
10.25885,54105
10.26698,60815
10.27510,64269
10.28323,70101
10.29135,71511
10.29947,64699
10.30760,64273
10.31572,53738
10.32383,54642
10.33197,51686
10.34008,53452
10.34822,52872
10.35633,54098
10.36445,53859
10.37258,63038
10.38070,64511
10.38883,61295
10.39695,66640
10.40507,67414
10.41320,64018
10.42132,63799
10.42943,60499
10.43757,55969
10.44568,52699
10.45382,54987
10.46193,53658
10.47005,50264
10.47818,51906
10.48630,54558
10.49443,50406
10.50255,50288
10.51067,52301
10.51880,47249
10.52692,47360
10.53505,47708
10.54317,51335
10.55128,48704
10.55942,48379
10.56753,50998
10.57565,51029
10.58378,47314
10.59190,54155
10.60003,49136
10.60815,48194
10.61627,50286
10.62440,51953
10.63252,48781
10.64065,55024
10.64877,55716
10.65688,61135
10.66502,51835
10.67313,49713
10.68125,49787
10.68938,50514
10.69750,49361
10.70563,51428
10.71375,50623
10.72187,52084
10.73000,50149
10.73812,50191
10.74625,45233
10.75437,44250
10.76248,46281
10.77062,46299
10.77873,50866
10.78687,50578
10.79498,48589
10.80310,43222
10.81123,50186
10.81935,43790
10.82747,53529
10.83560,46724
10.84372,44084
10.85185,41311
10.85997,45993
10.86808,42742
10.87622,43936
10.88433,44413
10.89247,44877
10.90058,44551
10.90870,45774
10.91683,44500
10.92495,42846
10.93308,44262
10.94120,45603
10.94932,47078
10.95745,45337
10.96557,46377
10.97368,43612
10.98182,44291
10.98993,43461
10.99807,37450
11.00618,41793
11.01430,40910
11.02243,40209
11.03055,40579
11.03868,41907
11.04680,39249
11.05492,41011
11.06305,41165
11.07117,37776
11.07928,40064
11.08742,37675
11.09553,41742
11.10367,39341
11.11178,40092
11.11990,41161
11.12803,38827
11.13615,40367
11.14428,36455
11.15240,44368
11.16052,43535
11.16865,43587
11.17677,46031
11.18490,44491
11.19302,43053
11.20113,41928
11.20927,40941
11.21738,44080
11.22550,42330
11.23363,46136
11.24175,45050
11.24988,43281
11.25800,43937
11.26612,44671
11.27425,48365
11.28237,46684
11.29050,43758
11.29862,45102
11.30673,46297
11.31487,47793
11.32298,45381
11.33112,40179
11.33923,40502
11.34735,39914
11.35548,40648
11.36360,36893
11.37172,42966
11.37985,37484
11.38797,40695
11.39610,43491
11.40422,35871
11.41233,34493
11.42047,39266
11.42858,37609
11.43672,36609
11.44483,37725
11.45295,39472
11.46108,35361
11.46920,46708
11.47732,41207
11.48545,39271
11.49357,38520
11.50170,46217
11.50982,60520
11.51793,73418
11.52607,94564
11.53418,94134
11.54232,89527
11.55043,75867
11.55855,69365
11.56668,60826
11.57480,54257
11.58293,50312
11.59105,47684
11.59917,47355
11.60730,45684
11.61542,44702
11.62353,43265
11.63167,41677
11.63978,43210
11.64792,41888
11.65603,41930
11.66415,47086
11.67228,46535
11.68040,44408
11.68853,48634
11.69665,47734
11.70477,49167
11.71290,45693
11.72102,44228
11.72913,44869
11.73727,37895
11.74538,41319
11.75352,39668
11.76163,43323
11.76975,43800
11.77788,39554
11.78600,41620
11.79413,41058
11.80225,42181
11.81037,43208
11.81850,48856
11.82662,45410
11.83475,41482
11.84287,43666
11.85098,43212
11.85912,42631
11.86723,46260
11.87535,40193
11.88348,42327
11.89160,46906
11.89973,46251
11.90785,62376
11.91597,64324
11.92410,61701
11.93222,60365
11.94035,56989
11.94847,50007
11.95658,47383
11.96472,45329
11.97283,45387
11.98097,44236
11.98908,44368
11.99720,39599
12.00533,41722
12.01345,43812
12.02157,46966
12.02970,60247
12.03782,70737
12.04595,76990
12.05407,71987
12.06218,65892
12.07032,61823
12.07843,54500
12.08657,54008
12.09468,48645
12.10280,51641
12.11093,49179
12.11905,50733
12.12717,47407
12.13530,45896
12.14342,47824
12.15155,43180
12.15967,41095
12.16778,44989
12.17592,41527
12.18403,40194
12.19217,39766
12.20028,36457
12.20840,36906
12.21653,42897
12.22465,41778
12.23278,40310
12.24090,40863
12.24902,42395
12.25715,39788
12.26527,42565
12.27338,39792
12.28152,44044
12.28963,41186
12.29777,40228
12.30588,37814
12.31400,40561
12.32213,40676
12.33025,37173
12.33838,37274
12.34650,44077
12.35462,38826
12.36275,42124
12.37087,46394
12.37900,46104
12.38712,49393
12.39523,47043
12.40337,46319
12.41148,51621
12.41960,49090
12.42773,49535
12.43585,50349
12.44398,47516
12.45210,48390
12.46022,41056
12.46835,43780
12.47647,41996
12.48460,43568
12.49272,44826
12.50083,41316
12.50897,41944
12.51708,38593
12.52520,38592
12.53333,40401
12.54145,40794
12.54958,41397
12.55770,38805
12.56582,42263
12.57395,39487
12.58207,41887
12.59020,41897
12.59832,38494
12.60643,45616
12.61457,47406
12.62268,49415
12.63082,48362
12.63893,46308
12.64705,44209
12.65518,43967
12.66330,42725
12.67142,37935
12.67955,39185
12.68767,41030
12.69580,44672
12.70392,46814
12.71203,42450
12.72017,48137
12.72828,49856
12.73642,54780
12.74453,54454
12.75265,47066
12.76078,47393
12.76890,47933
12.77703,44397
12.78515,45039
12.79327,41113
12.80140,38541
12.80952,37760
12.81763,37276
12.82577,39401
12.83388,49320
12.84202,38933
12.85013,40805
12.85825,40703
12.86638,41583
12.87450,40175
12.88263,43260
12.89075,38929
12.89887,39378
12.90700,37261
12.91512,40304
12.92323,42569
12.93137,40575
12.93948,34529
12.94762,38843
12.95573,40310
12.96385,42775
12.97198,39213
12.98010,37749
12.98823,38448
12.99635,37139
13.00447,36873
13.01260,38113
13.02072,38118
13.02885,41912
13.03697,42797
13.04508,42438
13.05322,44488
13.06133,40646
13.06945,39621
13.07758,35782
13.08570,35186
13.09383,38112
13.10195,35673
13.11007,35990
13.11820,35592
13.12632,38394
13.13445,41340
13.14257,40865
13.15068,34977
13.15882,37905
13.16693,36100
13.17505,39780
13.18318,37054
13.19130,35870
13.19943,36998
13.20755,39894
13.21567,42132
13.22380,41129
13.23192,37002
13.24005,35587
13.24817,37535
13.25628,41083
13.26442,37097
13.27253,38324
13.28067,35758
13.28878,37020
13.29690,38184
13.30503,34037
13.31315,36631
13.32127,36719
13.32940,38654
13.33752,37295
13.34565,37364
13.35377,38069
13.36188,36725
13.37002,35341
13.37813,37857
13.38627,37720
13.39438,32125
13.40250,35401
13.41063,40844
13.41875,36580
13.42688,35677
13.43500,35222
13.44312,33854
13.45125,36868
13.45937,39794
13.46748,36217
13.47562,33699
13.48373,33385
13.49187,34090
13.49998,36293
13.50810,35310
13.51623,35865
13.52435,35983
13.53248,34826
13.54060,33262
13.54872,34452
13.55685,35767
13.56497,39106
13.57308,38010
13.58122,37999
13.58933,35516
13.59747,36858
13.60558,36251
13.61370,33127
13.62183,33814
13.62995,37290
13.63808,34848
13.64620,34143
13.65432,33951
13.66245,34248
13.67057,31564
13.67870,32898
13.68682,36626
13.69493,34208
13.70307,34355
13.71118,36317
13.71930,37009
13.72743,35080
13.73555,35382
13.74368,37186
13.75180,34447
13.75992,33946
13.76805,38166
13.77617,42542
13.78430,54870
13.79242,71659
13.80053,100474
13.80867,116607
13.81678,120010
13.82492,109166
13.83303,86324
13.84115,65391
13.84928,56149
13.85740,47186
13.86552,51361
13.87365,43318
13.88177,43246
13.88990,38868
13.89802,41328
13.90613,39945
13.91427,38348
13.92238,38429
13.93052,41984
13.93863,37288
13.94675,39942
13.95488,41035
13.96300,42593
13.97112,42480
13.97925,50809
13.98737,64776
13.99550,84300
14.00362,115053
14.01173,123722
14.01987,127443
14.02798,121688
14.03612,98143
14.04423,80163
14.05235,65216
14.06048,56420
14.06860,54437
14.07673,53572
14.08485,49937
14.09297,52536
14.10110,47956
14.10922,51937
14.11733,51502
14.12547,47824
14.13358,43164
14.14172,49624
14.14983,48939
14.15795,45483
14.16608,47735
14.17420,48085
14.18233,46872
14.19045,48623
14.19857,59161
14.20670,77580
14.21482,105869
14.22293,148867
14.23107,185228
14.23918,220516
14.24732,199444
14.25543,189411
14.26355,172470
14.27168,145469
14.27980,129795
14.28793,112995
14.29605,105019
14.30417,91436
14.31230,87524
14.32042,84611
14.32855,81635
14.33667,75612
14.34478,78341
14.35292,76619
14.36103,78578
14.36915,65219
14.37728,58135
14.38540,57638
14.39353,49938
14.40165,52279
14.40977,43127
14.41790,39963
14.42602,41597
14.43415,41456
14.44227,39351
14.45038,38970
14.45852,39270
14.46663,40147
14.47477,40019
14.48288,37561
14.49100,40678
14.49913,35742
14.50725,38107
14.51537,38519
14.52350,36351
14.53162,40496
14.53975,39274
14.54787,51451
14.55598,42417
14.56412,43512
14.57223,41486
14.58037,41453
14.58848,33147
14.59660,32124
14.60473,35992
14.61285,36862
14.62098,40272
14.62910,35266
14.63722,34302
14.64535,33836
14.65347,36469
14.66158,36714
14.66972,34299
14.67783,34082
14.68597,36317
14.69408,33735
14.70220,32502
14.71033,36828
14.71845,37134
14.72658,32400
14.73470,36842
14.74282,31173
14.75095,29865
14.75907,35282
14.76718,37139
14.77532,35270
14.78343,38776
14.79157,36165
14.79968,37465
14.80780,37757
14.81593,36274
14.82405,35195
14.83218,36263
14.84030,40989
14.84842,43094
14.85655,55197
14.86467,59288
14.87280,56796
14.88092,59483
14.88903,59296
14.89717,56882
14.90528,54149
14.91340,52321
14.92153,57064
14.92965,49306
14.93778,53646
14.94590,51522
14.95402,53461
14.96215,49604
14.97027,49692
14.97840,47681
14.98652,48846
14.99463,50113
15.00277,50760
15.01088,47610
15.01900,46283
15.02713,48645
15.03525,48951
15.04338,47256
15.05150,48045
15.05962,43232
15.06775,45238
15.07587,43987
15.08400,50344
15.09212,50412
15.10023,46504
15.10837,44531
15.11648,45127
15.12462,41090
15.13273,42899
15.14085,46129
15.14898,40033
15.15710,46192
15.16522,40430
15.17335,45637
15.18147,52239
15.18960,41872
15.19772,40665
15.20583,37174
15.21397,39377
15.22208,40154
15.23022,36129
15.23833,36773
15.24645,33737
15.25458,36407
15.26270,35623
15.27083,37400
15.27895,37437
15.28707,34619
15.29520,35505
15.30332,33321
15.31143,35776
15.31957,37566
15.32768,37585
15.33582,33753
15.34393,34136
15.35205,33526
15.36018,36508
15.36830,36708
15.37643,35879
15.38455,35500
15.39267,43484
15.40080,33754
15.40892,32208
15.41703,32925
15.42517,35345
15.43328,35658
15.44142,35135
15.44953,37178
15.45765,33749
15.46578,33699
15.47390,36714
15.48203,36933
15.49015,35940
15.49827,33050
15.50640,35475
15.51452,35049
15.52265,40212
15.53077,40325
15.53888,42115
15.54702,42281
15.55513,41323
15.56325,38279
15.57138,36479
15.57950,34335
15.58763,32820
15.59575,32897
15.60387,34603
15.61200,33796
15.62012,36399
15.62825,35751
15.63637,32391
15.64448,32320
15.65262,32575
15.66073,38921
15.66887,32912
15.67698,32756
15.68510,32654
15.69323,32645
15.70135,29659
15.70947,32648
15.71760,34267
15.72572,31415
15.73385,35201
15.74197,37802
15.75008,38512
15.75822,31124
15.76633,31983
15.77447,34843
15.78258,36728
15.79070,39886
15.79883,46183
15.80695,47809
15.81507,49422
15.82320,46650
15.83132,44722
15.83945,42120
15.84757,39205
15.85568,38772
15.86382,44102
15.87193,37965
15.88007,38181
15.88818,40895
15.89630,40007
15.90443,39487
15.91255,41231
15.92068,38289
15.92880,37208
15.93692,38772
15.94505,36443
15.95317,39058
15.96128,38623
15.96942,42128
15.97753,50942
15.98567,49676
15.99378,57901
16.00190,67342
16.01003,71683
16.01815,75933
16.02628,72407
16.03440,65473
16.04252,58926
16.05065,55186
16.05877,48657
16.06688,44582
16.07502,45521
16.08313,47666
16.09127,45424
16.09938,46499
16.10750,44598
16.11563,42970
16.12375,46617
16.13188,42743
16.14000,40403
16.14812,44894
16.15625,41996
16.16437,43933
16.17250,44582
16.18062,40399
16.18873,42199
16.19687,39102
16.20498,38768
16.21310,39314
16.22123,40154
16.22935,41181
16.23748,42402
16.24560,39112
16.25372,38446
16.26185,37238
16.26997,38243
16.27810,36813
16.28622,36142
16.29433,37956
16.30247,39007
16.31058,36481
16.31872,39578
16.32683,38481
16.33495,37426
16.34308,38053
16.35120,40473
16.35932,40038
16.36745,40150
16.37557,49675
16.38370,64439
16.39182,71836
16.39993,75861
16.40807,84818
16.41618,79977
16.42432,71686
16.43243,59744
16.44055,54530
16.44868,49004
16.45680,45571
16.46492,46768
16.47305,44657
16.48117,45347
16.48930,40496
16.49742,39078
16.50553,42554
16.51367,41973
16.52178,43138
16.52992,40174
16.53803,39231
16.54615,40087
16.55428,40651
16.56240,46879
16.57053,41362
16.57865,40846
16.58677,39187
16.59490,44343
16.60302,42809
16.61113,44959
16.61927,48412
16.62738,48824
16.63552,51831
16.64363,49765
16.65175,43470
16.65988,43023
16.66800,39295
16.67613,41342
16.68425,40824
16.69237,39920
16.70050,37683
16.70862,39889
16.71675,36527
16.72487,36949
16.73298,35904
16.74112,36110
16.74923,32718
16.75735,35914
16.76548,33607
16.77360,36318
16.78173,33510
16.78985,32209
16.79797,32144
16.80610,31985
16.81422,34110
16.82235,36993
16.83047,35652
16.83858,36853
16.84672,33934
16.85483,34029
16.86295,36326
16.87108,38187
16.87920,34736
16.88733,31284
16.89545,32310
16.90357,31549
16.91170,36281
16.91982,33908
16.92795,33680
16.93607,33132
16.94418,33539
16.95232,31657
16.96043,32535
16.96857,29177
16.97668,35398
16.98480,32244
16.99293,36321
17.00105,30223
17.00917,32599
17.01730,33219
17.02542,32254
17.03355,33096
17.04167,32267
17.04978,31221
17.05792,30900
17.06603,30183
17.07417,33556
17.08228,32763
17.09040,35484
17.09853,35112
17.10665,31978
17.11478,33689
17.12290,35299
17.13102,31285
17.13915,33130
17.14727,34593
17.15538,31287
17.16352,31009
17.17163,35745
17.17977,35149
17.18788,36583
17.19600,31089
17.20413,34450
17.21225,35055
17.22038,33127
17.22850,32878
17.23662,34135
17.24475,38209
17.25287,34334
17.26098,32141
17.26912,34998
17.27723,33476
17.28537,33639
17.29348,34006
17.30160,37740
17.30973,35849
17.31785,32479
17.32598,32145
17.33410,35602
17.34222,35589
17.35035,40680
17.35847,37416
17.36660,39449
17.37472,37131
17.38283,39378
17.39097,38608
17.39908,36357
17.40720,40320
17.41533,39329
17.42345,40049
17.43158,34574
17.43970,44665
17.44782,42763
17.45595,39477
17.46407,38982
17.47220,38235
17.48032,36923
17.48843,36833
17.49657,37799
17.50468,38851
17.51280,39530
17.52093,42370
17.52905,38143
17.53718,38848
17.54530,37387
17.55342,36646
17.56155,41625
17.56967,37496
17.57780,36909
17.58592,39978
17.59403,38194
17.60217,38160
17.61028,35641
17.61842,32966
17.62653,34719
17.63465,37351
17.64278,42727
17.65090,52730
17.65902,68454
17.66715,99495
17.67527,124477
17.68340,151823
17.69152,163084
17.69963,158358
17.70777,132875
17.71588,108499
17.72402,84139
17.73213,68957
17.74025,63458
17.74838,57696
17.75650,54572
17.76463,53616
17.77275,49316
17.78087,45200
17.78900,49839
17.79712,43923
17.80523,47859
17.81337,49205
17.82148,44691
17.82962,49728
17.83773,53090
17.84585,53732
17.85398,51377
17.86210,54604
17.87023,44220
17.87835,40828
17.88647,43145
17.89460,41681
17.90272,40334
17.91083,37108
17.91897,41306
17.92708,35387
17.93522,36910
17.94333,38129
17.95145,36867
17.95958,36276
17.96770,37555
17.97583,36552
17.98395,36137
17.99207,36440
18.00020,31257
18.00832,33911
18.01645,35819
18.02457,33120
18.03268,34797
18.04082,36005
18.04893,35609
18.05705,34452
18.06518,34774
18.07330,39660
18.08143,43059
18.08955,46647
18.09767,57027
18.10580,69530
18.11392,79386
18.12205,90999
18.13017,95854
18.13828,93645
18.14642,88676
18.15453,85703
18.16267,84246
18.17078,91552
18.17890,77715
18.18703,94160
18.19515,82073
18.20327,82067
18.21140,78817
18.21952,71830
18.22765,75052
18.23577,69966
18.24388,68327
18.25202,64024
18.26013,68469
18.26827,60911
18.27638,57825
18.28450,58417
18.29263,53380
18.30075,46647
18.30887,45955
18.31700,43910
18.32512,44882
18.33325,38527
18.34137,42305
18.34948,42232
18.35762,36436
18.36573,38248
18.37387,38122
18.38198,38008
18.39010,37534
18.39823,38412
18.40635,36303
18.41448,37136
18.42260,36936
18.43072,35351
18.43885,40695
18.44697,35414
18.45508,38562
18.46322,34390
18.47133,35630
18.47947,36438
18.48758,37298
18.49570,37962
18.50383,34362
18.51195,39129
18.52008,36075
18.52820,37509
18.53632,35017
18.54445,34240
18.55257,36928
18.56068,34403
18.56882,36928
18.57693,35148
18.58507,35307
18.59318,35448
18.60130,34795
18.60943,42266
18.61755,40641
18.62568,39195
18.63380,38980
18.64192,39927
18.65005,38935
18.65817,36936
18.66630,38016
18.67442,34037
18.68253,36839
18.69067,30429
18.69878,46927
18.70690,33555
18.71503,30504
18.72315,33016
18.73128,31724
18.73940,32906
18.74752,36659
18.75565,32554
18.76377,31151
18.77190,29864
18.78002,30694
18.78813,32551
18.79627,31097
18.80438,32102
18.81252,32333
18.82063,34711
18.82875,33231
18.83688,33122
18.84500,33435
18.85312,31183
18.86125,33107
18.86937,28342
18.87750,30804
18.88562,33266
18.89373,40898
18.90187,32694
18.90998,31225
18.91812,32608
18.92623,35081
18.93435,34323
18.94248,32560
18.95060,43779
18.95873,34725
18.96685,34322
18.97497,36581
18.98310,33562
18.99122,34536
18.99933,33563
19.00747,34003
19.01558,33733
19.02372,27552
19.03183,32039
19.03995,32530
19.04808,31162
19.05620,31800
19.06433,32670
19.07245,34002
19.08057,34699
19.08870,33930
19.09682,40748
19.10493,47834
19.11307,53453
19.12118,53627
19.12932,58771
19.13743,53847
19.14555,50943
19.15368,44592
19.16180,50148
19.16993,52592
19.17805,52852
19.18617,54387
19.19430,56514
19.20242,56877
19.21055,53168
19.21867,49750
19.22678,45423
19.23492,42049
19.24303,45426
19.25115,39803
19.25928,42770
19.26740,41287
19.27553,44005
19.28365,43761
19.29177,51102
19.29990,47439
19.30802,48989
19.31615,48420
19.32427,47057
19.33238,47279
19.34052,49582
19.34863,59041
19.35675,56858
19.36488,57275
19.37300,48952
19.38113,54012
19.38925,46550
19.39737,49632
19.40550,46991
19.41362,48132
19.42175,45288
19.42987,47340
19.43798,42970
19.44612,43142
19.45423,40531
19.46237,38039
19.47048,38398
19.47860,42331
19.48673,38448
19.49485,49921
19.50297,52836
19.51110,66641
19.51922,101493
19.52735,124658
19.53547,145294
19.54358,150586
19.55172,133668
19.55983,102587
19.56797,78807
19.57608,60786
19.58420,52404
19.59233,44147
19.60045,43481
19.60858,40571
19.61670,43878
19.62482,42017
19.63295,39895
19.64107,42651
19.64918,49971
19.65732,68403
19.66543,106959
19.67357,142246
19.68168,178026
19.68980,213028
19.69793,211586
19.70605,205977
19.71418,169022
19.72230,136659
19.73042,117169
19.73855,99504
19.74667,85249
19.75478,77769
19.76292,70420
19.77103,66450
19.77917,56082
19.78728,59729
19.79540,55520
19.80353,49500
19.81165,48805
19.81978,49371
19.82790,50932
19.83602,52033
19.84415,56956
19.85227,81288
19.86040,205870
19.86852,611264
19.87663,1742889
19.88477,4323041
19.89288,8979435
19.90100,1.450701E+07
19.90913,1.948706E+07
19.91725,2.170751E+07
19.92538,2.019447E+07
19.93350,1.64948E+07
19.94162,1.18496E+07
19.94975,8024831
19.95787,5458880
19.96600,3943068
19.97412,3176986
19.98223,2680416
19.99037,2317164
19.99848,2064024
20.00662,1831077
20.01473,1671323
20.02285,1530722
20.03098,1403918
20.03910,1300130
20.04722,1179897
20.05535,1021717
20.06347,851516
20.07160,702309
20.07972,520818
20.08783,384920
20.09597,302274
20.10408,252004
20.11222,226605
20.12033,212784
20.12845,201330
20.13658,177101
20.14470,177612
20.15282,176718
20.16095,172882
20.16907,171476
20.17720,165740
20.18532,166322
20.19343,153001
20.20157,147640
20.20968,139520
20.21782,145102
20.22593,130383
20.23405,127775
20.24218,130055
20.25030,124877
20.25843,120063
20.26655,140087
20.27467,163199
20.28280,190801
20.29092,211148
20.29903,235566
20.30717,246614
20.31528,238402
20.32342,210626
20.33153,194015
20.33965,169620
20.34778,152438
20.35590,125220
20.36403,110316
20.37215,100823
20.38027,86609
20.38840,78407
20.39652,70980
20.40463,67096
20.41277,62310
20.42088,63965
20.42902,64913
20.43713,76235
20.44525,73687
20.45338,78796
20.46150,86296
20.46963,97204
20.47775,93844
20.48587,95198
20.49400,86313
20.50212,80154
20.51025,73819
20.51837,63153
20.52648,59072
20.53462,53196
20.54273,50785
20.55085,52639
20.55898,52213
20.56710,48787
20.57523,48218
20.58335,49333
20.59147,50428
20.59960,46548
20.60772,51682
20.61585,45860
20.62397,42123
20.63208,47868
20.64022,48658
20.64833,44281
20.65647,46518
20.66458,44656
20.67270,45799
20.68083,46554
20.68895,42247
20.69707,46094
20.70520,48484
20.71332,45137
20.72145,44249
20.72957,40089
20.73768,42635
20.74582,47622
20.75393,41278
20.76207,43126
20.77018,46703
20.77830,46541
20.78643,43987
20.79455,49567
20.80267,45797
20.81080,46735
20.81892,46011
20.82705,49989
20.83517,44359
20.84328,45518
20.85142,48682
20.85953,47751
20.86767,49558
20.87578,45001
20.88390,44972
20.89203,46255
20.90015,49055
20.90828,45413
20.91640,48680
20.92452,50084
20.93265,50320
20.94077,46867
20.94888,48887
20.95702,46289
20.96513,48071
20.97327,44686
20.98138,44580
20.98950,45840
20.99763,46487
21.00575,46947
21.01388,43351
21.02200,51495
21.03012,44108
21.03825,48213
21.04637,48435
21.05450,47776
21.06262,48964
21.07073,46839
21.07887,46862
21.08698,44503
21.09510,45786
21.10323,47087
21.11135,48721
21.11948,48914
21.12760,50062
21.13572,47130
21.14385,53121
21.15197,52449
21.16010,49036
21.16822,56347
21.17633,52868
21.18447,53592
21.19258,49529
21.20070,48190
21.20883,51004
21.21695,47813
21.22508,50618
21.23320,49859
21.24132,50838
21.24945,47967
21.25757,52334
21.26570,49061
21.27382,51079
21.28193,43165
21.29007,44872
21.29818,47259
21.30632,46481
21.31443,44394
21.32255,42635
21.33068,45101
21.33880,44435
21.34692,45378
21.35505,47024
21.36317,42892
21.37130,44151
21.37942,42963
21.38753,44729
21.39567,44350
21.40378,42736
21.41192,53758
21.42003,47852
21.42815,45770
21.43628,45213
21.44440,48470
21.45252,49500
21.46065,46148
21.46877,44110
21.47690,47861
21.48502,46534
21.49313,45856
21.50127,41976
21.50938,42596
21.51752,47197
21.52563,42677
21.53375,41243
21.54188,44754
21.55000,40186
21.55813,41567
21.56625,44585
21.57437,42906
21.58250,42827
21.59062,43265
21.59873,41669
21.60687,42027
21.61498,45115
21.62312,46934
21.63123,50553
21.63935,54273
21.64748,68112
21.65560,74811
21.66373,78312
21.67185,85692
21.67997,76846
21.68810,71199
21.69622,70187
21.70435,56209
21.71247,55675
21.72058,52370
21.72872,51680
21.73683,43555
21.74495,48678
21.75308,44541
21.76120,46906
21.76933,49390
21.77745,42314
21.78557,45183
21.79370,45400
21.80182,47203
21.80995,44510
21.81807,46111
21.82618,49228
21.83432,50112
21.84243,63006
21.85055,68412
21.85868,75775
21.86680,80035
21.87493,81851
21.88305,77627
21.89117,66290
21.89930,58368
21.90742,54195
21.91555,49457
21.92367,44190
21.93178,43836
21.93992,41928
21.94803,44471
21.95617,41660
21.96428,45185
21.97240,41268
21.98053,39532
21.98865,39965
21.99677,41158
22.00490,38560
22.01302,38330
22.02115,40204
22.02927,36759
22.03738,39352
22.04552,41121
22.05363,37320
22.06177,39603
22.06988,40864
22.07800,37970
22.08613,38735
22.09425,37095
22.10238,37249
22.11050,38456
22.11862,42440
22.12675,40679
22.13487,43365
22.14298,41877
22.15112,46270
22.15923,40995
22.16737,38222
22.17548,43899
22.18360,38549
22.19173,42312
22.19985,41053
22.20798,51826
22.21610,43036
22.22422,38878
22.23235,43433
22.24047,45325
22.24858,48938
22.25672,51255
22.26483,55197
22.27297,53662
22.28108,48643
22.28920,41053
22.29733,42016
22.30545,43367
22.31358,49987
22.32170,58316
22.32982,66752
22.33795,82676
22.34607,89996
22.35420,91027
22.36232,86626
22.37043,76915
22.37857,66927
22.38668,57346
22.39480,51627
22.40293,48158
22.41105,48691
22.41918,50891
22.42730,44354
22.43542,51257
22.44355,41881
22.45167,45253
22.45980,45313
22.46792,44875
22.47603,41195
22.48417,42006
22.49228,43335
22.50042,39027
22.50853,40432
22.51665,38318
22.52478,37045
22.53290,35890
22.54102,39648
22.54915,40767
22.55727,39601
22.56540,39514
22.57352,39724
22.58163,39470
22.58977,40636
22.59788,39574
22.60602,38106
22.61413,39567
22.62225,36612
22.63038,36620
22.63850,36578
22.64662,36852
22.65475,37610
22.66287,37231
22.67100,38190
22.67912,39732
22.68723,40772
22.69537,42244
22.70348,53040
22.71162,50185
22.71973,53199
22.72785,46224
22.73598,48515
22.74410,44018
22.75223,42976
22.76035,40634
22.76847,40467
22.77660,42957
22.78472,36662
22.79283,38285
22.80097,38259
22.80908,47445
22.81722,36758
22.82533,38380
22.83345,41097
22.84158,37839
22.84970,37408
22.85783,43726
22.86595,43228
22.87407,39957
22.88220,43096
22.89032,47368
22.89843,43105
22.90657,54083
22.91468,49168
22.92282,54150
22.93093,78684
22.93905,85494
22.94718,101525
22.95530,126655
22.96343,152016
22.97155,144975
22.97967,146928
22.98780,128265
22.99592,124254
23.00405,115899
23.01217,114982
23.02028,100435
23.02842,87185
23.03653,71102
23.04465,69101
23.05278,61850
23.06090,52806
23.06903,53255
23.07715,50327
23.08527,49551
23.09340,49866
23.10152,45587
23.10965,45464
23.11777,45326
23.12588,44875
23.13402,43719
23.14213,44796
23.15027,42400
23.15838,40448
23.16650,41672
23.17463,41062
23.18275,44599
23.19087,43662
23.19900,37704
23.20712,40406
23.21525,37823
23.22337,40034
23.23148,38208
23.23962,38312
23.24773,45644
23.25587,46879
23.26398,49218
23.27210,56703
23.28023,54389
23.28835,52656
23.29647,48327
23.30460,46758
23.31272,44100
23.32085,40525
23.32897,41704
23.33708,42286
23.34522,40428
23.35333,39526
23.36147,41330
23.36958,40736
23.37770,42253
23.38583,45314
23.39395,44538
23.40208,44860
23.41020,47654
23.41832,48904
23.42645,45910
23.43457,53029
23.44268,48769
23.45082,49907
23.45893,45665
23.46707,47400
23.47518,49209
23.48330,47004
23.49143,54350
23.49955,46089
23.50768,47647
23.51580,50559
23.52392,52819
23.53205,49240
23.54017,49787
23.54830,44229
23.55642,44657
23.56453,47664
23.57267,49763
23.58078,51316
23.58890,54867
23.59703,60841
23.60515,74878
23.61328,77954
23.62140,83810
23.62952,80903
23.63765,92033
23.64577,102026
23.65390,142160
23.66202,201677
23.67013,276043
23.67827,331679
23.68638,340244
23.69450,308156
23.70263,251839
23.71075,186148
23.71888,136480
23.72700,115785
23.73512,90753
23.74325,86172
23.75137,78407
23.75950,90814
23.76762,159119
23.77573,360390
23.78387,876291
23.79198,1936088
23.80012,3351519
23.80823,4513072
23.81635,5013228
23.82448,4537220
23.83260,3484562
23.84072,2417025
23.84885,1635472
23.85697,1156470
23.86510,827722
23.87322,629155
23.88133,522802
23.88947,444089
23.89758,385624
23.90572,334840
23.91383,301597
23.92195,268081
23.93008,244521
23.93820,231744
23.94632,216417
23.95445,208989
23.96257,191005
23.97070,178216
23.97882,178969
23.98693,163985
23.99507,158680
24.00318,149168
24.01132,146536
24.01943,136280
24.02755,140064
24.03568,136421
24.04380,147694
24.05193,139440
24.06005,147662
24.06817,142284
24.07630,135505
24.08442,127167
24.09253,123636
24.10067,113454
24.10878,107862
24.11692,103729
24.12503,99936
24.13315,99920
24.14128,101959
24.14940,104330
24.15753,99341
24.16565,103789
24.17377,104764
24.18190,95803
24.19002,101765
24.19815,93843
24.20627,91852
24.21438,91356
24.22252,96438
24.23063,89699
24.23875,89873
24.24688,91825
24.25500,101269
24.26313,89960
24.27125,90610
24.27937,85749
24.28750,76619
24.29562,77896
24.30375,75861
24.31187,77633
24.31998,80524
24.32812,72705
24.33623,74275
24.34437,76252
24.35248,72447
24.36060,68915
24.36873,66071
24.37685,72041
24.38497,72835
24.39310,75727
24.40122,85700
24.40935,101379
24.41747,124216
24.42558,142214
24.43372,142044
24.44183,125033
24.44997,103368
24.45808,84872
24.46620,73570
24.47433,79797
24.48245,80465
24.49057,79088
24.49870,80890
24.50682,84573
24.51495,83573
24.52307,82100
24.53118,88028
24.53932,88999
24.54743,86043
24.55557,82418
24.56368,84041
24.57180,85515
24.57993,100951
24.58805,107888
24.59618,105946
24.60430,100796
24.61242,96849
24.62055,96310
24.62867,89669
24.63678,81844
24.64492,79460
24.65303,77276
24.66117,68722
24.66928,69313
24.67740,68364
24.68553,70568
24.69365,68747
24.70178,64935
24.70990,59934
24.71802,60507
24.72615,61481
24.73427,60744
24.74238,58102
24.75052,53946
24.75863,53138
24.76677,54621
24.77488,52716
24.78300,56999
24.79113,54228
24.79925,53396
24.80738,54202
24.81550,46643
24.82362,50896
24.83175,48537
24.83987,50467
24.84800,52665
24.85612,52433
24.86423,52536
24.87237,53320
24.88048,60417
24.88860,60435
24.89673,57262
24.90485,57487
24.91298,60900
24.92110,54956
24.92922,55379
24.93735,51056
24.94547,53002
24.95360,51066
24.96172,52822
24.96983,52219
24.97797,47044
24.98608,46044
24.99420,45202
25.00233,46558
25.01045,45966
25.01858,49304
25.02670,45739
25.03482,43885
25.04295,44128
25.05107,46198
25.05920,42438
25.06732,45463
25.07543,44962
25.08357,47123
25.09168,47501
25.09982,44455
25.10793,48113
25.11605,45017
25.12418,43861
25.13230,46995
25.14042,52118
25.14855,53349
25.15667,59176
25.16480,63965
25.17292,65850
25.18103,66687
25.18917,65157
25.19728,59577
25.20542,59342
25.21353,57051
25.22165,57774
25.22978,53004
25.23790,46805
25.24603,43042
25.25415,46206
25.26227,49189
25.27040,50350
25.27852,47514
25.28663,49838
25.29477,45934
25.30288,47872
25.31102,48499
25.31913,46721
25.32725,55518
25.33538,50115
25.34350,48628
25.35163,47178
25.35975,58819
25.36787,47560
25.37600,49892
25.38412,48160
25.39225,54080
25.40037,44970
25.40848,46699
25.41662,45572
25.42473,43116
25.43285,43347
25.44098,42110
25.44910,43979
25.45723,40800
25.46535,42525
25.47347,42391
25.48160,44977
25.48972,47302
25.49785,46251
25.50597,50049
25.51408,47352
25.52222,53152
25.53033,45547
25.53845,45372
25.54658,45318
25.55470,41213
25.56283,44081
25.57095,40704
25.57907,42214
25.58720,42227
25.59532,41704
25.60345,41710
25.61157,41178
25.61968,42088
25.62782,40377
25.63593,42855
25.64407,42545
25.65218,45603
25.66030,48299
25.66843,48088
25.67655,46026
25.68467,44646
25.69280,44279
25.70092,44316
25.70905,46626
25.71717,40499
25.72528,38279
25.73342,36250
25.74153,40897
25.74967,42326
25.75778,41215
25.76590,40036
25.77403,41123
25.78215,43464
25.79027,43059
25.79840,40853
25.80652,41329
25.81465,42704
25.82277,48700
25.83088,47419
25.83902,49508
25.84713,50468
25.85527,49412
25.86338,48756
25.87150,45391
25.87963,45678
25.88775,42638
25.89588,37288
25.90400,38459
25.91212,39184
25.92025,38589
25.92837,39957
25.93648,36583
25.94462,41164
25.95273,35907
25.96087,40694
25.96898,36033
25.97710,34656
25.98523,35809
25.99335,38363
26.00148,36977
26.00960,35080
26.01772,35915
26.02585,34972
26.03397,33197
26.04210,38574
26.05022,37092
26.05833,37664
26.06647,39238
26.07458,38585
26.08270,37504
26.09083,40540
26.09895,42038
26.10708,38002
26.11520,38462
26.12332,37183
26.13145,41763
26.13957,41806
26.14770,47683
26.15582,51586
26.16393,50415
26.17207,49071
26.18018,49957
26.18830,53770
26.19643,58288
26.20455,50194
26.21268,55511
26.22080,54844
26.22892,47252
26.23705,52102
26.24517,47613
26.25330,44655
26.26142,45796
26.26953,43324
26.27767,44548
26.28578,44307
26.29392,46025
26.30203,44561
26.31015,46267
26.31828,41078
26.32640,39789
26.33452,36802
26.34265,38902
26.35077,39016
26.35890,39124
26.36702,37909
26.37513,40406
26.38327,40414
26.39138,40789
26.39952,40984
26.40763,40541
26.41575,42370
26.42388,45438
26.43200,48525
26.44013,41772
26.44825,47289
26.45637,40365
26.46450,41522
26.47262,41431
26.48073,39896
26.48887,41565
26.49698,36697
26.50512,40664
26.51323,40214
26.52135,37541
26.52948,38819
26.53760,41257
26.54573,38934
26.55385,36062
26.56197,37576
26.57010,38603
26.57822,35391
26.58633,38225
26.59447,33851
26.60258,41636
26.61072,40137
26.61883,38389
26.62695,38510
26.63508,39424
26.64320,42032
26.65133,37082
26.65945,40814
26.66757,43682
26.67570,44673
26.68382,44227
26.69195,51758
26.70007,47469
26.70818,48176
26.71632,44678
26.72443,45246
26.73255,39609
26.74068,42922
26.74880,39988
26.75693,40031
26.76505,37575
26.77317,36717
26.78130,38760
26.78942,40636
26.79755,41277
26.80567,39710
26.81378,37873
26.82192,43911
26.83003,46229
26.83815,44603
26.84628,47018
26.85440,47593
26.86253,45260
26.87065,46534
26.87877,43831
26.88690,44181
26.89502,42720
26.90315,43070
26.91127,40028
26.91938,41815
26.92752,41850
26.93563,41479
26.94377,39370
26.95188,42244
26.96000,44640
26.96813,45569
26.97625,43768
26.98437,57134
26.99250,76309
27.00062,123334
27.00875,208758
27.01687,334431
27.02498,474444
27.03312,634017
27.04123,749899
27.04937,768597
27.05748,667178
27.06560,527381
27.07373,428198
27.08185,325840
27.08998,261586
27.09810,214235
27.10622,186196
27.11435,159707
27.12247,153026
27.13058,137722
27.13872,124772
27.14683,123942
27.15497,117435
27.16308,111903
27.17120,104584
27.17933,102423
27.18745,101117
27.19558,98938
27.20370,100368
27.21182,95048
27.21995,91981
27.22807,88962
27.23618,92566
27.24432,86231
27.25243,80222
27.26057,80409
27.26868,74867
27.27680,71281
27.28493,72813
27.29305,71374
27.30118,69342
27.30930,70923
27.31742,64891
27.32555,65140
27.33367,63000
27.34180,59694
27.34992,62335
27.35803,65639
27.36617,64579
27.37428,62974
27.38240,59551
27.39053,60090
27.39865,61167
27.40678,60003
27.41490,63728
27.42302,60262
27.43115,64052
27.43927,55906
27.44740,55728
27.45552,50615
27.46363,48332
27.47177,49071
27.47988,50522
27.48802,54933
27.49613,49259
27.50425,54872
27.51238,49417
27.52050,47606
27.52862,55223
27.53675,50264
27.54487,52947
27.55300,54863
27.56112,48521
27.56923,50281
27.57737,50588
27.58548,48348
27.59362,54372
27.60173,47386
27.60985,46251
27.61798,46137
27.62610,47947
27.63422,47444
27.64235,51482
27.65047,49847
27.65860,46996
27.66672,45335
27.67483,41545
27.68297,45689
27.69108,45971
27.69922,41835
27.70733,46080
27.71545,42599
27.72358,42885
27.73170,43677
27.73983,43424
27.74795,44432
27.75607,42019
27.76420,41391
27.77232,42979
27.78043,43440
27.78857,37551
27.79668,40567
27.80482,40464
27.81293,38927
27.82105,39933
27.82918,41053
27.83730,41002
27.84543,47132
27.85355,47900
27.86167,46687
27.86980,44980
27.87792,47087
27.88605,46326
27.89417,44837
27.90228,42490
27.91042,42042
27.91853,43920
27.92665,41229
27.93478,38486
27.94290,40616
27.95103,37153
27.95915,40466
27.96727,39616
27.97540,37725
27.98352,38175
27.99165,40728
27.99977,41688
28.00788,38451
28.01602,44088
28.02413,39752
28.03225,40016
28.04038,43300
28.04850,41248
28.05663,40111
28.06475,46253
28.07287,44422
28.08100,45278
28.08912,43124
28.09725,48168
28.10537,43555
28.11348,43220
28.12162,45525
28.12973,40936
28.13787,42260
28.14598,43471
28.15410,38484
28.16223,38695
28.17035,36520
28.17847,38963
28.18660,37787
28.19472,36777
28.20285,36063
28.21097,53154
28.21908,41981
28.22722,41880
28.23533,43332
28.24347,47383
28.25158,45914
28.25970,40369
28.26783,40883
28.27595,41261
28.28407,41645
28.29220,41721
28.30032,36793
28.30845,42722
28.31657,41625
28.32468,44537
28.33282,49252
28.34093,60152
28.34907,70950
28.35718,81888
28.36530,98380
28.37343,120993
28.38155,131134
28.38968,134818
28.39780,133490
28.40592,130296
28.41405,127217
28.42217,109361
28.43028,97410
28.43842,101899
28.44653,85972
28.45467,77775
28.46278,76986
28.47090,71802
28.47903,62987
28.48715,64638
28.49528,62842
28.50340,62252
28.51152,60345
28.51965,61558
28.52777,63069
28.53590,56532
28.54402,52144
28.55213,52127
28.56027,52632
28.56838,51299
28.57650,55722
28.58463,52334
28.59275,53605
28.60088,48184
28.60900,46311
28.61712,48473
28.62525,46417
28.63337,48922
28.64150,46501
28.64962,47581
28.65773,53678
28.66587,52130
28.67398,53849
28.68210,53137
28.69023,56226
28.69835,53020
28.70648,50454
28.71460,53758
28.72272,48958
28.73085,47253
28.73897,41892
28.74710,45468
28.75522,45718
28.76333,46616
28.77147,51899
28.77958,55648
28.78772,64685
28.79583,71593
28.80395,82527
28.81208,68667
28.82020,58614
28.82832,53231
28.83645,48509
28.84457,42142
28.85270,47231
28.86082,41496
28.86893,41741
28.87707,40363
28.88518,42772
28.89332,43708
28.90143,39344
28.90955,45134
28.91768,43096
28.92580,39886
28.93393,42757
28.94205,43619
28.95017,45509
28.95830,47463
28.96642,51922
28.97453,50283
28.98267,52799
28.99078,52228
28.99892,49771
29.00703,47754
29.01515,46267
29.02328,51735
29.03140,41631
29.03953,37149
29.04765,39641
29.05577,41353
29.06390,40720
29.07202,40585
29.08013,40507
29.08827,39181
29.09638,42585
29.10452,42217
29.11263,40370
29.12075,42491
29.12888,39143
29.13700,43885
29.14513,37518
29.15325,44373
29.16137,42998
29.16950,45018
29.17762,48034
29.18575,39986
29.19387,44155
29.20198,45862
29.21012,43467
29.21823,42787
29.22635,42433
29.23448,43541
29.24260,45876
29.25073,43468
29.25885,39086
29.26697,40962
29.27510,40708
29.28322,43863
29.29135,44013
29.29947,41287
29.30758,48556
29.31572,40133
29.32383,37435
29.33195,41953
29.34008,39725
29.34820,41738
29.35633,39840
29.36445,42421
29.37257,38743
29.38070,42307
29.38882,38378
29.39695,40064
29.40507,39046
29.41318,40553
29.42132,39550
29.42943,41297
29.43757,41434
29.44568,40847
29.45380,42252
29.46193,41540
29.47005,42563
29.47817,41609
29.48630,42619
29.49442,39654
29.50255,42422
29.51067,45572
29.51878,50303
29.52692,60355
29.53503,49523
29.54317,49941
29.55128,43418
29.55940,44532
29.56753,37943
29.57565,37811
29.58378,39750
29.59190,42996
29.60002,35347
29.60815,40008
29.61627,39305
29.62438,40115
29.63252,39794
29.64063,37398
29.64877,36957
29.65688,39678
29.66500,41815
29.67313,37711
29.68125,40278
29.68938,42127
29.69750,39439
29.70562,49112
29.71375,38268
29.72187,37513
29.73000,35074
29.73812,39837
29.74623,34609
29.75437,41070
29.76248,40911
29.77060,41046
29.77873,42160
29.78685,39718
29.79498,38145
29.80310,36494
29.81122,36728
29.81935,39623
29.82747,40554
29.83560,38634
29.84372,35524
29.85183,35860
29.85997,37123
29.86808,39648
29.87620,40590
29.88433,49840
29.89245,61339
29.90058,77659
29.90870,92309
29.91682,101158
29.92495,97372
29.93307,88966
29.94120,72481
29.94932,61712
29.95743,55140
29.96557,45815
29.97368,49063
29.98182,49347
29.98993,55494
29.99805,59664
30.00618,64940
30.01430,69534
30.02242,81122
30.03055,85649
30.03867,81692
30.04680,90869
30.05492,94593
30.06303,89953
30.07117,86981
30.07928,87210
30.08742,78787
30.09553,81121
30.10365,72757
30.11178,71692
30.11990,63248
30.12802,66001
30.13615,60554
30.14427,56793
30.15240,56040
30.16052,55953
30.16863,57294
30.17677,58243
30.18488,54849
30.19302,51128
30.20113,55866
30.20925,51933
30.21738,52180
30.22550,50998
30.23363,46327
30.24175,46236
30.24987,50632
30.25800,49467
30.26612,46454
30.27423,44864
30.28237,47690
30.29048,40177
30.29862,45086
30.30673,45687
30.31485,45738
30.32298,47096
30.33110,45165
30.33923,46543
30.34735,42348
30.35547,39775
30.36360,43994
30.37172,42224
30.37985,45647
30.38797,45632
30.39608,45001
30.40422,43476
30.41233,41020
30.42045,43449
30.42858,42107
30.43670,43363
30.44483,40298
30.45295,38925
30.46107,39200
30.46920,40210
30.47732,41449
30.48545,39510
30.49357,40052
30.50168,40120
30.50982,40953
30.51793,40411
30.52605,39767
30.53418,41615
30.54230,37362
30.55043,43446
30.55855,38645
30.56667,37396
30.57480,40835
30.58292,41998
30.59105,39817
30.59917,40102
30.60728,42468
30.61542,44727
30.62353,38284
30.63167,39722
30.63978,39238
30.64790,41006
30.65603,39514
30.66415,39082
30.67227,41263
30.68040,37991
30.68852,37685
30.69665,34724
30.70477,42467
30.71288,38144
30.72102,36012
30.72913,38425
30.73727,38078
30.74538,38091
30.75350,35411
30.76163,35466
30.76975,41813
30.77788,38283
30.78600,39958
30.79412,39303
30.80225,39164
30.81037,44605
30.81848,49926
30.82662,45728
30.83473,47121
30.84287,51109
30.85098,45663
30.85910,45077
30.86723,40013
30.87535,38972
30.88348,37841
30.89160,38649
30.89972,38074
30.90785,37853
30.91597,38360
30.92408,37383
30.93222,37670
30.94033,38345
30.94847,39427
30.95658,39231
30.96470,39186
30.97283,41505
30.98095,41252
30.98908,37470
30.99720,37857
31.00532,37473
31.01345,34964
31.02157,34722
31.02970,36908
31.03782,42727
31.04593,40647
31.05407,40126
31.06218,38213
31.07030,41989
31.07843,46222
31.08655,50290
31.09468,62905
31.10280,81332
31.11092,103008
31.11905,122883
31.12717,135829
31.13530,125411
31.14342,106048
31.15153,84815
31.15967,64162
31.16778,54041
31.17590,51804
31.18403,54930
31.19215,60121
31.20028,85339
31.20840,111094
31.21652,142797
31.22465,188294
31.23277,221462
31.24090,223741
31.24902,207653
31.25713,186059
31.26527,135683
31.27338,102253
31.28152,73096
31.28963,61045
31.29775,53683
31.30588,47366
31.31400,45513
31.32212,42714
31.33025,42143
31.33837,46048
31.34650,39223
31.35462,42626
31.36273,43329
31.37087,46561
31.37898,48949
31.38712,55017
31.39523,60422
31.40335,58219
31.41148,61982
31.41960,65080
31.42773,66776
31.43585,48573
31.44397,49762
31.45210,50101
31.46022,47789
31.46833,45195
31.47647,41575
31.48458,42811
31.49272,49386
31.50083,43938
31.50895,42158
31.51708,41907
31.52520,42106
31.53333,42465
31.54145,37092
31.54957,37617
31.55770,39252
31.56582,40577
31.57393,39042
31.58207,39412
31.59018,40183
31.59832,39507
31.60643,36511
31.61455,36886
31.62268,36724
31.63080,37031
31.63893,38920
31.64705,41533
31.65517,43093
31.66330,38622
31.67142,37944
31.67955,39978
31.68767,40720
31.69578,41680
31.70392,41543
31.71203,42657
31.72015,38667
31.72828,35347
31.73640,37831
31.74453,37865
31.75265,38741
31.76077,40191
31.76890,38341
31.77702,36250
31.78515,38775
31.79327,39613
31.80138,38652
31.80952,36608
31.81763,43067
31.82577,40845
31.83388,42583
31.84200,46833
31.85013,44438
31.85825,46529
31.86637,50300
31.87450,54043
31.88262,56505
31.89075,56277
31.89887,56010
31.90698,54096
31.91512,53634
31.92323,59362
31.93137,61778
31.93948,64879
31.94760,62245
31.95573,65791
31.96385,71055
31.97197,67314
31.98010,74276
31.98822,71224
31.99635,73939
32.00447,68150
32.01258,81846
32.02072,73436
32.02883,71125
32.03697,62962
32.04508,63003
32.05320,60257
32.06133,55688
32.06945,58813
32.07758,52020
32.08570,53304
32.09382,55387
32.10195,59683
32.11007,60802
32.11818,54266
32.12632,54843
32.13443,53027
32.14257,49388
32.15068,47524
32.15880,49014
32.16693,45795
32.17505,47033
32.18318,45320
32.19130,44522
32.19942,42802
32.20755,41010
32.21567,44631
32.22380,42677
32.23192,44338
32.24003,42159
32.24817,44304
32.25628,42764
32.26440,45494
32.27253,45926
32.28065,48664
32.28878,46369
32.29690,48928
32.30502,45168
32.31315,46080
32.32127,46865
32.32940,47414
32.33752,44589
32.34563,44303
32.35377,54610
32.36188,55628
32.37000,61220
32.37813,59760
32.38625,59617
32.39438,55343
32.40250,52465
32.41062,51703
32.41875,44993
32.42687,44587
32.43500,46876
32.44312,46171
32.45123,46166
32.45937,42965
32.46748,43650
32.47562,45759
32.48373,45309
32.49185,40676
32.49998,45393
32.50810,42275
32.51622,39420
32.52435,41767
32.53247,43677
32.54060,43936
32.54872,41221
32.55683,42290
32.56497,38420
32.57308,43233
32.58122,41129
32.58933,42423
32.59745,44957
32.60558,40796
32.61370,43154
32.62182,41731
32.62995,41779
32.63807,44493
32.64620,43372
32.65432,41700
32.66243,50458
32.67057,45684
32.67868,55784
32.68682,58064
32.69493,69202
32.70305,68083
32.71118,64848
32.71930,53702
32.72743,47117
32.73555,48400
32.74367,47019
32.75180,45532
32.75992,41167
32.76803,42230
32.77617,42599
32.78428,43985
32.79242,42855
32.80053,42294
32.80865,39509
32.81678,37550
32.82490,35739
32.83303,36938
32.84115,37439
32.84927,46900
32.85740,37759
32.86552,41053
32.87365,41142
32.88177,44668
32.88988,42513
32.89802,40251
32.90613,41942
32.91425,42031
32.92238,42316
32.93050,42591
32.93863,41746
32.94675,43697
32.95487,39799
32.96300,38225
32.97112,39937
32.97925,41203
32.98737,37202
32.99548,41103
33.00362,39304
33.01173,37934
33.01985,41226
33.02798,41288
33.03610,45107
33.04423,40275
33.05235,37870
33.06047,40866
33.06860,34592
33.07672,40247
33.08485,40654
33.09297,42683
33.10108,47401
33.10922,54283
33.11733,56282
33.12547,65215
33.13358,68551
33.14170,75117
33.14983,67924
33.15795,62021
33.16607,56063
33.17420,52465
33.18232,46911
33.19045,46042
33.19857,44658
33.20668,43194
33.21482,52762
33.22293,44282
33.23107,45821
33.23918,43349
33.24730,49386
33.25543,47557
33.26355,44275
33.27168,42022
33.27980,42855
33.28792,40211
33.29605,40582
33.30417,43103
33.31228,40122
33.32042,44828
33.32853,44031
33.33667,45689
33.34478,44582
33.35290,41487
33.36103,39994
33.36915,40402
33.37728,37773
33.38540,38311
33.39352,38205
33.40165,43904
33.40977,38320
33.41788,38307
33.42602,39355
33.43413,41557
33.44227,40914
33.45038,43191
33.45850,40765
33.46663,37249
33.47475,42004
33.48288,40103
33.49100,40257
33.49912,41974
33.50725,43016
33.51537,39894
33.52350,39076
33.53162,41697
33.53973,43964
33.54787,44360
33.55598,43647
33.56410,43665
33.57223,43145
33.58035,42737
33.58848,44571
33.59660,42356
33.60472,39070
33.61285,41449
33.62097,39994
33.62910,41108
33.63722,37353
33.64533,43975
33.65347,40940
33.66158,40363
33.66970,45912
33.67783,42228
33.68595,43309
33.69408,43473
33.70220,43526
33.71032,41579
33.71845,38377
33.72657,44592
33.73470,40051
33.74282,37679
33.75093,42811
33.75907,42259
33.76718,41565
33.77532,41026
33.78343,40294
33.79155,41232
33.79968,44049
33.80780,39265
33.81592,43301
33.82405,47024
33.83217,41397
33.84030,41827
33.84842,45223
33.85653,44624
33.86467,44586
33.87278,46263
33.88092,49266
33.88903,50204
33.89715,47778
33.90528,46262
33.91340,44040
33.92153,46213
33.92965,43523
33.93777,42896
33.94590,45382
33.95402,42444
33.96213,44261
33.97027,45683
33.97838,49325
33.98652,45044
33.99463,43224
34.00275,45587
34.01088,44368
34.01900,43769
34.02713,43117
34.03525,44069
34.04337,46807
34.05150,42569
34.05962,46017
34.06773,41057
34.07587,43559
34.08398,45370
34.09212,41255
34.10023,46269
34.10835,45573
34.11648,44826
34.12460,44767
34.13273,46800
34.14085,44289
34.14897,42802
34.15710,44972
34.16522,43721
34.17335,47235
34.18147,40996
34.18958,49132
34.19772,42049
34.20583,45472
34.21395,41940
34.22208,42571
34.23020,43750
34.23833,41847
34.24645,43314
34.25457,43761
34.26270,48997
34.27082,46652
34.27895,44458
34.28707,43988
34.29518,42574
34.30332,44793
34.31143,48826
34.31957,44644
34.32768,45424
34.33580,43621
34.34393,45072
34.35205,43710
34.36017,44870
34.36830,49083
34.37642,44426
34.38455,43243
34.39267,44169
34.40078,44760
34.40892,48681
34.41703,46444
34.42517,47708
34.43328,46593
34.44140,43554
34.44953,46433
34.45765,42126
34.46577,41623
34.47390,41277
34.48202,45554
34.49015,46136
34.49827,45526
34.50638,45595
34.51452,43531
34.52263,46379
34.53077,46454
34.53888,53309
34.54700,56406
34.55513,61641
34.56325,60320
34.57138,64972
34.57950,66891
34.58762,72968
34.59575,67337
34.60387,63811
34.61198,64911
34.62012,56897
34.62823,62590
34.63637,56705
34.64448,54546
34.65260,57502
34.66073,55926
34.66885,53074
34.67698,57260
34.68510,52399
34.69322,54123
34.70135,50946
34.70947,50830
34.71760,55307
34.72572,49131
34.73383,49432
34.74197,51879
34.75008,50809
34.75820,47064
34.76633,48759
34.77445,49567
34.78258,48925
34.79070,48613
34.79882,50505
34.80695,49787
34.81507,48206
34.82320,47896
34.83132,51476
34.83943,44676
34.84757,50867
34.85568,50307
34.86380,47746
34.87193,46602
34.88005,46850
34.88818,48310
34.89630,46516
34.90442,49066
34.91255,50084
34.92067,47295
34.92880,50735
34.93692,52231
34.94503,56893
34.95317,59685
34.96128,84060
34.96942,124305
34.97753,170740
34.98565,227546
34.99378,265888
35.00190,265037
35.01002,228044
35.01815,177745
35.02627,118727
35.03440,88703
35.04252,66209
35.05063,64672
35.05877,58506
35.06688,60327
35.07502,60927
35.08313,59303
35.09125,61935
35.09938,59310
35.10750,54959
35.11563,57459
35.12375,58516
35.13187,57804
35.14000,56781
35.14812,65548
35.15623,53685
35.16437,59128
35.17248,59939
35.18062,53765
35.18873,62293
35.19685,54665
35.20498,54883
35.21310,53954
35.22123,53436
35.22935,56752
35.23747,54659
35.24560,58105
35.25372,58439
35.26183,52963
35.26997,57245
35.27808,54489
35.28622,56595
35.29433,58855
35.30245,55580
35.31058,56624
35.31870,54232
35.32683,53089
35.33495,51403
35.34307,50704
35.35120,48605
35.35932,52887
35.36745,50654
35.37557,50240
35.38368,51769
35.39182,52436
35.39993,50304
35.40805,50345
35.41618,51153
35.42430,47885
35.43243,51949
35.44055,51668
35.44867,51175
35.45680,50392
35.46492,51687
35.47305,54410
35.48117,55358
35.48928,54715
35.49742,57038
35.50553,56609
35.51365,55750
35.52178,52397
35.52990,50744
35.53803,49063
35.54615,52120
35.55427,49710
35.56240,53191
35.57052,52118
35.57865,50877
35.58677,50426
35.59488,53769
35.60302,57709
35.61113,57484
35.61927,57863
35.62738,56467
35.63550,55137
35.64363,56730
35.65175,57117
35.65987,53264
35.66800,54571
35.67612,50799
35.68425,50407
35.69237,53168
35.70048,57325
35.70862,57289
35.71673,58681
35.72487,56445
35.73298,56938
35.74110,59521
35.74923,55040
35.75735,54529
35.76548,56234
35.77360,56872
35.78172,56045
35.78985,54640
35.79797,52141
35.80608,50176
35.81422,52823
35.82233,54340
35.83047,55911
35.83858,50547
35.84670,54382
35.85483,54295
35.86295,53579
35.87108,53262
35.87920,53840
35.88732,49557
35.89545,54733
35.90357,52970
35.91168,52527
35.91982,49560
35.92793,49648
35.93607,49628
35.94418,52557
35.95230,55817
35.96043,53611
35.96855,51231
35.97668,52023
35.98480,51136
35.99292,50934
36.00105,52690
36.00917,51019
36.01730,51924
36.02542,53615
36.03353,55125
36.04167,54829
36.04978,52939
36.05790,58830
36.06603,57913
36.07415,60798
36.08228,62306
36.09040,56562
36.09852,55826
36.10665,60117
36.11477,54377
36.12290,54554
36.13102,54402
36.13913,56428
36.14727,54948
36.15538,55259
36.16352,55547
36.17163,66083
36.17975,55011
36.18788,55802
36.19600,60150
36.20412,49590
36.21225,57185
36.22037,58799
36.22850,54635
36.23662,55395
36.24473,55449
36.25287,53301
36.26098,51947
36.26912,53720
36.27723,61697
36.28535,51088
36.29348,55975
36.30160,53476
36.30972,54837
36.31785,64990
36.32597,68145
36.33410,72204
36.34222,77540
36.35033,78381
36.35847,66815
36.36658,70564
36.37472,65396
36.38283,67121
36.39095,63052
36.39908,64046
36.40720,64589
36.41533,66903
36.42345,62632
36.43157,67130
36.43970,60155
36.44782,62110
36.45593,57370
36.46407,59137
36.47218,54152
36.48032,55095
36.48843,51144
36.49655,55873
36.50468,58771
36.51280,53711
36.52093,53161
36.52905,58962
36.53717,55328
36.54530,54952
36.55342,53048
36.56153,59449
36.56967,56025
36.57778,55600
36.58592,57897
36.59403,54592
36.60215,55901
36.61028,53479
36.61840,56744
36.62653,58941
36.63465,64635
36.64277,57012
36.65090,58528
36.65902,58715
36.66715,54145
36.67527,56928
36.68338,57120
36.69152,54841
36.69963,56634
36.70775,57785
36.71588,57965
36.72400,60604
36.73213,56388
36.74025,57187
36.74837,70164
36.75650,56016
36.76462,61887
36.77275,59038
36.78087,59895
36.78898,58659
36.79712,53098
36.80523,59860
36.81337,56225
36.82148,58361
36.82960,56506
36.83773,56076
36.84585,56979
36.85397,55486
36.86210,58508
36.87022,55812
36.87835,57885
36.88647,59421
36.89458,61188
36.90272,59230
36.91083,61573
36.91897,63045
36.92708,56828
36.93520,57218
36.94333,55783
36.95145,59023
36.95957,65757
36.96770,60156
36.97582,56716
36.98395,55552
36.99207,59608
37.00018,55339
37.00832,57862
37.01643,57883
37.02457,56874
37.03268,55509
37.04080,60919
37.04893,57042
37.05705,55870
37.06518,59893
37.07330,57961
37.08142,57034
37.08955,58940
37.09767,60406
37.10578,52655
37.11392,58279
37.12203,61771
37.13017,57234
37.13828,58639
37.14640,60104
37.15453,58638
37.16265,55607
37.17078,58721
37.17890,62910
37.18702,57449
37.19515,61063
37.20327,62659
37.21140,60057
37.21952,60613
37.22763,63711
37.23577,65233
37.24388,68529
37.25200,71471
37.26013,68918
37.26825,82332
37.27638,75303
37.28450,77849
37.29262,71202
37.30075,68399
37.30887,71359
37.31700,68718
37.32512,69845
37.33323,64930
37.34137,65471
37.34948,67945
37.35760,72250
37.36573,68941
37.37385,77301
37.38198,76154
37.39010,80160
37.39822,84499
37.40635,72787
37.41447,82423
37.42260,73973
37.43072,73903
37.43883,72186
37.44697,66384
37.45508,69708
37.46322,72490
37.47133,65048
37.47945,71346
37.48758,75936
