Z:\data\JTB-E02\BACandBLUE\JTB-E02-199-08.D Wed Feb 27 11:30:39 2019
Start of data points
2.09540,76477
2.10353,73049
2.11165,72242
2.11978,67028
2.12790,68822
2.13602,67261
2.14415,66008
2.15227,67797
2.16040,61766
2.16852,63751
2.17663,59422
2.18477,59101
2.19288,58910
2.20100,57794
2.20913,56245
2.21725,52904
2.22538,51233
2.23350,51976
2.24162,55334
2.24975,67925
2.25787,406711
2.26600,1383855
2.27412,1688363
2.28223,989657
2.29037,461411
2.29848,319638
2.30662,274565
2.31473,243339
2.32285,217458
2.33098,192979
2.33910,182470
2.34722,169917
2.35535,161996
2.36347,154366
2.37160,149693
2.37972,144516
2.38783,145659
2.39597,133735
2.40408,130691
2.41222,127814
2.42033,124466
2.42845,114794
2.43658,123040
2.44470,113158
2.45283,114725
2.46095,113409
2.46907,108906
2.47720,104676
2.48532,105379
2.49343,102033
2.50157,110151
2.50968,103731
2.51782,105790
2.52593,105732
2.53405,96894
2.54218,102075
2.55030,94032
2.55843,92759
2.56655,91481
2.57467,95405
2.58280,96246
2.59092,94006
2.59903,102525
2.60717,117177
2.61528,111118
2.62342,94915
2.63153,93201
2.63965,90576
2.64778,88934
2.65590,88042
2.66403,87858
2.67215,91460
2.68027,88521
2.68840,85226
2.69652,83440
2.70465,85877
2.71277,80747
2.72088,82663
2.72902,85967
2.73713,83823
2.74525,80051
2.75338,86772
2.76150,81956
2.76963,80514
2.77775,76675
2.78587,81248
2.79400,74929
2.80212,79603
2.81025,81637
2.81837,81149
2.82648,77714
2.83462,78676
2.84273,78438
2.85087,75727
2.85898,76633
2.86710,76626
2.87523,80353
2.88335,75041
2.89147,75055
2.89960,76425
2.90772,73866
2.91585,73744
2.92397,77178
2.93208,74364
2.94022,72983
2.94833,72171
2.95647,75724
2.96458,78072
2.97270,74462
2.98083,69166
2.98895,69153
2.99707,72460
3.00520,69928
3.01332,72300
3.02145,73278
3.02957,72204
3.03768,69732
3.04582,73075
3.05393,71673
3.06207,71810
3.07018,72936
3.07830,68099
3.08643,71496
3.09455,68277
3.10268,67560
3.11080,71866
3.11892,71091
3.12705,64075
3.13517,70020
3.14328,64915
3.15142,67575
3.15953,67530
3.16767,59667
3.17578,64836
3.18390,65041
3.19203,62923
3.20015,66839
3.20828,64379
3.21640,66740
3.22452,69044
3.23265,62685
3.24077,58446
3.24888,66635
3.25702,62174
3.26513,62213
3.27327,66879
3.28138,67426
3.28950,82530
3.29763,108719
3.30575,160274
3.31388,201231
3.32200,187352
3.33012,172937
3.33825,153200
3.34637,138462
3.35450,125912
3.36262,121496
3.37073,117343
3.37887,117190
3.38698,103735
3.39510,104772
3.40323,105523
3.41135,102034
3.41948,89092
3.42760,93633
3.43572,88760
3.44385,90775
3.45197,87010
3.46010,89473
3.46822,90796
3.47633,98476
3.48447,92151
3.49258,93346
3.50072,88812
3.50883,92560
3.51695,92735
3.52508,83949
3.53320,87294
3.54132,80842
3.54945,87147
3.55757,83756
3.56570,82560
3.57382,86234
3.58193,88914
3.59007,85774
3.59818,85968
3.60632,78920
3.61443,79735
3.62255,80904
3.63068,83931
3.63880,76317
3.64692,75255
3.65505,77911
3.66317,74911
3.67130,77831
3.67942,82689
3.68753,75521
3.69567,79245
3.70378,81533
3.71192,83851
3.72003,78964
3.72815,78071
3.73628,80915
3.74440,78780
3.75253,76422
3.76065,73599
3.76877,75383
3.77690,75248
3.78502,76265
3.79313,76193
3.80127,75105
3.80938,77498
3.81752,77233
3.82563,76919
3.83375,68019
3.84188,72510
3.85000,73843
3.85813,75821
3.86625,70707
3.87437,69969
3.88250,73574
3.89062,72773
3.89875,71130
3.90687,70302
3.91498,71243
3.92312,72604
3.93123,71718
3.93935,72193
3.94748,71953
3.95560,68039
3.96373,71426
3.97185,69219
3.97997,69381
3.98810,70059
3.99622,70597
4.00435,70372
4.01247,69504
4.02058,69699
4.02872,67640
4.03683,72802
4.04495,73277
4.05308,67748
4.06120,64662
4.06933,70370
4.07745,67980
4.08557,66307
4.09370,71720
4.10182,65210
4.10995,71399
4.11807,66819
4.12618,67414
4.13432,69110
4.14243,69582
4.15057,61611
4.15868,67414
4.16680,65675
4.17493,68274
4.18305,66942
4.19117,64239
4.19930,67599
4.20742,71363
4.21555,67696
4.22367,67386
4.23178,64707
4.23992,68850
4.24803,67239
4.25617,63703
4.26428,64805
4.27240,68256
4.28053,59963
4.28865,60727
4.29678,65649
4.30490,69923
4.31302,64715
4.32115,61508
4.32927,67942
4.33738,66455
4.34552,65182
4.35363,66217
4.36177,65726
4.36988,65735
4.37800,63839
4.38613,67025
4.39425,67413
4.40238,64633
4.41050,61772
4.41862,65989
4.42675,66477
4.43487,64938
4.44298,57913
4.45112,69518
4.45923,66668
4.46737,63894
4.47548,67291
4.48360,63474
4.49173,65229
4.49985,63411
4.50798,63954
4.51610,67299
4.52422,67094
4.53235,69006
4.54047,62982
4.54860,61912
4.55672,60694
4.56483,67014
4.57297,65114
4.58108,60277
4.58920,59930
4.59733,62210
4.60545,61587
4.61358,63022
4.62170,63642
4.62982,66280
4.63795,62737
4.64607,61873
4.65420,60996
4.66232,66928
4.67043,60266
4.67857,63358
4.68668,61263
4.69480,68221
4.70293,59589
4.71105,62455
4.71918,66736
4.72730,60577
4.73542,66866
4.74355,65462
4.75167,56100
4.75980,61080
4.76792,61141
4.77603,56974
4.78417,61859
4.79228,60727
4.80042,56038
4.80853,62537
4.81665,62253
4.82478,58010
4.83290,58462
4.84102,61015
4.84915,61329
4.85727,64109
4.86540,57293
4.87352,60321
4.88163,56626
4.88977,58868
4.89788,63769
4.90602,55229
4.91413,59105
4.92225,62463
4.93038,59905
4.93850,63239
4.94663,75617
4.95475,91787
4.96287,110938
4.97100,114513
4.97912,122582
4.98723,116817
4.99537,108034
5.00348,98794
5.01162,94658
5.01973,93813
5.02785,92128
5.03598,87007
5.04410,88994
5.05223,86480
5.06035,85182
5.06847,87754
5.07660,78907
5.08472,80066
5.09283,79483
5.10097,78345
5.10908,76533
5.11722,82750
5.12533,81548
5.13345,80533
5.14158,74438
5.14970,75351
5.15783,74320
5.16595,72309
5.17407,73512
5.18220,71630
5.19032,75656
5.19845,72563
5.20657,72088
5.21468,73297
5.22282,73585
5.23093,71854
5.23905,75718
5.24718,73532
5.25530,75275
5.26343,62924
5.27155,65919
5.27967,68106
5.28780,61113
5.29592,58618
5.30405,58802
5.31217,60118
5.32028,61559
5.32842,57676
5.33653,59115
5.34467,56640
5.35278,58789
5.36090,55773
5.36903,58233
5.37715,58023
5.38527,54816
5.39340,56187
5.40152,56596
5.40965,59851
5.41777,57205
5.42588,60041
5.43402,61894
5.44213,55492
5.45027,57895
5.45838,61458
5.46650,57996
5.47463,51358
5.48275,54166
5.49087,65770
5.49900,53042
5.50712,57087
5.51525,56748
5.52337,57195
5.53148,56912
5.53962,55448
5.54773,53549
5.55587,52660
5.56398,57102
5.57210,55303
5.58023,54981
5.58835,52381
5.59648,55078
5.60460,52942
5.61272,55753
5.62085,53889
5.62897,55306
5.63708,56245
5.64522,57155
5.65333,55893
5.66147,59190
5.66958,51608
5.67770,57692
5.68583,63174
5.69395,57834
5.70208,58041
5.71020,57838
5.71832,54212
5.72645,56387
5.73457,51419
5.74268,54907
5.75082,55392
5.75893,50825
5.76707,54228
5.77518,51490
5.78330,57120
5.79143,50584
5.79955,56406
5.80768,55668
5.81580,53496
5.82392,52509
5.83205,52199
5.84017,57330
5.84830,53854
5.85642,55232
5.86453,51046
5.87267,53459
5.88078,52498
5.88890,50680
5.89703,51354
5.90515,51701
5.91328,48575
5.92140,47398
5.92952,43349
5.93765,42451
5.94577,41545
5.95390,43175
5.96202,42277
5.97013,41822
5.97827,40950
5.98638,46612
5.99452,42318
6.00263,42826
6.01075,39242
6.01888,42617
6.02700,44994
6.03512,40935
6.04325,42377
6.05137,42947
6.05950,45009
6.06762,41235
6.07573,40137
6.08387,42007
6.09198,40840
6.10012,47630
6.10823,46400
6.11635,42673
6.12448,43309
6.13260,50739
6.14073,50440
6.14885,52003
6.15697,50365
6.16510,51396
6.17322,57556
6.18133,58942
6.18947,59618
6.19758,63772
6.20572,62167
6.21383,63162
6.22195,62852
6.23008,51930
6.23820,51251
6.24633,52528
6.25445,52838
6.26257,50259
6.27070,49328
6.27882,53793
6.28693,59466
6.29507,54580
6.30318,51192
6.31132,45594
6.31943,48098
6.32755,47167
6.33568,45853
6.34380,47250
6.35193,48861
6.36005,43264
6.36817,47553
6.37630,45414
6.38442,48416
6.39255,55252
6.40067,43206
6.40878,41383
6.41692,47140
6.42503,46204
6.43315,42611
6.44128,49182
6.44940,46179
6.45753,44035
6.46565,43513
6.47377,41180
6.48190,45516
6.49002,42182
6.49815,45051
6.50627,43854
6.51438,43392
6.52252,42845
6.53063,43903
6.53875,41477
6.54688,44384
6.55500,43572
6.56313,41793
6.57125,41116
6.57937,44774
6.58750,42359
6.59562,45264
6.60375,41074
6.61187,40682
6.61998,44730
6.62812,41635
6.63623,41693
6.64437,44378
6.65248,43600
6.66060,44364
6.66873,41647
6.67685,41816
6.68497,42743
6.69310,43065
6.70122,42292
6.70935,40317
6.71747,38025
6.72558,38820
6.73372,38823
6.74183,39187
6.74997,41379
6.75808,42358
6.76620,40837
6.77433,40445
6.78245,41199
6.79058,38471
6.79870,40213
6.80682,38620
6.81495,38233
6.82307,38195
6.83118,41571
6.83932,43456
6.84743,36763
6.85557,37900
6.86368,35444
6.87180,37411
6.87993,33698
6.88805,30581
6.89618,30634
6.90430,31210
6.91242,32853
6.92055,34762
6.92867,31454
6.93678,36802
6.94492,33803
6.95303,33040
6.96117,30591
6.96928,32409
6.97740,33164
6.98553,31376
6.99365,30852
7.00178,29977
7.00990,35874
7.01802,35988
7.02615,34114
7.03427,32106
7.04240,31129
7.05052,30957
7.05863,30122
7.06677,31533
7.07488,31130
7.08300,30244
7.09113,30372
7.09925,30027
7.10738,31135
7.11550,30612
7.12362,27349
7.13175,31420
7.13987,29665
7.14800,29783
7.15612,31561
7.16423,30178
7.17237,30017
7.18048,32915
7.18862,29940
7.19673,30193
7.20485,32194
7.21298,31335
7.22110,30900
7.22922,33639
7.23735,31293
7.24547,28610
7.25360,27878
7.26172,25921
7.26983,34095
7.27797,32498
7.28608,28672
7.29422,30179
7.30233,29916
7.31045,31402
7.31858,29243
7.32670,30282
7.33482,29248
7.34295,30248
7.35107,33985
7.35920,31173
7.36732,30872
7.37543,31156
7.38357,30914
7.39168,29418
7.39982,30599
7.40793,33778
7.41605,30715
7.42418,32206
7.43230,28867
7.44043,32055
7.44855,37279
7.45667,31083
7.46480,31183
7.47292,31283
7.48103,31246
7.48917,32309
7.49728,30355
7.50542,32089
7.51353,32895
7.52165,33469
7.52978,28277
7.53790,30986
7.54603,29174
7.55415,26388
7.56227,32467
7.57040,31884
7.57852,29489
7.58663,29482
7.59477,35332
7.60288,32538
7.61102,32414
7.61913,30526
7.62725,28505
7.63538,28023
7.64350,28366
7.65163,28748
7.65975,35054
7.66787,32153
7.67600,31608
7.68412,31609
7.69225,27144
7.70037,26918
7.70848,32048
7.71662,31105
7.72473,29920
7.73285,28159
7.74098,26170
7.74910,30534
7.75723,32910
7.76535,29542
7.77347,30642
7.78160,28818
7.78972,32227
7.79785,30302
7.80597,29442
7.81408,29461
7.82222,28488
7.83033,28513
7.83847,28817
7.84658,28654
7.85470,27151
7.86283,32645
7.87095,30537
7.87907,29004
7.88720,25912
7.89532,26837
7.90345,27164
7.91157,25679
7.91968,27947
7.92782,28405
7.93593,25540
7.94407,29813
7.95218,28874
7.96030,28107
7.96843,31234
7.97655,27338
7.98467,29003
7.99280,25806
8.00092,30972
8.00905,27989
8.01717,27731
8.02528,31365
8.03342,31410
8.04153,29395
8.04967,32146
8.05778,28870
8.06590,35346
8.07403,29856
8.08215,24773
8.09028,28602
8.09840,28825
8.10652,28069
8.11465,28827
8.12277,29958
8.13088,26638
8.13902,29067
8.14713,26374
8.15527,28488
8.16338,24929
8.17150,28111
8.17963,29200
8.18775,26620
8.19588,31691
8.20400,27495
8.21212,28501
8.22025,26112
8.22837,30901
8.23650,29309
8.24462,29566
8.25273,30419
8.26087,27668
8.26898,29134
8.27710,26459
8.28523,27871
8.29335,30767
8.30148,31744
8.30960,32402
8.31772,31257
8.32585,35591
8.33397,33435
8.34210,33902
8.35022,36764
8.35833,33180
8.36647,35056
8.37458,32503
8.38270,36328
8.39083,33627
8.39895,36368
8.40708,36970
8.41520,38665
8.42332,37359
8.43145,37665
8.43957,41172
8.44770,39939
8.45582,37654
8.46393,36236
8.47207,39135
8.48018,39056
8.48832,41487
8.49643,39238
8.50455,37161
8.51268,40742
8.52080,40332
8.52892,41153
8.53705,38957
8.54517,36458
8.55330,42228
8.56142,42986
8.56953,37069
8.57767,37790
8.58578,36733
8.59392,35794
8.60203,34920
8.61015,38969
8.61828,38862
8.62640,35033
8.63452,40171
8.64265,36702
8.65077,38917
8.65890,39149
8.66702,39743
8.67513,36764
8.68327,36679
8.69138,40184
8.69952,38601
8.70763,34572
8.71575,38815
8.72388,36355
8.73200,35910
8.74013,33996
8.74825,35657
8.75637,36541
8.76450,34015
8.77262,31876
8.78073,34082
8.78887,35456
8.79698,39331
8.80512,41659
8.81323,54188
8.82135,56725
8.82948,55513
8.83760,54239
8.84573,54620
8.85385,52239
8.86197,50151
8.87010,46774
8.87822,45672
8.88635,41774
8.89447,42244
8.90258,46733
8.91072,41275
8.91883,42418
8.92695,39958
8.93508,42572
8.94320,41782
8.95133,45273
8.95945,44219
8.96757,41589
8.97570,44143
8.98382,43113
8.99195,41602
9.00007,40945
9.00818,38297
9.01632,39431
9.02443,36994
9.03255,37831
9.04068,46560
9.04880,39583
9.05693,42377
9.06505,36166
9.07317,36720
9.08130,39561
9.08942,39485
9.09755,37192
9.10567,40750
9.11378,40165
9.12192,37010
9.13003,40216
9.13817,36557
9.14628,37291
9.15440,32681
9.16253,33869
9.17065,36992
9.17877,36689
9.18690,36152
9.19502,36599
9.20315,39468
9.21127,36001
9.21938,35808
9.22752,37128
9.23563,40357
9.24377,37978
9.25188,31894
9.26000,34980
9.26813,32343
9.27625,36211
9.28438,35879
9.29250,35968
9.30062,34114
9.30875,32664
9.31687,32333
9.32498,37107
9.33312,32678
9.34123,34499
9.34937,33923
9.35748,34591
9.36560,37646
9.37373,29968
9.38185,30455
9.38998,30529
9.39810,35173
9.40622,32317
9.41435,32263
9.42247,34592
9.43058,34235
9.43872,31522
9.44683,31784
9.45497,31760
9.46308,31693
9.47120,29297
9.47933,33341
9.48745,32153
9.49558,26449
9.50370,28491
9.51182,29961
9.51995,29122
9.52807,28728
9.53620,31901
9.54432,29003
9.55243,28115
9.56057,26621
9.56868,27154
9.57680,25287
9.58493,29266
9.59305,30852
9.60118,28074
9.60930,24335
9.61742,25734
9.62555,28160
9.63367,30076
9.64180,30511
9.64992,24745
9.65803,25345
9.66617,24651
9.67428,23344
9.68242,26255
9.69053,24445
9.69865,26252
9.70678,24444
9.71490,22560
9.72302,23491
9.73115,24805
9.73927,26045
9.74740,23011
9.75552,25931
9.76363,26671
9.77177,23560
9.77988,23163
9.78802,21954
9.79613,24947
9.80425,26583
9.81238,27624
9.82050,26790
9.82862,23108
9.83675,30783
9.84487,24436
9.85300,28295
9.86112,23145
9.86923,23268
9.87737,22647
9.88548,23290
9.89362,21454
9.90173,22699
9.90985,23000
9.91798,22221
9.92610,22731
9.93423,29117
9.94235,24516
9.95047,24526
9.95860,25055
9.96672,24657
9.97483,23192
9.98297,24676
9.99108,22595
9.99922,24504
10.00733,24312
10.01545,24089
10.02358,24508
10.03170,23852
10.03983,25911
10.04795,28393
10.05607,23712
10.06420,23879
10.07232,23666
10.08043,21988
10.08857,25037
10.09668,22950
10.10482,21296
10.11293,26567
10.12105,22910
10.12918,21893
10.13730,23592
10.14543,19917
10.15355,22434
10.16167,20174
10.16980,24816
10.17792,21067
10.18605,21327
10.19417,22295
10.20228,25620
10.21042,26630
10.21853,26211
10.22665,22484
10.23478,25531
10.24290,22449
10.25103,23292
10.25915,24984
10.26727,21691
10.27540,26550
10.28352,25679
10.29165,22912
10.29977,23535
10.30788,22584
10.31602,24438
10.32413,21971
10.33227,20696
10.34038,23769
10.34850,24225
10.35663,23609
10.36475,24292
10.37287,23536
10.38100,27330
10.38912,26153
10.39725,23409
10.40537,22317
10.41348,22333
10.42162,21638
10.42973,25150
10.43787,24447
10.44598,23584
10.45410,22295
10.46223,22593
10.47035,21346
10.47848,21078
10.48660,20544
10.49472,21249
10.50285,23480
10.51097,22141
10.51908,24481
10.52722,19635
10.53533,23231
10.54347,22211
10.55158,25254
10.55970,27042
10.56783,21437
10.57595,23257
10.58408,23820
10.59220,22419
10.60032,24027
10.60845,22138
10.61657,25119
10.62468,25793
10.63282,23669
10.64093,19643
10.64907,19864
10.65718,22991
10.66530,24447
10.67343,20664
10.68155,20385
10.68968,23279
10.69780,22355
10.70592,22869
10.71405,22042
10.72217,23092
10.73030,22730
10.73842,23744
10.74653,24505
10.75467,24231
10.76278,24835
10.77090,24060
10.77903,25613
10.78715,20917
10.79528,20451
10.80340,19756
10.81152,20949
10.81965,21169
10.82777,21122
10.83590,21835
10.84402,22444
10.85213,23101
10.86027,24159
10.86838,21434
10.87650,21512
10.88463,21244
10.89275,20618
10.90088,22476
10.90900,21106
10.91712,21179
10.92525,27379
10.93337,20819
10.94150,23697
10.94962,20700
10.95773,20569
10.96587,21261
10.97398,23960
10.98212,26132
10.99023,20766
10.99835,19813
11.00648,21001
11.01460,22953
11.02272,18428
11.03085,19139
11.03897,23378
11.04710,24895
11.05522,24002
11.06333,19747
11.07147,22702
11.07958,20804
11.08772,22805
11.09583,21268
11.10395,23477
11.11208,26040
11.12020,22651
11.12833,18999
11.13645,19278
11.14457,19957
11.15270,21532
11.16082,22357
11.16893,26595
11.17707,19146
11.18518,18818
11.19332,21596
11.20143,21289
11.20955,21980
11.21768,21260
11.22580,27942
11.23393,21468
11.24205,21878
11.25017,18324
11.25830,27324
11.26642,22053
11.27453,23322
11.28267,20875
11.29078,22692
11.29892,25373
11.30703,21114
11.31515,19725
11.32328,22002
11.33140,25177
11.33953,20098
11.34765,18901
11.35577,26772
11.36390,23324
11.37202,21992
11.38015,22714
11.38827,18415
11.39638,20919
11.40452,21898
11.41263,21077
11.42075,23170
11.42888,24763
11.43700,21162
11.44513,21429
11.45325,22458
11.46137,22134
11.46950,19800
11.47762,24385
11.48575,22553
11.49387,26972
11.50198,21240
11.51012,22421
11.51823,18222
11.52637,20280
11.53448,23465
11.54260,20138
11.55073,20959
11.55885,20547
11.56697,21062
11.57510,21778
11.58322,20821
11.59135,21769
11.59947,21037
11.60758,21060
11.61572,19984
11.62383,20147
11.63197,19959
11.64008,21210
11.64820,20849
11.65633,20862
11.66445,18986
11.67257,19854
11.68070,19832
11.68882,19260
11.69695,19719
11.70507,23565
11.71318,20051
11.72132,22280
11.72943,21004
11.73757,24550
11.74568,24845
11.75380,21231
11.76193,24481
11.77005,22078
11.77818,24865
11.78630,23480
11.79442,23356
11.80255,21038
11.81067,24287
11.81878,22259
11.82692,24974
11.83503,21363
11.84317,24095
11.85128,21013
11.85940,22389
11.86753,24239
11.87565,21073
11.88378,22661
11.89190,21260
11.90002,22850
11.90815,22043
11.91627,20155
11.92438,24832
11.93252,25019
11.94063,22086
11.94877,25052
11.95688,21307
11.96500,24663
11.97313,23895
11.98125,21955
11.98938,24877
11.99750,23432
12.00562,26730
12.01375,23629
12.02187,23413
12.03000,21222
12.03812,24195
12.04623,22704
12.05437,20300
12.06248,22874
12.07060,23435
12.07873,22801
12.08685,25120
12.09498,19395
12.10310,20476
12.11122,19941
12.11935,19892
12.12747,21881
12.13560,26571
12.14372,20767
12.15183,23235
12.15997,21455
12.16808,20443
12.17622,23829
12.18433,25172
12.19245,18837
12.20058,20065
12.20870,23816
12.21682,21375
12.22495,21000
12.23307,22652
12.24120,22436
12.24932,23339
12.25743,23302
12.26557,21969
12.27368,20024
12.28182,20969
12.28993,18349
12.29805,21468
12.30618,18051
12.31430,19492
12.32242,20166
12.33055,21662
12.33867,24908
12.34680,23212
12.35492,18382
12.36303,25889
12.37117,21457
12.37928,22932
12.38742,21619
12.39553,20917
12.40365,20666
12.41178,19322
12.41990,22078
12.42803,20558
12.43615,22244
12.44427,19533
12.45240,20473
12.46052,21580
12.46863,22722
12.47677,22915
12.48488,17843
12.49302,20651
12.50113,20829
12.50925,21730
12.51738,23796
12.52550,21719
12.53363,26649
12.54175,22034
12.54987,20493
12.55800,19444
12.56612,20093
12.57425,22869
12.58237,20951
12.59048,22281
12.59862,21133
12.60673,18404
12.61485,20532
12.62298,19759
12.63110,22043
12.63923,19987
12.64735,19506
12.65547,25022
12.66360,21326
12.67172,21940
12.67985,21894
12.68797,19674
12.69608,19984
12.70422,25569
12.71233,20674
12.72045,22714
12.72858,19857
12.73670,20571
12.74483,18673
12.75295,19464
12.76107,20873
12.76920,23742
12.77732,19960
12.78545,20551
12.79357,22424
12.80168,25323
12.80982,23360
12.81793,19567
12.82607,19967
12.83418,19540
12.84230,20726
12.85043,19264
12.85855,22537
12.86667,20541
12.87480,25332
12.88292,20604
12.89105,19573
12.89917,18216
12.90728,26414
12.91542,20994
12.92353,21460
12.93167,21603
12.93978,20580
12.94790,22867
12.95603,20420
12.96415,19682
12.97228,18702
12.98040,23188
12.98852,20427
12.99665,20405
13.00477,27949
13.01288,23553
13.02102,24114
13.02913,19515
13.03727,19384
13.04538,20482
13.05350,20124
13.06163,21396
13.06975,23763
13.07788,21599
13.08600,21337
13.09412,22342
13.10225,22108
13.11037,20969
13.11848,20391
13.12662,21193
13.13473,19642
13.14287,22646
13.15098,22935
13.15910,19159
13.16723,19568
13.17535,20656
13.18348,20469
13.19160,24085
13.19972,22764
13.20785,20487
13.21597,21099
13.22410,21689
13.23222,21036
13.24033,22647
13.24847,23717
13.25658,18542
13.26470,21597
13.27283,19287
13.28095,21485
13.28908,21878
13.29720,19342
13.30532,22570
13.31345,18664
13.32157,17401
13.32970,20072
13.33782,18454
13.34593,19207
13.35407,16999
13.36218,20366
13.37030,20536
13.37843,18011
13.38655,19968
13.39468,21066
13.40280,22330
13.41092,19047
13.41905,23119
13.42717,22448
13.43530,19949
13.44342,18581
13.45153,19180
13.45967,16982
13.46778,20102
13.47592,19677
13.48403,20368
13.49215,17523
13.50028,18648
13.50840,20802
13.51652,20531
13.52465,21369
13.53277,18717
13.54090,19771
13.54902,22523
13.55713,21974
13.56527,20998
13.57338,20247
13.58152,25562
13.58963,21709
13.59775,20365
13.60588,20752
13.61400,19927
13.62213,21914
13.63025,18614
13.63837,20408
13.64650,20080
13.65462,20206
13.66273,19232
13.67087,19847
13.67898,18440
13.68712,15865
13.69523,17877
13.70335,19712
13.71148,16889
13.71960,16639
13.72773,19130
13.73585,21200
13.74397,20409
13.75210,21488
13.76022,20719
13.76833,20463
13.77647,20437
13.78458,21835
13.79272,21878
13.80083,23033
13.80895,20092
13.81708,18713
13.82520,19827
13.83333,18598
13.84145,18040
13.84957,19298
13.85770,19810
13.86582,20293
13.87395,18029
13.88207,22965
13.89018,19193
13.89832,19061
13.90643,21372
13.91455,20507
13.92268,20151
13.93080,16008
13.93893,22534
13.94705,20031
13.95517,18055
13.96330,18552
13.97142,18583
13.97955,21289
13.98767,20568
13.99578,21060
14.00392,21234
14.01203,18773
14.02017,19203
14.02828,19291
14.03640,20828
14.04453,25926
14.05265,19359
14.06077,20033
14.06890,18188
14.07702,19471
14.08515,18735
14.09327,22627
14.10138,21586
14.10952,21338
14.11763,21201
14.12577,22088
14.13388,20027
14.14200,20084
14.15013,16307
14.15825,20320
14.16637,21474
14.17450,20691
14.18262,22710
14.19075,22201
14.19887,23417
14.20698,25121
14.21512,26984
14.22323,31608
14.23137,35801
14.23948,36644
14.24760,36534
14.25573,32955
14.26385,31761
14.27198,28815
14.28010,30349
14.28822,27557
14.29635,28053
14.30447,29528
14.31258,26911
14.32072,25750
14.32883,29440
14.33697,27919
14.34508,28688
14.35320,27538
14.36133,22671
14.36945,24429
14.37758,25799
14.38570,23027
14.39382,21032
14.40195,20452
14.41007,20970
14.41818,23090
14.42632,22035
14.43443,18775
14.44257,21778
14.45068,21597
14.45880,22791
14.46693,23577
14.47505,21612
14.48318,20694
14.49130,19631
14.49942,20750
14.50755,21013
14.51567,23342
14.52380,21137
14.53192,22953
14.54003,20799
14.54817,21459
14.55628,20865
14.56440,22186
14.57253,20742
14.58065,21074
14.58878,19426
14.59690,19689
14.60502,18195
14.61315,22244
14.62127,19730
14.62940,22345
14.63752,19214
14.64563,23063
14.65377,21745
14.66188,20382
14.67002,19809
14.67813,18357
14.68625,20704
14.69438,18748
14.70250,22186
14.71062,17252
14.71875,19147
14.72687,19560
14.73500,20579
14.74312,20053
14.75123,20512
14.75937,21840
14.76748,21758
14.77562,20721
14.78373,19042
14.79185,19192
14.79998,16377
14.80810,22401
14.81622,21312
14.82435,17563
14.83247,17177
14.84060,20578
14.84872,17741
14.85683,20862
14.86497,21431
14.87308,21216
14.88122,22211
14.88933,21423
14.89745,21027
14.90558,20241
14.91370,21995
14.92183,22005
14.92995,23447
14.93807,22865
14.94620,26755
14.95432,20599
14.96243,20098
14.97057,23676
14.97868,19574
14.98682,23843
14.99493,21497
15.00305,25667
15.01118,23798
15.01930,22218
15.02743,24030
15.03555,21277
15.04367,24627
15.05180,20737
15.05992,22932
15.06805,22312
15.07617,20341
15.08428,19756
15.09242,20893
15.10053,21484
15.10865,20395
15.11678,19092
15.12490,18967
15.13303,20743
15.14115,27765
15.14927,20479
15.15740,21514
15.16552,23186
15.17365,23594
15.18177,26192
15.18988,21762
15.19802,20789
15.20613,21118
15.21425,19754
15.22238,21869
15.23050,19120
15.23863,21742
15.24675,21420
15.25487,22490
15.26300,17999
15.27112,23073
15.27925,19730
15.28737,18013
15.29548,21696
15.30362,20297
15.31173,20582
15.31987,20046
15.32798,17830
15.33610,24916
15.34423,20136
15.35235,20068
15.36047,21789
15.36860,20349
15.37672,21829
15.38485,22190
15.39297,19297
15.40108,22231
15.40922,19490
15.41733,20601
15.42547,20758
15.43358,20011
15.44170,20565
15.44983,20380
15.45795,24965
15.46607,19324
15.47420,19370
15.48232,19335
15.49045,21173
15.49857,21371
15.50668,19694
15.51482,20531
15.52293,20170
15.53107,25239
15.53918,20940
15.54730,21930
15.55543,26167
15.56355,18349
15.57168,18339
15.57980,19407
15.58792,19411
15.59605,24128
15.60417,19518
15.61228,18626
15.62042,17580
15.62853,19608
15.63667,26660
15.64478,23684
15.65290,19938
15.66103,22401
15.66915,21528
15.67728,18688
15.68540,20525
15.69352,21320
15.70165,19379
15.70977,19819
15.71790,19816
15.72602,22635
15.73413,21538
15.74227,21385
15.75038,23082
15.75850,21520
15.76663,21525
15.77475,23084
15.78288,19655
15.79100,21081
15.79912,22042
15.80725,21612
15.81537,20850
15.82350,18602
15.83162,23221
15.83973,18836
15.84787,20322
15.85598,20877
15.86412,19483
15.87223,23144
15.88035,21474
15.88848,23838
15.89660,21984
15.90472,22258
15.91285,18471
15.92097,19751
15.92910,21496
15.93722,21448
15.94533,23468
15.95347,20891
15.96158,22353
15.96972,22703
15.97783,22960
15.98595,24182
15.99408,24085
16.00220,22140
16.01032,22428
16.01845,24342
16.02657,22231
16.03470,23443
16.04282,21559
16.05093,24993
16.05907,21807
16.06718,19385
16.07532,21227
16.08343,19822
16.09155,21356
16.09968,20680
16.10780,21101
16.11593,21775
16.12405,22344
16.13217,23980
16.14030,21025
16.14842,20759
16.15653,19839
16.16467,20051
16.17278,17470
16.18092,21579
16.18903,23402
16.19715,20771
16.20528,22972
16.21340,24221
16.22153,20748
16.22965,20914
16.23777,22605
16.24590,19748
16.25402,23985
16.26213,20039
16.27027,24524
16.27838,20226
16.28652,18253
16.29463,22752
16.30275,21581
16.31088,22841
16.31900,23054
16.32713,22871
16.33525,23314
16.34337,21698
16.35150,22566
16.35962,24789
16.36775,19493
16.37587,21852
16.38398,23376
16.39212,22366
16.40023,19750
16.40835,20150
16.41648,22211
16.42460,21442
16.43273,19649
16.44085,22222
16.44897,19115
16.45710,22305
16.46522,21772
16.47335,19721
16.48147,23586
16.48958,22515
16.49772,23891
16.50583,22862
16.51397,23342
16.52208,21015
16.53020,21982
16.53833,24373
16.54645,19944
16.55457,22853
16.56270,24393
16.57082,23792
16.57895,23878
16.58707,20950
16.59518,23855
16.60332,19587
16.61143,22514
16.61957,25047
16.62768,21801
16.63580,23734
16.64393,21331
16.65205,21035
16.66017,23040
16.66830,25971
16.67642,20843
16.68455,21715
16.69267,22288
16.70078,18753
16.70892,24319
16.71703,19769
16.72517,17334
16.73328,19355
16.74140,20882
16.74953,21135
16.75765,23675
16.76578,22450
16.77390,24260
16.78202,21414
16.79015,23359
16.79827,21692
16.80638,19776
16.81452,17773
16.82263,18681
16.83077,20403
16.83888,20119
16.84700,20771
16.85513,20708
16.86325,19108
16.87138,22507
16.87950,25764
16.88762,23151
16.89575,25580
16.90387,19970
16.91200,21510
16.92012,22199
16.92823,20654
16.93637,21729
16.94448,21858
16.95260,23975
16.96073,22622
16.96885,21254
16.97698,19711
16.98510,20563
16.99322,24238
17.00135,23096
17.00947,21513
17.01760,22948
17.02572,20445
17.03383,20628
17.04197,21570
17.05008,21727
17.05820,20982
17.06633,21154
17.07445,22959
17.08258,21393
17.09070,22771
17.09882,21091
17.10695,22513
17.11507,23885
17.12320,21972
17.13132,22866
17.13943,20932
17.14757,21268
17.15568,22931
17.16382,19490
17.17193,22919
17.18005,18565
17.18818,21355
17.19630,20500
17.20442,19063
17.21255,20362
17.22067,21744
17.22880,26745
17.23692,22327
17.24503,19374
17.25317,21758
17.26128,25544
17.26942,24212
17.27753,20384
17.28565,21966
17.29378,23276
17.30190,22199
17.31002,21545
17.31815,20002
17.32627,18784
17.33440,18454
17.34252,23208
17.35063,19487
17.35877,21826
17.36688,21331
17.37502,24719
17.38313,28428
17.39125,28158
17.39938,25172
17.40750,22681
17.41563,23769
17.42375,22156
17.43187,22391
17.44000,25034
17.44812,25174
17.45623,24342
17.46437,24801
17.47248,25250
17.48062,26213
17.48873,24120
17.49685,23680
17.50498,23748
17.51310,20535
17.52123,23925
17.52935,20726
17.53747,22147
17.54560,22125
17.55372,23040
17.56185,22030
17.56997,22565
17.57808,24363
17.58622,21764
17.59433,21236
17.60245,22313
17.61058,24088
17.61870,25632
17.62683,22786
17.63495,22239
17.64307,27000
17.65120,24611
17.65932,24406
17.66745,23464
17.67557,23132
17.68368,24711
17.69182,26959
17.69993,23829
17.70805,23081
17.71618,25692
17.72430,23753
17.73243,22518
17.74055,22255
17.74867,23822
17.75680,21920
17.76492,20777
17.77305,22495
17.78117,21796
17.78928,25259
17.79742,23697
17.80553,23003
17.81367,24042
17.82178,23572
17.82990,25140
17.83803,28922
17.84615,25157
17.85427,25371
17.86240,25986
17.87052,22155
17.87865,25324
17.88677,28086
17.89488,22614
17.90302,25151
17.91113,21460
17.91927,23877
17.92738,23256
17.93550,22501
17.94363,19703
17.95175,22349
17.95988,20717
17.96800,22519
17.97612,23193
17.98425,28208
17.99237,20352
18.00048,20027
18.00862,22336
18.01673,21581
18.02487,24186
18.03298,24303
18.04110,22590
18.04923,21293
18.05735,21396
18.06548,25672
18.07360,25396
18.08172,22469
18.08985,20228
18.09797,24252
18.10608,23493
18.11422,23458
18.12233,23375
18.13047,23088
18.13858,26257
18.14670,26800
18.15483,24710
18.16295,23580
18.17108,28365
18.17920,25613
18.18732,24504
18.19545,28450
18.20357,26053
18.21170,22310
18.21982,22434
18.22793,25494
18.23607,25823
18.24418,26304
18.25230,26512
18.26043,26524
18.26855,26139
18.27668,25189
18.28480,25954
18.29292,26450
18.30105,23362
18.30917,24338
18.31730,28575
18.32542,22166
18.33353,21610
18.34167,25567
18.34978,20130
18.35792,17217
18.36603,19884
18.37415,20038
18.38228,17706
18.39040,22862
18.39852,22528
18.40665,19655
18.41477,20577
18.42290,19771
18.43102,23615
18.43913,21298
18.44727,20326
18.45538,21258
18.46352,24923
18.47163,22946
18.47975,23190
18.48788,18388
18.49600,22476
18.50412,19528
18.51225,24387
18.52037,25202
18.52850,22933
18.53662,21100
18.54473,20335
18.55287,20528
18.56098,20827
18.56912,22592
18.57723,19147
18.58535,18978
18.59348,22347
18.60160,23474
18.60973,21279
18.61785,23203
18.62597,22242
18.63410,22648
18.64222,23220
18.65033,22398
18.65847,24064
18.66658,21134
18.67472,21822
18.68283,22637
18.69095,25474
18.69908,21661
18.70720,21968
18.71533,22102
18.72345,22579
18.73157,21764
18.73970,21712
18.74782,20692
18.75593,24061
18.76407,22270
18.77218,22574
18.78032,21303
18.78843,22193
18.79655,21493
18.80468,21489
18.81280,21888
18.82093,23593
18.82905,20560
18.83717,24454
18.84530,21237
18.85342,19445
18.86155,22300
18.86967,24036
18.87778,24406
18.88592,25219
18.89403,19294
18.90215,20121
18.91028,22322
18.91840,22431
18.92653,22683
18.93465,20828
18.94277,21248
18.95090,26824
18.95902,20934
18.96715,21013
18.97527,21725
18.98338,23910
18.99152,21894
18.99963,21719
19.00777,22667
19.01588,21592
19.02400,25165
19.03213,27665
19.04025,24882
19.04837,25617
19.05650,20783
19.06462,20816
19.07275,20321
19.08087,20617
19.08898,26360
19.09712,25231
19.10523,28018
19.11337,24733
19.12148,25143
19.12960,23648
19.13773,24211
19.14585,28149
19.15397,25387
19.16210,25550
19.17022,24236
19.17835,24200
19.18647,24320
19.19458,27041
19.20272,24653
19.21083,23965
19.21897,23567
19.22708,23191
19.23520,23609
19.24333,25264
19.25145,24303
19.25958,22382
19.26770,22008
19.27582,23864
19.28395,23825
19.29207,28643
19.30018,21860
19.30832,22511
19.31643,27322
19.32457,25301
19.33268,24801
19.34080,23768
19.34893,24289
19.35705,21755
19.36518,24781
19.37330,22056
19.38142,28325
19.38955,22007
19.39767,26248
19.40580,24936
19.41392,24647
19.42203,22973
19.43017,23279
19.43828,25175
19.44640,26089
19.45453,24459
19.46265,23853
19.47078,22616
19.47890,26048
19.48702,23874
19.49515,24897
19.50327,25640
19.51140,30197
19.51952,31333
19.52763,32556
19.53577,34391
19.54388,38758
19.55200,32798
19.56013,28983
19.56825,26875
19.57638,25893
19.58450,23074
19.59262,22164
19.60075,22963
19.60887,23506
19.61700,27203
19.62512,29120
19.63323,22791
19.64137,22417
19.64948,22522
19.65762,26912
19.66573,28052
19.67385,27734
19.68198,29623
19.69010,32851
19.69822,33918
19.70635,29013
19.71447,30437
19.72260,29700
19.73072,26197
19.73883,25811
19.74697,26262
19.75508,24936
19.76322,25553
19.77133,24620
19.77945,25134
19.78758,23910
19.79570,22515
19.80382,22195
19.81195,22159
19.82007,21346
19.82820,24007
19.83632,22813
19.84443,23211
19.85257,23564
19.86068,27135
19.86882,23227
19.87693,24172
19.88505,23383
19.89318,25328
19.90130,26553
19.90943,32989
19.91755,37684
19.92567,32474
19.93380,36595
19.94192,30545
19.95003,29487
19.95817,30568
19.96628,29089
19.97442,31965
19.98253,27171
19.99065,28675
19.99878,28942
20.00690,29028
20.01503,28144
20.02315,28936
20.03127,25933
20.03940,28612
20.04752,27235
20.05565,24663
20.06377,23696
20.07188,22750
20.08002,24156
20.08813,22947
20.09625,23851
20.10438,24254
20.11250,23542
20.12063,25021
20.12875,26496
20.13687,25727
20.14500,28083
20.15312,23131
20.16125,23431
20.16937,25976
20.17748,25084
20.18562,23106
20.19373,23811
20.20187,24430
20.20998,24952
20.21810,24493
20.22623,29723
20.23435,22881
20.24247,21835
20.25060,25559
20.25872,27912
20.26685,24223
20.27497,24292
20.28308,22422
20.29122,30062
20.29933,31361
20.30747,31321
20.31558,31827
20.32370,33242
20.33183,30367
20.33995,28357
20.34807,25693
20.35620,26336
20.36432,23882
20.37245,23428
20.38057,21471
20.38868,24186
20.39682,21581
20.40493,24185
20.41307,21849
20.42118,23557
20.42930,21550
20.43743,29695
20.44555,24056
20.45368,24913
20.46180,26843
20.46992,23813
20.47805,25103
20.48617,24116
20.49428,24517
20.50242,25063
20.51053,23380
20.51867,20522
20.52678,24876
20.53490,20722
20.54303,24161
20.55115,21722
20.55928,21732
20.56740,20670
20.57552,22478
20.58365,24995
20.59177,24329
20.59988,23817
20.60802,22596
20.61613,24427
20.62427,24022
20.63238,23569
20.64050,25467
20.64863,23817
20.65675,21311
20.66488,23929
20.67300,23123
20.68112,23226
20.68925,23653
20.69737,24648
20.70550,24518
20.71362,23251
20.72173,22595
20.72987,21259
20.73798,20917
20.74610,24089
20.75423,22277
20.76235,23538
20.77048,21977
20.77860,22108
20.78672,23482
20.79485,21451
20.80297,25023
20.81110,20024
20.81922,25228
20.82733,26456
20.83547,22741
20.84358,21911
20.85172,22906
20.85983,21902
20.86795,21611
20.87608,19571
20.88420,19543
20.89232,23400
20.90045,23709
20.90857,20087
20.91670,18922
20.92482,22506
20.93293,23479
20.94107,24669
20.94918,20633
20.95732,20395
20.96543,20672
20.97355,23952
20.98168,23442
20.98980,20142
20.99792,24278
21.00605,23938
21.01417,22064
21.02230,25040
21.03042,22144
21.03853,22725
21.04667,26120
21.05478,24842
21.06292,24344
21.07103,26810
21.07915,25625
21.08728,25350
21.09540,23761
21.10353,22899
21.11165,21854
21.11977,23940
21.12790,26357
21.13602,28763
21.14413,22092
21.15227,20807
21.16038,20139
21.16852,24804
21.17663,22983
21.18475,26326
21.19288,22475
21.20100,22450
21.20913,24572
21.21725,26317
21.22537,24762
21.23350,24464
21.24162,24244
21.24975,22891
21.25787,27654
21.26598,26511
21.27412,28825
21.28223,25665
21.29035,28560
21.29848,26329
21.30660,27932
21.31473,29604
21.32285,26481
21.33097,29774
21.33910,24525
21.34722,23190
21.35535,25788
21.36347,24239
21.37158,26777
21.37972,25609
21.38783,25049
21.39595,24610
21.40408,26248
21.41220,21723
21.42033,24879
21.42845,29414
21.43657,24163
21.44470,24518
21.45282,24767
21.46095,22850
21.46907,23663
21.47718,22713
21.48532,28283
21.49343,23000
21.50157,25992
21.50968,25582
21.51780,22551
21.52593,23796
21.53405,30756
21.54217,22169
21.55030,22536
21.55842,24780
21.56655,27520
21.57467,26806
21.58278,28057
21.59092,22898
21.59903,25487
21.60717,21855
21.61528,24535
21.62340,22366
21.63153,29613
21.63965,26137
21.64777,28079
21.65590,27139
21.66402,27298
21.67215,25009
21.68027,25190
21.68838,24942
21.69652,26744
21.70463,26831
21.71277,26976
21.72088,24407
21.72900,25925
21.73713,25836
21.74525,23632
21.75338,21682
21.76150,23178
21.76962,22569
21.77775,27476
21.78587,26973
21.79398,25787
21.80212,29222
21.81023,27662
21.81837,25669
21.82648,27592
21.83460,25575
21.84273,22008
21.85085,27037
21.85898,27424
21.86710,27352
21.87522,26384
21.88335,28239
21.89147,25929
21.89960,24795
21.90772,22057
21.91583,26080
21.92397,25994
21.93208,27759
21.94020,26632
21.94833,26112
21.95645,23283
21.96458,23258
21.97270,26557
21.98082,26796
21.98895,23537
21.99707,20768
22.00520,25271
22.01332,24130
22.02143,27561
22.02957,29627
22.03768,26471
22.04580,25573
22.05393,26765
22.06205,25308
22.07018,27522
22.07830,26998
22.08642,24887
22.09455,27391
22.10267,28963
22.11080,25186
22.11892,24653
22.12703,24203
22.13517,24285
22.14328,23626
22.15142,23967
22.15953,22792
22.16765,24743
22.17578,21779
22.18390,23052
22.19202,26221
22.20015,27879
22.20827,22275
22.21640,24510
22.22452,23913
22.23263,28770
22.24077,23929
22.24888,27250
22.25702,23729
22.26513,31234
22.27325,32171
22.28138,29575
22.28950,29212
22.29763,25100
22.30575,30637
22.31387,25553
22.32200,28829
22.33012,26431
22.33823,27978
22.34637,23937
22.35448,26339
22.36262,24339
22.37073,28397
22.37885,25613
22.38698,25558
22.39510,27031
22.40323,25655
22.41135,26520
22.41947,31989
22.42760,27252
22.43572,22133
22.44383,25358
22.45197,24543
22.46008,22442
22.46822,27001
22.47633,26156
22.48445,29390
22.49258,25969
22.50070,27571
22.50883,25662
22.51695,20458
22.52507,21846
22.53320,24435
22.54132,23014
22.54945,25954
22.55757,23919
22.56568,23264
22.57382,23967
22.58193,26250
22.59005,22881
22.59818,21694
22.60630,21495
22.61443,26483
22.62255,23065
22.63067,22795
22.63880,21581
22.64692,25067
22.65505,25560
22.66317,23433
22.67128,23477
22.67942,23941
22.68753,23490
22.69565,26348
22.70378,25864
22.71190,27440
22.72003,26204
22.72815,25054
22.73627,25377
22.74440,23825
22.75252,27832
22.76065,33324
22.76877,25209
22.77688,24541
22.78502,23342
22.79313,26249
22.80127,23324
22.80938,26602
22.81750,23604
22.82563,27404
22.83375,23152
22.84187,24651
22.85000,23750
22.85812,24861
22.86625,29135
22.87437,24068
22.88248,27506
22.89062,27804
22.89873,26627
22.90687,26713
22.91498,31240
22.92310,27960
22.93123,40509
22.93935,38798
22.94748,39560
22.95560,43882
22.96372,44475
22.97185,42531
22.97997,42707
22.98808,39847
22.99622,37347
23.00433,34633
23.01247,37484
23.02058,34372
23.02870,32074
23.03683,31554
23.04495,30977
23.05308,25482
23.06120,30399
23.06932,26317
23.07745,25175
23.08557,29381
23.09368,27517
23.10182,27978
23.10993,25685
23.11807,28283
23.12618,26494
23.13430,27523
23.14243,26790
23.15055,26350
23.15868,26991
23.16680,24951
23.17492,24199
23.18305,26173
23.19117,25475
23.19930,24808
23.20742,27430
23.21553,26152
23.22367,24473
23.23178,23965
23.23990,31481
23.24803,26353
23.25615,20864
23.26428,23745
23.27240,24606
23.28052,28636
23.28865,22983
23.29677,25339
23.30490,26361
23.31302,29899
23.32113,27969
23.32927,26728
23.33738,27303
23.34552,23135
23.35363,27960
23.36175,23971
23.36988,26226
23.37800,26540
23.38612,28096
23.39425,25611
23.40237,26646
23.41050,23535
23.41862,27554
23.42673,25440
23.43487,25340
23.44298,24016
23.45112,22083
23.45923,24265
23.46735,24600
23.47548,23747
23.48360,24301
23.49172,31652
23.49985,23549
23.50797,22811
23.51610,22877
23.52422,25919
23.53233,28647
23.54047,26003
23.54858,24138
23.55672,24561
23.56483,25241
23.57295,25866
23.58108,25579
23.58920,28352
23.59733,30785
23.60545,23679
23.61357,32749
23.62170,29095
23.62982,24817
23.63793,27608
23.64607,26836
23.65418,25714
23.66232,27343
23.67043,31778
23.67855,25962
23.68668,26520
23.69480,30268
23.70293,28149
23.71105,27491
23.71917,24886
23.72730,28155
23.73542,29801
23.74355,28098
23.75167,30513
23.75978,32813
23.76792,38010
23.77603,44798
23.78415,65936
23.79228,97949
23.80040,128898
23.80853,150460
23.81665,161798
23.82477,145691
23.83290,130982
23.84102,109846
23.84915,92499
23.85727,85226
23.86538,69153
23.87352,59958
23.88163,59706
23.88975,51762
23.89788,55431
23.90600,48964
23.91413,45532
23.92225,42787
23.93037,42675
23.93850,45925
23.94662,38891
23.95475,39516
23.96287,35509
23.97098,38298
23.97912,32769
23.98723,33526
23.99537,37680
24.00348,35967
24.01160,31703
24.01973,32348
24.02785,30655
24.03597,32725
24.04410,34927
24.05222,32986
24.06035,34775
24.06847,35619
24.07658,33466
24.08472,30317
24.09283,28076
24.10097,29659
24.10908,33264
24.11720,33563
24.12533,32200
24.13345,35778
24.14157,32035
24.14970,32408
24.15782,29257
24.16595,32161
24.17407,29005
24.18218,29595
24.19032,30600
24.19843,30745
24.20657,28207
24.21468,35529
24.22280,32620
24.23093,27776
24.23905,32591
24.24718,33159
24.25530,29150
24.26342,31705
24.27155,29288
24.27967,31387
24.28778,26504
24.29592,31759
24.30403,28872
24.31217,29831
24.32028,28364
24.32840,26589
24.33653,25696
24.34465,32449
24.35278,27505
24.36090,27931
24.36902,27070
24.37715,27909
24.38527,31454
24.39340,31641
24.40152,32224
24.40963,32996
24.41777,36574
24.42588,33727
24.43400,35638
24.44213,32428
24.45025,31863
24.45838,26794
24.46650,27289
24.47462,27133
24.48275,28954
24.49087,26489
24.49900,27584
24.50712,25552
24.51523,28467
24.52337,28387
24.53148,31330
24.53960,30820
24.54773,26798
24.55585,34370
24.56398,32666
24.57210,28696
24.58022,24953
24.58835,29599
24.59647,28752
24.60460,28425
24.61272,27002
24.62083,25145
24.62897,23448
24.63708,26302
24.64522,25882
24.65333,26781
24.66145,28762
24.66958,27088
24.67770,27391
24.68582,24553
24.69395,26840
24.70207,29023
24.71020,26998
24.71832,25311
24.72643,26998
24.73457,26041
24.74268,22920
24.75082,26740
24.75893,26296
24.76705,26346
24.77518,24837
24.78330,28656
24.79143,30361
24.79955,25668
24.80767,25454
24.81580,23129
24.82392,25929
24.83203,26189
24.84017,26000
24.84828,27091
24.85642,23979
24.86453,25957
24.87265,22822
24.88078,26854
24.88890,25676
24.89703,25769
24.90515,27139
24.91327,21696
24.92140,26252
24.92952,26483
24.93763,23977
24.94577,24778
24.95388,23819
24.96202,26715
24.97013,29355
24.97825,24350
24.98638,22249
24.99450,27260
25.00263,25682
25.01075,25995
25.01887,26253
25.02700,23846
25.03512,26548
25.04325,25658
25.05137,26988
25.05948,24792
25.06762,22609
25.07573,22562
25.08385,24343
25.09198,29344
25.10010,25766
25.10823,27531
25.11635,26832
25.12447,27102
25.13260,25880
25.14072,26755
25.14885,27959
25.15697,25831
25.16508,27449
25.17322,27434
25.18133,24981
25.18945,25934
25.19758,25062
25.20570,26756
25.21383,25910
25.22195,28479
25.23007,24840
25.23820,25798
25.24632,25113
25.25445,25524
25.26257,22628
25.27068,25554
25.27882,25975
25.28693,23465
25.29507,31515
25.30318,25684
25.31130,28469
25.31943,29723
25.32755,33262
25.33567,28531
25.34380,32332
25.35192,32697
25.36005,28172
25.36817,27047
25.37628,27525
25.38442,26203
25.39253,23048
25.40067,26976
25.40878,29324
25.41690,28710
25.42503,23634
25.43315,22517
25.44128,27787
25.44940,25660
25.45752,28137
25.46565,24869
25.47377,22651
25.48188,24280
25.49002,22738
25.49813,25055
25.50627,31561
25.51438,19918
25.52250,22482
25.53063,26617
25.53875,27066
25.54688,24040
25.55500,26135
25.56312,24963
25.57125,25415
25.57937,23791
25.58748,23675
25.59562,20977
25.60373,23949
25.61187,26899
25.61998,23098
25.62810,22431
25.63623,21079
25.64435,21998
25.65248,24394
25.66060,25599
25.66872,23113
25.67685,23839
25.68497,24314
25.69310,22322
25.70122,21266
25.70933,24070
25.71747,22274
25.72558,24699
25.73370,23288
25.74183,26171
25.74995,25544
25.75808,22357
25.76620,23538
25.77432,24112
25.78245,22646
25.79057,22287
25.79870,24661
25.80682,25777
25.81493,21459
25.82307,23346
25.83118,23719
25.83932,23287
25.84743,26550
25.85555,22771
25.86368,24146
25.87180,23703
25.87992,22313
25.88805,21380
25.89617,22247
25.90430,25517
25.91242,22078
25.92053,23088
25.92867,21707
25.93678,24926
25.94492,21094
25.95303,23123
25.96115,25408
25.96928,18524
25.97740,21297
25.98552,22761
25.99365,22190
26.00177,26959
26.00990,19835
26.01802,23704
26.02613,21805
26.03427,21267
26.04238,21581
26.05052,21531
26.05863,21229
26.06675,25034
26.07488,25735
26.08300,20858
26.09113,28279
26.09925,25858
26.10737,24200
26.11550,24124
26.12362,28706
26.13173,25390
26.13987,27590
26.14798,31710
26.15612,29067
26.16423,28976
26.17235,28978
26.18048,29206
26.18860,27979
26.19673,29576
26.20485,31212
26.21297,26075
26.22110,21675
26.22922,26237
26.23733,25008
26.24547,22419
26.25358,22139
26.26172,27766
26.26983,25957
26.27795,25237
26.28608,25584
26.29420,22935
26.30233,25958
26.31045,24162
26.31857,25429
26.32670,23697
26.33482,23154
26.34295,23336
26.35107,24897
26.35918,25242
26.36732,24403
26.37543,22312
26.38355,28025
26.39168,22344
26.39980,23043
26.40793,25408
26.41605,23993
26.42417,24011
26.43230,24072
26.44042,22838
26.44855,18632
26.45667,19605
26.46478,23275
26.47292,23465
26.48103,24940
26.48917,23131
26.49728,26611
26.50540,22364
26.51353,24462
26.52165,24245
26.52977,28300
26.53790,22555
26.54602,22050
26.55415,25378
26.56227,24683
26.57038,25726
26.57852,23347
26.58663,24299
26.59477,27648
26.60288,23978
26.61100,21605
26.61913,24528
26.62725,24549
26.63538,22564
26.64350,23071
26.65162,24617
26.65975,23105
26.66787,25074
26.67598,22703
26.68412,19944
26.69223,19940
26.70037,22492
26.70848,20908
26.71660,21597
26.72473,24618
26.73285,21546
26.74098,21309
26.74910,21500
26.75722,24255
26.76535,20638
26.77347,23248
26.78158,21184
26.78972,23213
26.79783,29437
26.80597,21397
26.81408,24332
26.82220,25999
26.83033,24626
26.83845,21437
26.84658,27106
26.85470,25509
26.86282,22760
26.87095,22241
26.87907,23422
26.88720,25917
26.89532,27920
26.90343,21729
26.91157,21357
26.91968,23368
26.92780,24554
26.93593,23268
26.94405,21999
26.95218,21864
26.96030,23061
26.96842,24248
26.97655,23737
26.98467,22736
26.99280,21973
27.00092,23398
27.00903,28225
27.01717,23961
27.02528,26279
27.03340,26687
27.04153,33859
27.04965,25653
27.05778,29172
27.06590,28643
27.07402,30107
27.08215,27036
27.09027,26011
27.09840,23715
27.10652,26724
27.11463,25405
27.12277,28211
27.13088,26051
27.13902,26889
27.14713,24266
27.15525,25468
27.16338,22348
27.17150,23826
27.17962,24675
27.18775,25391
27.19587,24010
27.20400,24598
27.21212,29605
27.22023,26505
27.22837,26417
27.23648,25779
27.24462,26629
27.25273,27969
27.26085,26261
27.26898,22824
27.27710,24169
27.28523,26431
27.29335,25618
27.30147,23832
27.30960,23580
27.31772,21761
27.32583,22708
27.33397,21850
27.34208,23409
27.35022,27652
27.35833,27146
27.36645,24112
27.37458,24971
27.38270,27203
27.39083,26567
27.39895,21334
27.40707,23000
27.41520,24731
27.42332,22642
27.43143,22301
27.43957,22774
27.44768,20906
27.45582,22934
27.46393,24905
27.47205,23613
27.48018,23476
27.48830,18948
27.49643,19966
27.50455,20231
27.51267,23910
27.52080,26684
27.52892,19724
27.53705,22039
27.54517,23694
27.55328,23542
27.56142,19033
27.56953,25133
27.57765,20638
27.58578,21947
27.59390,22699
27.60203,21896
27.61015,23611
27.61827,23473
27.62640,21530
27.63452,24784
27.64265,26019
27.65077,29372
27.65888,21935
27.66702,22762
27.67513,27911
27.68327,26159
27.69138,26605
27.69950,21685
27.70763,21942
27.71575,22211
27.72387,22096
27.73200,25300
27.74012,21596
27.74825,23145
27.75637,22611
27.76448,22554
27.77262,25008
27.78073,23222
27.78887,25048
27.79698,23305
27.80510,28832
27.81323,24758
27.82135,24263
27.82947,22131
27.83760,21765
27.84572,23890
27.85385,25524
27.86197,22945
27.87008,25103
27.87822,27051
27.88633,25638
27.89447,25603
27.90258,25116
27.91070,26392
27.91883,23031
27.92695,23941
27.93508,23680
27.94320,24031
27.95132,27672
27.95945,23702
27.96757,23288
27.97568,21726
27.98382,26017
27.99193,20853
28.00007,23376
28.00818,25853
28.01630,24570
28.02443,23686
28.03255,21513
28.04068,24017
28.04880,21330
28.05692,21219
28.06505,26810
28.07317,24203
28.08128,23636
28.08942,25682
28.09753,28262
28.10567,23995
28.11378,22015
28.12190,24143
28.13003,25466
28.13815,23401
28.14628,22165
28.15440,21901
28.16252,25809
28.17065,24496
28.17877,26455
28.18690,22700
28.19502,22700
28.20313,24008
28.21127,23231
28.21938,23705
28.22750,23510
28.23563,23401
28.24375,25709
28.25188,24457
28.26000,26512
28.26812,20334
28.27625,21831
28.28437,26338
28.29250,24571
28.30062,24999
28.30873,23283
28.31687,22641
28.32498,21743
28.33312,24204
28.34123,23349
28.34935,22988
28.35748,23502
28.36560,23696
28.37372,27442
28.38185,27574
28.38997,26120
28.39810,24960
28.40622,21580
28.41433,24824
28.42247,22234
28.43058,25561
28.43872,22781
28.44683,23959
28.45495,24224
28.46308,25646
28.47120,24710
28.47932,23873
28.48745,27561
28.49557,26537
28.50370,24506
28.51182,25079
28.51993,21320
28.52807,26131
28.53618,23784
28.54432,27653
28.55243,25461
28.56055,26528
28.56868,21351
28.57680,23527
28.58493,25938
28.59305,22342
28.60117,24162
28.60930,25092
28.61742,23339
28.62553,26453
28.63367,27878
28.64178,22762
28.64992,25889
28.65803,28713
28.66615,29251
28.67428,26948
28.68240,26185
28.69053,30260
28.69865,32482
28.70677,29727
28.71490,28860
28.72302,27989
28.73115,24393
28.73927,22722
28.74738,29393
28.75552,24237
28.76363,25653
28.77175,25300
28.77988,26422
28.78800,30098
28.79613,28385
28.80425,25958
28.81237,27389
28.82050,26452
28.82862,27939
28.83675,23876
28.84487,23612
28.85298,22540
28.86112,24539
28.86923,22219
28.87735,21606
28.88548,26013
28.89360,22870
28.90173,28519
28.90985,23564
28.91797,22261
28.92610,25122
28.93422,27254
28.94235,24980
28.95047,23974
28.95858,27501
28.96672,25458
28.97483,26115
28.98297,22852
28.99108,25183
28.99920,24417
29.00733,29126
29.01545,22664
29.02357,29213
29.03170,25950
29.03982,23761
29.04795,24561
29.05607,23385
29.06418,24641
29.07232,22474
29.08043,25921
29.08857,23073
29.09668,24263
29.10480,21555
29.11293,22884
29.12105,25689
29.12918,29163
29.13730,20690
29.14542,23839
29.15355,23945
29.16167,22225
29.16978,26257
29.17792,24540
29.18603,28907
29.19417,26557
29.20228,26553
29.21040,24056
29.21853,30685
29.22665,26663
29.23478,25039
29.24290,27729
29.25102,30574
29.25915,23996
29.26727,25305
29.27538,23662
29.28352,24375
29.29163,24324
29.29977,26884
29.30788,26715
29.31600,22860
29.32413,23452
29.33225,21729
29.34038,24770
29.34850,27491
29.35662,24790
29.36475,24198
29.37287,22184
29.38100,23758
29.38912,23757
29.39723,23579
29.40537,24428
29.41348,24371
29.42160,24283
29.42973,24936
29.43785,25271
29.44598,25262
29.45410,28142
29.46222,25201
29.47035,24493
29.47847,26586
29.48660,28825
29.49472,25100
29.50283,25732
29.51097,27881
29.51908,29738
29.52720,30427
29.53533,30676
29.54345,26679
29.55158,26969
29.55970,27284
29.56782,28034
29.57595,31657
29.58407,25474
29.59220,22532
29.60032,25896
29.60843,21090
29.61657,23572
29.62468,19740
29.63282,22530
29.64093,26746
29.64905,25634
29.65718,23328
29.66530,25709
29.67342,25811
29.68155,25467
29.68967,23705
29.69780,23269
29.70592,24165
29.71403,25635
29.72217,23954
29.73028,26343
29.73842,26631
29.74653,24340
29.75465,24057
29.76278,23663
29.77090,21440
29.77903,26379
29.78715,25421
29.79527,20618
29.80340,25607
29.81152,26027
29.81963,25569
29.82777,31955
29.83588,25031
29.84402,24762
29.85213,23455
29.86025,27605
29.86838,24064
29.87650,27034
29.88463,27029
29.89275,27216
29.90087,28006
29.90900,29133
29.91712,25861
29.92523,28443
29.93337,29825
29.94148,25876
29.94962,28255
29.95773,26721
29.96585,25685
29.97398,23876
29.98210,25630
29.99023,24964
29.99835,24753
30.00647,29074
30.01460,25670
30.02272,23322
30.03085,27104
30.03897,28297
30.04708,24177
30.05522,24215
30.06333,23716
30.07145,26291
30.07958,26930
30.08770,27007
30.09583,23057
30.10395,26382
30.11207,27883
30.12020,27743
30.12832,26539
30.13645,25676
30.14457,25852
30.15268,26118
30.16082,23436
30.16893,28255
30.17707,29386
30.18518,24963
30.19330,26209
30.20143,25968
30.20955,29528
30.21767,27927
30.22580,24142
30.23392,25514
30.24205,26689
30.25017,24540
30.25828,27088
30.26642,22506
30.27453,27362
30.28267,24364
30.29078,25471
30.29890,25133
30.30703,24188
30.31515,24787
30.32327,22740
30.33140,24980
30.33952,27367
30.34765,27268
30.35577,22857
30.36388,23535
30.37202,24268
30.38013,25619
30.38827,25849
30.39638,25255
30.40450,23073
30.41263,23729
30.42075,25305
30.42888,28216
30.43700,24033
30.44512,24889
30.45325,27256
30.46137,23223
30.46948,29133
30.47762,23884
30.48573,25140
30.49387,23548
30.50198,24431
30.51010,25723
30.51823,23397
30.52635,25314
30.53448,26911
30.54260,22949
30.55072,30683
30.55885,27415
30.56697,23045
30.57508,24417
30.58322,26815
30.59133,25788
30.59947,27092
30.60758,23922
30.61570,25949
30.62383,27369
30.63195,24407
30.64008,26266
30.64820,26624
30.65632,25810
30.66445,28595
30.67257,26649
30.68070,24426
30.68882,26984
30.69693,26369
30.70507,26372
30.71318,27809
30.72130,32093
30.72943,26474
30.73755,27473
30.74568,27197
30.75380,26690
30.76192,25708
30.77005,25993
30.77817,23015
30.78630,24312
30.79442,23757
30.80253,26605
30.81067,26323
30.81878,25982
30.82692,31489
30.83503,29492
30.84315,25697
30.85128,22275
30.85940,24918
30.86752,21432
30.87565,24974
30.88377,31919
30.89190,23818
30.90002,25516
30.90813,24859
30.91627,26972
30.92438,26632
30.93252,24233
30.94063,23349
30.94875,21823
30.95688,24768
30.96500,25015
30.97312,28572
30.98125,23058
30.98937,26403
30.99750,24666
31.00562,26217
31.01373,30737
31.02187,24170
31.02998,27654
31.03812,25380
31.04623,24501
31.05435,29095
31.06248,25678
31.07060,27893
31.07873,29767
31.08685,26376
31.09497,26266
31.10310,27434
31.11122,30077
31.11933,31839
31.12747,27357
31.13558,28818
31.14372,29658
31.15183,26838
31.15995,23063
31.16808,27999
31.17620,26859
31.18433,24762
31.19245,26103
31.20057,25178
31.20870,31367
31.21682,34792
31.22495,37586
31.23307,40043
31.24118,38896
31.24932,35720
31.25743,33021
31.26555,30869
31.27368,30797
31.28180,30073
31.28993,30360
31.29805,28304
31.30617,25463
31.31430,24095
31.32242,27599
31.33055,26435
31.33867,23602
31.34678,26290
31.35492,26331
31.36303,25781
31.37115,25750
31.37928,26151
31.38740,28746
31.39553,27097
31.40365,23478
31.41177,24496
31.41990,27027
31.42802,28756
31.43615,27393
31.44427,25445
31.45238,27044
31.46052,26952
31.46863,28738
31.47677,25293
31.48488,25927
31.49300,27356
31.50113,26415
31.50925,27337
31.51737,25590
31.52550,28127
31.53362,27435
31.54175,27548
31.54987,28732
31.55798,25858
31.56612,29419
31.57423,26982
31.58237,27231
31.59048,26058
31.59860,30560
31.60673,29917
31.61485,25910
31.62297,25639
31.63110,25802
31.63922,28571
31.64735,27639
31.65547,27990
31.66358,30316
31.67172,29185
31.67983,26043
31.68797,26029
31.69608,26909
31.70420,26692
31.71233,27127
31.72045,26769
31.72858,29857
31.73670,28327
31.74482,33911
31.75295,25200
31.76107,29623
31.76918,27229
31.77732,26160
31.78543,29153
31.79357,30658
31.80168,29399
31.80980,27614
31.81793,29726
31.82605,29032
31.83418,29287
31.84230,27240
31.85042,28209
31.85855,32314
31.86667,31966
31.87480,33845
31.88292,30426
31.89103,33145
31.89917,31920
31.90728,31729
31.91540,31385
31.92353,27294
31.93165,29856
31.93978,26798
31.94790,27263
31.95602,28133
31.96415,31246
31.97227,29969
31.98040,22268
31.98852,25525
31.99663,29976
32.00477,28322
32.01288,34342
32.02102,29529
32.02913,29023
32.03725,30676
32.04538,29215
32.05350,32297
32.06162,32251
32.06975,30419
32.07787,35553
32.08600,30142
32.09412,34874
32.10223,33424
32.11037,27778
32.11848,29713
32.12662,27547
32.13473,31522
32.14285,28829
32.15098,27899
32.15910,31228
32.16722,27526
32.17535,31712
32.18347,28748
32.19160,29496
32.19972,29146
32.20783,31279
32.21597,27674
32.22408,31092
32.23222,28288
32.24033,30154
32.24845,28479
32.25658,32750
32.26470,30204
32.27283,27834
32.28095,31313
32.28907,31294
32.29720,31147
32.30532,31023
32.31343,29999
32.32157,33269
32.32968,29902
32.33782,32398
32.34593,32784
32.35405,35408
32.36218,29233
32.37030,31021
32.37843,33000
32.38655,33686
32.39467,31838
32.40280,31169
32.41092,31515
32.41903,31943
32.42717,31277
32.43528,28551
32.44342,28510
32.45153,27986
32.45965,29061
32.46778,30319
32.47590,30854
32.48403,29755
32.49215,30571
32.50027,31158
32.50840,29785
32.51652,31120
32.52465,29058
32.53277,33002
32.54088,28993
32.54902,29539
32.55713,31699
32.56525,30288
32.57338,30746
32.58150,31607
32.58963,28385
32.59775,31521
32.60587,33420
32.61400,28955
32.62212,27021
32.63025,30886
32.63837,31641
32.64648,30788
32.65462,28739
32.66273,32393
32.67087,28991
32.67898,31482
32.68710,32323
32.69523,34162
32.70335,31261
32.71147,32113
32.71960,29710
32.72772,31868
32.73585,31074
32.74397,30291
32.75208,28759
32.76022,28813
32.76833,30113
32.77647,27750
32.78458,31273
32.79270,27431
32.80083,30198
32.80895,30498
32.81707,30346
32.82520,30722
32.83332,29453
32.84145,27678
32.84957,32708
32.85768,27339
32.86582,28425
32.87393,26418
32.88207,28783
32.89018,27691
32.89830,30722
32.90643,29164
32.91455,25789
32.92268,29556
32.93080,29287
32.93892,30216
32.94705,32640
32.95517,26228
32.96328,28401
32.97142,30340
32.97953,30718
32.98767,28982
32.99578,25546
33.00390,30610
33.01203,29010
33.02015,31762
33.02828,33957
33.03640,33313
33.04452,29028
33.05265,29626
33.06077,36369
33.06890,30000
33.07702,30316
33.08513,29245
33.09327,34153
33.10138,35793
33.10950,37051
33.11763,37650
33.12575,42234
33.13388,36102
33.14200,36562
33.15012,33545
33.15825,34504
33.16637,32485
33.17450,31947
33.18262,29032
33.19073,29832
33.19887,32719
33.20698,29390
33.21510,32098
33.22323,31077
33.23135,30919
33.23948,33017
33.24760,32795
33.25572,30491
33.26385,27098
33.27197,30974
33.28010,34726
33.28822,28459
33.29633,26439
33.30447,29973
33.31258,31234
33.32072,30741
33.32883,30079
33.33695,29422
33.34508,34583
33.35320,34003
33.36132,32514
33.36945,32223
33.37757,32670
33.38570,34244
33.39382,33975
33.40193,29053
33.41007,31687
33.41818,32916
33.42632,31340
33.43443,32112
33.44255,33813
33.45068,30916
33.45880,33929
33.46692,29198
33.47505,31730
33.48317,30153
33.49130,32305
33.49942,27899
33.50753,27892
33.51567,32916
33.52378,32578
33.53192,30825
33.54003,28564
33.54815,36414
33.55628,35803
33.56440,33237
33.57253,33437
33.58065,33267
33.58877,31064
33.59690,29197
33.60502,28996
33.61313,29605
33.62127,35159
33.62938,32500
33.63752,34421
33.64563,33766
33.65375,36043
33.66188,33865
33.67000,34879
33.67813,35732
33.68625,35218
33.69437,32809
33.70250,34383
33.71062,32482
33.71875,32237
33.72687,32791
33.73498,34267
33.74312,31117
33.75123,34182
33.75935,33277
33.76748,35640
33.77560,34143
33.78373,30960
33.79185,34113
33.79997,29328
33.80810,34954
33.81622,33765
33.82435,34159
33.83247,37144
33.84058,36529
33.84872,35784
33.85683,36908
33.86495,34410
33.87308,32848
33.88120,35705
33.88933,35240
33.89745,35238
33.90557,36483
33.91370,34672
33.92182,33170
33.92995,31673
33.93807,35734
33.94618,34245
33.95432,32851
33.96243,33644
33.97057,33803
33.97868,35352
33.98680,31646
33.99493,31103
34.00305,37592
34.01117,36268
34.01930,33114
34.02742,36091
34.03555,33510
34.04367,34036
34.05178,38694
34.05992,39856
34.06803,33761
34.07617,34791
34.08428,35460
34.09240,38338
34.10053,38369
34.10865,33496
34.11678,34919
34.12490,37200
34.13302,34980
34.14115,38129
34.14927,36869
34.15738,33435
34.16552,35263
34.17363,33522
34.18177,38950
34.18988,36771
34.19800,38379
34.20613,35397
34.21425,39150
34.22238,35058
34.23050,39123
34.23862,37457
34.24675,39119
34.25487,36079
34.26298,35569
34.27112,36659
34.27923,36629
34.28737,41622
34.29548,39327
34.30360,43524
34.31173,45865
34.31985,45908
34.32798,49724
34.33610,46060
34.34422,42322
34.35235,45935
34.36047,39200
34.36860,43440
34.37672,44973
34.38483,45036
34.39297,46163
34.40108,41560
34.40920,40525
34.41733,46595
34.42545,44522
34.43358,42209
34.44170,40315
34.44982,41408
34.45795,40730
34.46607,40402
34.47420,45751
34.48232,45144
34.49043,41140
34.49857,46567
34.50668,40861
34.51482,40486
34.52293,37795
34.53105,39942
34.53918,42827
34.54730,38627
34.55542,41661
34.56355,41957
34.57167,42466
34.57980,43977
34.58792,39606
34.59603,40087
34.60417,37937
34.61228,39826
34.62042,42721
34.62853,43628
34.63665,38354
34.64478,40411
34.65290,39514
34.66102,41304
34.66915,47526
34.67727,41455
34.68540,42514
34.69352,39248
34.70163,44186
34.70977,44335
34.71788,42114
34.72602,37997
34.73413,39285
34.74225,41175
34.75038,45403
34.75850,42056
34.76663,39754
34.77475,42071
34.78287,45340
34.79100,36724
34.79912,46470
34.80723,40352
34.81537,40705
34.82348,40936
34.83162,41855
34.83973,37393
34.84785,35687
34.85598,39729
34.86410,43684
34.87223,38148
34.88035,39702
34.88847,40443
34.89660,40791
34.90472,40078
34.91283,38103
34.92097,41448
34.92908,39401
34.93722,42405
34.94533,42564
34.95345,39902
34.96158,43500
34.96970,42532
34.97783,49973
34.98595,43202
34.99407,46007
35.00220,50410
35.01032,46692
35.01845,52140
35.02657,55185
35.03468,55149
35.04282,54524
35.05093,53184
35.05905,55665
35.06718,54337
35.07530,51558
35.08343,57345
35.09155,53718
35.09967,53367
35.10780,55161
35.11592,54144
35.12405,49779
35.13217,50190
35.14028,48915
35.14842,48005
35.15653,47098
35.16467,48490
35.17278,48907
35.18090,43200
35.18903,45690
35.19715,46026
35.20527,46065
35.21340,43085
35.22152,43391
35.22965,44948
35.23777,42801
35.24588,43775
35.25402,41559
35.26213,39845
35.27027,43312
35.27838,42315
35.28650,41224
35.29463,44197
35.30275,42960
35.31087,40230
35.31900,41874
35.32712,40236
35.33525,36437
35.34337,41781
35.35148,41113
35.35962,40750
35.36773,41296
35.37587,37653
35.38398,42353
35.39210,43641
35.40023,37489
35.40835,40915
35.41648,41845
35.42460,44838
35.43272,45014
35.44085,44150
35.44897,40430
35.45708,43845
35.46522,44881
35.47333,40597
35.48147,40476
35.48958,41171
35.49770,42291
35.50583,40019
35.51395,42848
35.52208,42296
35.53020,41616
35.53832,48060
35.54645,42043
35.55457,43857
35.56270,44330
35.57082,43827
35.57893,44322
35.58707,42224
35.59518,42189
35.60330,44579
35.61143,44705
35.61955,40820
35.62768,47354
35.63580,44646
35.64392,47468
35.65205,40453
35.66017,44599
35.66830,42060
35.67642,39859
35.68453,40166
35.69267,39654
35.70078,43693
35.70890,43467
35.71703,43476
35.72515,42545
35.73328,45362
35.74140,43253
35.74952,46352
35.75765,46128
35.76577,43621
35.77390,45139
35.78202,41173
35.79013,44160
35.79827,40457
35.80638,41939
35.81452,41142
35.82263,45125
35.83075,42924
35.83888,45774
35.84700,44372
35.85512,48574
35.86325,46327
35.87137,51617
35.87950,49897
35.88762,43249
35.89573,48379
35.90387,42186
35.91198,44436
35.92012,45029
35.92823,46438
35.93635,46712
35.94448,45938
35.95260,46773
35.96072,44140
35.96885,44937
35.97697,43865
35.98510,44706
35.99322,44652
36.00133,43909
36.00947,45998
36.01758,46970
36.02572,44047
36.03383,44528
36.04195,52697
36.05008,50335
36.05820,43933
36.06633,41388
36.07445,44108
36.08257,47129
36.09070,42381
36.09882,41661
36.10693,45580
36.11507,45041
36.12318,46449
36.13132,41044
36.13943,46895
36.14755,45965
36.15568,44716
36.16380,45406
36.17193,49706
36.18005,47125
36.18817,42805
36.19630,47426
36.20442,47780
36.21255,49206
36.22067,44440
36.22878,44541
36.23692,47028
36.24503,50937
36.25315,48527
36.26128,45974
36.26940,50710
36.27753,48003
36.28565,44801
36.29377,44469
36.30190,45588
36.31002,45808
36.31815,47020
36.32627,51006
36.33438,53774
36.34252,47190
36.35063,50868
36.35875,48396
36.36688,47496
36.37500,46733
36.38313,47736
36.39125,44976
36.39937,47820
36.40750,43266
36.41562,47483
36.42375,50365
36.43187,46251
36.43998,45893
36.44812,49161
36.45623,45325
36.46437,48986
36.47248,47006
36.48060,45623
36.48873,46922
36.49685,48676
36.50497,42381
36.51310,49318
36.52122,43699
36.52935,45725
36.53747,49199
36.54558,44039
36.55372,52112
36.56183,43381
36.56997,44623
36.57808,46453
36.58620,46608
36.59433,46321
36.60245,43506
36.61058,51115
36.61870,48353
36.62682,50926
36.63495,50370
36.64307,49267
36.65118,52337
36.65932,51745
36.66743,47563
36.67557,50658
36.68368,46862
36.69180,48006
36.69993,49310
36.70805,54841
36.71618,44149
36.72430,46013
36.73242,51883
36.74055,44899
36.74867,46264
36.75678,48758
36.76492,43766
36.77303,49620
36.78117,47471
36.78928,48923
36.79740,46235
36.80553,49627
36.81365,46936
36.82178,50367
36.82990,51806
36.83802,51491
36.84615,45778
36.85427,49493
36.86240,52443
36.87052,52730
36.87863,49706
36.88677,45879
36.89488,43342
36.90300,49387
36.91113,49814
36.91925,51008
36.92738,51357
36.93550,51179
36.94362,52778
36.95175,50757
36.95987,49132
36.96800,52491
36.97612,49073
36.98423,52099
36.99237,49271
37.00048,52689
37.00860,47907
37.01673,49069
37.02485,52385
37.03298,49355
37.04110,52050
37.04922,51116
37.05735,48067
37.06547,48353
37.07360,47945
37.08172,51326
37.08983,51455
37.09797,52527
37.10608,49791
37.11422,50202
37.12233,47133
37.13045,48946
37.13858,49267
37.14670,54856
37.15482,53362
37.16295,50689
37.17107,47111
37.17920,47979
37.18732,50977
37.19543,54956
37.20357,50787
37.21168,51287
37.21982,50140
37.22793,52463
37.23605,51091
37.24418,58403
37.25230,54082
37.26043,55861
37.26855,57552
37.27667,54769
37.28480,57522
37.29292,50782
37.30103,57894
37.30917,54990
37.31728,51631
37.32542,52854
37.33353,52639
37.34165,53818
37.34978,52646
37.35790,52126
37.36603,53751
37.37415,59712
37.38227,53935
37.39040,50304
37.39852,52219
37.40665,52737
37.41477,56607
37.42288,53085
37.43102,52126
37.43913,53651
37.44725,57132
37.45538,53775
37.46350,55207
37.47163,55767
37.47975,50343
37.48787,50131
