C:\MassHunter\GCMS\1\data\JTB-E02\BACandBLUE\JTB-E18-019-04.D Fri Jul 05 09:49:29 2019
Start of data points
2.09520,31615
2.10333,29910
2.11145,33767
2.11958,33248
2.12770,33572
2.13582,36351
2.14395,39082
2.15207,39562
2.16020,42455
2.16832,40502
2.17643,43000
2.18457,39116
2.19268,41342
2.20080,43953
2.20893,41781
2.21705,41727
2.22518,34581
2.23330,36484
2.24142,36126
2.24955,34976
2.25767,33437
2.26580,48986
2.27392,456051
2.28203,2587747
2.29017,2902743
2.29828,1199000
2.30640,565628
2.31453,389308
2.32265,315809
2.33078,281667
2.33890,242998
2.34702,224941
2.35515,194463
2.36327,175334
2.37140,157321
2.37952,148387
2.38763,147453
2.39577,133692
2.40388,126868
2.41202,123966
2.42013,127691
2.42825,120717
2.43638,119599
2.44450,112694
2.45262,120625
2.46075,120714
2.46887,106442
2.47700,100645
2.48512,94497
2.49323,100285
2.50137,117476
2.50948,109308
2.51762,98646
2.52573,91807
2.53385,90976
2.54198,87582
2.55010,83437
2.55823,89993
2.56635,86517
2.57447,86970
2.58260,80831
2.59072,74467
2.59883,77577
2.60697,76758
2.61508,82848
2.62322,96909
2.63133,89134
2.63945,80221
2.64758,78277
2.65570,73965
2.66383,70501
2.67195,71839
2.68007,68289
2.68820,68434
2.69632,67858
2.70443,70282
2.71257,70406
2.72068,65584
2.72882,65537
2.73693,64522
2.74505,62268
2.75318,61861
2.76130,60519
2.76943,61119
2.77755,62258
2.78567,61833
2.79380,60389
2.80192,58471
2.81005,62270
2.81817,62405
2.82628,60797
2.83442,57291
2.84253,56240
2.85065,57813
2.85878,55889
2.86690,59577
2.87503,62402
2.88315,53871
2.89127,54972
2.89940,56686
2.90752,55881
2.91565,53113
2.92377,57147
2.93188,54244
2.94002,52451
2.94813,51216
2.95627,53978
2.96438,51763
2.97250,55019
2.98063,56939
2.98875,53842
2.99687,56408
3.00500,51061
3.01312,53690
3.02125,54641
3.02937,52146
3.03748,50598
3.04562,55602
3.05373,53069
3.06187,52626
3.06998,54003
3.07810,50894
3.08623,51105
3.09435,53317
3.10247,55980
3.11060,72313
3.11872,85909
3.12685,77409
3.13497,66536
3.14308,67117
3.15122,67426
3.15933,64712
3.16747,62357
3.17558,57970
3.18370,50953
3.19183,53555
3.19995,55178
3.20808,54006
3.21620,56429
3.22432,52553
3.23245,53961
3.24057,52908
3.24868,53930
3.25682,53542
3.26493,53661
3.27307,53872
3.28118,64456
3.28930,192926
3.29743,1146266
3.30555,4670172
3.31368,1.017644E+07
3.32180,1.280344E+07
3.32992,1.10065E+07
3.33805,7949005
3.34617,5743742
3.35428,4427004
3.36242,3592462
3.37053,2967764
3.37867,2511133
3.38678,2211456
3.39490,1930881
3.40303,1737143
3.41115,1563774
3.41928,1408969
3.42740,1314235
3.43552,1205609
3.44365,1116543
3.45177,1048620
3.45990,984472
3.46802,944540
3.47613,887047
3.48427,835568
3.49238,808514
3.50050,759879
3.50863,738451
3.51675,701613
3.52488,685677
3.53300,657285
3.54112,627834
3.54925,613394
3.55737,594107
3.56550,574030
3.57362,555651
3.58173,543561
3.58987,538045
3.59798,519205
3.60612,499499
3.61423,498853
3.62235,489744
3.63048,484527
3.63860,479034
3.64672,451875
3.65485,436734
3.66297,435532
3.67110,426740
3.67922,424517
3.68733,400648
3.69547,397891
3.70358,396613
3.71172,385966
3.71983,373948
3.72795,380498
3.73608,363920
3.74420,358888
3.75232,359886
3.76045,348131
3.76857,343784
3.77670,344939
3.78482,349734
3.79293,328278
3.80107,330994
3.80918,334341
3.81732,321836
3.82543,321545
3.83355,328421
3.84168,313690
3.84980,314474
3.85793,305909
3.86605,293721
3.87417,287389
3.88230,295240
3.89042,290648
3.89853,284924
3.90667,279986
3.91478,282091
3.92292,277420
3.93103,263948
3.93915,278293
3.94728,272027
3.95540,267302
3.96353,271869
3.97165,262278
3.97977,267248
3.98790,252236
3.99602,245458
4.00415,255235
4.01227,255576
4.02038,256525
4.02852,265479
4.03663,268039
4.04475,255313
4.05288,255190
4.06100,243401
4.06913,252302
4.07725,241769
4.08537,234444
4.09350,235242
4.10162,229802
4.10975,229248
4.11787,228237
4.12598,229956
4.13412,236981
4.14223,224795
4.15035,234870
4.15848,245410
4.16660,243519
4.17473,228314
4.18285,228305
4.19097,223588
4.19910,216179
4.20722,213710
4.21535,207701
4.22347,210337
4.23158,218635
4.23972,231113
4.24783,225529
4.25597,225279
4.26408,227299
4.27220,212165
4.28033,208241
4.28845,200015
4.29657,202887
4.30470,195474
4.31282,200180
4.32095,197876
4.32907,194160
4.33718,195334
4.34532,196890
4.35343,193195
4.36157,191312
4.36968,198430
4.37780,196122
4.38593,197842
4.39405,194430
4.40217,182695
4.41030,193912
4.41842,188369
4.42655,175440
4.43467,183000
4.44278,183171
4.45092,180113
4.45903,181752
4.46717,177449
4.47528,180898
4.48340,181777
4.49153,170804
4.49965,181406
4.50778,175364
4.51590,175115
4.52402,175903
4.53215,174613
4.54027,175886
4.54838,175250
4.55652,170234
4.56463,169229
4.57277,169981
4.58088,167688
4.58900,162866
4.59713,164649
4.60525,159521
4.61338,167556
4.62150,162227
4.62962,164123
4.63775,159888
4.64587,154323
4.65400,155450
4.66212,155747
4.67023,160524
4.67837,160857
4.68648,159263
4.69460,154931
4.70273,158595
4.71085,159345
4.71898,153953
4.72710,153599
4.73522,155823
4.74335,148979
4.75147,153758
4.75960,148276
4.76772,148680
4.77583,145149
4.78397,149527
4.79208,146314
4.80022,144581
4.80833,138240
4.81645,146157
4.82458,142885
4.83270,146773
4.84082,143199
4.84895,147028
4.85707,144361
4.86520,151853
4.87332,140583
4.88143,148615
4.88957,135859
4.89768,149227
4.90582,147840
4.91393,142348
4.92205,148113
4.93018,192513
4.93830,421613
4.94642,1243779
4.95455,3007488
4.96267,5297264
4.97080,6730172
4.97892,6478572
4.98703,5047535
4.99517,3643026
5.00328,2640125
5.01142,2018102
5.01953,1625550
5.02765,1352566
5.03578,1184139
5.04390,1051200
5.05203,939079
5.06015,851818
5.06827,777226
5.07640,724528
5.08452,684575
5.09263,628803
5.10077,619459
5.10888,592549
5.11702,562784
5.12513,533038
5.13325,510612
5.14138,496254
5.14950,483603
5.15763,468137
5.16575,457249
5.17387,446572
5.18200,441965
5.19012,421186
5.19823,411916
5.20637,405245
5.21448,405867
5.22262,385598
5.23073,391684
5.23885,395039
5.24698,410409
5.25510,400841
5.26323,383720
5.27135,363894
5.27947,346405
5.28760,332195
5.29572,327110
5.30385,323980
5.31197,321394
5.32008,309414
5.32822,304103
5.33633,297690
5.34445,293913
5.35258,299976
5.36070,293180
5.36883,293114
5.37695,293380
5.38507,280382
5.39320,282521
5.40132,275694
5.40945,264733
5.41757,269336
5.42568,264381
5.43382,259402
5.44193,263559
5.45007,262119
5.45818,254918
5.46630,257067
5.47443,249999
5.48255,252627
5.49067,246230
5.49880,251061
5.50692,242069
5.51505,252622
5.52317,242656
5.53128,238016
5.53942,232977
5.54753,236325
5.55567,235375
5.56378,224042
5.57190,238848
5.58003,226460
5.58815,238307
5.59627,226865
5.60440,223380
5.61252,233394
5.62065,213885
5.62877,227913
5.63688,233194
5.64502,229481
5.65313,238448
5.66127,224361
5.66938,227771
5.67750,240758
5.68563,257032
5.69375,283921
5.70188,284888
5.71000,278787
5.71812,256259
5.72625,244634
5.73437,219833
5.74248,213826
5.75062,207477
5.75873,214919
5.76687,203267
5.77498,202214
5.78310,202313
5.79123,192163
5.79935,196040
5.80748,197218
5.81560,195017
5.82372,197401
5.83185,194398
5.83997,192663
5.84810,195440
5.85622,188374
5.86433,186383
5.87247,179404
5.88058,184090
5.88870,184211
5.89683,185107
5.90495,182068
5.91308,163779
5.92120,139763
5.92932,120927
5.93745,117391
5.94557,124332
5.95370,121153
5.96182,122925
5.96993,120458
5.97807,123597
5.98618,124288
5.99430,126109
6.00243,122727
6.01055,123634
6.01868,123477
6.02680,118887
6.03492,117823
6.04305,115993
6.05117,115614
6.05930,119593
6.06742,118412
6.07553,109860
6.08367,116683
6.09178,111433
6.09992,116049
6.10803,119009
6.11615,114501
6.12428,112856
6.13240,124196
6.14052,118140
6.14865,120936
6.15677,122224
6.16490,123916
6.17302,122608
6.18113,122491
6.18927,123207
6.19738,127941
6.20552,125280
6.21363,124781
6.22175,128287
6.22988,123886
6.23800,129446
6.24612,130075
6.25425,125020
6.26237,129702
6.27050,137857
6.27862,137114
6.28673,138513
6.29487,141934
6.30298,135891
6.31112,141786
6.31923,144751
6.32735,140570
6.33548,147765
6.34360,142593
6.35173,146880
6.35985,137768
6.36797,145519
6.37610,146796
6.38422,148535
6.39233,140767
6.40047,143705
6.40858,153571
6.41672,152134
6.42483,152911
6.43295,152923
6.44108,156150
6.44920,164937
6.45733,158942
6.46545,169025
6.47357,166203
6.48170,161045
6.48982,168101
6.49795,167710
6.50607,155733
6.51418,162598
6.52232,169056
6.53043,164754
6.53855,149785
6.54668,143501
6.55480,133695
6.56293,124340
6.57105,125886
6.57917,131705
6.58730,123843
6.59542,113098
6.60355,112175
6.61167,123738
6.61978,112026
6.62792,114262
6.63603,117739
6.64415,117274
6.65228,117596
6.66040,118318
6.66853,111051
6.67665,111202
6.68477,112606
6.69290,108216
6.70102,106527
6.70915,107509
6.71727,103908
6.72538,104455
6.73352,98033
6.74163,105017
6.74977,105875
6.75788,105356
6.76600,105499
6.77413,103480
6.78225,101855
6.79037,101661
6.79850,102944
6.80662,99835
6.81475,97317
6.82287,103040
6.83098,100369
6.83912,98873
6.84723,93608
6.85537,87995
6.86348,83130
6.87160,69741
6.87973,56710
6.88785,59532
6.89598,59581
6.90410,56887
6.91222,53703
6.92035,56092
6.92847,56555
6.93658,52637
6.94472,54437
6.95283,55117
6.96097,52050
6.96908,55060
6.97720,57958
6.98533,54197
6.99345,55394
7.00158,55037
7.00970,52163
7.01782,55990
7.02595,53412
7.03407,54885
7.04218,52391
7.05032,55930
7.05843,54066
7.06657,54259
7.07468,53838
7.08280,52545
7.09093,56417
7.09905,54819
7.10718,56586
7.11530,51844
7.12342,50106
7.13155,55365
7.13967,49518
7.14780,53852
7.15592,54544
7.16403,56754
7.17217,52828
7.18028,53520
7.18840,57635
7.19653,57724
7.20465,51407
7.21278,55537
7.22090,54902
7.22902,52735
7.23715,51497
7.24527,55003
7.25340,54597
7.26152,52254
7.26963,51313
7.27777,53356
7.28588,51515
7.29400,53111
7.30213,55728
7.31025,48879
7.31838,54038
7.32650,54588
7.33462,51919
7.34275,51614
7.35087,54947
7.35900,51263
7.36712,56668
7.37523,52202
7.38337,51982
7.39148,54784
7.39962,52210
7.40773,50482
7.41585,54799
7.42398,58697
7.43210,53773
7.44022,59674
7.44835,58558
7.45647,55922
7.46460,59470
7.47272,60268
7.48083,61787
7.48897,55066
7.49708,53278
7.50522,53216
7.51333,50225
7.52145,52893
7.52958,53709
7.53770,55243
7.54583,49320
7.55395,53406
7.56207,54129
7.57020,51537
7.57832,51913
7.58643,50035
7.59457,53225
7.60268,52850
7.61082,52037
7.61893,46371
7.62705,51001
7.63518,51143
7.64330,51460
7.65143,49639
7.65955,50705
7.66767,47516
7.67580,51520
7.68392,51844
7.69203,49694
7.70017,46486
7.70828,44682
7.71642,48671
7.72453,51403
7.73265,52962
7.74078,51235
7.74890,49206
7.75703,50529
7.76515,46998
7.77327,50486
7.78140,47863
7.78952,49879
7.79765,51613
7.80577,43974
7.81388,49793
7.82202,47896
7.83013,51211
7.83825,49420
7.84638,52029
7.85450,49397
7.86263,44613
7.87075,48204
7.87887,48957
7.88700,44856
7.89512,42757
7.90325,50166
7.91137,45585
7.91948,43775
7.92762,43967
7.93573,46386
7.94387,43942
7.95198,44142
7.96010,45135
7.96823,40952
7.97635,43801
7.98447,45795
7.99260,46941
8.00072,45850
8.00885,48434
8.01697,43566
8.02508,43296
8.03322,44874
8.04133,40700
8.04947,44909
8.05758,43121
8.06570,44353
8.07383,45722
8.08195,47117
8.09007,48449
8.09820,44627
8.10632,42742
8.11445,47517
8.12257,43812
8.13068,42971
8.13882,45942
8.14693,44466
8.15507,45769
8.16318,45906
8.17130,41935
8.17943,44289
8.18755,47803
8.19568,43206
8.20380,44683
8.21192,47810
8.22005,42281
8.22817,41642
8.23628,44766
8.24442,46560
8.25253,42978
8.26067,41266
8.26878,44165
8.27690,43228
8.28503,43241
8.29315,43086
8.30128,46727
8.30940,44974
8.31752,43197
8.32565,40033
8.33377,39894
8.34190,43823
8.35002,43992
8.35813,46522
8.36627,51802
8.37438,47795
8.38250,46586
8.39063,43013
8.39875,43425
8.40688,45638
8.41500,46979
8.42312,44049
8.43125,41322
8.43937,43121
8.44750,46377
8.45562,130140
8.46373,524462
8.47187,505405
8.47998,208490
8.48810,105099
8.49623,78504
8.50435,75018
8.51248,69544
8.52060,66314
8.52872,67215
8.53685,64983
8.54497,64682
8.55310,62440
8.56122,63956
8.56933,60448
8.57747,59697
8.58558,59616
8.59372,60099
8.60183,59234
8.60995,53160
8.61808,57599
8.62620,57447
8.63432,61293
8.64245,55306
8.65057,59002
8.65870,55037
8.66682,56533
8.67493,48327
8.68307,54641
8.69118,54044
8.69932,57469
8.70743,56065
8.71555,52161
8.72368,50015
8.73180,44898
8.73992,50799
8.74805,62877
8.75617,105285
8.76430,236236
8.77242,561207
8.78053,1082785
8.78867,1682102
8.79678,1994540
8.80492,1835886
8.81303,1392449
8.82115,993495
8.82928,724959
8.83740,566450
8.84553,471689
8.85365,407640
8.86177,494571
8.86990,1733122
8.87802,3688373
8.88613,3036605
8.89427,1716410
8.90238,1163050
8.91052,883638
8.91863,712471
8.92675,608573
8.93488,513132
8.94300,464728
8.95113,415500
8.95925,383564
8.96737,343055
8.97550,322126
8.98362,296743
8.99175,288534
8.99987,265425
9.00798,258621
9.01612,242773
9.02423,233582
9.03235,225541
9.04048,216525
9.04860,199996
9.05673,198446
9.06485,190313
9.07297,188051
9.08110,176255
9.08922,174526
9.09735,171646
9.10547,172036
9.11358,167319
9.12172,156581
9.12983,164603
9.13795,149266
9.14608,149507
9.15420,149945
9.16233,148732
9.17045,145988
9.17857,146737
9.18670,145974
9.19482,141867
9.20295,143143
9.21107,135254
9.21918,137119
9.22732,129108
9.23543,121660
9.24357,124507
9.25168,125653
9.25980,125290
9.26793,127889
9.27605,131510
9.28417,128488
9.29230,131050
9.30042,139762
9.30855,137011
9.31667,131821
9.32478,117360
9.33292,122630
9.34103,122132
9.34917,112233
9.35728,115218
9.36540,194250
9.37353,735493
9.38165,1789336
9.38978,2017498
9.39790,1353754
9.40602,877696
9.41415,641976
9.42227,496947
9.43038,420791
9.43852,364662
9.44663,309033
9.45477,275392
9.46288,252459
9.47100,228580
9.47913,211850
9.48725,192869
9.49538,188421
9.50350,179718
9.51162,163120
9.51975,155662
9.52787,158166
9.53598,145602
9.54412,139939
9.55223,125038
9.56037,118368
9.56848,109330
9.57660,98204
9.58473,97849
9.59285,93893
9.60098,93643
9.60910,91184
9.61722,88167
9.62535,85374
9.63347,82860
9.64160,84060
9.64972,83897
9.65783,82239
9.66597,80613
9.67408,74246
9.68220,75341
9.69033,74567
9.69845,72687
9.70658,75198
9.71470,73697
9.72282,69159
9.73095,72400
9.73907,69550
9.74720,70268
9.75532,68974
9.76343,66804
9.77157,68699
9.77968,66335
9.78780,63555
9.79593,66607
9.80405,66681
9.81218,75261
9.82030,75815
9.82842,73434
9.83655,74107
9.84467,71676
9.85280,68432
9.86092,64660
9.86903,68149
9.87717,68915
9.88528,72758
9.89342,82250
9.90153,77811
9.90965,68349
9.91778,65568
9.92590,68061
9.93402,65748
9.94215,61955
9.95027,63649
9.95840,66238
9.96652,62253
9.97463,66129
9.98277,68795
9.99088,66930
9.99902,69089
10.00713,72335
10.01525,71171
10.02338,81473
10.03150,82878
10.03963,86490
10.04775,83218
10.05587,80040
10.06400,83867
10.07212,90021
10.08023,84731
10.08837,88906
10.09648,93593
10.10462,94462
10.11273,102189
10.12085,106312
10.12898,107809
10.13710,111776
10.14523,107991
10.15335,88033
10.16147,89435
10.16960,81837
10.17772,79019
10.18585,77037
10.19397,75814
10.20208,78818
10.21022,78874
10.21833,76268
10.22645,83047
10.23458,79416
10.24270,80892
10.25083,80628
10.25895,77706
10.26707,76451
10.27520,74784
10.28332,71177
10.29145,70411
10.29957,72770
10.30768,69598
10.31582,71924
10.32393,70904
10.33205,70526
10.34018,73140
10.34830,74151
10.35643,72974
10.36455,65811
10.37267,69021
10.38080,62126
10.38892,65072
10.39705,64920
10.40517,68834
10.41328,66010
10.42142,65661
10.42953,65775
10.43767,62899
10.44578,63547
10.45390,58015
10.46203,63298
10.47015,62709
10.47827,63573
10.48640,58953
10.49452,66414
10.50265,60505
10.51077,61827
10.51888,67006
10.52702,62697
10.53513,63251
10.54327,60563
10.55138,60843
10.55950,64199
10.56763,60598
10.57575,62355
10.58387,61545
10.59200,60087
10.60012,60746
10.60825,59989
10.61637,59298
10.62448,60763
10.63262,59972
10.64073,57856
10.64887,58382
10.65698,56039
10.66510,58942
10.67323,57265
10.68135,59792
10.68948,59831
10.69760,64941
10.70572,61175
10.71385,58279
10.72197,55912
10.73008,54556
10.73822,57285
10.74633,58307
10.75447,57446
10.76258,54813
10.77070,58948
10.77883,57727
10.78695,57880
10.79508,63436
10.80320,55448
10.81132,52249
10.81945,51075
10.82757,54230
10.83570,52988
10.84382,54724
10.85193,53571
10.86007,60124
10.86818,54217
10.87630,55628
10.88443,54100
10.89255,53973
10.90068,54705
10.90880,52607
10.91692,58132
10.92505,52592
10.93317,55070
10.94130,53068
10.94942,53048
10.95753,52784
10.96567,54455
10.97378,58746
10.98190,79807
10.99003,176971
10.99815,337767
11.00628,489027
11.01440,504346
11.02252,413303
11.03065,308656
11.03877,233299
11.04690,182740
11.05502,150520
11.06313,127888
11.07127,114024
11.07938,100527
11.08752,98316
11.09563,89142
11.10375,83540
11.11188,78389
11.12000,78923
11.12812,76041
11.13625,71527
11.14437,69953
11.15250,65278
11.16062,66007
11.16873,77638
11.17687,80565
11.18498,81285
11.19312,86382
11.20123,87934
11.20935,92769
11.21748,81480
11.22560,74797
11.23373,67189
11.24185,69171
11.24997,65756
11.25810,63104
11.26622,62438
11.27433,55600
11.28247,61161
11.29058,60425
11.29872,54179
11.30683,56024
11.31495,60297
11.32308,56662
11.33120,56524
11.33933,54888
11.34745,57304
11.35557,52298
11.36370,52918
11.37182,57104
11.37993,56961
11.38807,59066
11.39618,51683
11.40432,52599
11.41243,55221
11.42055,51671
11.42868,49552
11.43680,54048
11.44493,56140
11.45305,52830
11.46117,52482
11.46930,52806
11.47742,51297
11.48555,50385
11.49367,47710
11.50178,54092
11.50992,52795
11.51803,53636
11.52615,52472
11.53428,53768
11.54240,54449
11.55053,51583
11.55865,51332
11.56677,52385
11.57490,54189
11.58302,52356
11.59115,52897
11.59927,49760
11.60738,51534
11.61552,50314
11.62363,50880
11.63175,52349
11.63988,54634
11.64800,51631
11.65613,51307
11.66425,50560
11.67237,49711
11.68050,49816
11.68862,52764
11.69675,49429
11.70487,52591
11.71298,51757
11.72112,52432
11.72923,52144
11.73737,55732
11.74548,54352
11.75360,54983
11.76173,56241
11.76985,56552
11.77797,54916
11.78610,59559
11.79422,53670
11.80235,51545
11.81047,52092
11.81858,49587
11.82672,48866
11.83483,58624
11.84297,55671
11.85108,51025
11.85920,50326
11.86733,53066
11.87545,50318
11.88358,51892
11.89170,46723
11.89982,48863
11.90795,51135
11.91607,52841
11.92418,48879
11.93232,52845
11.94043,52584
11.94857,50160
11.95668,50966
11.96480,49992
11.97293,49686
11.98105,49896
11.98918,46339
11.99730,50179
12.00542,51666
12.01355,51677
12.02167,47853
12.02978,51195
12.03792,51921
12.04603,54818
12.05417,53069
12.06228,51636
12.07040,49794
12.07853,49885
12.08665,50060
12.09478,48184
12.10290,48788
12.11102,50609
12.11915,52908
12.12727,49153
12.13540,50208
12.14352,50216
12.15163,51555
12.15977,51582
12.16788,51931
12.17600,51864
12.18413,50926
12.19225,51654
12.20038,52103
12.20850,52255
12.21662,50184
12.22475,51645
12.23287,49962
12.24100,53425
12.24912,51451
12.25723,57591
12.26537,48264
12.27348,49891
12.28162,51943
12.28973,47568
12.29785,49312
12.30598,49140
12.31410,48733
12.32222,46772
12.33035,47224
12.33847,51502
12.34660,52233
12.35472,48960
12.36283,57709
12.37097,49804
12.37908,49246
12.38722,51785
12.39533,45968
12.40345,48489
12.41158,48591
12.41970,51470
12.42782,53049
12.43595,50827
12.44407,47682
12.45220,48006
12.46032,48876
12.46843,47554
12.47657,51385
12.48468,55546
12.49282,48880
12.50093,47050
12.50905,51310
12.51718,51265
12.52530,50330
12.53343,49340
12.54155,45849
12.54967,48110
12.55780,51294
12.56592,48788
12.57403,48463
12.58217,48944
12.59028,50135
12.59842,47560
12.60653,48441
12.61465,48200
12.62278,50135
12.63090,48885
12.63903,48316
12.64715,45440
12.65527,45947
12.66340,46336
12.67152,47790
12.67965,48858
12.68777,45351
12.69588,51460
12.70402,50592
12.71213,50706
12.72025,49216
12.72838,50778
12.73650,53015
12.74463,54335
12.75275,51692
12.76087,52077
12.76900,48431
12.77712,49496
12.78525,48371
12.79337,50630
12.80148,49346
12.80962,47713
12.81773,44846
12.82585,48404
12.83398,49006
12.84210,45835
12.85023,49364
12.85835,44419
12.86647,48424
12.87460,44792
12.88272,52261
12.89085,47271
12.89897,44364
12.90708,45240
12.91522,43355
12.92333,45783
12.93147,47783
12.93958,46067
12.94770,45384
12.95583,43775
12.96395,48201
12.97207,48740
12.98020,52122
12.98832,48127
12.99645,44635
13.00457,44277
13.01268,42652
13.02082,44013
13.02893,44152
13.03707,45306
13.04518,45795
13.05330,45432
13.06143,43140
13.06955,51577
13.07767,47019
13.08580,45288
13.09392,43136
13.10205,47095
13.11017,47429
13.11828,49800
13.12642,49728
13.13453,44776
13.14267,48595
13.15078,47032
13.15890,44215
13.16703,46871
13.17515,46037
13.18328,54228
13.19140,57361
13.19952,59518
13.20765,54556
13.21577,56815
13.22388,53770
13.23202,47741
13.24013,48704
13.24827,47569
13.25638,54207
13.26450,53526
13.27263,48062
13.28075,48361
13.28888,47701
13.29700,44838
13.30512,46546
13.31325,45663
13.32137,46680
13.32950,45569
13.33762,44787
13.34573,46097
13.35387,46271
13.36198,47447
13.37010,50058
13.37823,48722
13.38635,50661
13.39448,49057
13.40260,49012
13.41072,47565
13.41885,47463
13.42697,45517
13.43510,48504
13.44322,44735
13.45133,41136
13.45947,43136
13.46758,45848
13.47570,43737
13.48383,45375
13.49195,46438
13.50008,47348
13.50820,45019
13.51632,44480
13.52445,45545
13.53257,44960
13.54070,41589
13.54882,45571
13.55693,45934
13.56507,47445
13.57318,48016
13.58132,48169
13.58943,44334
13.59755,45940
13.60568,46174
13.61380,45584
13.62192,45249
13.63005,50279
13.63817,46332
13.64630,47284
13.65442,45700
13.66253,43578
13.67067,47155
13.67878,47904
13.68692,44562
13.69503,48230
13.70315,44461
13.71128,44329
13.71940,51407
13.72753,45621
13.73565,48626
13.74377,45076
13.75190,48290
13.76002,49687
13.76813,49132
13.77627,53083
13.78438,49201
13.79252,57143
13.80063,53110
13.80875,55390
13.81688,55115
13.82500,53162
13.83313,55668
13.84125,56181
13.84937,54737
13.85750,57540
13.86562,52870
13.87373,51729
13.88187,54113
13.88998,51821
13.89812,54481
13.90623,55757
13.91435,53693
13.92248,58953
13.93060,58102
13.93873,56681
13.94685,56548
13.95497,52063
13.96310,56336
13.97122,53770
13.97935,52825
13.98747,56436
13.99558,53451
14.00372,55099
14.01183,54857
14.01995,54888
14.02808,57253
14.03620,57384
14.04433,59469
14.05245,62480
14.06057,57284
14.06870,59596
14.07682,58486
14.08495,59350
14.09307,57160
14.10118,59255
14.10932,51498
14.11743,54350
14.12555,55454
14.13368,55560
14.14180,58012
14.14993,55904
14.15805,64539
14.16617,90535
14.17430,139175
14.18242,247222
14.19055,379671
14.19867,520936
14.20678,591697
14.21492,530215
14.22303,412264
14.23117,309107
14.23928,229275
14.24740,199785
14.25553,165712
14.26365,155039
14.27177,150347
14.27990,138122
14.28802,134681
14.29615,123752
14.30427,116145
14.31238,111974
14.32052,104405
14.32863,99193
14.33677,97290
14.34488,91778
14.35300,82920
14.36113,73854
14.36925,73015
14.37738,65857
14.38550,65806
14.39362,62031
14.40175,63248
14.40987,64592
14.41798,57264
14.42612,60500
14.43423,62887
14.44237,60562
14.45048,59231
14.45860,60399
14.46673,58341
14.47485,58652
14.48298,58549
14.49110,57203
14.49922,57312
14.50735,57553
14.51547,62358
14.52360,61420
14.53172,60632
14.53983,61100
14.54797,59569
14.55608,55527
14.56420,55373
14.57233,57205
14.58045,56847
14.58858,55549
14.59670,53851
14.60482,56244
14.61295,58852
14.62107,54069
14.62920,58843
14.63732,59945
14.64543,171888
14.65357,582179
14.66168,439604
14.66980,167844
14.67793,114029
14.68605,88365
14.69418,81069
14.70230,81453
14.71042,81517
14.71855,70728
14.72667,72440
14.73480,75114
14.74292,76956
14.75103,92915
14.75917,120607
14.76728,158666
14.77542,192596
14.78353,195031
14.79165,165780
14.79978,134992
14.80790,110578
14.81602,89910
14.82415,81499
14.83227,225118
14.84040,3530611
14.84852,5770738
14.85663,2365183
14.86477,1251807
14.87288,851409
14.88102,623067
14.88913,487902
14.89725,404724
14.90538,354658
14.91350,308506
14.92162,265653
14.92975,241513
14.93787,220349
14.94600,208597
14.95412,199060
14.96223,184441
14.97037,168331
14.97848,168432
14.98662,180817
14.99473,1060605
15.00285,4102675
15.01098,3054717
15.01910,1411334
15.02723,835470
15.03535,629992
15.04347,478809
15.05160,410182
15.05972,341061
15.06783,299227
15.07597,268266
15.08408,235934
15.09222,224685
15.10033,209712
15.10845,189372
15.11658,181098
15.12470,173305
15.13283,165696
15.14095,156478
15.14907,158961
15.15720,145995
15.16532,141096
15.17345,137558
15.18157,135026
15.18968,132479
15.19782,133554
15.20593,112623
15.21405,122729
15.22218,118142
15.23030,114205
15.23843,110174
15.24655,112753
15.25467,106935
15.26280,108760
15.27092,121868
15.27905,125165
15.28717,107318
15.29528,104276
15.30342,103026
15.31153,110256
15.31965,109201
15.32778,98090
15.33590,100646
15.34403,106006
15.35215,124172
15.36027,134917
15.36840,139308
15.37652,142542
15.38465,129545
15.39277,121138
15.40088,108922
15.40902,104869
15.41713,103712
15.42527,104447
15.43338,100587
15.44150,103836
15.44963,102447
15.45775,100474
15.46587,100839
15.47400,91783
15.48212,97911
15.49025,102583
15.49837,142080
15.50648,470464
15.51462,1043102
15.52273,1023744
15.53087,642353
15.53898,414428
15.54710,313485
15.55523,234171
15.56335,199566
15.57148,170595
15.57960,161259
15.58772,142030
15.59585,133799
15.60397,124490
15.61208,121280
15.62022,115146
15.62833,110674
15.63647,109202
15.64458,101062
15.65270,99633
15.66083,93114
15.66895,96869
15.67708,94342
15.68520,96342
15.69332,90707
15.70145,88641
15.70957,87071
15.71768,86050
15.72582,86060
15.73393,87125
15.74207,81878
15.75018,81623
15.75830,80170
15.76643,83088
15.77455,79223
15.78268,74234
15.79080,79471
15.79892,77741
15.80705,78219
15.81517,79220
15.82330,80744
15.83142,77040
15.83953,78483
15.84767,81695
15.85578,79059
15.86390,80475
15.87203,71906
15.88015,72986
15.88828,69113
15.89640,73184
15.90452,78456
15.91265,76516
15.92077,72333
15.92890,77923
15.93702,71231
15.94513,73475
15.95327,77541
15.96138,74441
15.96950,74197
15.97763,70217
15.98575,75540
15.99388,71794
16.00200,72690
16.01012,78885
16.01825,78806
16.02637,82342
16.03450,79051
16.04262,86712
16.05073,80426
16.05887,81352
16.06698,75877
16.07512,71636
16.08323,73572
16.09135,73954
16.09948,73550
16.10760,69911
16.11572,66639
16.12385,69515
16.13197,71187
16.14010,66130
16.14822,67351
16.15633,67747
16.16447,66039
16.17258,65811
16.18072,69370
16.18883,68902
16.19695,65852
16.20508,71935
16.21320,71003
16.22133,71621
16.22945,69078
16.23757,67631
16.24570,70744
16.25382,70876
16.26193,65425
16.27007,73355
16.27818,69533
16.28632,66869
16.29443,65741
16.30255,71663
16.31068,65797
16.31880,68041
16.32693,68111
16.33505,68240
16.34317,64843
16.35130,66574
16.35942,65941
16.36753,67559
16.37567,71625
16.38378,73180
16.39192,74151
16.40003,66306
16.40815,65915
16.41628,67538
16.42440,65258
16.43253,63141
16.44065,67088
16.44877,62219
16.45690,68057
16.46502,65586
16.47315,61687
16.48127,67307
16.48938,63917
16.49752,68620
16.50563,65831
16.51375,66376
16.52188,69013
16.53000,63936
16.53813,64043
16.54625,66263
16.55437,64443
16.56250,60031
16.57062,58617
16.57875,61857
16.58687,65185
16.59498,61145
16.60312,61640
16.61123,63284
16.61937,62392
16.62748,60215
16.63560,62852
16.64373,65963
16.65185,64209
16.65997,62394
16.66810,61468
16.67622,65004
16.68435,60524
16.69247,60483
16.70058,60918
16.70872,63956
16.71683,62989
16.72497,63130
16.73308,60245
16.74120,65725
16.74933,59860
16.75745,64023
16.76557,63921
16.77370,66629
16.78182,63398
16.78995,62642
16.79807,65798
16.80618,61179
16.81432,64166
16.82243,63479
16.83057,64382
16.83868,67044
16.84680,60218
16.85493,61204
16.86305,65140
16.87118,65924
16.87930,66858
16.88742,60075
16.89555,61599
16.90367,64415
16.91178,64116
16.91992,64404
16.92803,63598
16.93617,65409
16.94428,63037
16.95240,61896
16.96053,67512
16.96865,62975
16.97678,59770
16.98490,60353
16.99302,64791
17.00115,60488
17.00927,62790
17.01738,59537
17.02552,62617
17.03363,61088
17.04177,65196
17.04988,56473
17.05800,59991
17.06613,56675
17.07425,64248
17.08238,58502
17.09050,61827
17.09862,60784
17.10675,79102
17.11487,126909
17.12300,199808
17.13112,258581
17.13923,219618
17.14737,164882
17.15548,121751
17.16360,107693
17.17173,93490
17.17985,89178
17.18798,81459
17.19610,77269
17.20422,75188
17.21235,70094
17.22047,69376
17.22860,63680
17.23672,66712
17.24483,65418
17.25297,69668
17.26108,62791
17.26922,63889
17.27733,61657
17.28545,68820
17.29358,62063
17.30170,63012
17.30982,60994
17.31795,65978
17.32607,63548
17.33420,63828
17.34232,69815
17.35043,66219
17.35857,71462
17.36668,73652
17.37482,72326
17.38293,68672
17.39105,72348
17.39918,65679
17.40730,67262
17.41542,65732
17.42355,63055
17.43167,61726
17.43980,60672
17.44792,63894
17.45603,62195
17.46417,60675
17.47228,59240
17.48042,60401
17.48853,61839
17.49665,59251
17.50478,59206
17.51290,62217
17.52103,59766
17.52915,55654
17.53727,61600
17.54540,60945
17.55352,61875
17.56163,61629
17.56977,62231
17.57788,58308
17.58602,59366
17.59413,54495
17.60225,57578
17.61038,52948
17.61850,54424
17.62663,50537
17.63475,55946
17.64287,52376
17.65100,57501
17.65912,55104
17.66725,55825
17.67537,56249
17.68348,57880
17.69162,61234
17.69973,60708
17.70785,55909
17.71598,62431
17.72410,59278
17.73223,57732
17.74035,57398
17.74847,55503
17.75660,57679
17.76472,54102
17.77285,56309
17.78097,57075
17.78908,51998
17.79722,54891
17.80533,55008
17.81345,55334
17.82158,53907
17.82970,55003
17.83783,55205
17.84595,53286
17.85407,55941
17.86220,54163
17.87032,50090
17.87845,54133
17.88657,56803
17.89468,54183
17.90282,54557
17.91093,55056
17.91907,52501
17.92718,51584
17.93530,53110
17.94343,45251
17.95155,49284
17.95967,48620
17.96780,50448
17.97592,49840
17.98405,51156
17.99217,50510
18.00028,52204
18.00842,47895
18.01653,48776
18.02467,50577
18.03278,52475
18.04090,53898
18.04903,48915
18.05715,50143
18.06528,56828
18.07340,53070
18.08152,58280
18.08965,59994
18.09777,59341
18.10588,64981
18.11402,68079
18.12213,64726
18.13027,62249
18.13838,58725
18.14650,62780
18.15463,61564
18.16275,57456
18.17088,61303
18.17900,57456
18.18712,55933
18.19525,55567
18.20337,60092
18.21148,60375
18.21962,57929
18.22773,58346
18.23587,61590
18.24398,58898
18.25210,57216
18.26023,59548
18.26835,57236
18.27648,58919
18.28460,56968
18.29272,56298
18.30085,48999
18.30897,54527
18.31710,55269
18.32522,53689
18.33333,53595
18.34147,54892
18.34958,51338
18.35770,55406
18.36583,53266
18.37395,56735
18.38208,49097
18.39020,50163
18.39832,53142
18.40645,52928
18.41457,50593
18.42270,56706
18.43082,49939
18.43893,52252
18.44707,49571
18.45518,52355
18.46330,44748
18.47143,53663
18.47955,55291
18.48768,51487
18.49580,51137
18.50392,49869
18.51205,49562
18.52017,52644
18.52830,49468
18.53642,47594
18.54453,48279
18.55267,44505
18.56078,48593
18.56892,49674
18.57703,50463
18.58515,44847
18.59328,48035
18.60140,50308
18.60952,50485
18.61765,52247
18.62577,51511
18.63390,49461
18.64202,50685
18.65013,49202
18.65827,49172
18.66638,51517
18.67452,49570
18.68263,50175
18.69075,53068
18.69888,49350
18.70700,51692
18.71513,51031
18.72325,48873
18.73137,52198
18.73950,47314
18.74762,50821
18.75573,52695
18.76387,47841
18.77198,47395
18.78012,49881
18.78823,49418
18.79635,48212
18.80448,50577
18.81260,51506
18.82073,51014
18.82885,47531
18.83697,46671
18.84510,48903
18.85322,48130
18.86133,55804
18.86947,52405
18.87758,49779
18.88572,45722
18.89383,52436
18.90195,46198
18.91008,49807
18.91820,47981
18.92633,48520
18.93445,47514
18.94257,50515
18.95070,48994
18.95882,49291
18.96695,51947
18.97507,52845
18.98318,47994
18.99132,49054
18.99943,54534
19.00755,50515
19.01568,50063
19.02380,50840
19.03193,46238
19.04005,49508
19.04817,46067
19.05630,51678
19.06442,45615
19.07255,48760
19.08067,53784
19.08878,59928
19.09692,69251
19.10503,78939
19.11317,75193
19.12128,79929
19.12940,84407
19.13753,83581
19.14565,84456
19.15377,85668
19.16190,89337
19.17002,88682
19.17815,86980
19.18627,91254
19.19438,85022
19.20252,91196
19.21063,93026
19.21877,89742
19.22688,88292
19.23500,90062
19.24313,95726
19.25125,92617
19.25937,90669
19.26750,91317
19.27562,97934
19.28375,98505
19.29187,109515
19.29998,111893
19.30812,110284
19.31623,112637
19.32437,110760
19.33248,107104
19.34060,102200
19.34873,102019
19.35685,97369
19.36498,97207
19.37310,97434
19.38122,93785
19.38935,93384
19.39747,95378
19.40558,94716
19.41372,98556
19.42183,93035
19.42997,91687
19.43808,95091
19.44620,91618
19.45433,87740
19.46245,97619
19.47058,111784
19.47870,149241
19.48682,202214
19.49495,267637
19.50307,329192
19.51118,329397
19.51932,274870
19.52743,220133
19.53557,161326
19.54368,131486
19.55180,110973
19.55993,103459
19.56805,98022
19.57618,99271
19.58430,104704
19.59242,116296
19.60055,125934
19.60867,135340
19.61680,139912
19.62492,134143
19.63303,142287
19.64117,165423
19.64928,215504
19.65740,292912
19.66553,383068
19.67365,438718
19.68178,429887
19.68990,384846
19.69802,324796
19.70615,262180
19.71427,217698
19.72240,177344
19.73052,154580
19.73863,142876
19.74677,129828
19.75488,120422
19.76302,115555
19.77113,117181
19.77925,110439
19.78738,107820
19.79550,104894
19.80362,103541
19.81175,99233
19.81987,98640
19.82800,105446
19.83612,93508
19.84423,98044
19.85237,101082
19.86048,100744
19.86862,102638
19.87673,103740
19.88485,112633
19.89298,121189
19.90110,135219
19.90923,158750
19.91735,175781
19.92547,185959
19.93360,192390
19.94172,189713
19.94983,182006
19.95797,174984
19.96608,162723
19.97422,160090
19.98233,150721
19.99045,154445
19.99858,142182
20.00670,135600
20.01483,138316
20.02295,142038
20.03107,131001
20.03920,129583
20.04732,123788
20.05543,111558
20.06357,108256
20.07168,108283
20.07982,97520
20.08793,100895
20.09605,94248
20.10418,95305
20.11230,90577
20.12043,90051
20.12855,91460
20.13667,91120
20.14480,95075
20.15292,90451
20.16105,88406
20.16917,91461
20.17728,84146
20.18542,84116
20.19353,84295
20.20165,86074
20.20978,88189
20.21790,88548
20.22603,89431
20.23415,97238
20.24227,107319
20.25040,137366
20.25852,169699
20.26665,228850
20.27477,287439
20.28288,317719
20.29102,308103
20.29913,280965
20.30725,236349
20.31538,200902
20.32350,162687
20.33163,139317
20.33975,126128
20.34787,124635
20.35600,134967
20.36412,148254
20.37225,160322
20.38037,151026
20.38848,143594
20.39662,134405
20.40473,124065
20.41287,120854
20.42098,132760
20.42910,145701
20.43723,158821
20.44535,184644
20.45347,166164
20.46160,166795
20.46972,150980
20.47785,139193
20.48597,125415
20.49408,122025
20.50222,111410
20.51033,104054
20.51847,98334
20.52658,92109
20.53470,96791
20.54283,92426
20.55095,95927
20.55908,87609
20.56720,90900
20.57532,92451
20.58345,91352
20.59157,89045
20.59968,88795
20.60782,86209
20.61593,91323
20.62407,90867
20.63218,88463
20.64030,87798
20.64843,84755
20.65655,85476
20.66468,83417
20.67280,83842
20.68092,82186
20.68905,84909
20.69717,81431
20.70528,81152
20.71342,82719
20.72153,81605
20.72967,81924
20.73778,74400
20.74590,78829
20.75403,74946
20.76215,73262
20.77028,72969
20.77840,77260
20.78652,66811
20.79465,72882
20.80277,72436
20.81090,72025
20.81902,73750
20.82713,72374
20.83527,68355
20.84338,65772
20.85150,70584
20.85963,67946
20.86775,69276
20.87588,64462
20.88400,66435
20.89212,66616
20.90025,61536
20.90837,64414
20.91650,64400
20.92462,67384
20.93273,63856
20.94087,61956
20.94898,59216
20.95712,64110
20.96523,62646
20.97335,63406
20.98148,64009
20.98960,60174
20.99772,58565
21.00585,66937
21.01397,65854
21.02210,69473
21.03022,76276
21.03833,74801
21.04647,73585
21.05458,72853
21.06272,72906
21.07083,66192
21.07895,63294
21.08708,65510
21.09520,65759
21.10332,67668
21.11145,64160
21.11957,64395
21.12770,60303
21.13582,63990
21.14393,66694
21.15207,64653
21.16018,63640
21.16832,57943
21.17643,64138
21.18455,58754
21.19268,61110
21.20080,62199
21.20893,57334
21.21705,56289
21.22517,57737
21.23330,58707
21.24142,59209
21.24953,58463
21.25767,60433
21.26578,63025
21.27392,62901
21.28203,61438
21.29015,63780
21.29828,65779
21.30640,67116
21.31453,67047
21.32265,69723
21.33077,70334
21.33890,67114
21.34702,63977
21.35513,60825
21.36327,58666
21.37138,58499
21.37952,57784
21.38763,56158
21.39575,55475
21.40388,57466
21.41200,58196
21.42013,54361
21.42825,51364
21.43637,56609
21.44450,54130
21.45262,56792
21.46075,53253
21.46887,63685
21.47698,57733
21.48512,58706
21.49323,56530
21.50135,57177
21.50948,59253
21.51760,59632
21.52573,65016
21.53385,60789
21.54197,63110
21.55010,60910
21.55822,61911
21.56635,61976
21.57447,62759
21.58258,60661
21.59072,62077
21.59883,64114
21.60697,78995
21.61508,93406
21.62320,105746
21.63133,122861
21.63945,132646
21.64757,127078
21.65570,111237
21.66382,102994
21.67195,90682
21.68007,79874
21.68818,79531
21.69632,73785
21.70443,75723
21.71257,66941
21.72068,74318
21.72880,70393
21.73693,67515
21.74505,63505
21.75317,65282
21.76130,67097
21.76942,66888
21.77755,67965
21.78567,72416
21.79378,74626
21.80192,80877
21.81003,86610
21.81817,101793
21.82628,104819
21.83440,107793
21.84253,108796
21.85065,106494
21.85878,88709
21.86690,82029
21.87502,73402
21.88315,72609
21.89127,73793
21.89938,67133
21.90752,68109
21.91563,70378
21.92377,70933
21.93188,68774
21.94000,70107
21.94813,63370
21.95625,62865
21.96438,65890
21.97250,56052
21.98062,61001
21.98875,60062
21.99687,60979
22.00500,62103
22.01312,58925
22.02123,58416
22.02937,58816
22.03748,57901
22.04560,58038
22.05373,57050
22.06185,55787
22.06998,57160
22.07810,54367
22.08622,57511
22.09435,52713
22.10247,58583
22.11060,56935
22.11872,57284
22.12683,53264
22.13497,58540
22.14308,60337
22.15120,56249
22.15933,60470
22.16745,54858
22.17558,54992
22.18370,60339
22.19182,58538
22.19995,55656
22.20807,64773
22.21620,69640
22.22432,61170
22.23243,63704
22.24057,52949
22.24868,54356
22.25682,54474
22.26493,54347
22.27305,55688
22.28118,55791
22.28930,53502
22.29742,53992
22.30555,52158
22.31367,54225
22.32180,54087
22.32992,51348
22.33803,54584
22.34617,53685
22.35428,48768
22.36242,48553
22.37053,47724
22.37865,49638
22.38678,54386
22.39490,51997
22.40303,54241
22.41115,50418
22.41927,53895
22.42740,47062
22.43552,46052
22.44363,47057
22.45177,47294
22.45988,49145
22.46802,45267
22.47613,48896
22.48425,52434
22.49238,52379
22.50050,43862
22.50863,45312
22.51675,47284
22.52487,44641
22.53300,47861
22.54112,43624
22.54923,43631
22.55737,45576
22.56548,47290
22.57362,45938
22.58173,43610
22.58985,42903
22.59798,44543
22.60610,43882
22.61423,47908
22.62235,45450
22.63047,44979
22.63860,46148
22.64672,39964
22.65485,43755
22.66297,45100
22.67108,44218
22.67922,45063
22.68733,47667
22.69545,45698
22.70358,41371
22.71170,44745
22.71983,43992
22.72795,42094
22.73607,39872
22.74420,44937
22.75232,40411
22.76045,44321
22.76857,41051
22.77668,44031
22.78482,41672
22.79293,40784
22.80105,41857
22.80918,41402
22.81730,45158
22.82543,41516
22.83355,43221
22.84167,42975
22.84980,47973
22.85792,44830
22.86605,42756
22.87417,50829
22.88228,44902
22.89042,49456
22.89853,46441
22.90667,52773
22.91478,57472
22.92290,63610
22.93103,67021
22.93915,69916
22.94727,73560
22.95540,68543
22.96352,68922
22.97165,64868
22.97977,58441
22.98788,57348
22.99602,57447
23.00413,55257
23.01227,52563
23.02038,48205
23.02850,45949
23.03663,44142
23.04475,42724
23.05288,44348
23.06100,45350
23.06912,46986
23.07725,45238
23.08537,40828
23.09348,43419
23.10162,40153
23.10973,42048
23.11787,40677
23.12598,41093
23.13410,42151
23.14223,41222
23.15035,44475
23.15848,45951
23.16660,43189
23.17472,42028
23.18285,44104
23.19097,44746
23.19908,40511
23.20722,42337
23.21533,40919
23.22347,45667
23.23158,40357
23.23970,39443
23.24783,42882
23.25595,43689
23.26408,41500
23.27220,46284
23.28032,44945
23.28845,39939
23.29657,41440
23.30470,42212
23.31282,40570
23.32093,38113
23.32907,43055
23.33718,44118
23.34530,43967
23.35343,43526
23.36155,42958
23.36968,39070
23.37780,40999
23.38592,44930
23.39405,41889
23.40217,41795
23.41030,43093
23.41842,46576
23.42653,45943
23.43467,43867
23.44278,43809
23.45092,41371
23.45903,43453
23.46715,40977
23.47528,41002
23.48340,42375
23.49152,44180
23.49965,45765
23.50777,43279
23.51590,42984
23.52402,44172
23.53213,45156
23.54027,44941
23.54838,43458
23.55652,43610
23.56463,46210
23.57275,43452
23.58088,45674
23.58900,48408
23.59712,44029
23.60525,42002
23.61337,40396
23.62150,47616
23.62962,46397
23.63773,47125
23.64587,47114
23.65398,53517
23.66212,49603
23.67023,49906
23.67835,49287
23.68648,46658
23.69460,45913
23.70273,45988
23.71085,46448
23.71897,51465
23.72710,57564
23.73522,91746
23.74333,204944
23.75147,522319
23.75958,1336545
23.76772,2979195
23.77583,5025546
23.78395,6478303
23.79208,6735335
23.80020,6291853
23.80833,5112974
23.81645,3904955
23.82457,2871103
23.83270,2040249
23.84082,1496099
23.84893,1171015
23.85707,948065
23.86518,891911
23.87332,953822
23.88143,1059319
23.88955,1209223
23.89768,1263222
23.90580,1221119
23.91393,1069157
23.92205,915561
23.93017,762809
23.93830,609454
23.94642,502694
23.95455,434969
23.96267,372804
23.97078,340426
23.97892,300566
23.98703,276344
23.99515,255296
24.00328,242827
24.01140,226041
24.01953,218750
24.02765,218993
24.03577,203291
24.04390,190387
24.05202,183302
24.06015,182522
24.06827,173092
24.07638,166400
24.08452,168384
24.09263,158460
24.10077,147480
24.10888,152561
24.11700,159929
24.12513,161768
24.13325,154003
24.14137,159909
24.14950,140721
24.15762,135323
24.16575,129484
24.17387,127689
24.18198,130712
24.19012,130796
24.19823,138438
24.20637,133874
24.21448,137798
24.22260,129977
24.23073,128302
24.23885,123278
24.24697,119637
24.25510,109734
24.26322,115021
24.27135,111246
24.27947,109219
24.28758,103251
24.29572,100506
24.30383,103113
24.31197,105933
24.32008,93459
24.32820,96770
24.33633,91204
24.34445,98653
24.35258,98265
24.36070,114623
24.36882,149917
24.37695,241641
24.38507,404536
24.39318,653849
24.40132,930061
24.40943,1127307
24.41757,1188351
24.42568,1051862
24.43380,903118
24.44193,700419
24.45005,557661
24.45818,455455
24.46630,371456
24.47442,297840
24.48255,274162
24.49067,235976
24.49880,235238
24.50692,224518
24.51503,206649
24.52317,192144
24.53128,175624
24.53940,163622
24.54753,150198
24.55565,147697
24.56378,139453
24.57190,133516
24.58002,137802
24.58815,139742
24.59627,141831
24.60440,140400
24.61252,131012
24.62063,122486
24.62877,115780
24.63688,106675
24.64500,103285
24.65313,105380
24.66125,106100
24.66938,106088
24.67750,105291
24.68562,100117
24.69375,97635
24.70187,93776
24.71000,88843
24.71812,83616
24.72623,88609
24.73437,83645
24.74248,83760
24.75062,83909
24.75873,83579
24.76685,81810
24.77498,81460
24.78310,77316
24.79122,81808
24.79935,75696
24.80747,72680
24.81560,78404
24.82372,73173
24.83183,74494
24.83997,71262
24.84808,74575
24.85622,70463
24.86433,68194
24.87245,71962
24.88058,70487
24.88870,75818
24.89682,69837
24.90495,72381
24.91307,72006
24.92120,71649
24.92932,70038
24.93743,67397
24.94557,66485
24.95368,69386
24.96182,69892
24.96993,64644
24.97805,66760
24.98618,65077
24.99430,59746
25.00243,63281
25.01055,64065
25.01867,61132
25.02680,61981
25.03492,61994
25.04303,64832
25.05117,68252
25.05928,61421
25.06742,58495
25.07553,61621
25.08365,57601
25.09178,64794
25.09990,58028
25.10803,65519
25.11615,62162
25.12427,62393
25.13240,65612
25.14052,66948
25.14865,70421
25.15677,68499
25.16488,69820
25.17302,67009
25.18113,68493
25.18925,63221
25.19738,60973
25.20550,61442
25.21363,60115
25.22175,63278
25.22987,59001
25.23800,63432
25.24612,64445
25.25425,66305
25.26237,64064
25.27048,66295
25.27862,62550
25.28673,68857
25.29487,66199
25.30298,68324
25.31110,73130
25.31923,69711
25.32735,69057
25.33547,72222
25.34360,65105
25.35172,63370
25.35985,61178
25.36797,60720
25.37608,61084
25.38422,59868
25.39233,58882
25.40047,55463
25.40858,55438
25.41670,55748
25.42483,58549
25.43295,64363
25.44107,61617
25.44920,58814
25.45732,63220
25.46545,62032
25.47357,60419
25.48168,62189
25.48982,61070
25.49793,61510
25.50607,62902
25.51418,58503
25.52230,54464
25.53043,55206
25.53855,57733
25.54668,52318
25.55480,54177
25.56292,52998
25.57105,53873
25.57917,50432
25.58728,50985
25.59542,52844
25.60353,50644
25.61167,50409
25.61978,49225
25.62790,52034
25.63603,51315
25.64415,51873
25.65228,49051
25.66040,50115
25.66852,49388
25.67665,48694
25.68477,51121
25.69288,49575
25.70102,49224
25.70913,50195
25.71727,44679
25.72538,48676
25.73350,50245
25.74163,51832
25.74975,49294
25.75788,50216
25.76600,45375
25.77412,50404
25.78225,46370
25.79037,52586
25.79850,48239
25.80662,49850
25.81473,46816
25.82287,48172
25.83098,47814
25.83910,51808
25.84723,49723
25.85535,49439
25.86348,52079
25.87160,48959
25.87972,50273
25.88785,50684
25.89597,44987
25.90410,45894
25.91222,45436
25.92033,46431
25.92847,43611
25.93658,43913
25.94472,46431
25.95283,44095
25.96095,45655
25.96908,48256
25.97720,49242
25.98532,50525
25.99345,45535
26.00157,44159
26.00970,44593
26.01782,47105
26.02593,45537
26.03407,48241
26.04218,45569
26.05032,45272
26.05843,45575
26.06655,47025
26.07468,46033
26.08280,48579
26.09092,46326
26.09905,46844
26.10717,45624
26.11530,50556
26.12342,54368
26.13153,51587
26.13967,52854
26.14778,54768
26.15592,51726
26.16403,52610
26.17215,54132
26.18028,49878
26.18840,50635
26.19653,45787
26.20465,46162
26.21277,49222
26.22090,49381
26.22902,51073
26.23713,47756
26.24527,54334
26.25338,52540
26.26152,48902
26.26963,51299
26.27775,49242
26.28588,49114
26.29400,51282
26.30213,53423
26.31025,50479
26.31837,48479
26.32650,44693
26.33462,48542
26.34275,45810
26.35087,49752
26.35898,45952
26.36712,44827
26.37523,48121
26.38335,44863
26.39148,43781
26.39960,44660
26.40773,47753
26.41585,50158
26.42397,50719
26.43210,45607
26.44022,46846
26.44835,48821
26.45647,48833
26.46458,51505
26.47272,50112
26.48083,49011
26.48895,43197
26.49708,47300
26.50520,48639
26.51333,44591
26.52145,48927
26.52957,44307
26.53770,44869
26.54582,43115
26.55395,45344
26.56207,46970
26.57018,45400
26.57832,43844
26.58643,43931
26.59457,47720
26.60268,45296
26.61080,45150
26.61893,43120
26.62705,45999
26.63517,47024
26.64330,44810
26.65142,46274
26.65955,44908
26.66767,48424
26.67578,44856
26.68392,44802
26.69203,48635
26.70017,45781
26.70828,46560
26.71640,47893
26.72453,47048
26.73265,48333
26.74077,44206
26.74890,49604
26.75702,46500
26.76515,45644
26.77327,44387
26.78138,48555
26.78952,46327
26.79763,45953
26.80577,46920
26.81388,49557
26.82200,45724
26.83013,48972
26.83825,49399
26.84638,50273
26.85450,52591
26.86262,55812
26.87075,54731
26.87887,52747
26.88698,51703
26.89512,51376
26.90323,49899
26.91137,53742
26.91948,53312
26.92760,53488
26.93573,60611
26.94385,65516
26.95198,85697
26.96010,141244
26.96822,275189
26.97635,571944
26.98447,1142642
26.99260,2277291
27.00072,3980386
27.00883,5659056
27.01697,6847139
27.02508,7230022
27.03320,6736592
27.04133,5723096
27.04945,4748399
27.05758,3814987
27.06570,3033510
27.07382,2390603
27.08195,1789322
27.09007,1377983
27.09820,1089117
27.10632,873408
27.11443,713570
27.12257,616780
27.13068,526607
27.13880,475930
27.14693,414342
27.15505,380958
27.16318,351958
27.17130,327904
27.17942,301602
27.18755,279156
27.19567,270449
27.20380,254973
27.21192,271839
27.22003,300390
27.22817,358976
27.23628,460888
27.24442,573885
27.25253,701825
27.26065,798480
27.26878,825368
27.27690,799860
27.28502,737599
27.29315,682254
27.30127,595281
27.30940,521654
27.31752,447158
27.32563,383513
27.33377,323826
27.34188,277619
27.35002,260700
27.35813,235263
27.36625,210849
27.37438,205342
27.38250,178547
27.39063,177744
27.39875,168669
27.40687,162001
27.41500,157792
27.42312,155390
27.43123,149183
27.43937,137329
27.44748,137055
27.45562,131205
27.46373,126811
27.47185,123231
27.47998,119674
27.48810,117179
27.49623,122676
27.50435,123911
27.51247,124700
27.52060,122695
27.52872,117593
27.53683,118463
27.54497,113114
27.55308,112304
27.56122,103551
27.56933,104024
27.57745,98005
27.58558,103653
27.59370,101438
27.60183,103069
27.60995,101258
27.61807,95758
27.62620,94203
27.63432,94145
27.64245,89829
27.65057,86560
27.65868,85377
27.66682,85268
27.67493,87877
27.68305,82067
27.69118,82442
27.69930,82358
27.70743,82793
27.71555,79179
27.72367,82860
27.73180,77482
27.73992,75768
27.74805,77833
27.75617,80126
27.76428,79365
27.77242,73169
27.78053,72967
27.78867,75386
27.79678,73586
27.80490,76938
27.81303,73169
27.82115,71508
27.82927,77727
27.83740,70770
27.84552,71735
27.85365,74736
27.86177,71445
27.86988,67373
27.87802,76319
27.88613,74783
27.89427,73329
27.90238,68053
27.91050,67426
27.91863,66519
27.92675,68239
27.93487,67939
27.94300,67904
27.95112,65897
27.95925,61910
27.96737,69380
27.97548,62602
27.98362,68780
27.99173,63099
27.99987,61893
28.00798,65698
28.01610,59874
28.02423,60771
28.03235,57768
28.04048,62094
28.04860,63794
28.05672,63359
28.06485,62716
28.07297,59029
28.08108,57818
28.08922,59335
28.09733,60453
28.10547,65326
28.11358,61309
28.12170,57867
28.12983,58031
28.13795,58591
28.14608,57311
28.15420,60341
28.16232,62069
28.17045,66865
28.17857,70491
28.18668,74316
28.19482,74725
28.20293,73430
28.21107,71268
28.21918,76434
28.22730,67165
28.23543,64741
28.24355,60848
28.25168,61316
28.25980,67108
28.26792,69886
28.27605,91969
28.28417,125578
28.29230,179338
28.30042,282908
28.30853,433832
28.31667,619346
28.32478,874340
28.33290,1166832
28.34103,1494360
28.34915,1831265
28.35728,2027100
28.36540,2175324
28.37352,2303261
28.38165,2321864
28.38977,2271570
28.39790,2206764
28.40602,1939405
28.41413,1763036
28.42227,1569325
28.43038,1429571
28.43852,1244697
28.44663,1109255
28.45475,971857
28.46288,869471
28.47100,740361
28.47912,696955
28.48725,689902
28.49537,660026
28.50350,625597
28.51162,607312
28.51973,591248
28.52787,572525
28.53598,559500
28.54412,538570
28.55223,531787
28.56035,503356
28.56848,465908
28.57660,443409
28.58472,428671
28.59285,393975
28.60097,370017
28.60910,348621
28.61722,327832
28.62533,309782
28.63347,293310
28.64158,278350
28.64972,260676
28.65783,253144
28.66595,241680
28.67408,227498
28.68220,219049
28.69033,210583
28.69845,198370
28.70657,187074
28.71470,185318
28.72282,174026
28.73093,175917
28.73907,176805
28.74718,187960
28.75532,206098
28.76343,209455
28.77155,206713
28.77968,196807
28.78780,183535
28.79593,165418
28.80405,158302
28.81217,148975
28.82030,143764
28.82842,142759
28.83655,138068
28.84467,127439
28.85278,129587
28.86092,117683
28.86903,112935
28.87715,122007
28.88528,112430
28.89340,112523
28.90153,110997
28.90965,109032
28.91777,111400
28.92590,108263
28.93402,112597
28.94215,105702
28.95027,109465
28.95838,100894
28.96652,105266
28.97463,105478
28.98275,101756
28.99088,99692
28.99900,98854
29.00713,94759
29.01525,95493
29.02337,99297
29.03150,95684
29.03962,96319
29.04775,96115
29.05587,93208
29.06398,89357
29.07212,87018
29.08023,91094
29.08837,91911
29.09648,88947
29.10460,84712
29.11273,87862
29.12085,90919
29.12897,84950
29.13710,80925
29.14522,83034
29.15335,82179
29.16147,86334
29.16958,82545
29.17772,86687
29.18583,82364
29.19397,81740
29.20208,82066
29.21020,83567
29.21833,79079
29.22645,75510
29.23457,78143
29.24270,87714
29.25082,89098
29.25895,89332
29.26707,87276
29.27518,91009
29.28332,92521
29.29143,95811
29.29957,87649
29.30768,89582
29.31580,84021
29.32393,84262
29.33205,80092
29.34018,83698
29.34830,78144
29.35642,75747
29.36455,74570
29.37267,80284
29.38078,74110
29.38892,74112
29.39703,74487
29.40517,80566
29.41328,78029
29.42140,75977
29.42953,74736
29.43765,70651
29.44578,70603
29.45390,78063
29.46202,78495
29.47015,79757
29.47827,79019
29.48640,79714
29.49452,74697
29.50263,80633
29.51077,76722
29.51888,79685
29.52700,78043
29.53513,71555
29.54325,70366
29.55138,64897
29.55950,67186
29.56762,67154
29.57575,63880
29.58387,62035
29.59200,67347
29.60012,66553
29.60823,68777
29.61637,63010
29.62448,64382
29.63260,68446
29.64073,65493
29.64885,66973
29.65698,61562
29.66510,63778
29.67322,63237
29.68135,60062
29.68947,60746
29.69760,59463
29.70572,61910
29.71383,59619
29.72197,61402
29.73008,56768
29.73822,61017
29.74633,59217
29.75445,59386
29.76258,61096
29.77070,61661
29.77882,57975
29.78695,57694
29.79507,54199
29.80320,55409
29.81132,49555
29.81943,56605
29.82757,58498
29.83568,57168
29.84382,59999
29.85193,54004
29.86005,56497
29.86818,57291
29.87630,55807
29.88443,57096
29.89255,59673
29.90067,67154
29.90880,76141
29.91692,80789
29.92503,98070
29.93317,120735
29.94128,156871
29.94942,207376
29.95753,261342
29.96565,305642
29.97378,377254
29.98190,437642
29.99003,522806
29.99815,594760
30.00627,646542
30.01440,695452
30.02252,716167
30.03063,741388
30.03877,774688
30.04688,789675
30.05502,785841
30.06313,782452
30.07125,743051
30.07938,721917
30.08750,705791
30.09563,684823
30.10375,641302
30.11187,604613
30.12000,564206
30.12812,537857
30.13625,509479
30.14437,486367
30.15248,440795
30.16062,413193
30.16873,390651
30.17685,372133
30.18498,343740
30.19310,317376
30.20123,305788
30.20935,280984
30.21747,266849
30.22560,247376
30.23372,233061
30.24185,220911
30.24997,208743
30.25808,194902
30.26622,183173
30.27433,178378
30.28245,168176
30.29058,159786
30.29870,166790
30.30683,148026
30.31495,144226
30.32307,144686
30.33120,134585
30.33932,132585
30.34745,126849
30.35557,123190
30.36368,120239
30.37182,123473
30.37993,114688
30.38807,112530
30.39618,106912
30.40430,105648
30.41243,104252
30.42055,104062
30.42867,99823
30.43680,103888
30.44492,97589
30.45305,92755
30.46117,94193
30.46928,88410
30.47742,92042
30.48553,88786
30.49367,89341
30.50178,88246
30.50990,84733
30.51803,90833
30.52615,88761
30.53428,84516
30.54240,81204
30.55052,82080
30.55865,83959
30.56677,82066
30.57488,77994
30.58302,78720
30.59113,78129
30.59927,83200
30.60738,79391
30.61550,79863
30.62363,75818
30.63175,75025
30.63988,70608
30.64800,73430
30.65612,73081
30.66425,72616
30.67237,69133
30.68050,71625
30.68862,72554
30.69673,69293
30.70487,68979
30.71298,65410
30.72110,71066
30.72923,69188
30.73735,65533
30.74548,71961
30.75360,64376
30.76172,61889
30.76985,65890
30.77797,68948
30.78610,72133
30.79422,70058
30.80233,71562
30.81047,69635
30.81858,71094
30.82670,64250
30.83483,73874
30.84295,66166
30.85108,66712
30.85920,66748
30.86732,62788
30.87545,64709
30.88357,64717
30.89170,65049
30.89982,62495
30.90793,63018
30.91607,62657
30.92418,63115
30.93232,66705
30.94043,63577
30.94855,62365
30.95668,65752
30.96480,57900
30.97292,59519
30.98105,62683
30.98917,60400
30.99730,63043
31.00542,58208
31.01353,63483
31.02167,66691
31.02978,62595
31.03792,62745
31.04603,58325
31.05415,61278
31.06228,55287
31.07040,62763
31.07852,66702
31.08665,63226
31.09477,73085
31.10290,77865
31.11102,74739
31.11913,72381
31.12727,69450
31.13538,66243
31.14352,65200
31.15163,66753
31.15975,65688
31.16788,69522
31.17600,66999
31.18413,74078
31.19225,87620
31.20037,101333
31.20850,119725
31.21662,138258
31.22473,148280
31.23287,145184
31.24098,138144
31.24912,126724
31.25723,111191
31.26535,93635
31.27348,84638
31.28160,71258
31.28973,66115
31.29785,65633
31.30597,68457
31.31410,64572
31.32222,64558
31.33035,63657
31.33847,65609
31.34658,69392
31.35472,67336
31.36283,72053
31.37095,77051
31.37908,75506
31.38720,71635
31.39533,69147
31.40345,74734
31.41157,69645
31.41970,73765
31.42782,62379
31.43595,62569
31.44407,59204
31.45218,57310
31.46032,57940
31.46843,60172
31.47655,55739
31.48468,55691
31.49280,55090
31.50093,55644
31.50905,56120
31.51717,54259
31.52530,54645
31.53342,54566
31.54155,55047
31.54967,51755
31.55778,52513
31.56592,57271
31.57403,57078
31.58217,52145
31.59028,54673
31.59840,52493
31.60653,56347
31.61465,53078
31.62277,61602
31.63090,52229
31.63902,53508
31.64715,57911
31.65527,48008
31.66338,51784
31.67152,54800
31.67963,53281
31.68777,54768
31.69588,56362
31.70400,50900
31.71213,55571
31.72025,51834
31.72838,53215
31.73650,51143
31.74462,52043
31.75275,48153
31.76087,53219
31.76898,51238
31.77712,51462
31.78523,50469
31.79337,55189
31.80148,53773
31.80960,56190
31.81773,53175
31.82585,56181
31.83398,55973
31.84210,51903
31.85022,57519
31.85835,56487
31.86647,68175
31.87458,74334
31.88272,88442
31.89083,109824
31.89897,143149
31.90708,174066
31.91520,217342
31.92333,260262
31.93145,298201
31.93958,329584
31.94770,363867
31.95582,392114
31.96395,424772
31.97207,418326
31.98020,425575
31.98832,432982
31.99643,407480
32.00457,415585
32.01268,401318
32.02080,368214
32.02893,363471
32.03705,331525
32.04518,319484
32.05330,303481
32.06142,296863
32.06955,270124
32.07767,250851
32.08580,226113
32.09392,215053
32.10203,200825
32.11017,183803
32.11828,164164
32.12640,159520
32.13453,157057
32.14265,139161
32.15078,129852
32.15890,131571
32.16702,125785
32.17515,115832
32.18327,113898
32.19140,107297
32.19952,108715
32.20763,101691
32.21577,102849
32.22388,93644
32.23202,96391
32.24013,94163
32.24825,95889
32.25638,91211
32.26450,94693
32.27262,83634
32.28075,89025
32.28887,81678
32.29700,84681
32.30512,81533
32.31323,76797
32.32137,75392
32.32948,74666
32.33762,79234
32.34573,80185
32.35385,77490
32.36198,80532
32.37010,73758
32.37823,74666
32.38635,68381
32.39447,75409
32.40260,66815
32.41072,70971
32.41883,69777
32.42697,65586
32.43508,67861
32.44322,64774
32.45133,63655
32.45945,65572
32.46758,70536
32.47570,65497
32.48383,67960
32.49195,65615
32.50007,63645
32.50820,63731
32.51632,67759
32.52443,68510
32.53257,65253
32.54068,67644
32.54882,63017
32.55693,65198
32.56505,62939
32.57318,59383
32.58130,64832
32.58943,63601
32.59755,62993
32.60567,65258
32.61380,59223
32.62192,68992
32.63005,72920
32.63817,78272
32.64628,88596
32.65442,96840
32.66253,100914
32.67065,103000
32.67878,87829
32.68690,78177
32.69503,76799
32.70315,69847
32.71127,70182
32.71940,69113
32.72752,67576
32.73565,65255
32.74377,63806
32.75188,64483
32.76002,62835
32.76813,58929
32.77627,57600
32.78438,58588
32.79250,61511
32.80063,57824
32.80875,58466
32.81687,59344
32.82500,59163
32.83312,58948
32.84125,56391
32.84937,54455
32.85748,54808
32.86562,54329
32.87373,54486
32.88187,55942
32.88998,57476
32.89810,53905
32.90623,55383
32.91435,54324
32.92247,56662
32.93060,55252
32.93872,52732
32.94685,57008
32.95497,55759
32.96308,58562
32.97122,53715
32.97933,53571
32.98747,52404
32.99558,56749
33.00370,53376
33.01183,53008
33.01995,54612
33.02808,56393
33.03620,52040
33.04432,52902
33.05245,56726
33.06057,50758
33.06868,55854
33.07682,53953
33.08493,52550
33.09307,61346
33.10118,57131
33.10930,60666
33.11743,58437
33.12555,61348
33.13368,59115
33.14180,63151
33.14992,56448
33.15805,56799
33.16617,55277
33.17430,55005
33.18242,54904
33.19053,58009
33.19867,58263
33.20678,57879
33.21490,58783
33.22303,56510
33.23115,57790
33.23928,55832
33.24740,50104
33.25552,53774
33.26365,53450
33.27177,50733
33.27990,50609
33.28802,55059
33.29613,52694
33.30427,51124
33.31238,52857
33.32050,48213
33.32863,53817
33.33675,57184
33.34488,55253
33.35300,49049
33.36112,51939
33.36925,54140
33.37737,53939
33.38550,50309
33.39362,53567
33.40173,50163
33.40987,52361
33.41798,51045
33.42612,48074
33.43423,49797
33.44235,51547
33.45048,52776
33.45860,50864
33.46672,49031
33.47485,51372
33.48297,52455
33.49110,47377
33.49922,45909
33.50733,50887
33.51547,50526
33.52358,50309
33.53172,50039
33.53983,50068
33.54795,47244
33.55608,45753
33.56420,46766
33.57232,50018
33.58045,50827
33.58857,53362
33.59670,51950
33.60482,46430
33.61293,48918
33.62107,49365
33.62918,47119
33.63732,48204
33.64543,51696
33.65355,49945
33.66168,52862
33.66980,50996
33.67793,48799
33.68605,48130
33.69417,44326
33.70230,46716
33.71042,50913
33.71853,49793
33.72667,46517
33.73478,47775
33.74292,51493
33.75103,46763
33.75915,50240
33.76728,50564
33.77540,53958
33.78353,49692
33.79165,49660
33.79977,49459
33.80790,46834
33.81602,49146
33.82415,50946
33.83227,49478
33.84038,48351
33.84852,54673
33.85663,49570
33.86475,51495
33.87288,47319
33.88100,48573
33.88913,50835
33.89725,50407
33.90537,53174
33.91350,55548
33.92162,53292
33.92975,50354
33.93787,49516
33.94598,48782
33.95412,52125
33.96223,47736
33.97035,50585
33.97848,47799
33.98660,47609
33.99473,49159
34.00285,45997
34.01097,49259
34.01910,52240
34.02722,47672
34.03535,51653
34.04347,47675
34.05158,47083
34.05972,57069
34.06783,50341
34.07597,48530
34.08408,52580
34.09220,47817
34.10033,47855
34.10845,50992
34.11657,51862
34.12470,47913
34.13282,48843
34.14095,47989
34.14907,50534
34.15718,52664
34.16532,50589
34.17343,48398
34.18157,49777
34.18968,52343
34.19780,47328
34.20593,51279
34.21405,50118
34.22218,50121
34.23030,48795
34.23842,48600
34.24655,52364
34.25467,50636
34.26278,46250
34.27092,46542
34.27903,49108
34.28717,48303
34.29528,51510
34.30340,52920
34.31153,48699
34.31965,50903
34.32778,49461
34.33590,50183
34.34402,51492
34.35215,49734
34.36027,53621
34.36838,50062
34.37652,48089
34.38463,49262
34.39277,52165
34.40088,47942
34.40900,50604
34.41713,44904
34.42525,48950
34.43338,47712
34.44150,48029
34.44962,48875
34.45775,48880
34.46587,50855
34.47400,53454
34.48212,60082
34.49023,79808
34.49837,111656
34.50648,147253
34.51460,195769
34.52273,258451
34.53085,309270
34.53898,331375
34.54710,355852
34.55522,364170
34.56335,360436
34.57147,333505
34.57960,311914
34.58772,265422
34.59583,240750
34.60397,214896
34.61208,186087
34.62020,171058
34.62833,151394
34.63645,148956
34.64458,135096
34.65270,127568
34.66082,129456
34.66895,116035
34.67707,110216
34.68520,108604
34.69332,98820
34.70143,99992
34.70957,101383
34.71768,99395
34.72582,93207
34.73393,88788
34.74205,91815
34.75018,89837
34.75830,84599
34.76642,85692
34.77455,83022
34.78267,83383
34.79080,83828
34.79892,80643
34.80703,79036
34.81517,74690
34.82328,74274
34.83142,74285
34.83953,73055
34.84765,67833
34.85578,75263
34.86390,78343
34.87203,73844
34.88015,75100
34.88827,69558
34.89640,76283
34.90452,70977
34.91263,77287
34.92077,81875
34.92888,68440
34.93702,75444
34.94513,71131
34.95325,73002
34.96138,70908
34.96950,68347
34.97763,68981
34.98575,73406
34.99387,69608
35.00200,66614
35.01012,67543
35.01825,70834
35.02637,70403
35.03448,65233
35.04262,66667
35.05073,67435
35.05885,63952
35.06698,64501
35.07510,61968
35.08323,61083
35.09135,65345
35.09947,60002
35.10760,64093
35.11572,57624
35.12385,62342
35.13197,66998
35.14008,65952
35.14822,70465
35.15633,64833
35.16445,66823
35.17258,65439
35.18070,63157
35.18883,60941
35.19695,56657
35.20507,62106
35.21320,59746
35.22132,61847
35.22945,60274
35.23757,59398
35.24568,59759
35.25382,58213
35.26193,61295
35.27007,56958
35.27818,59187
35.28630,60646
35.29443,60923
35.30255,55624
35.31067,59443
35.31880,53004
35.32692,54662
35.33505,52977
35.34317,57583
35.35128,54570
35.35942,55803
35.36753,53344
35.37567,56980
35.38378,53864
35.39190,56015
35.40003,53984
35.40815,58246
35.41627,52547
35.42440,53648
35.43252,56060
35.44065,56519
35.44877,59344
35.45688,61416
35.46502,62687
35.47313,59334
35.48127,60255
35.48938,61454
35.49750,61112
35.50563,59402
35.51375,56567
35.52188,55758
35.53000,60281
35.53812,58879
35.54625,60966
35.55437,60130
35.56248,57502
35.57062,57114
35.57873,57314
35.58687,57565
35.59498,54137
35.60310,58886
35.61123,58945
35.61935,56344
35.62748,58423
35.63560,54924
35.64372,64665
35.65185,66067
35.65997,65030
35.66810,68379
35.67622,65681
35.68433,66730
35.69247,58558
35.70058,58871
35.70870,61521
35.71683,58427
35.72495,58561
35.73308,52467
35.74120,58585
35.74932,60753
35.75745,52676
35.76557,58948
35.77370,57345
35.78182,56900
35.78993,55661
35.79807,56758
35.80618,54219
35.81430,56926
35.82243,54882
35.83055,54964
35.83868,56930
35.84680,53010
35.85492,52588
35.86305,56948
35.87117,53201
35.87930,55472
35.88742,58629
35.89553,59673
35.90367,52087
35.91178,57886
35.91992,54348
35.92803,54774
35.93615,53917
35.94428,54045
35.95240,56769
35.96052,57880
35.96865,51237
35.97677,56520
35.98490,59375
35.99302,60039
36.00113,57220
36.00927,63366
36.01738,54253
36.02552,56563
36.03363,59641
36.04175,63057
36.04988,62903
36.05800,55792
36.06613,57499
36.07425,55751
36.08237,58224
36.09050,60081
36.09862,59560
36.10673,55115
36.11487,54565
36.12298,54066
36.13112,56911
36.13923,54915
36.14735,59348
36.15548,55452
36.16360,57387
36.17173,57190
36.17985,56923
36.18797,54803
36.19610,54055
36.20422,57548
36.21233,61018
36.22047,57118
36.22858,51572
36.23672,56690
36.24483,54523
36.25295,57374
36.26108,56471
36.26920,64995
36.27733,66875
36.28545,77907
36.29357,88273
36.30170,92837
36.30982,90865
36.31795,87241
36.32607,85274
36.33418,72503
36.34232,69507
36.35043,63482
36.35855,60294
36.36668,62336
36.37480,61659
36.38293,60490
36.39105,59221
36.39917,58944
36.40730,56470
36.41542,60104
36.42355,62873
36.43167,58517
36.43978,58777
36.44792,58831
36.45603,59470
36.46415,59082
36.47228,55969
36.48040,65515
36.48853,62393
36.49665,61622
36.50477,61973
36.51290,60445
36.52102,67078
36.52915,62119
36.53727,68215
36.54538,73339
36.55352,68496
36.56163,70404
36.56977,76993
36.57788,76061
36.58600,74916
36.59413,79341
36.60225,84061
36.61037,84429
36.61850,82089
36.62662,86930
36.63475,89280
36.64287,87573
36.65098,82557
36.65912,82544
36.66723,81808
36.67537,75032
36.68348,71842
36.69160,74525
36.69973,68118
36.70785,67788
36.71598,67170
36.72410,60553
36.73222,69686
36.74035,57390
36.74847,60496
36.75658,63164
36.76472,63300
36.77283,58571
36.78097,58014
36.78908,58084
36.79720,57304
36.80533,57070
36.81345,61082
36.82158,62313
36.82970,58437
36.83782,60332
36.84595,57603
36.85407,58002
36.86218,58928
36.87032,60158
36.87843,54949
36.88657,60994
36.89468,60453
36.90280,60581
36.91093,65491
36.91905,57623
36.92718,60077
36.93530,57741
36.94342,57030
36.95155,58900
36.95967,60868
36.96780,59116
36.97592,59841
36.98403,59940
36.99217,58230
37.00028,58499
37.00840,57186
37.01653,58506
37.02465,59425
37.03278,57939
37.04090,57598
37.04902,61366
37.05715,57854
37.06527,56823
37.07340,59028
37.08152,56417
37.08963,60024
37.09777,62725
37.10588,58325
37.11402,59273
37.12213,65723
37.13025,59110
37.13838,57881
37.14650,58613
37.15462,59118
37.16275,60605
37.17087,62738
37.17900,61005
37.18712,61782
37.19523,61222
37.20337,55330
37.21148,61327
37.21962,60184
37.22773,60478
37.23585,56469
37.24398,58977
37.25210,61385
37.26022,60863
37.26835,64727
37.27647,61501
37.28460,65135
37.29272,73092
37.30083,95763
37.30897,126340
37.31708,161395
37.32522,216016
37.33333,240339
37.34145,256927
37.34958,263922
37.35770,251073
37.36583,230181
37.37395,211365
37.38207,191528
37.39020,173577
37.39832,154255
37.40643,144346
37.41457,131879
37.42268,125493
37.43082,121295
37.43893,113423
37.44705,109835
37.45518,104785
37.46330,105604
37.47143,103599
37.47955,102106
37.48767,97282
