C:\MassHunter\GCMS\1\data\JTB-E02\BACandBLUE\JTB-E18-010-08.D Fri May 17 10:37:38 2019
Start of data points
2.09540,40594
2.10352,43358
2.11165,41548
2.11977,46810
2.12788,41744
2.13602,44855
2.14413,41315
2.15227,44429
2.16038,43662
2.16850,41891
2.17663,42420
2.18475,40140
2.19288,37919
2.20100,38529
2.20912,38435
2.21725,34077
2.22537,38473
2.23348,39095
2.24162,34637
2.24973,34454
2.25787,36332
2.26598,100967
2.27410,660750
2.28223,1163033
2.29035,580108
2.29848,280133
2.30660,211921
2.31472,183245
2.32285,161251
2.33097,149775
2.33910,135198
2.34722,123052
2.35533,108492
2.36347,109329
2.37158,98484
2.37970,98609
2.38783,96505
2.39595,95190
2.40408,90412
2.41220,85464
2.42032,91018
2.42845,90844
2.43657,84220
2.44470,87450
2.45282,89929
2.46093,85835
2.46907,85093
2.47718,77851
2.48532,84201
2.49343,101844
2.50155,100508
2.50968,90475
2.51780,85646
2.52592,79483
2.53405,75368
2.54217,77082
2.55030,82625
2.55842,140950
2.56653,161912
2.57467,125306
2.58278,97078
2.59092,100502
2.59903,122173
2.60715,504279
2.61528,1073306
2.62340,767904
2.63152,409998
2.63965,285178
2.64777,215168
2.65590,179727
2.66402,158009
2.67213,142948
2.68027,124764
2.68838,114538
2.69652,111343
2.70463,102898
2.71275,96779
2.72088,89515
2.72900,96662
2.73713,93409
2.74525,89735
2.75337,83993
2.76150,84512
2.76962,83645
2.77773,166947
2.78587,441453
2.79398,515344
2.80212,318785
2.81023,212467
2.81835,197318
2.82648,174057
2.83460,158098
2.84273,137834
2.85085,127842
2.85897,123511
2.86710,109322
2.87522,107909
2.88333,99552
2.89147,93459
2.89958,96194
2.90772,89147
2.91583,86459
2.92395,84496
2.93208,81855
2.94020,82163
2.94833,83516
2.95645,88332
2.96457,112713
2.97270,117342
2.98082,95546
2.98895,92131
2.99707,88592
3.00518,90778
3.01332,86675
3.02143,82993
3.02955,81070
3.03768,78244
3.04580,80163
3.05393,80008
3.06205,76332
3.07017,84910
3.07830,208206
3.08642,1108984
3.09455,2976515
3.10267,4171039
3.11078,4941850
3.11892,4140146
3.12703,2564046
3.13517,1706578
3.14328,1309583
3.15140,1045518
3.15953,856756
3.16765,760572
3.17577,700540
3.18390,795449
3.19202,1365001
3.20015,1692665
3.20827,1314814
3.21638,923616
3.22452,757759
3.23263,647053
3.24077,570427
3.24888,495783
3.25700,446969
3.26513,402025
3.27325,373876
3.28137,378623
3.28950,644994
3.29762,1763379
3.30575,3927414
3.31387,5267996
3.32198,4488403
3.33012,2873514
3.33823,1853511
3.34637,1335715
3.35448,1065229
3.36260,901364
3.37073,789232
3.37885,697306
3.38698,637786
3.39510,577767
3.40322,536196
3.41135,500797
3.41947,472507
3.42758,456231
3.43572,462025
3.44383,424591
3.45197,422301
3.46008,401945
3.46820,411159
3.47633,401090
3.48445,375909
3.49258,363983
3.50070,353055
3.50882,340955
3.51695,323107
3.52507,333373
3.53320,340073
3.54132,343006
3.54943,348990
3.55757,327100
3.56568,415251
3.57380,613284
3.58193,719709
3.59005,594642
3.59818,483523
3.60630,415860
3.61442,379571
3.62255,385280
3.63067,375113
3.63880,356070
3.64692,338855
3.65503,375945
3.66317,1131824
3.67128,4956120
3.67940,1.164018E+07
3.68753,1.33164E+07
3.69565,9009683
3.70378,5237657
3.71190,3634080
3.72002,2925316
3.72815,2444185
3.73627,2124075
3.74440,1898886
3.75252,1688026
3.76063,1527898
3.76877,1410792
3.77688,1324490
3.78502,1231453
3.79313,1153886
3.80125,1224475
3.80938,1700078
3.81750,2291991
3.82562,2295178
3.83375,1747893
3.84187,1384200
3.85000,1199051
3.85812,1085179
3.86623,990812
3.87437,923648
3.88248,882441
3.89062,828356
3.89873,790756
3.90685,765239
3.91498,763852
3.92310,861995
3.93122,960878
3.93935,969970
3.94747,1208145
3.95560,2520233
3.96372,5063441
3.97183,6466285
3.97997,5182796
3.98808,3412159
3.99622,4103791
4.00433,1.067512E+07
4.01245,2.229488E+07
4.02058,2.821233E+07
4.02870,2.306102E+07
4.03683,1.291641E+07
4.04495,6976957
4.05307,4482765
4.06120,3361680
4.06932,2654733
4.07743,2187350
4.08557,1861172
4.09368,1645366
4.10182,1449108
4.10993,1312734
4.11805,1204686
4.12618,1102470
4.13430,1047949
4.14243,997158
4.15055,945072
4.15867,909634
4.16680,863925
4.17492,831073
4.18305,803183
4.19117,768033
4.19928,744661
4.20742,1024496
4.21553,2742791
4.22365,7606449
4.23178,1.357011E+07
4.23990,1.620192E+07
4.24803,1.37633E+07
4.25615,8802879
4.26427,5615152
4.27240,4070522
4.28052,3093587
4.28865,2477165
4.29677,2080877
4.30488,1780651
4.31302,1564353
4.32113,1376862
4.32925,1248446
4.33738,1167467
4.34550,1061474
4.35363,1025488
4.36175,1005323
4.36987,999600
4.37800,942496
4.38612,894057
4.39425,819301
4.40237,766474
4.41048,732239
4.41862,711193
4.42673,669928
4.43487,650388
4.44298,625725
4.45110,608724
4.45923,600967
4.46735,576671
4.47547,550121
4.48360,547520
4.49172,540406
4.49985,516918
4.50797,498708
4.51608,484692
4.52422,481127
4.53233,478607
4.54047,472512
4.54858,468543
4.55670,458813
4.56483,456070
4.57295,447413
4.58108,424895
4.58920,412030
4.59732,416483
4.60545,401134
4.61357,389707
4.62168,427569
4.62982,518287
4.63793,664376
4.64607,761661
4.65418,717136
4.66230,586348
4.67043,499693
4.67855,453937
4.68668,442562
4.69480,421442
4.70292,389790
4.71105,370786
4.71917,370328
4.72728,355062
4.73542,340995
4.74353,337555
4.75167,344298
4.75978,317384
4.76790,324951
4.77603,321109
4.78415,330510
4.79228,355507
4.80040,414340
4.80852,486869
4.81665,481973
4.82477,425573
4.83290,393467
4.84102,409177
4.84913,426412
4.85727,424956
4.86538,418377
4.87350,398820
4.88163,369516
4.88975,331602
4.89788,321929
4.90600,314378
4.91412,296945
4.92225,308439
4.93037,333734
4.93850,528612
4.94662,1120471
4.95473,2158892
4.96287,3181738
4.97098,3455473
4.97912,2840382
4.98723,1991337
4.99535,1309366
5.00348,955905
5.01160,794971
5.01972,667540
5.02785,664233
5.03597,735246
5.04410,791070
5.05222,754446
5.06033,670094
5.06847,593798
5.07658,533916
5.08472,500116
5.09283,478097
5.10095,451348
5.10908,442331
5.11720,421942
5.12532,423054
5.13345,405323
5.14157,390136
5.14970,408423
5.15782,448217
5.16593,500014
5.17407,516853
5.18218,500589
5.19032,452303
5.19843,449091
5.20655,452506
5.21468,451925
5.22280,452814
5.23093,437004
5.23905,397184
5.24717,399690
5.25530,366185
5.26342,354892
5.27153,330588
5.27967,321969
5.28778,307337
5.29592,307932
5.30403,296676
5.31215,295693
5.32028,285400
5.32840,301313
5.33653,320706
5.34465,311694
5.35277,301350
5.36090,309573
5.36902,290245
5.37713,286326
5.38527,281530
5.39338,290883
5.40152,294279
5.40963,287828
5.41775,279890
5.42588,270298
5.43400,269241
5.44213,265006
5.45025,277028
5.45837,273869
5.46650,286986
5.47462,271704
5.48275,263469
5.49087,253223
5.49898,258991
5.50712,255629
5.51523,251529
5.52335,244668
5.53148,248305
5.53960,241542
5.54773,249488
5.55585,258509
5.56397,312597
5.57210,359237
5.58022,395681
5.58835,369690
5.59647,316791
5.60458,277969
5.61272,255281
5.62083,246764
5.62897,245454
5.63708,251641
5.64520,254460
5.65333,245658
5.66145,238860
5.66957,237117
5.67770,250029
5.68582,271798
5.69395,296572
5.70207,290891
5.71018,275932
5.71832,258474
5.72643,241281
5.73457,230623
5.74268,231500
5.75080,227735
5.75893,221220
5.76705,217076
5.77517,214526
5.78330,211902
5.79142,204120
5.79955,203425
5.80767,208947
5.81578,201823
5.82392,199453
5.83203,199502
5.84017,201872
5.84828,205275
5.85640,205401
5.86453,202893
5.87265,196110
5.88078,197235
5.88890,188976
5.89702,193266
5.90515,181745
5.91327,178600
5.92138,156099
5.92952,148094
5.93763,153937
5.94577,165646
5.95388,177534
5.96200,202333
5.97013,235214
5.97825,273435
5.98638,322384
5.99450,339408
6.00262,326447
6.01075,271853
6.01887,222779
6.02700,194013
6.03512,176723
6.04323,163278
6.05137,160121
6.05948,150840
6.06760,146336
6.07573,144590
6.08385,138143
6.09198,139889
6.10010,142430
6.10822,141456
6.11635,148618
6.12447,176271
6.13260,257087
6.14072,380694
6.14883,504990
6.15697,499069
6.16508,401838
6.17320,310200
6.18133,248906
6.18945,218883
6.19758,205019
6.20570,194051
6.21382,184837
6.22195,181045
6.23007,171323
6.23820,175028
6.24632,172822
6.25443,178338
6.26257,187226
6.27068,181119
6.27882,172420
6.28693,174899
6.29505,167030
6.30318,165845
6.31130,171221
6.31942,174389
6.32755,186790
6.33567,210062
6.34380,227646
6.35192,229866
6.36003,199376
6.36817,190904
6.37628,178494
6.38442,176560
6.39253,184218
6.40065,180460
6.40878,169926
6.41690,176813
6.42502,171003
6.43315,168243
6.44127,167151
6.44940,162341
6.45752,166396
6.46563,158588
6.47377,162593
6.48188,170629
6.49002,175681
6.49813,171613
6.50625,179184
6.51438,169038
6.52250,169826
6.53063,179411
6.53875,173839
6.54687,174623
6.55500,168314
6.56312,184217
6.57123,201070
6.57937,241718
6.58748,258230
6.59562,241704
6.60373,217477
6.61185,189426
6.61998,190579
6.62810,184949
6.63623,185844
6.64435,187258
6.65247,201166
6.66060,223949
6.66872,274903
6.67685,297607
6.68497,282966
6.69308,253041
6.70122,218737
6.70933,208281
6.71745,191210
6.72558,168523
6.73370,160010
6.74183,153593
6.74995,142043
6.75807,147311
6.76620,141526
6.77432,137087
6.78245,140778
6.79057,142905
6.79868,136329
6.80682,132839
6.81493,127862
6.82307,121066
6.83118,120612
6.83930,130983
6.84743,142427
6.85555,194638
6.86367,225770
6.87180,240797
6.87992,215496
6.88805,170640
6.89617,128073
6.90428,104336
6.91242,90673
6.92053,85771
6.92867,78443
6.93678,75859
6.94490,75485
6.95303,80245
6.96115,82985
6.96927,92712
6.97740,108409
6.98552,113242
6.99365,109558
7.00177,101192
7.00988,85529
7.01802,81320
7.02613,79936
7.03427,79199
7.04238,78314
7.05050,76215
7.05863,71568
7.06675,84450
7.07488,78257
7.08300,77277
7.09112,75392
7.09925,68927
7.10737,68474
7.11548,64964
7.12362,66182
7.13173,71056
7.13987,84781
7.14798,112103
7.15610,157726
7.16423,203443
7.17235,216356
7.18048,189088
7.18860,157182
7.19672,147179
7.20485,247164
7.21297,596654
7.22108,1333503
7.22922,2131106
7.23733,2382021
7.24547,1942040
7.25358,1281327
7.26170,754065
7.26983,479158
7.27795,303536
7.28608,200097
7.29420,141036
7.30232,107105
7.31045,107046
7.31857,107514
7.32670,101914
7.33482,102970
7.34293,105178
7.35107,96372
7.35918,96585
7.36730,89214
7.37543,90294
7.38355,84786
7.39168,86066
7.39980,83593
7.40792,86809
7.41605,83273
7.42417,78624
7.43230,84771
7.44042,77198
7.44853,74350
7.45667,75028
7.46478,78139
7.47292,71908
7.48103,77962
7.48915,71989
7.49728,66669
7.50540,68838
7.51352,75823
7.52165,88312
7.52977,127505
7.53790,201366
7.54602,308419
7.55413,429384
7.56227,523656
7.57038,538136
7.57852,479544
7.58663,369784
7.59475,265684
7.60288,190159
7.61100,141980
7.61912,118240
7.62725,99997
7.63537,88042
7.64350,85182
7.65162,82461
7.65973,78484
7.66787,71263
7.67598,76909
7.68412,65103
7.69223,66069
7.70035,68485
7.70848,67378
7.71660,69356
7.72473,69397
7.73285,68374
7.74097,65562
7.74910,69735
7.75722,69868
7.76533,71074
7.77347,75960
7.78158,72594
7.78972,75691
7.79783,84792
7.80595,89091
7.81408,95083
7.82220,89160
7.83033,83366
7.83845,75048
7.84657,70937
7.85470,76870
7.86282,72493
7.87095,78620
7.87907,86998
7.88718,95162
7.89532,93724
7.90343,86342
7.91155,79823
7.91968,78499
7.92780,85511
7.93593,99340
7.94405,108030
7.95217,118156
7.96030,112977
7.96842,104754
7.97655,91534
7.98467,81029
7.99278,72637
8.00092,71048
8.00903,62249
8.01715,69798
8.02528,68216
8.03340,65169
8.04153,68230
8.04965,65234
8.05777,62845
8.06590,63125
8.07402,60501
8.08215,55547
8.09027,54883
8.09838,59255
8.10652,53008
8.11463,52204
8.12277,57674
8.13088,61558
8.13900,72484
8.14713,89344
8.15525,93175
8.16337,92457
8.17150,83039
8.17962,71415
8.18775,64803
8.19587,58675
8.20398,62046
8.21212,53878
8.22023,58105
8.22837,54119
8.23648,53264
8.24460,53484
8.25273,54579
8.26085,55897
8.26897,51150
8.27710,54227
8.28522,52195
8.29335,51476
8.30147,50071
8.30958,56181
8.31772,57483
8.32583,57291
8.33397,53953
8.34208,60005
8.35020,56449
8.35833,54945
8.36645,48001
8.37458,47314
8.38270,49993
8.39082,48584
8.39895,47346
8.40707,50771
8.41518,48877
8.42332,49093
8.43143,47596
8.43957,50308
8.44768,49576
8.45580,45528
8.46393,45963
8.47205,47749
8.48018,44946
8.48830,46063
8.49642,45255
8.50455,47794
8.51267,51852
8.52080,65221
8.52892,112206
8.53703,184234
8.54517,271713
8.55328,300867
8.56140,266722
8.56953,191476
8.57765,120947
8.58578,90747
8.59390,70640
8.60202,71761
8.61015,66708
8.61827,70871
8.62640,68091
8.63452,58844
8.64263,61421
8.65077,54980
8.65888,53338
8.66700,53044
8.67513,50553
8.68325,49894
8.69138,55876
8.69950,56570
8.70762,57338
8.71575,48899
8.72387,52499
8.73200,47696
8.74012,51498
8.74823,60419
8.75637,105499
8.76448,237125
8.77262,479561
8.78073,872629
8.78885,1205684
8.79698,1247864
8.80510,1034150
8.81322,697232
8.82135,426044
8.82947,273925
8.83760,216141
8.84572,190028
8.85383,175762
8.86197,175467
8.87008,163011
8.87822,158199
8.88633,143313
8.89445,134558
8.90258,121712
8.91070,120441
8.91883,126291
8.92695,127443
8.93507,147800
8.94320,161138
8.95132,171073
8.95943,165793
8.96757,151594
8.97568,144711
8.98382,135340
8.99193,134258
9.00005,130327
9.00818,122660
9.01630,114125
9.02443,95417
9.03255,98608
9.04067,95786
9.04880,93465
9.05692,92379
9.06503,89282
9.07317,89861
9.08128,89822
9.08942,96195
9.09753,97361
9.10565,108421
9.11378,123055
9.12190,124521
9.13003,124523
9.13815,114362
9.14627,103804
9.15440,95594
9.16252,93324
9.17065,86561
9.17877,85566
9.18688,86852
9.19502,81549
9.20313,80869
9.21125,80191
9.21938,80679
9.22750,76391
9.23563,78096
9.24375,79355
9.25187,80195
9.26000,81315
9.26812,74959
9.27625,74030
9.28437,72757
9.29248,72100
9.30062,77043
9.30873,67491
9.31685,69902
9.32498,68995
9.33310,71182
9.34123,64004
9.34935,68748
9.35747,70971
9.36560,65734
9.37372,71198
9.38185,70467
9.38997,71843
9.39808,67127
9.40622,76224
9.41433,78843
9.42247,89480
9.43058,97845
9.43870,104281
9.44683,109041
9.45495,101430
9.46307,94152
9.47120,82236
9.47932,80336
9.48745,70268
9.49557,63210
9.50368,63956
9.51182,74158
9.51993,86235
9.52807,87742
9.53618,90352
9.54430,91534
9.55243,79224
9.56055,73405
9.56868,74226
9.57680,73997
9.58492,78941
9.59305,80409
9.60117,89232
9.60928,81918
9.61742,65609
9.62553,60718
9.63367,49702
9.64178,46786
9.64990,43747
9.65803,45922
9.66615,42447
9.67428,46029
9.68240,46030
9.69052,43447
9.69865,45079
9.70677,39898
9.71488,42633
9.72302,38367
9.73113,43341
9.73927,38837
9.74738,41402
9.75550,39144
9.76363,40130
9.77175,37393
9.77988,37469
9.78800,36476
9.79612,38136
9.80425,37524
9.81237,40780
9.82050,36427
9.82862,39273
9.83673,38526
9.84487,40998
9.85298,38473
9.86110,38936
9.86923,42733
9.87735,43013
9.88548,44239
9.89360,39815
9.90172,40349
9.90985,43099
9.91797,46288
9.92610,64447
9.93422,103587
9.94233,175104
9.95047,265361
9.95858,340477
9.96672,359671
9.97483,305141
9.98295,224155
9.99108,159369
9.99920,123014
10.00732,102893
10.01545,85176
10.02357,80075
10.03170,72348
10.03982,71203
10.04793,62418
10.05607,62496
10.06418,64945
10.07232,62632
10.08043,66996
10.08855,65892
10.09668,66787
10.10480,62896
10.11292,59300
10.12105,55728
10.12917,59568
10.13730,55398
10.14542,52856
10.15353,52768
10.16167,50576
10.16978,51034
10.17792,48482
10.18603,48473
10.19415,44438
10.20228,48765
10.21040,48770
10.21853,53934
10.22665,51695
10.23477,57956
10.24290,57984
10.25102,66934
10.25913,105741
10.26727,231900
10.27538,550764
10.28352,1188243
10.29163,2078204
10.29975,3098656
10.30788,4321464
10.31600,6141373
10.32413,8919180
10.33225,1.181429E+07
10.34037,1.291126E+07
10.34850,1.149629E+07
10.35662,7825251
10.36475,4422671
10.37287,2358509
10.38098,1373575
10.38912,954532
10.39723,711795
10.40535,568232
10.41348,460424
10.42160,372346
10.42973,326714
10.43785,300781
10.44597,294653
10.45410,265388
10.46222,251767
10.47035,230668
10.47847,223278
10.48658,202895
10.49472,193608
10.50283,182770
10.51095,171486
10.51908,172242
10.52720,159174
10.53533,161850
10.54345,158218
10.55157,153191
10.55970,151905
10.56782,147648
10.57595,138944
10.58407,135089
10.59218,135204
10.60032,135781
10.60843,122488
10.61657,114744
10.62468,112407
10.63280,108317
10.64093,107925
10.64905,105331
10.65717,102730
10.66530,97947
10.67342,94071
10.68155,101980
10.68967,99900
10.69778,94377
10.70592,98395
10.71403,98263
10.72217,94087
10.73028,84568
10.73840,91245
10.74653,89390
10.75465,87916
10.76277,87427
10.77090,82743
10.77902,83150
10.78715,83081
10.79527,78161
10.80338,74132
10.81152,79619
10.81963,76082
10.82777,76557
10.83588,75826
10.84400,74888
10.85213,70551
10.86025,63368
10.86838,64985
10.87650,67748
10.88462,61074
10.89275,64779
10.90087,64982
10.90898,61309
10.91712,59115
10.92523,58429
10.93337,60228
10.94148,60872
10.94960,56850
10.95773,59143
10.96585,57807
10.97398,62487
10.98210,55860
10.99022,58414
10.99835,59841
11.00647,57475
11.01460,56628
11.02272,56592
11.03083,53357
11.03897,53245
11.04708,51617
11.05520,53696
11.06333,49166
11.07145,51350
11.07958,58328
11.08770,59099
11.09582,62324
11.10395,60763
11.11207,52745
11.12020,49799
11.12832,46478
11.13643,44471
11.14457,43403
11.15268,43937
11.16080,46014
11.16893,46448
11.17705,45966
11.18518,50541
11.19330,52889
11.20142,51144
11.20955,52650
11.21767,51283
11.22580,41420
11.23392,40945
11.24203,39567
11.25017,42820
11.25828,41984
11.26642,41864
11.27453,35342
11.28265,44789
11.29078,41189
11.29890,46708
11.30702,64062
11.31515,96073
11.32327,145179
11.33140,228540
11.33952,303690
11.34763,352281
11.35577,349672
11.36388,293273
11.37202,220109
11.38013,157816
11.38825,117054
11.39638,96490
11.40450,92984
11.41263,79410
11.42075,81450
11.42887,77305
11.43700,69294
11.44512,64979
11.45323,61876
11.46137,61885
11.46948,72461
11.47762,74080
11.48573,98935
11.49385,123949
11.50198,142109
11.51010,142584
11.51823,133264
11.52635,111462
11.53447,96376
11.54260,87683
11.55072,82453
11.55883,71662
11.56697,73642
11.57508,68789
11.58322,69861
11.59133,77303
11.59945,92591
11.60758,121783
11.61570,162317
11.62383,168463
11.63195,172360
11.64007,140797
11.64820,107778
11.65632,87029
11.66445,70383
11.67257,63160
11.68068,54015
11.68882,53212
11.69693,56161
11.70505,54047
11.71318,54878
11.72130,56353
11.72943,52502
11.73755,54232
11.74567,53711
11.75380,48199
11.76192,49160
11.77005,53804
11.77817,48772
11.78628,51476
11.79442,48475
11.80253,51516
11.81065,45628
11.81878,45742
11.82690,45191
11.83503,47318
11.84315,49251
11.85127,43821
11.85940,45509
11.86752,43456
11.87565,42153
11.88377,37420
11.89188,39415
11.90002,39634
11.90813,43685
11.91627,43626
11.92438,48844
11.93250,55054
11.94063,52723
11.94875,55934
11.95687,48133
11.96500,43145
11.97312,42969
11.98125,47115
11.98937,53089
11.99748,74303
12.00562,91618
12.01373,105924
12.02187,107696
12.02998,93020
12.03810,76361
12.04623,64760
12.05435,59073
12.06248,51533
12.07060,47728
12.07872,48038
12.08685,46711
12.09497,45659
12.10308,49713
12.11122,52157
12.11933,53094
12.12747,61554
12.13558,66047
12.14370,66337
12.15183,63901
12.15995,57700
12.16808,52894
12.17620,47845
12.18432,47820
12.19245,47290
12.20057,46730
12.20870,45912
12.21682,45043
12.22493,45607
12.23307,47509
12.24118,48517
12.24930,45028
12.25743,41032
12.26555,43733
12.27368,40605
12.28180,51493
12.28992,41723
12.29805,40372
12.30617,41081
12.31430,40202
12.32242,39787
12.33053,38327
12.33867,37544
12.34678,39147
12.35490,36813
12.36303,40207
12.37115,42782
12.37928,39848
12.38740,39491
12.39552,41640
12.40365,51355
12.41177,60527
12.41990,73321
12.42802,83374
12.43613,78925
12.44427,77114
12.45238,67911
12.46052,60831
12.46863,57626
12.47675,50833
12.48488,49587
12.49300,46132
12.50112,46635
12.50925,47477
12.51737,53394
12.52550,44991
12.53362,48350
12.54173,56070
12.54987,72729
12.55798,79344
12.56612,84512
12.57423,81723
12.58235,78884
12.59048,59692
12.59860,52527
12.60672,50875
12.61485,52610
12.62297,53432
12.63110,50654
12.63922,51171
12.64733,45473
12.65547,44154
12.66358,47995
12.67172,42532
12.67983,41419
12.68795,40784
12.69608,42500
12.70420,40664
12.71233,39551
12.72045,47783
12.72857,62818
12.73670,57890
12.74482,62154
12.75293,60481
12.76107,54985
12.76918,48326
12.77732,45462
12.78543,38954
12.79355,42006
12.80168,39823
12.80980,37294
12.81793,37445
12.82605,34850
12.83417,36759
12.84230,37804
12.85042,30479
12.85855,33143
12.86667,34493
12.87478,31164
12.88292,36016
12.89103,32223
12.89915,33319
12.90728,30776
12.91540,32363
12.92353,33384
12.93165,33963
12.93977,33437
12.94790,34718
12.95602,41694
12.96415,50873
12.97227,62624
12.98038,80057
12.98852,97179
12.99663,94007
13.00475,76371
13.01288,61852
13.02100,53268
13.02913,44400
13.03725,39893
13.04537,37780
13.05350,39599
13.06162,37895
13.06975,40306
13.07787,38300
13.08598,37456
13.09412,36480
13.10223,37776
13.11037,36222
13.11848,37698
13.12660,34767
13.13473,35839
13.14285,40350
13.15097,36630
13.15910,37616
13.16722,35394
13.17535,40821
13.18347,38087
13.19158,40163
13.19972,40358
13.20783,40196
13.21597,40481
13.22408,36338
13.23220,39742
13.24033,37355
13.24845,36206
13.25658,37359
13.26470,42260
13.27282,36729
13.28095,36919
13.28907,37139
13.29718,38231
13.30532,35994
13.31343,32996
13.32157,33371
13.32968,35257
13.33780,33000
13.34593,32720
13.35405,32446
13.36218,35156
13.37030,31635
13.37842,30874
13.38655,29243
13.39467,32745
13.40278,30354
13.41092,32428
13.41903,30290
13.42717,30213
13.43528,26900
13.44340,32174
13.45153,28668
13.45965,29114
13.46778,30623
13.47590,31061
13.48402,31783
13.49215,31471
13.50027,29536
13.50840,35096
13.51652,32290
13.52463,37389
13.53277,37465
13.54088,35803
13.54900,30440
13.55713,33611
13.56525,32297
13.57338,30293
13.58150,33603
13.58962,33641
13.59775,36974
13.60587,39095
13.61400,40307
13.62212,44731
13.63023,42549
13.63837,39468
13.64648,42017
13.65460,39634
13.66273,31495
13.67085,32524
13.67898,29573
13.68710,31589
13.69522,28940
13.70335,27359
13.71147,27783
13.71960,32491
13.72772,33009
13.73583,35101
13.74397,52586
13.75208,81866
13.76022,144778
13.76833,230237
13.77645,324185
13.78458,392331
13.79270,384315
13.80082,340690
13.80895,287098
13.81707,246261
13.82520,233289
13.83332,238551
13.84143,243013
13.84957,227505
13.85768,203872
13.86582,168285
13.87393,135876
13.88205,110230
13.89018,96888
13.89830,87804
13.90643,80608
13.91455,71596
13.92267,71097
13.93080,64134
13.93892,62754
13.94703,63555
13.95517,62442
13.96328,58909
13.97142,67050
13.97953,67073
13.98765,68864
13.99578,64623
14.00390,65834
14.01203,65803
14.02015,60661
14.02827,59074
14.03640,58550
14.04452,57390
14.05263,56111
14.06077,53996
14.06888,51700
14.07702,51125
14.08513,54767
14.09325,49190
14.10138,49059
14.10950,52697
14.11763,49529
14.12575,47185
14.13387,48246
14.14200,50314
14.15012,50237
14.15825,56125
14.16637,56571
14.17448,57777
14.18262,65182
14.19073,88794
14.19885,125140
14.20698,158936
14.21510,183401
14.22323,192969
14.23135,182707
14.23947,177005
14.24760,163330
14.25572,161541
14.26385,156857
14.27197,142730
14.28008,126237
14.28822,115020
14.29633,95049
14.30447,93121
14.31258,87500
14.32070,78504
14.32883,77215
14.33695,76322
14.34507,75420
14.35320,71543
14.36132,60333
14.36945,53665
14.37757,51594
14.38568,45475
14.39382,43672
14.40193,48556
14.41007,50164
14.41818,54513
14.42630,60350
14.43443,65786
14.44255,55082
14.45067,51890
14.45880,51529
14.46692,48039
14.47505,47127
14.48317,46338
14.49128,43689
14.49942,49607
14.50753,44660
14.51567,46241
14.52378,45428
14.53190,45229
14.54003,44346
14.54815,46622
14.55628,47040
14.56440,40015
14.57252,41867
14.58065,39434
14.58877,40535
14.59688,38728
14.60502,36947
14.61313,38230
14.62127,34396
14.62938,31742
14.63750,34375
14.64563,33144
14.65375,37838
14.66188,36067
14.67000,32672
14.67812,38243
14.68625,34037
14.69437,29881
14.70250,33237
14.71062,32596
14.71873,36084
14.72687,35223
14.73498,39510
14.74310,33581
14.75123,35041
14.75935,36298
14.76748,36237
14.77560,40923
14.78372,55922
14.79185,109707
14.79997,270991
14.80810,720755
14.81622,1680764
14.82433,3016280
14.83247,4311170
14.84058,4797102
14.84870,4348479
14.85683,3251065
14.86495,2079744
14.87308,1256109
14.88120,792466
14.88932,537603
14.89745,414384
14.90557,333531
14.91370,287056
14.92182,251949
14.92993,228449
14.93807,208185
14.94618,197555
14.95432,181068
14.96243,171851
14.97055,155403
14.97868,151351
14.98680,140033
14.99492,135410
15.00305,127694
15.01117,117889
15.01930,120163
15.02742,113415
15.03553,110085
15.04367,103453
15.05178,99876
15.05992,98523
15.06803,94645
15.07615,89624
15.08428,93047
15.09240,87921
15.10052,84698
15.10865,82175
15.11677,82868
15.12490,85981
15.13302,97688
15.14113,105304
15.14927,109188
15.15738,98665
15.16552,92461
15.17363,78041
15.18175,66221
15.18988,57884
15.19800,58305
15.20613,52818
15.21425,49484
15.22237,46021
15.23050,48855
15.23862,45294
15.24673,43563
15.25487,41359
15.26298,42854
15.27112,46846
15.27923,40667
15.28735,40089
15.29548,40743
15.30360,38384
15.31173,38656
15.31985,36202
15.32797,41071
15.33610,37817
15.34422,38524
15.35235,36674
15.36047,37222
15.36858,39311
15.37672,40709
15.38483,39853
15.39295,38242
15.40108,39121
15.40920,39858
15.41733,33915
15.42545,37791
15.43357,33223
15.44170,39210
15.44982,36634
15.45795,34325
15.46607,41440
15.47418,46635
15.48232,54708
15.49043,62167
15.49855,74924
15.50668,83525
15.51480,86697
15.52293,85625
15.53105,75312
15.53917,75518
15.54730,64335
15.55542,65242
15.56355,63372
15.57167,55293
15.57978,49776
15.58792,43246
15.59603,42923
15.60417,41435
15.61228,42535
15.62040,37846
15.62853,39771
15.63665,40639
15.64477,39737
15.65290,39261
15.66102,39324
15.66915,38507
15.67727,36501
15.68538,37236
15.69352,35424
15.70163,36459
15.70977,34374
15.71788,39862
15.72600,32153
15.73413,34216
15.74225,38154
15.75038,44356
15.75850,62548
15.76662,99453
15.77475,165943
15.78287,247586
15.79098,330331
15.79912,340280
15.80723,295727
15.81537,231390
15.82348,164032
15.83160,116235
15.83973,90697
15.84785,80050
15.85598,69029
15.86410,60427
15.87222,58893
15.88035,55843
15.88847,56537
15.89658,51756
15.90472,45761
15.91283,47076
15.92097,47306
15.92908,45170
15.93720,48221
15.94533,45476
15.95345,47390
15.96158,47223
15.96970,50844
15.97782,50903
15.98595,55454
15.99407,55011
16.00220,57673
16.01032,65688
16.01843,73011
16.02657,76440
16.03468,80521
16.04280,75838
16.05093,67858
16.05905,59986
16.06718,54885
16.07530,50863
16.08342,46878
16.09155,45552
16.09967,42706
16.10780,45669
16.11592,39303
16.12403,45581
16.13217,44396
16.14028,45056
16.14840,44632
16.15653,46436
16.16465,46115
16.17278,44303
16.18090,45060
16.18902,40384
16.19715,42215
16.20527,45302
16.21340,40911
16.22152,42222
16.22963,38514
16.23777,37527
16.24588,37425
16.25402,40539
16.26213,37257
16.27025,35834
16.27838,42600
16.28650,41135
16.29462,43589
16.30275,42271
16.31087,41966
16.31900,40795
16.32712,44604
16.33523,42556
16.34337,43544
16.35148,44923
16.35962,53469
16.36773,59936
16.37585,68030
16.38398,77775
16.39210,79644
16.40023,64942
16.40835,63357
16.41647,53333
16.42460,48584
16.43272,47657
16.44083,64388
16.44897,88511
16.45708,168981
16.46522,347856
16.47333,636157
16.48145,928845
16.48958,1075650
16.49770,996594
16.50583,783799
16.51395,505707
16.52207,331108
16.53020,206276
16.53832,152192
16.54645,118454
16.55457,105435
16.56268,96469
16.57082,86997
16.57893,83317
16.58705,79313
16.59518,78060
16.60330,75680
16.61143,78165
16.61955,76413
16.62767,72330
16.63580,64032
16.64392,64793
16.65205,63038
16.66017,61453
16.66828,56944
16.67642,57649
16.68453,51753
16.69265,48309
16.70078,52059
16.70890,51027
16.71703,48743
16.72515,47564
16.73327,48382
16.74140,41986
16.74952,46089
16.75765,52570
16.76577,53674
16.77388,62381
16.78202,57503
16.79013,50753
16.79827,51489
16.80638,42122
16.81450,40614
16.82263,37674
16.83075,40748
16.83887,37113
16.84700,36119
16.85512,35994
16.86325,36338
16.87137,37608
16.87948,37910
16.88762,32448
16.89573,38450
16.90387,36169
16.91198,35976
16.92010,34782
16.92823,37184
16.93635,37709
16.94447,38377
16.95260,34387
16.96072,34561
16.96885,34587
16.97697,35242
16.98508,40928
16.99322,37240
17.00133,34316
17.00947,34884
17.01758,37951
17.02570,36865
17.03383,39586
17.04195,40531
17.05008,44619
17.05820,46691
17.06632,45244
17.07445,45181
17.08257,42775
17.09068,40983
17.09882,43458
17.10693,37363
17.11507,41346
17.12318,37053
17.13130,41021
17.13943,43104
17.14755,40899
17.15568,39954
17.16380,38992
17.17192,37832
17.18005,38359
17.18817,39913
17.19630,38789
17.20442,39448
17.21253,33441
17.22067,34406
17.22878,35504
17.23690,34722
17.24503,34559
17.25315,39922
17.26128,33880
17.26940,36003
17.27752,40495
17.28565,35309
17.29377,34329
17.30190,31447
17.31002,35865
17.31813,41119
17.32627,43286
17.33438,50212
17.34250,53126
17.35063,62701
17.35875,60786
17.36688,59290
17.37500,54499
17.38312,53518
17.39125,56251
17.39937,53533
17.40750,43396
17.41562,49502
17.42373,47616
17.43187,46999
17.43998,45924
17.44812,48588
17.45623,45816
17.46435,42056
17.47248,41611
17.48060,40640
17.48872,38868
17.49685,44248
17.50497,40137
17.51310,39703
17.52122,37554
17.52933,40614
17.53747,37024
17.54558,42903
17.55372,43055
17.56183,52125
17.56995,75840
17.57808,110396
17.58620,179184
17.59433,280685
17.60245,386136
17.61057,479820
17.61870,514189
17.62682,473034
17.63493,370187
17.64307,279434
17.65118,205615
17.65932,156061
17.66743,138715
17.67555,116203
17.68368,104849
17.69180,96815
17.69993,88259
17.70805,83592
17.71617,79699
17.72430,70914
17.73242,68898
17.74053,65313
17.74867,62106
17.75678,60620
17.76492,58713
17.77303,57900
17.78115,57089
17.78928,65192
17.79740,83439
17.80553,134542
17.81365,219141
17.82177,328604
17.82990,429756
17.83802,453728
17.84615,426581
17.85427,341102
17.86238,268576
17.87052,204167
17.87863,162795
17.88675,130571
17.89488,115031
17.90300,98867
17.91113,85345
17.91925,76448
17.92737,76000
17.93550,74711
17.94362,65367
17.95175,66376
17.95987,61011
17.96798,59978
17.97612,58970
17.98423,54925
17.99235,58800
18.00048,55726
18.00860,62458
18.01673,63605
18.02485,74346
18.03297,87355
18.04110,90248
18.04922,115507
18.05735,166749
18.06547,316235
18.07358,624393
18.08172,1138223
18.08983,1719691
18.09797,2140650
18.10608,2177065
18.11420,1917075
18.12233,1408750
18.13045,1003948
18.13857,700788
18.14670,530114
18.15482,436896
18.16295,369967
18.17107,332582
18.17918,290043
18.18732,272261
18.19543,244932
18.20357,223188
18.21168,212237
18.21980,185350
18.22793,178763
18.23605,170411
18.24418,155684
18.25230,152392
18.26042,132776
18.26855,129267
18.27667,112243
18.28478,102172
18.29292,84711
18.30103,72670
18.30917,64588
18.31728,58095
18.32540,56784
18.33353,48200
18.34165,56261
18.34978,50393
18.35790,48242
18.36602,48018
18.37415,51943
18.38227,48195
18.39038,47668
18.39852,44407
18.40663,50457
18.41477,50080
18.42288,47304
18.43100,55286
18.43913,62435
18.44725,71117
18.45538,86629
18.46350,102221
18.47162,136785
18.47975,161032
18.48787,176614
18.49600,179672
18.50412,163794
18.51223,140676
18.52037,109653
18.52848,88982
18.53660,79231
18.54473,64714
18.55285,63806
18.56098,62076
18.56910,61137
18.57722,58333
18.58535,54530
18.59347,54947
18.60160,57171
18.60972,57301
18.61783,57664
18.62597,51698
18.63408,54193
18.64222,57765
18.65033,51377
18.65845,48013
18.66658,47561
18.67470,46940
18.68282,40428
18.69095,40460
18.69907,42523
18.70720,42951
18.71532,38122
18.72343,39785
18.73157,37789
18.73968,39736
18.74782,39558
18.75593,39881
18.76405,40479
18.77218,38699
18.78030,37108
18.78842,39895
18.79655,37758
18.80467,41308
18.81280,36609
18.82092,43539
18.82903,52390
18.83717,65987
18.84528,82616
18.85342,91041
18.86153,103421
18.86965,111943
18.87778,113204
18.88590,114522
18.89403,121404
18.90215,128871
18.91027,126654
18.91840,127725
18.92652,133890
18.93463,134891
18.94277,140702
18.95088,144105
18.95902,144919
18.96713,141503
18.97525,139980
18.98338,143938
18.99150,141695
18.99963,143798
19.00775,139377
19.01587,138251
19.02400,137957
19.03212,129786
19.04025,132254
19.04837,130473
19.05648,130677
19.06462,138504
19.07273,163626
19.08085,205431
19.08898,291977
19.09710,383092
19.10523,466274
19.11335,527494
19.12147,492795
19.12960,428295
19.13772,331563
19.14585,269091
19.15397,220624
19.16208,189163
19.17022,165833
19.17833,160071
19.18645,148821
19.19458,148794
19.20270,147118
19.21083,140866
19.21895,135888
19.22707,130922
19.23520,127776
19.24332,124899
19.25145,123605
19.25957,120571
19.26768,129904
19.27582,135059
19.28393,144134
19.29207,149155
19.30018,158977
19.30830,155584
19.31643,155622
19.32455,149027
19.33267,141787
19.34080,127435
19.34892,132020
19.35705,147916
19.36517,164700
19.37328,177830
19.38142,194363
19.38953,185788
19.39767,168878
19.40578,150530
19.41390,137062
19.42203,128292
19.43015,117928
19.43827,113837
19.44640,113568
19.45452,111318
19.46265,113107
19.47077,105329
19.47888,116287
19.48702,115274
19.49513,131390
19.50327,154157
19.51138,195483
19.51950,206767
19.52763,213661
19.53575,191065
19.54388,162362
19.55200,142476
19.56012,125941
19.56825,114646
19.57637,105646
19.58448,95123
19.59262,94899
19.60073,94886
19.60887,97077
19.61698,90766
19.62510,93574
19.63323,94632
19.64135,110644
19.64948,130229
19.65760,160423
19.66572,201376
19.67385,239650
19.68197,264800
19.69010,278152
19.69822,261877
19.70633,239863
19.71447,217130
19.72258,192723
19.73070,177588
19.73883,161779
19.74695,142221
19.75508,130424
19.76320,119632
19.77132,116412
19.77945,105587
19.78757,115434
19.79570,109924
19.80382,113451
19.81193,113972
19.82007,107826
19.82818,108169
19.83630,100048
19.84443,102457
19.85255,122878
19.86068,196609
19.86880,420600
19.87692,860954
19.88505,1621029
19.89317,2539144
19.90130,3394545
19.90942,3684156
19.91753,3384496
19.92567,2697608
19.93378,1896557
19.94192,1312628
19.95003,910411
19.95815,688973
19.96628,591009
19.97440,505736
19.98252,460762
19.99065,421484
19.99877,391361
20.00690,388784
20.01502,350855
20.02313,338946
20.03127,303628
20.03938,283997
20.04752,254815
20.05563,233158
20.06375,194441
20.07188,167069
20.08000,151280
20.08813,143235
20.09625,130726
20.10437,123106
20.11250,118905
20.12062,115673
20.12873,107998
20.13687,109749
20.14498,105787
20.15312,106398
20.16123,110773
20.16935,131512
20.17748,140551
20.18560,155953
20.19373,169684
20.20185,183791
20.20997,173876
20.21810,166828
20.22622,150491
20.23433,138637
20.24247,140467
20.25058,166470
20.25872,218410
20.26683,302856
20.27495,385862
20.28308,467635
20.29120,519986
20.29933,492094
20.30745,427896
20.31557,361356
20.32370,268966
20.33182,222255
20.33995,180086
20.34807,148051
20.35618,126282
20.36432,106386
20.37243,98354
20.38055,97079
20.38868,87797
20.39680,85550
20.40493,80494
20.41305,82866
20.42117,86426
20.42930,88209
20.43742,94956
20.44555,103302
20.45367,97128
20.46178,98340
20.46992,96191
20.47803,93758
20.48615,90653
20.49428,82002
20.50240,80048
20.51053,72270
20.51865,73411
20.52677,71946
20.53490,67163
20.54302,73674
20.55115,72005
20.55927,72781
20.56738,69728
20.57552,67092
20.58363,60549
20.59177,65993
20.59988,66557
20.60800,62115
20.61613,60926
20.62425,64003
20.63237,60097
20.64050,63551
20.64862,60990
20.65675,62408
20.66487,61787
20.67298,62254
20.68112,61768
20.68923,58088
20.69737,61243
20.70548,58082
20.71360,60245
20.72173,54625
20.72985,58685
20.73798,57719
20.74610,56787
20.75422,57333
20.76235,56905
20.77047,65376
20.77858,66087
20.78672,76329
20.79483,90499
20.80297,123892
20.81108,164647
20.81920,190058
20.82733,196475
20.83545,194442
20.84358,165593
20.85170,132032
20.85982,107350
20.86795,81326
20.87607,74545
20.88418,66789
20.89232,67997
20.90043,62175
20.90857,62882
20.91668,60415
20.92480,62946
20.93293,65027
20.94105,64001
20.94918,63122
20.95730,63192
20.96542,64140
20.97355,62077
20.98167,59995
20.98980,56464
20.99792,61315
21.00603,56929
21.01417,57690
21.02228,57607
21.03040,59571
21.03853,61914
21.04665,62727
21.05478,59092
21.06290,67401
21.07102,61132
21.07915,64093
21.08727,62551
21.09540,68106
21.10352,65274
21.11163,56842
21.11977,65012
21.12788,66087
21.13602,61060
21.14413,69015
21.15225,82031
21.16038,88944
21.16850,96683
21.17662,93789
21.18475,92775
21.19287,80575
21.20100,76778
21.20912,73863
21.21723,62447
21.22537,63217
21.23348,63653
21.24162,60364
21.24973,58879
21.25785,57723
21.26598,55790
21.27410,54193
21.28222,59911
21.29035,49823
21.29847,53735
21.30660,52273
21.31472,48462
21.32283,46509
21.33097,46234
21.33908,44682
21.34722,48244
21.35533,43494
21.36345,49032
21.37158,49007
21.37970,52295
21.38783,54340
21.39595,68027
21.40407,78739
21.41220,85249
21.42032,88709
21.42843,84732
21.43657,77577
21.44468,70315
21.45282,61082
21.46093,60284
21.46905,56222
21.47718,50462
21.48530,50950
21.49343,46263
21.50155,48721
21.50967,46050
21.51780,48704
21.52592,48172
21.53405,49440
21.54217,45939
21.55028,47221
21.55842,45693
21.56653,46811
21.57465,48650
21.58278,50766
21.59090,63089
21.59903,60088
21.60715,58646
21.61527,63809
21.62340,64323
21.63152,66415
21.63965,73297
21.64777,85589
21.65588,82931
21.66402,82557
21.67213,80794
21.68025,81506
21.68838,77671
21.69650,72898
21.70463,68785
21.71275,59119
21.72087,59279
21.72900,52304
21.73712,50224
21.74525,51839
21.75337,46845
21.76148,50928
21.76962,48498
21.77773,48900
21.78587,48617
21.79398,48697
21.80210,46280
21.81023,49584
21.81835,49662
21.82647,57587
21.83460,63073
21.84272,72375
21.85085,73687
21.85897,79083
21.86708,71210
21.87522,65354
21.88333,60806
21.89147,54883
21.89958,59152
21.90770,60338
21.91583,48848
21.92395,49288
21.93208,47369
21.94020,41772
21.94832,43244
21.95645,41904
21.96457,49123
21.97268,39279
21.98082,38211
21.98893,43627
21.99707,42005
22.00518,42583
22.01330,42693
22.02143,44732
22.02955,42578
22.03768,44327
22.04580,45077
22.05392,50407
22.06205,59122
22.07017,61045
22.07828,68714
22.08642,81020
22.09453,71281
22.10267,73864
22.11078,77282
22.11890,76360
22.12703,81786
22.13515,81667
22.14328,84079
22.15140,83015
22.15952,84877
22.16765,82706
22.17577,84256
22.18390,82844
22.19202,87251
22.20013,84942
22.20827,79712
22.21638,84264
22.22450,89752
22.23263,94065
22.24075,90800
22.24888,85363
22.25700,84573
22.26512,83631
22.27325,77386
22.28137,71319
22.28950,67232
22.29762,66876
22.30573,63930
22.31387,58353
22.32198,56178
22.33010,62056
22.33823,55900
22.34635,56039
22.35448,55754
22.36260,53034
22.37072,52361
22.37885,56865
22.38697,55249
22.39510,64297
22.40322,71284
22.41133,89234
22.41947,99537
22.42758,106631
22.43572,105684
22.44383,95867
22.45195,80375
22.46008,73888
22.46820,65663
22.47632,69147
22.48445,62933
22.49257,68311
22.50070,72587
22.50882,79621
22.51693,71632
22.52507,72645
22.53318,64849
22.54132,60395
22.54943,55024
22.55755,59718
22.56568,55497
22.57380,56339
22.58193,69421
22.59005,86581
22.59817,99820
22.60630,108272
22.61442,111217
22.62253,115348
22.63067,115763
22.63878,125177
22.64692,132775
22.65503,132709
22.66315,138811
22.67128,144730
22.67940,145346
22.68753,143056
22.69565,149968
22.70377,155708
22.71190,157492
22.72002,161011
22.72813,167688
22.73627,165395
22.74438,157541
22.75252,150847
22.76063,150146
22.76875,152659
22.77688,148234
22.78500,163499
22.79313,167837
22.80125,183539
22.80937,190126
22.81750,207518
22.82562,192728
22.83375,185036
22.84187,175443
22.84998,166562
22.85812,153211
22.86623,156391
22.87435,149961
22.88248,153969
22.89060,158331
22.89873,168589
22.90685,175457
22.91497,181161
22.92310,205698
22.93122,212125
22.93935,216770
22.94747,193982
22.95558,179340
22.96372,164834
22.97183,150795
22.97997,140838
22.98808,139259
22.99620,135782
23.00433,132342
23.01245,130051
23.02057,126357
23.02870,123535
23.03682,118590
23.04495,117250
23.05307,113570
23.06118,111843
23.06932,111050
23.07743,115290
23.08557,113423
23.09368,115289
23.10180,111944
23.10993,108846
23.11805,106040
23.12617,109871
23.13430,107909
23.14242,105584
23.15055,107262
23.15867,106865
23.16678,100415
23.17492,99560
23.18303,95672
23.19117,95516
23.19928,99064
23.20740,101605
23.21553,96022
23.22365,92833
23.23178,88795
23.23990,92764
23.24802,99550
23.25615,99360
23.26427,103903
23.27238,101416
23.28052,100824
23.28863,92222
23.29677,98584
23.30488,96978
23.31300,89092
23.32113,92213
23.32925,97096
23.33738,105398
23.34550,123916
23.35362,155507
23.36175,219500
23.36987,316751
23.37798,454398
23.38612,615114
23.39423,777384
23.40237,913752
23.41048,1018005
23.41860,1104625
23.42673,1120519
23.43485,1153405
23.44298,1110519
23.45110,1051000
23.45922,984998
23.46735,928093
23.47547,884183
23.48360,785879
23.49172,737017
23.49983,657555
23.50797,604265
23.51608,575711
23.52420,529336
23.53233,475888
23.54045,450038
23.54858,427986
23.55670,403136
23.56482,387197
23.57295,379277
23.58107,381974
23.58920,396610
23.59732,416329
23.60543,446977
23.61357,424728
23.62168,413535
23.62982,354147
23.63793,315645
23.64605,282819
23.65418,274567
23.66230,266403
23.67042,250186
23.67855,244013
23.68667,223102
23.69480,206750
23.70292,192400
23.71103,180381
23.71917,166601
23.72728,158464
23.73542,148973
23.74353,144604
23.75165,167675
23.75978,231510
23.76790,370705
23.77602,637672
23.78415,1028044
23.79227,1454433
23.80040,1759574
23.80852,1790258
23.81663,1628748
23.82477,1364783
23.83288,1095892
23.84102,844981
23.84913,674345
23.85725,550400
23.86538,461731
23.87350,395283
23.88163,351336
23.88975,330743
23.89787,300293
23.90600,269425
23.91412,259858
23.92223,252689
23.93037,236601
23.93848,215170
23.94662,209724
23.95473,193332
23.96285,178600
23.97098,168817
23.97910,167370
23.98723,158906
23.99535,160318
24.00347,160788
24.01160,151119
24.01972,153463
24.02785,167156
24.03597,169992
24.04408,173993
24.05222,160382
24.06033,154527
24.06845,135886
24.07658,128594
24.08470,123533
24.09283,120487
24.10095,117415
24.10907,111115
24.11720,112412
24.12532,106591
24.13345,114671
24.14157,108688
24.14968,108430
24.15782,111975
24.16593,108555
24.17405,114404
24.18218,114270
24.19030,110784
24.19843,99187
24.20655,106729
24.21467,106646
24.22280,102596
24.23092,102944
24.23905,100617
24.24717,91769
24.25528,97919
24.26342,87557
24.27153,89343
24.27967,101349
24.28778,132233
24.29590,155968
24.30403,181040
24.31215,200282
24.32027,193657
24.32840,208412
24.33652,209935
24.34465,217759
24.35277,218077
24.36088,222507
24.36902,231780
24.37713,229227
24.38527,230992
24.39338,244827
24.40150,253142
24.40963,274606
24.41775,265500
24.42588,262645
24.43400,251050
24.44212,238899
24.45025,235318
24.45837,232318
24.46648,242185
24.47462,250906
24.48273,259037
24.49087,271820
24.49898,268294
24.50710,264436
24.51523,262049
24.52335,251964
24.53148,255651
24.53960,244480
24.54772,240521
24.55585,230627
24.56397,233335
24.57208,221825
24.58022,219455
24.58833,209823
24.59647,202689
24.60458,190749
24.61270,197576
24.62083,187801
24.62895,187767
24.63708,201427
24.64520,186897
24.65332,189922
24.66145,185607
24.66957,176370
24.67770,180382
24.68582,184367
24.69393,181636
24.70207,178710
24.71018,178429
24.71830,183619
24.72643,187306
24.73455,183722
24.74268,171968
24.75080,165012
24.75892,172155
24.76705,176596
24.77517,170667
24.78330,170898
24.79142,176104
24.79953,175273
24.80767,176426
24.81578,167736
24.82390,171619
24.83203,180181
24.84015,197228
24.84828,213027
24.85640,249647
24.86452,310718
24.87265,388830
24.88077,479730
24.88890,580720
24.89702,637423
24.90513,615815
24.91327,560150
24.92138,457005
24.92952,364659
24.93763,295277
24.94575,239604
24.95388,209319
24.96200,194274
24.97012,182873
24.97825,176579
24.98637,180677
24.99450,169679
25.00262,170167
25.01073,167749
25.01887,161823
25.02698,162648
25.03512,161358
25.04323,161809
25.05135,152049
25.05948,151057
25.06760,152005
25.07573,153484
25.08385,156877
25.09197,158071
25.10010,181109
25.10822,263010
25.11633,428820
25.12447,740400
25.13258,1235542
25.14072,1790663
25.14883,2156703
25.15695,2221658
25.16508,1974665
25.17320,1489336
25.18133,996741
25.18945,658502
25.19757,416195
25.20570,283223
25.21382,226879
25.22193,191806
25.23007,175768
25.23818,169607
25.24632,162568
25.25443,180730
25.26255,179297
25.27068,198609
25.27880,199194
25.28693,186454
25.29505,160944
25.30317,146129
25.31130,125884
25.31942,109458
25.32755,96504
25.33567,94729
25.34378,86355
25.35192,86533
25.36003,81169
25.36815,78386
25.37628,71971
25.38440,74849
25.39253,69331
25.40065,67680
25.40877,68168
25.41690,64703
25.42502,68012
25.43315,62636
25.44127,65920
25.44938,62892
25.45752,71119
25.46563,64565
25.47377,62391
25.48188,67784
25.49000,62988
25.49813,69407
25.50625,68005
25.51437,62517
25.52250,61928
25.53062,58180
25.53875,60418
25.54687,56998
25.55498,58079
25.56312,57089
25.57123,52934
25.57937,54590
25.58748,56335
25.59560,61224
25.60373,55643
25.61185,54606
25.61997,55434
25.62810,53705
25.63622,55429
25.64435,60569
25.65247,70827
25.66058,85799
25.66872,105350
25.67683,124110
25.68497,136376
25.69308,151538
25.70120,160458
25.70933,165489
25.71745,167409
25.72558,168567
25.73370,165837
25.74182,172829
25.74995,171629
25.75807,180132
25.76618,176171
25.77432,175821
25.78243,183127
25.79057,179842
25.79868,181759
25.80680,181558
25.81493,184956
25.82305,185844
25.83118,179599
25.83930,192450
25.84742,180575
25.85555,187442
25.86367,186487
25.87178,177572
25.87992,178238
25.88803,170312
25.89617,177045
25.90428,169440
25.91240,164839
25.92053,165419
25.92865,168157
25.93678,164928
25.94490,164057
25.95302,160891
25.96115,159815
25.96927,155134
25.97740,152469
25.98552,153039
25.99363,153151
26.00177,154534
26.00988,150318
26.01800,146875
26.02613,143545
26.03425,146076
26.04238,144643
26.05050,141253
26.05862,147592
26.06675,135531
26.07487,138129
26.08300,146157
26.09112,136828
26.09923,137406
26.10737,133765
26.11548,135411
26.12362,137029
26.13173,140994
26.13985,141186
26.14798,139595
26.15610,138924
26.16422,141720
26.17235,133469
26.18047,127071
26.18860,128573
26.19672,128420
26.20483,126524
26.21297,121743
26.22108,114350
26.22922,111355
26.23733,119223
26.24545,117299
26.25358,116347
26.26170,106726
26.26983,110377
26.27795,110000
26.28607,107444
26.29420,102928
26.30232,102261
26.31043,98718
26.31857,101529
26.32668,94990
26.33482,93759
26.34293,96263
26.35105,107216
26.35918,100360
26.36730,101185
26.37543,105545
26.38355,112023
26.39167,107676
26.39980,125113
26.40792,120151
26.41603,115100
26.42417,118735
26.43228,109792
26.44042,99619
26.44853,100466
26.45665,96244
26.46478,95696
26.47290,97401
26.48103,87270
26.48915,90631
26.49727,86050
26.50540,85542
26.51352,84353
26.52165,84326
26.52977,84105
26.53788,84304
26.54602,77798
26.55413,79759
26.56225,73029
26.57038,77092
26.57850,71966
26.58663,70642
26.59475,78433
26.60287,72579
26.61100,70854
26.61912,67832
26.62725,72194
26.63537,72019
26.64348,71718
26.65162,70909
26.65973,71381
26.66785,75086
26.67598,76092
26.68410,74206
26.69223,75582
26.70035,70738
26.70847,67863
26.71660,63972
26.72472,64837
26.73285,63591
26.74097,64186
26.74908,60506
26.75722,66935
26.76533,62497
26.77347,67497
26.78158,62448
26.78970,64777
26.79783,58545
26.80595,65410
26.81407,62595
26.82220,64354
26.83032,63929
26.83845,57258
26.84657,52747
26.85468,60366
26.86282,60321
26.87093,58362
26.87907,57739
26.88718,58039
26.89530,53316
26.90343,57877
26.91155,57540
26.91967,51690
26.92780,52551
26.93592,54374
26.94405,54486
26.95217,53206
26.96028,54015
26.96842,59801
26.97653,64397
26.98467,80711
26.99278,96126
27.00090,130235
27.00903,175578
27.01715,216103
27.02528,261863
27.03340,279109
27.04152,281090
27.04965,278661
27.05777,243442
27.06588,215183
27.07402,186113
27.08213,159074
27.09027,139436
27.09838,124713
27.10650,119620
27.11463,116355
27.12275,107587
27.13088,107671
27.13900,100093
27.14712,95874
27.15525,94769
27.16337,91505
27.17150,89011
27.17962,86922
27.18773,94466
27.19587,88938
27.20398,95263
27.21210,84643
27.22023,83868
27.22835,77972
27.23648,75600
27.24460,79411
27.25272,74300
27.26085,74620
27.26897,74018
27.27710,64390
27.28522,63054
27.29333,64180
27.30147,60909
27.30958,64064
27.31772,63455
27.32583,61971
27.33395,64636
27.34208,60648
27.35020,60954
27.35832,63943
27.36645,61021
27.37457,61128
27.38270,61770
27.39082,61332
27.39893,58304
27.40707,56022
27.41518,52539
27.42332,54103
27.43143,55134
27.43955,52497
27.44768,56274
27.45580,53850
27.46392,55234
27.47205,53017
27.48017,51332
27.48830,51377
27.49642,50005
27.50453,49244
27.51267,51075
27.52078,52974
27.52892,53819
27.53703,53559
27.54515,50907
27.55328,50963
27.56140,55811
27.56953,52353
27.57765,59472
27.58577,67203
27.59390,67374
27.60202,72985
27.61013,72996
27.61827,71681
27.62638,63778
27.63452,61324
27.64263,55385
27.65075,55819
27.65888,49978
27.66700,47789
27.67513,51175
27.68325,55129
27.69137,49016
27.69950,51927
27.70762,49705
27.71573,50144
27.72387,42876
27.73198,46449
27.74012,45096
27.74823,48893
27.75635,46362
27.76448,46819
27.77260,49541
27.78073,48399
27.78885,50407
27.79697,54726
27.80510,47818
27.81322,49766
27.82135,51050
27.82947,49135
27.83758,53618
27.84572,50418
27.85383,49512
27.86195,50980
27.87008,50530
27.87820,50196
27.88633,45477
27.89445,45606
27.90257,45777
27.91070,46406
27.91882,41223
27.92695,44518
27.93507,40159
27.94318,42800
27.95132,40523
27.95943,42018
27.96757,41842
27.97568,40551
27.98380,45428
27.99193,42017
28.00005,48174
28.00817,44425
28.01630,43605
28.02442,45537
28.03255,47181
28.04067,48835
28.04878,49227
28.05692,49138
28.06503,48601
28.07317,53733
28.08128,52998
28.08940,53201
28.09753,50577
28.10565,53533
28.11377,50929
28.12190,50150
28.13002,48903
28.13815,44898
28.14627,43553
28.15438,40849
28.16252,43420
28.17063,43447
28.17877,42324
28.18688,43064
28.19500,51741
28.20313,58845
28.21125,65970
28.21938,75243
28.22750,73481
28.23562,75860
28.24375,66721
28.25187,62491
28.25998,55478
28.26812,51531
28.27623,50274
28.28437,46019
28.29248,44581
28.30060,43886
28.30873,50094
28.31685,49222
28.32498,59947
28.33310,57907
28.34122,62140
28.34935,70386
28.35747,69572
28.36560,81066
28.37372,89267
28.38183,89098
28.38997,95936
28.39808,94550
28.40620,99464
28.41433,105294
28.42245,98491
28.43058,95760
28.43870,84027
28.44682,85060
28.45495,82911
28.46307,78934
28.47120,73181
28.47932,72279
28.48743,67839
28.49557,70782
28.50368,67435
28.51180,60585
28.51993,63862
28.52805,60656
28.53618,59389
28.54430,61673
28.55242,57482
28.56055,55520
28.56867,53863
28.57680,53876
28.58492,54759
28.59303,51882
28.60117,49218
28.60928,48468
28.61742,51764
28.62553,54488
28.63365,56298
28.64178,54247
28.64990,58231
28.65802,53293
28.66615,63035
28.67427,55340
28.68240,57158
28.69052,58300
28.69863,55983
28.70677,53152
28.71488,49347
28.72302,48009
28.73113,50029
28.73925,47591
28.74738,49229
28.75550,49643
28.76362,56787
28.77175,59516
28.77987,61174
28.78800,70165
28.79612,67147
28.80423,66214
28.81237,58808
28.82048,56020
28.82862,55543
28.83673,53249
28.84485,52625
28.85298,50639
28.86110,50018
28.86923,49125
28.87735,54533
28.88547,53325
28.89360,58439
28.90172,63168
28.90983,59217
28.91797,60209
28.92608,55424
28.93422,52243
28.94233,53913
28.95045,53636
28.95858,50304
28.96670,50134
28.97483,51922
28.98295,51375
28.99107,48119
28.99920,46423
29.00732,45040
29.01545,46262
29.02357,44339
29.03168,42412
29.03982,44748
29.04793,42462
29.05605,42771
29.06418,44333
29.07230,46251
29.08043,46608
29.08855,47898
29.09667,47725
29.10480,51344
29.11292,52625
29.12105,47661
29.12917,45863
29.13728,47175
29.14542,42646
29.15353,45684
29.16165,41703
29.16978,47649
29.17790,44791
29.18603,49781
29.19415,55400
29.20227,62605
29.21040,71018
29.21852,76588
29.22665,77550
29.23477,76023
29.24288,73299
29.25102,69227
29.25913,72029
29.26727,75326
29.27538,77583
29.28350,78593
29.29163,71515
29.29975,63277
29.30787,54928
29.31600,53846
29.32412,50547
29.33225,44703
29.34037,43680
29.34848,45251
29.35662,40943
29.36473,41332
29.37287,39941
29.38098,41274
29.38910,41943
29.39723,41169
29.40535,41416
29.41348,42763
29.42160,40769
29.42972,44784
29.43785,42755
29.44597,42496
29.45408,44539
29.46222,41874
29.47033,42127
29.47847,42865
29.48658,45066
29.49470,51389
29.50283,48625
29.51095,48209
29.51908,50188
29.52720,48427
29.53532,46155
29.54345,42147
29.55157,45859
29.55968,43892
29.56782,43041
29.57593,40584
29.58407,40666
29.59218,37120
29.60030,38177
29.60843,36442
29.61655,41835
29.62468,39863
29.63280,37379
29.64092,39084
29.64905,40003
29.65717,34991
29.66530,38578
29.67342,39696
29.68153,38355
29.68967,41604
29.69778,43475
29.70590,46186
29.71403,46915
29.72215,46621
29.73028,44624
29.73840,40813
29.74652,42113
29.75465,37506
29.76277,41436
29.77090,34836
29.77902,36173
29.78713,34259
29.79527,35063
29.80338,35008
29.81152,36424
29.81963,38227
29.82775,36202
29.83588,35271
29.84400,36535
29.85212,41025
29.86025,38015
29.86837,38269
29.87650,42513
29.88462,51228
29.89273,62419
29.90087,67781
29.90898,70381
29.91712,66574
29.92523,62973
29.93335,58665
29.94148,51143
29.94960,49119
29.95772,49738
29.96585,46533
29.97397,46170
29.98210,48281
29.99022,52329
29.99833,54178
30.00647,57361
30.01458,62262
30.02272,64521
30.03083,62450
30.03895,64879
30.04708,72951
30.05520,64434
30.06333,70482
30.07145,67788
30.07957,64954
30.08770,66340
30.09582,65235
30.10393,64488
30.11207,61113
30.12018,61402
30.12832,62809
30.13643,59486
30.14455,58351
30.15268,58576
30.16080,61925
30.16893,51148
30.17705,57127
30.18517,54189
30.19330,49729
30.20142,49908
30.20953,51762
30.21767,53313
30.22578,50031
30.23392,48403
30.24203,43403
30.25015,44329
30.25828,44139
30.26640,43579
30.27453,45167
30.28265,43342
30.29077,43326
30.29890,41541
30.30702,48410
30.31515,43992
30.32327,39066
30.33138,40975
30.33952,44901
30.34763,46538
30.35575,41358
30.36388,40540
30.37200,40609
30.38013,40043
30.38825,42708
30.39637,42782
30.40450,38346
30.41262,39674
30.42075,41063
30.42887,38988
30.43698,39155
30.44512,42754
30.45323,38551
30.46137,42451
30.46948,39133
30.47760,42808
30.48573,38518
30.49385,38756
30.50197,38049
30.51010,39326
30.51822,39060
30.52635,43554
30.53447,42910
30.54258,39143
30.55072,39801
30.55883,40354
30.56697,40940
30.57508,39387
30.58320,39032
30.59133,42482
30.59945,40905
30.60757,39845
30.61570,41461
30.62382,40039
30.63195,36488
30.64007,40092
30.64818,40307
30.65632,39251
30.66443,35599
30.67257,35615
30.68068,35069
30.68880,33365
30.69693,34859
30.70505,37578
30.71318,36273
30.72130,37924
30.72942,40205
30.73755,36052
30.74567,35234
30.75378,37526
30.76192,35739
30.77003,38606
30.77817,41868
30.78628,48045
30.79440,60731
30.80253,73434
30.81065,82137
30.81878,86295
30.82690,81445
30.83502,71964
30.84315,60443
30.85127,50175
30.85940,45947
30.86752,43407
30.87563,41360
30.88377,42609
30.89188,37869
30.90000,38094
30.90813,38209
30.91625,38399
30.92438,35719
30.93250,35486
30.94062,37449
30.94875,36409
30.95687,40102
30.96500,36080
30.97312,36465
30.98123,37458
30.98937,36892
30.99748,41510
31.00560,38947
31.01373,46596
31.02185,46643
31.02998,49816
31.03810,51169
31.04622,47735
31.05435,55783
31.06247,54108
31.07060,55635
31.07872,57339
31.08683,61316
31.09497,64613
31.10308,74415
31.11122,76045
31.11933,71359
31.12745,75278
31.13558,66085
31.14370,63217
31.15182,68393
31.15995,65840
31.16807,63646
31.17620,69664
31.18432,70321
31.19243,86451
31.20057,97367
31.20868,122198
31.21682,147895
31.22493,161402
31.23305,166167
31.24118,166757
31.24930,135536
31.25742,115995
31.26555,94618
31.27367,77050
31.28180,70419
31.28992,67208
31.29803,62087
31.30617,58646
31.31428,60023
31.32242,63927
31.33053,58717
31.33865,62103
31.34678,58155
31.35490,57136
31.36303,57181
31.37115,63611
31.37927,59784
31.38740,56591
31.39552,56375
31.40363,60257
31.41177,58469
31.41988,56678
31.42802,58577
31.43613,51128
31.44425,51667
31.45238,52186
31.46050,53685
31.46863,55301
31.47675,53149
31.48487,52173
31.49300,52161
31.50112,51091
31.50925,54219
31.51737,54195
31.52548,46006
31.53362,48876
31.54173,51478
31.54985,50228
31.55798,50544
31.56610,49951
31.57423,49110
31.58235,47321
31.59047,49924
31.59860,47672
31.60672,51137
31.61485,52139
31.62297,50673
31.63108,52523
31.63922,49113
31.64733,49550
31.65547,50175
31.66358,48396
31.67170,54966
31.67983,49224
31.68795,54274
31.69607,54135
31.70420,48903
31.71232,49421
31.72045,49202
31.72857,42401
31.73668,43291
31.74482,42703
31.75293,44624
31.76107,47880
31.76918,51005
31.77730,47797
31.78543,47693
31.79355,45722
31.80167,46177
31.80980,47037
31.81792,49767
31.82605,50364
31.83417,49684
31.84228,46330
31.85042,43358
31.85853,48543
31.86667,48552
31.87478,50856
31.88290,49919
31.89103,49720
31.89915,49040
31.90728,48727
31.91540,54099
31.92352,50918
31.93165,60131
31.93977,60283
31.94788,59196
31.95602,66740
31.96413,66505
31.97227,66727
31.98038,65585
31.98850,70863
31.99663,70844
32.00475,69938
32.01288,70427
32.02100,74010
32.02912,68831
32.03725,71775
32.04537,64177
32.05348,57229
32.06162,62167
32.06973,63638
32.07787,60960
32.08598,58711
32.09410,57926
32.10223,62098
32.11035,58177
32.11848,51214
32.12660,51499
32.13472,51254
32.14285,51344
32.15097,53599
32.15910,47721
32.16722,45524
32.17533,47894
32.18347,47355
32.19158,45741
32.19970,46496
32.20783,46237
32.21595,46204
32.22408,47533
32.23220,48565
32.24032,47329
32.24845,46829
32.25657,46645
32.26470,47770
32.27282,48730
32.28093,48962
32.28907,48567
32.29718,53858
32.30532,47273
32.31343,44233
32.32155,43918
32.32968,42829
32.33780,44571
32.34592,46576
32.35405,44105
32.36217,46459
32.37030,45903
32.37842,48686
32.38653,42332
32.39467,43225
32.40278,41594
32.41092,45458
32.41903,40938
32.42715,40478
32.43528,39873
32.44340,44458
32.45152,41068
32.45965,40357
32.46777,38804
32.47590,43191
32.48402,40919
32.49213,43436
32.50027,40920
32.50838,41605
32.51652,41234
32.52463,38270
32.53275,43429
32.54088,41220
32.54900,42251
32.55713,40029
32.56525,42302
32.57337,38034
32.58150,38962
32.58962,40913
32.59773,44386
32.60587,39721
32.61398,42433
32.62212,43553
32.63023,41253
32.63835,43084
32.64648,42431
32.65460,39602
32.66273,46285
32.67085,48063
32.67897,53276
32.68710,57586
32.69522,54457
32.70335,52384
32.71147,49320
32.71958,50388
32.72772,45870
32.73583,43400
32.74395,43627
32.75208,43702
32.76020,41763
32.76833,39962
32.77645,36439
32.78457,43534
32.79270,41199
32.80082,37138
32.80895,39331
32.81707,39319
32.82518,40062
32.83332,38683
32.84143,39246
32.84955,39322
32.85768,41539
32.86580,39741
32.87393,40760
32.88205,40068
32.89017,38854
32.89830,40609
32.90642,47002
32.91455,40536
32.92267,42264
32.93078,41601
32.93892,41133
32.94703,38576
32.95517,41515
32.96328,43244
32.97140,41436
32.97953,46211
32.98765,52024
32.99577,62541
33.00390,58829
33.01202,60597
33.02015,59731
33.02827,59732
33.03638,54343
33.04452,53491
33.05263,54407
33.06077,47030
33.06888,46552
33.07700,48355
33.08513,53422
33.09325,57740
33.10137,52824
33.10950,56977
33.11762,59938
33.12575,60882
33.13387,60278
33.14198,57524
33.15012,53961
33.15823,55203
33.16637,48836
33.17448,45727
33.18260,42238
33.19073,43635
33.19885,45761
33.20698,42081
33.21510,41155
33.22322,42799
33.23135,45668
33.23947,42534
33.24758,42452
33.25572,42954
33.26383,45650
33.27197,39877
33.28008,37512
33.28820,39994
33.29633,47994
33.30445,39750
33.31258,39895
33.32070,39812
33.32882,42244
33.33695,40154
33.34507,40436
33.35320,40636
33.36132,43177
33.36943,41266
33.37757,45024
33.38568,42912
33.39380,44640
33.40193,43225
33.41005,41390
33.41818,41456
33.42630,39524
33.43442,41671
33.44255,39606
33.45067,39594
33.45880,39727
33.46692,40022
33.47503,40974
33.48317,41620
33.49128,42503
33.49940,40802
33.50753,41417
33.51565,42564
33.52378,44120
33.53190,45252
33.54002,45253
33.54815,44473
33.55627,49805
33.56440,49565
33.57252,52052
33.58063,50152
33.58877,47882
33.59688,42924
33.60502,42449
33.61313,42503
33.62125,45584
33.62938,38375
33.63750,38933
33.64562,43896
33.65375,43345
33.66187,42651
33.67000,44669
33.67812,42788
33.68623,43481
33.69437,44074
33.70248,43511
33.71062,42307
33.71873,39761
33.72685,43446
33.73498,39730
33.74310,42433
33.75123,40340
33.75935,41204
33.76747,38862
33.77560,36710
33.78372,39159
33.79183,38094
33.79997,43780
33.80808,40491
33.81622,37250
33.82433,40184
33.83245,38240
33.84058,44611
33.84870,38784
33.85683,43717
33.86495,46517
33.87307,42973
33.88120,39693
33.88932,42079
33.89743,42777
33.90557,44720
33.91368,44032
33.92182,44119
33.92993,39520
33.93805,46834
33.94618,43601
33.95430,44522
33.96243,43533
33.97055,39993
33.97867,44584
33.98680,40811
33.99492,39564
34.00305,42635
34.01117,40955
34.01928,39251
34.02742,39051
34.03553,44451
34.04365,40485
34.05178,41325
34.05990,38886
34.06803,40183
34.07615,41868
34.08427,40259
34.09240,38625
34.10052,38858
34.10865,41994
34.11677,40334
34.12488,43043
34.13302,38830
34.14113,39393
34.14925,43295
34.15738,40521
34.16550,41176
34.17363,38714
34.18175,41075
34.18987,41827
34.19800,41586
34.20612,40732
34.21425,37539
34.22237,43413
34.23048,40440
34.23862,41854
34.24673,39661
34.25487,40508
34.26298,45672
34.27110,43694
34.27923,41974
34.28735,43526
34.29547,41813
34.30360,40797
34.31172,42245
34.31985,41104
34.32797,41936
34.33608,43967
34.34422,43250
34.35233,41633
34.36047,38555
34.36858,40489
34.37670,43274
34.38483,47273
34.39295,39701
34.40108,41324
34.40920,43196
34.41732,44184
34.42545,47338
34.43357,43015
34.44168,40708
34.44982,47565
34.45793,42563
34.46607,39182
34.47418,40130
34.48230,41531
34.49043,41958
34.49855,41758
34.50668,43747
34.51480,46373
34.52292,45419
34.53105,48815
34.53917,56705
34.54728,57805
34.55542,59819
34.56353,65807
34.57167,64291
34.57978,60899
34.58790,62298
34.59603,62221
34.60415,62459
34.61228,55153
34.62040,53142
34.62852,53845
34.63665,51189
34.64477,47699
34.65290,52094
34.66102,51646
34.66913,50996
34.67727,44954
34.68538,43706
34.69350,45878
34.70163,46159
34.70975,44909
34.71788,48323
34.72600,47292
34.73412,48006
34.74225,48574
34.75037,45053
34.75850,44022
34.76662,45803
34.77473,45369
34.78287,45854
34.79098,47880
34.79912,49972
34.80723,47256
34.81535,46192
34.82348,44809
34.83160,43749
34.83972,41533
34.84785,47321
34.85597,45008
34.86410,45460
34.87222,46937
34.88033,45486
34.88847,47958
34.89658,43127
34.90472,41800
34.91283,41707
34.92095,47504
34.92908,46636
34.93720,45931
34.94532,46304
34.95345,49890
34.96157,49499
34.96970,47887
34.97782,50617
34.98593,53606
34.99407,52249
35.00218,54065
35.01032,48876
35.01843,45290
35.02655,45049
35.03468,49767
35.04280,40987
35.05093,46533
35.05905,44836
35.06717,45357
35.07530,43218
35.08342,46137
35.09153,43563
35.09967,44158
35.10778,44102
35.11592,46965
35.12403,45539
35.13215,49050
35.14028,44640
35.14840,48557
35.15653,43012
35.16465,47612
35.17277,49810
35.18090,46328
35.18902,43782
35.19715,46449
35.20527,45370
35.21338,45979
35.22152,44614
35.22963,43281
35.23775,44101
35.24588,42767
35.25400,46861
35.26213,43117
35.27025,43352
35.27837,43517
35.28650,44232
35.29462,45745
35.30275,44715
35.31087,44195
35.31898,46366
35.32712,45563
35.33523,48378
35.34335,45395
35.35148,42192
35.35960,42714
35.36773,43721
35.37585,43707
35.38397,46443
35.39210,42194
35.40022,43363
35.40835,41408
35.41647,45303
35.42458,44367
35.43272,45522
35.44083,50060
35.44897,46685
35.45708,46038
35.46520,45227
35.47333,48156
35.48145,49154
35.48957,48168
35.49770,44967
35.50582,48448
35.51395,46192
35.52207,46551
35.53018,48731
35.53832,46549
35.54643,44913
35.55457,43404
35.56268,41732
35.57080,44589
35.57893,44428
35.58705,45148
35.59517,44797
35.60330,42764
35.61142,44064
35.61955,40823
35.62767,39770
35.63578,43702
35.64392,47327
35.65203,43020
35.66017,46056
35.66828,44973
35.67640,53620
35.68453,53388
35.69265,51230
35.70078,49136
35.70890,45623
35.71702,47243
35.72515,48282
35.73327,43288
35.74138,46727
35.74952,53504
35.75763,49626
35.76577,51719
35.77388,58442
35.78200,53245
35.79013,51220
35.79825,52134
35.80638,50248
35.81450,50876
35.82262,49777
35.83075,44164
35.83887,47207
35.84700,46340
35.85512,43585
35.86323,45415
35.87137,52884
35.87948,46666
35.88760,44978
35.89573,48919
35.90385,49515
35.91198,43861
35.92010,47125
35.92822,44561
35.93635,43003
35.94447,43628
35.95260,45647
35.96072,45159
35.96883,44786
35.97697,50297
35.98508,44693
35.99320,46574
36.00133,46632
36.00945,49000
36.01758,53133
36.02570,50408
36.03382,50026
36.04195,48526
36.05007,49589
36.05820,53720
36.06632,49701
36.07443,50505
36.08257,51595
36.09068,45422
36.09882,48752
36.10693,50101
36.11505,47593
36.12318,51437
36.13130,47596
36.13942,49667
36.14755,50356
36.15567,49691
36.16380,57327
36.17192,48663
36.18003,47278
36.18817,48929
36.19628,49574
36.20442,45765
36.21253,47987
36.22065,47550
36.22878,48125
36.23690,43390
36.24503,49339
36.25315,49568
36.26127,49871
36.26940,48336
36.27752,44815
36.28563,46483
36.29377,48922
36.30188,49555
36.31002,51947
36.31813,54325
36.32625,55725
36.33438,58492
36.34250,54054
36.35063,50807
36.35875,52707
36.36687,53195
36.37500,49600
36.38312,48995
36.39123,54536
36.39937,50834
36.40748,47126
36.41562,47885
36.42373,51024
36.43185,53077
36.43998,50289
36.44810,51529
36.45623,49054
36.46435,50844
36.47247,45147
36.48060,46275
36.48872,47792
36.49685,51183
36.50497,50257
36.51308,43347
36.52122,52386
36.52933,49651
36.53745,45531
36.54558,50870
36.55370,46107
36.56183,51045
36.56995,49137
36.57807,47684
36.58620,47524
36.59432,49880
36.60245,48640
36.61057,48255
36.61868,49241
36.62682,51354
36.63493,51185
36.64305,52507
36.65118,50425
36.65930,51870
36.66743,53032
36.67555,51471
36.68367,57123
36.69180,54653
36.69992,53745
36.70805,54574
36.71617,57319
36.72428,50622
36.73242,53547
36.74053,53266
36.74867,56179
36.75678,51382
36.76490,53510
36.77303,51877
36.78115,54717
36.78927,55170
36.79740,52659
36.80552,50491
36.81365,48287
36.82177,51526
36.82988,54913
36.83802,52978
36.84613,52341
36.85427,55024
36.86238,54562
36.87050,51232
36.87863,52380
36.88675,50253
36.89488,52838
36.90300,53068
36.91112,54360
36.91925,52535
36.92737,54691
36.93548,56060
36.94362,57556
36.95173,58239
36.95987,62486
36.96798,67784
36.97610,61568
36.98423,63745
36.99235,62291
37.00048,58587
37.00860,62023
37.01672,55844
37.02485,55631
37.03297,53793
37.04110,52548
37.04922,58170
37.05733,54094
37.06547,56161
37.07358,53249
37.08170,56276
37.08983,56763
37.09795,59219
37.10608,56964
37.11420,60072
37.12232,59429
37.13045,56966
37.13857,55068
37.14670,62034
37.15482,57493
37.16293,51248
37.17107,53513
37.17918,63131
37.18730,58197
37.19543,55069
37.20355,59510
37.21168,59010
37.21980,54597
37.22792,55133
37.23605,54010
37.24417,53177
37.25230,58407
37.26042,55253
37.26853,53674
37.27667,52970
37.28478,55595
37.29292,54720
37.30103,53005
37.30915,53711
37.31728,57484
37.32540,57190
37.33352,61789
37.34165,62026
37.34977,65166
37.35790,71014
37.36602,69648
37.37413,76229
37.38227,73922
37.39038,71430
37.39852,72142
37.40663,68291
37.41475,64351
37.42288,62012
37.43100,63671
37.43912,61703
37.44725,64802
37.45537,67822
37.46350,68110
37.47162,65181
37.47973,64291
37.48787,61475
