Z:\data\JTB-E02\BACandBLUE\JTB-E18-001-12.D Fri Mar 15 10:54:26 2019
Start of data points
2.09515,54792
2.10327,54434
2.11140,59659
2.11952,55149
2.12765,53043
2.13577,57212
2.14388,58681
2.15202,50456
2.16013,51412
2.16827,49543
2.17638,46564
2.18450,46036
2.19263,46409
2.20075,47044
2.20887,44751
2.21700,45493
2.22512,43865
2.23325,38644
2.24137,44614
2.24948,45875
2.25762,46483
2.26573,159160
2.27387,930626
2.28198,1097681
2.29010,494165
2.29823,304018
2.30635,234494
2.31448,214428
2.32260,184047
2.33072,172186
2.33885,160424
2.34697,140138
2.35508,130922
2.36322,115657
2.37133,113944
2.37947,110139
2.38758,112166
2.39570,100368
2.40383,101098
2.41195,98932
2.42008,105916
2.42820,98824
2.43632,94996
2.44445,92383
2.45257,92791
2.46068,89125
2.46882,87253
2.47693,83324
2.48507,88662
2.49318,94291
2.50130,86357
2.50943,86845
2.51755,87592
2.52568,79252
2.53380,83031
2.54192,83340
2.55005,95026
2.55817,112274
2.56630,116049
2.57442,97409
2.58253,93843
2.59067,86164
2.59878,110328
2.60690,332681
2.61503,536009
2.62315,353920
2.63128,221822
2.63940,160988
2.64752,135248
2.65565,126669
2.66377,114843
2.67190,97898
2.68002,97550
2.68813,87501
2.69627,90518
2.70438,84186
2.71250,85534
2.72063,76666
2.72875,79658
2.73688,77432
2.74500,78235
2.75312,81553
2.76125,75645
2.76937,73546
2.77750,74087
2.78562,73120
2.79373,80107
2.80187,78042
2.80998,84805
2.81812,80760
2.82623,77247
2.83435,70761
2.84248,72648
2.85060,69034
2.85872,72473
2.86685,74063
2.87497,76150
2.88310,73383
2.89122,76067
2.89933,72482
2.90747,73051
2.91558,69223
2.92372,70762
2.93183,66715
2.93995,70183
2.94808,66735
2.95620,74585
2.96433,83133
2.97245,84755
2.98057,77362
2.98870,72415
2.99682,71818
3.00493,71939
3.01307,71335
3.02118,72796
3.02932,67927
3.03743,68775
3.04555,63675
3.05368,66752
3.06180,67614
3.06993,68903
3.07805,150542
3.08617,656442
3.09430,1647276
3.10242,2894190
3.11053,4271477
3.11867,3574811
3.12678,2152299
3.13492,1506841
3.14303,1192242
3.15115,956824
3.15928,789934
3.16740,656686
3.17553,555773
3.18365,486005
3.19177,438490
3.19990,399987
3.20802,344788
3.21615,302047
3.22427,281196
3.23238,262261
3.24052,235771
3.24863,225131
3.25675,207410
3.26488,183409
3.27300,183608
3.28113,194501
3.28925,358365
3.29737,1063072
3.30550,2471761
3.31362,3356336
3.32175,2900464
3.32987,1954933
3.33798,1295955
3.34612,967566
3.35423,797866
3.36237,677800
3.37048,581588
3.37860,523351
3.38673,464814
3.39485,418289
3.40297,400732
3.41110,353616
3.41922,333010
3.42735,317630
3.43547,296405
3.44358,272940
3.45172,268994
3.45983,260995
3.46797,279045
3.47608,293885
3.48420,268162
3.49233,247877
3.50045,234399
3.50857,230696
3.51670,205649
3.52482,210473
3.53295,195485
3.54107,192374
3.54918,186370
3.55732,184565
3.56543,234665
3.57357,354973
3.58168,391868
3.58980,323648
3.59793,247602
3.60605,222858
3.61418,216560
3.62230,210364
3.63042,204445
3.63855,182576
3.64667,177626
3.65478,166774
3.66292,183128
3.67103,258418
3.67917,376446
3.68728,389660
3.69540,299686
3.70353,235213
3.71165,203016
3.71978,191940
3.72790,179715
3.73602,166436
3.74415,164642
3.75227,159822
3.76040,161199
3.76852,154161
3.77663,151720
3.78477,159270
3.79288,205364
3.80100,471786
3.80913,1495134
3.81725,2784763
3.82538,2700411
3.83350,1715823
3.84162,1094967
3.84975,822560
3.85787,674908
3.86600,580433
3.87412,509298
3.88223,460565
3.89037,419468
3.89848,387204
3.90660,367542
3.91473,333071
3.92285,309463
3.93098,294639
3.93910,297584
3.94722,464620
3.95535,1153677
3.96347,2318102
3.97160,2888920
3.97972,2220598
3.98783,1445801
3.99597,2009705
4.00408,5702533
4.01222,1.176263E+07
4.02033,1.436971E+07
4.02845,1.060467E+07
4.03658,5737976
4.04470,3207227
4.05282,2153904
4.06095,1641730
4.06907,1305602
4.07720,1085280
4.08532,915875
4.09343,785065
4.10157,704969
4.10968,625670
4.11782,566887
4.12593,513501
4.13405,477483
4.14218,470956
4.15030,455705
4.15842,434746
4.16655,418410
4.17467,411169
4.18280,410060
4.19092,365411
4.19903,329740
4.20717,305212
4.21528,303380
4.22342,330923
4.23153,382418
4.23965,389485
4.24778,335674
4.25590,296512
4.26403,270918
4.27215,247029
4.28027,238225
4.28840,222613
4.29652,216795
4.30463,208105
4.31277,205235
4.32088,207688
4.32902,204489
4.33713,201145
4.34525,188317
4.35338,194212
4.36150,179288
4.36963,179660
4.37775,184148
4.38587,179615
4.39400,169085
4.40212,167876
4.41025,164467
4.41837,160863
4.42648,161858
4.43462,158493
4.44273,157654
4.45085,161666
4.45898,152119
4.46710,148479
4.47523,146074
4.48335,145982
4.49147,143058
4.49960,148856
4.50772,141125
4.51585,140674
4.52397,138235
4.53208,142564
4.54022,135225
4.54833,146178
4.55645,144625
4.56458,138036
4.57270,134255
4.58083,129382
4.58895,129371
4.59707,130796
4.60520,124142
4.61332,126014
4.62145,129205
4.62957,120689
4.63768,120550
4.64582,119356
4.65393,120496
4.66207,117439
4.67018,116400
4.67830,123547
4.68643,127382
4.69455,128747
4.70267,121418
4.71080,118717
4.71892,113394
4.72705,114732
4.73517,115514
4.74328,109530
4.75142,111152
4.75953,109733
4.76767,106884
4.77578,112371
4.78390,119302
4.79203,115096
4.80015,137278
4.80828,158324
4.81640,166176
4.82452,148335
4.83265,145389
4.84077,169886
4.84888,173084
4.85702,156994
4.86513,145797
4.87327,139409
4.88138,130154
4.88950,121245
4.89763,118971
4.90575,115768
4.91388,113934
4.92200,108300
4.93012,120005
4.93825,167545
4.94637,341362
4.95448,736680
4.96262,1262349
4.97073,1654970
4.97887,1603939
4.98698,1257143
4.99510,893845
5.00323,641058
5.01135,492639
5.01948,417614
5.02760,358286
5.03572,324206
5.04385,285428
5.05197,275828
5.06010,252659
5.06822,243273
5.07633,232527
5.08447,220744
5.09258,212600
5.10070,197578
5.10883,199094
5.11695,188498
5.12508,177905
5.13320,180174
5.14132,176094
5.14945,166499
5.15757,166397
5.16570,172945
5.17382,163051
5.18193,153515
5.19007,162416
5.19818,156704
5.20630,154607
5.21443,147851
5.22255,154393
5.23068,158194
5.23880,180944
5.24692,172041
5.25505,161255
5.26317,149718
5.27130,136033
5.27942,133757
5.28753,138947
5.29567,133300
5.30378,124511
5.31192,127024
5.32003,128633
5.32815,139931
5.33628,160117
5.34440,178481
5.35252,175099
5.36065,162775
5.36877,148592
5.37690,137302
5.38502,147052
5.39313,153192
5.40127,159682
5.40938,153895
5.41752,136092
5.42563,134125
5.43375,134328
5.44188,147358
5.45000,162298
5.45813,187759
5.46625,189704
5.47437,167700
5.48250,140595
5.49062,131835
5.49873,115763
5.50687,115285
5.51498,128447
5.52312,127421
5.53123,125249
5.53935,125886
5.54748,118368
5.55560,116487
5.56373,116788
5.57185,119838
5.57997,126536
5.58810,136817
5.59622,137927
5.60433,132338
5.61247,128877
5.62058,129136
5.62872,131979
5.63683,129989
5.64495,135634
5.65308,131664
5.66120,132117
5.66933,126956
5.67745,138550
5.68557,169998
5.69370,201525
5.70182,218815
5.70995,186959
5.71807,161506
5.72618,138755
5.73432,122689
5.74243,114602
5.75055,115010
5.75868,106766
5.76680,101361
5.77493,104116
5.78305,101629
5.79117,107780
5.79930,98596
5.80742,102607
5.81555,103346
5.82367,99876
5.83178,101127
5.83992,98005
5.84803,103870
5.85617,100230
5.86428,94695
5.87240,95561
5.88053,97755
5.88865,95672
5.89677,100416
5.90490,117681
5.91302,165553
5.92115,226761
5.92927,247927
5.93738,212769
5.94552,158192
5.95363,120893
5.96177,104995
5.96988,101638
5.97800,110128
5.98613,120363
5.99425,120275
6.00237,124259
6.01050,133580
6.01862,125914
6.02675,128131
6.03487,116500
6.04298,97811
6.05112,87786
6.05923,82219
6.06737,82909
6.07548,79265
6.08360,79132
6.09173,81606
6.09985,79671
6.10798,80042
6.11610,76804
6.12422,83493
6.13235,80134
6.14047,80306
6.14858,79375
6.15672,79776
6.16483,81336
6.17297,80419
6.18108,83004
6.18920,89617
6.19733,86332
6.20545,91711
6.21358,92478
6.22170,96540
6.22982,97548
6.23795,104647
6.24607,111809
6.25420,131748
6.26232,148077
6.27043,161148
6.27857,145616
6.28668,131221
6.29480,127846
6.30293,112096
6.31105,115071
6.31918,119391
6.32730,125127
6.33542,124893
6.34355,128706
6.35167,137476
6.35980,124630
6.36792,126837
6.37603,142208
6.38417,133088
6.39228,135806
6.40040,135757
6.40853,137243
6.41665,135030
6.42478,138508
6.43290,135762
6.44102,151614
6.44915,149186
6.45727,152138
6.46540,146266
6.47352,153966
6.48163,151211
6.48977,150338
6.49788,153503
6.50602,155558
6.51413,154668
6.52225,157691
6.53038,167157
6.53850,159739
6.54662,165346
6.55475,163832
6.56287,168047
6.57100,170399
6.57912,191159
6.58723,196836
6.59537,197120
6.60348,178104
6.61162,179529
6.61973,173286
6.62785,184490
6.63598,180209
6.64410,190411
6.65223,214876
6.66035,290124
6.66847,386147
6.67660,491072
6.68472,459411
6.69283,373930
6.70097,303824
6.70908,260731
6.71722,238242
6.72533,230937
6.73345,226864
6.74158,227142
6.74970,214385
6.75783,218507
6.76595,215299
6.77407,183393
6.78220,149877
6.79032,129533
6.79843,131689
6.80657,122187
6.81468,113921
6.82282,111285
6.83093,111905
6.83905,116794
6.84718,127197
6.85530,147482
6.86343,159954
6.87155,164107
6.87967,143520
6.88780,118050
6.89592,96525
6.90405,94267
6.91217,80071
6.92028,76976
6.92842,78449
6.93653,74372
6.94465,73469
6.95278,79455
6.96090,80415
6.96903,97242
6.97715,126178
6.98527,137170
6.99340,137655
7.00152,119330
7.00965,101543
7.01777,83231
7.02588,75267
7.03402,69647
7.04213,67334
7.05025,69980
7.05838,71853
7.06650,63485
7.07463,64502
7.08275,62702
7.09087,63659
7.09900,63373
7.10712,69666
7.11525,63474
7.12337,63266
7.13148,69967
7.13962,75867
7.14773,84843
7.15587,112935
7.16398,154812
7.17210,170397
7.18023,153044
7.18835,131937
7.19647,107017
7.20460,87787
7.21272,81216
7.22085,76900
7.22897,79501
7.23708,88121
7.24522,98409
7.25333,102076
7.26147,93944
7.26958,87682
7.27770,85616
7.28583,75228
7.29395,69387
7.30208,70983
7.31020,66285
7.31832,60282
7.32645,62294
7.33457,61634
7.34268,57488
7.35082,55062
7.35893,59347
7.36707,60110
7.37518,65291
7.38330,71400
7.39143,64329
7.39955,65766
7.40768,65079
7.41580,64656
7.42392,70488
7.43205,66862
7.44017,60714
7.44828,67856
7.45642,62061
7.46453,61813
7.47267,63417
7.48078,61796
7.48890,58205
7.49703,55028
7.50515,52111
7.51328,53751
7.52140,54299
7.52952,53905
7.53765,60539
7.54577,51099
7.55390,51729
7.56202,49857
7.57013,55818
7.57827,47369
7.58638,50949
7.59450,55437
7.60263,53219
7.61075,50999
7.61888,52678
7.62700,48731
7.63512,50096
7.64325,55102
7.65137,56499
7.65950,47029
7.66762,52436
7.67573,51654
7.68387,48844
7.69198,49765
7.70012,51011
7.70823,50620
7.71635,48727
7.72448,48680
7.73260,49762
7.74072,48873
7.74885,53321
7.75697,49653
7.76510,46635
7.77322,50725
7.78133,49603
7.78947,51336
7.79758,53713
7.80572,54143
7.81383,53869
7.82195,56106
7.83008,51275
7.83820,50246
7.84632,54259
7.85445,63128
7.86257,61724
7.87070,62165
7.87882,71467
7.88693,73393
7.89507,72665
7.90318,65018
7.91132,65333
7.91943,68375
7.92755,90216
7.93568,147810
7.94380,231369
7.95193,279636
7.96005,280093
7.96817,229459
7.97630,165237
7.98442,111470
7.99253,84529
8.00067,69910
8.00878,65233
8.01692,60206
8.02503,58690
8.03315,54755
8.04128,55398
8.04940,49279
8.05753,53667
8.06565,50679
8.07377,51506
8.08190,50013
8.09002,49691
8.09813,46558
8.10627,45238
8.11438,45117
8.12252,45675
8.13063,50806
8.13875,50845
8.14688,54018
8.15500,56297
8.16313,53485
8.17125,53669
8.17937,50271
8.18750,49273
8.19562,43826
8.20375,42952
8.21187,46197
8.21998,46445
8.22812,46007
8.23623,44654
8.24435,46393
8.25248,47100
8.26060,41495
8.26873,41211
8.27685,44752
8.28497,42218
8.29310,46088
8.30122,44699
8.30935,52448
8.31747,58717
8.32558,59933
8.33372,56911
8.34183,55085
8.34997,51644
8.35808,47907
8.36620,47939
8.37433,43362
8.38245,50274
8.39057,46485
8.39870,44476
8.40682,46259
8.41495,44801
8.42307,39022
8.43118,42522
8.43932,37513
8.44743,39851
8.45557,40879
8.46368,41415
8.47180,42420
8.47993,39262
8.48805,40934
8.49617,43075
8.50430,38588
8.51242,38625
8.52055,44030
8.52867,57696
8.53678,93153
8.54492,176035
8.55303,298109
8.56117,404776
8.56928,395554
8.57740,311944
8.58553,212510
8.59365,131787
8.60178,90645
8.60990,73302
8.61802,69239
8.62615,67517
8.63427,61260
8.64238,60313
8.65052,56783
8.65863,57311
8.66677,49586
8.67488,51181
8.68300,51712
8.69113,51680
8.69925,57386
8.70738,54432
8.71550,50882
8.72362,45777
8.73175,47267
8.73987,47845
8.74800,47255
8.75612,55461
8.76423,94878
8.77237,194780
8.78048,368297
8.78860,592609
8.79673,733088
8.80485,740046
8.81298,580996
8.82110,400448
8.82922,246900
8.83735,167617
8.84547,142241
8.85360,121179
8.86172,122162
8.86983,120849
8.87797,116346
8.88608,115668
8.89420,114417
8.90233,104595
8.91045,99559
8.91858,92413
8.92670,90214
8.93482,82746
8.94295,78354
8.95107,75981
8.95920,67889
8.96732,71715
8.97543,76920
8.98357,75726
8.99168,75533
8.99982,80833
9.00793,80757
9.01605,69025
9.02418,69233
9.03230,67699
9.04042,66003
9.04855,68513
9.05667,64638
9.06480,59999
9.07292,57988
9.08103,58777
9.08917,63005
9.09728,56942
9.10542,63758
9.11353,59933
9.12165,63673
9.12978,61456
9.13790,56795
9.14603,57096
9.15415,55744
9.16227,56771
9.17040,54066
9.17852,60432
9.18663,54415
9.19477,51991
9.20288,48034
9.21102,51173
9.21913,58176
9.22725,53110
9.23538,54577
9.24350,56471
9.25163,57239
9.25975,46856
9.26787,49072
9.27600,53592
9.28412,47236
9.29223,47431
9.30037,50861
9.30848,51945
9.31662,47666
9.32473,49748
9.33285,53948
9.34098,54390
9.34910,49493
9.35723,51991
9.36535,49836
9.37347,49398
9.38160,49893
9.38972,51566
9.39785,48967
9.40597,49425
9.41408,45886
9.42222,47831
9.43033,48774
9.43845,47061
9.44658,47197
9.45470,49593
9.46283,47041
9.47095,46049
9.47907,49412
9.48720,42025
9.49532,48998
9.50345,45311
9.51157,48305
9.51968,53138
9.52782,57093
9.53593,62698
9.54405,65994
9.55218,71754
9.56030,76236
9.56843,74652
9.57655,78854
9.58467,81932
9.59280,72827
9.60092,74313
9.60905,65003
9.61717,55724
9.62528,48913
9.63342,42521
9.64153,44846
9.64967,51143
9.65778,57886
9.66590,82313
9.67403,87369
9.68215,90907
9.69027,80569
9.69840,67013
9.70652,49873
9.71465,46812
9.72277,41261
9.73088,39740
9.73902,37251
9.74713,32581
9.75527,37468
9.76338,37953
9.77150,40009
9.77963,44090
9.78775,38237
9.79588,34948
9.80400,37211
9.81212,39327
9.82025,37921
9.82837,33470
9.83648,36618
9.84462,38041
9.85273,35719
9.86087,37042
9.86898,37983
9.87710,38268
9.88523,34853
9.89335,37297
9.90148,32847
9.90960,32491
9.91772,35942
9.92585,38825
9.93397,40131
9.94208,49126
9.95022,56503
9.95833,57325
9.96647,71389
9.97458,63489
9.98270,52979
9.99083,47450
9.99895,50528
10.00708,43590
10.01520,45997
10.02332,45797
10.03145,40086
10.03957,39430
10.04770,41986
10.05582,38025
10.06393,38221
10.07207,33493
10.08018,43088
10.08830,39083
10.09643,45167
10.10455,44083
10.11268,44845
10.12080,45959
10.12892,39992
10.13705,33416
10.14517,32893
10.15330,39083
10.16142,34311
10.16953,33580
10.17767,29807
10.18578,35539
10.19392,35811
10.20203,30493
10.21015,32215
10.21828,33430
10.22640,37887
10.23452,42456
10.24265,45958
10.25077,47460
10.25890,51421
10.26702,51520
10.27513,49560
10.28327,42874
10.29138,43639
10.29952,41458
10.30763,39992
10.31575,43301
10.32388,51413
10.33200,57474
10.34012,66448
10.34825,66939
10.35637,67236
10.36450,64781
10.37262,55606
10.38073,54833
10.38887,51720
10.39698,48129
10.40512,44183
10.41323,48481
10.42135,43130
10.42948,43880
10.43760,42209
10.44573,38840
10.45385,36726
10.46197,38470
10.47010,38899
10.47822,39553
10.48633,36973
10.49447,36650
10.50258,40951
10.51072,38086
10.51883,35853
10.52695,38050
10.53508,35277
10.54320,35222
10.55133,36066
10.55945,37081
10.56757,38933
10.57570,37455
10.58382,40560
10.59193,37737
10.60007,42994
10.60818,46872
10.61632,42889
10.62443,42091
10.63255,40768
10.64068,37357
10.64880,32485
10.65693,34958
10.66505,35767
10.67317,38650
10.68130,35265
10.68942,35670
10.69755,34182
10.70567,32000
10.71378,37457
10.72192,34976
10.73003,32477
10.73815,37022
10.74628,39769
10.75440,41304
10.76253,40412
10.77065,43082
10.77877,34230
10.78690,37021
10.79502,38138
10.80315,33624
10.81127,33408
10.81938,30723
10.82752,35287
10.83563,29218
10.84377,34643
10.85188,35213
10.86000,34567
10.86813,34048
10.87625,33207
10.88437,36366
10.89250,31626
10.90062,33138
10.90875,31946
10.91687,34066
10.92498,32644
10.93312,32569
10.94123,31221
10.94937,31730
10.95748,28249
10.96560,30781
10.97373,30437
10.98185,31879
10.98998,35268
10.99810,35742
11.00622,31159
11.01435,31879
11.02247,31314
11.03058,29823
11.03872,37067
11.04683,38822
11.05497,48875
11.06308,59004
11.07120,75430
11.07933,83871
11.08745,81643
11.09558,77042
11.10370,56830
11.11182,44757
11.11995,37208
11.12807,33361
11.13618,32072
11.14432,41312
11.15243,37562
11.16057,38192
11.16868,38120
11.17680,42921
11.18493,38234
11.19305,38541
11.20118,35437
11.20930,36436
11.21742,33115
11.22555,31553
11.23367,31117
11.24180,29790
11.24992,29426
11.25803,30046
11.26617,30752
11.27428,31251
11.28240,35754
11.29053,32852
11.29865,27888
11.30678,33353
11.31490,35798
11.32302,31441
11.33115,31654
11.33927,33398
11.34740,29867
11.35552,32773
11.36363,31752
11.37177,31342
11.37988,30774
11.38800,30671
11.39613,28398
11.40425,27600
11.41238,28668
11.42050,30388
11.42862,26706
11.43675,28767
11.44487,29348
11.45300,32827
11.46112,29583
11.46923,31755
11.47737,36463
11.48548,50356
11.49362,69477
11.50173,80467
11.50985,98193
11.51798,93834
11.52610,78656
11.53422,67305
11.54235,58467
11.55047,48482
11.55860,53977
11.56672,42977
11.57483,41157
11.58297,35374
11.59108,35220
11.59922,34816
11.60733,32558
11.61545,36320
11.62358,32212
11.63170,37579
11.63982,39968
11.64795,33862
11.65607,32923
11.66420,32999
11.67232,38818
11.68043,40413
11.68857,46873
11.69668,56588
11.70482,59840
11.71293,66712
11.72105,57903
11.72918,49440
11.73730,40264
11.74543,38225
11.75355,35784
11.76167,33148
11.76980,36309
11.77792,34403
11.78603,31934
11.79417,34084
11.80228,33766
11.81042,36718
11.81853,33650
11.82665,32723
11.83478,36042
11.84290,43560
11.85103,46742
11.85915,49401
11.86727,56701
11.87540,56210
11.88352,53356
11.89165,46252
11.89977,39644
11.90788,36488
11.91602,33588
11.92413,36136
11.93225,38611
11.94038,39277
11.94850,38694
11.95663,35981
11.96475,31640
11.97287,34364
11.98100,36045
11.98912,37588
11.99725,40489
12.00537,48335
12.01348,64547
12.02162,78637
12.02973,68805
12.03787,58705
12.04598,60472
12.05410,46862
12.06223,43907
12.07035,38077
12.07847,35108
12.08660,35076
12.09472,29776
12.10285,37618
12.11097,39883
12.11908,36353
12.12722,38432
12.13533,33952
12.14347,35787
12.15158,38655
12.15970,34241
12.16783,30800
12.17595,29375
12.18407,31888
12.19220,30662
12.20032,31598
12.20845,32936
12.21657,31620
12.22468,32199
12.23282,32747
12.24093,31709
12.24907,35449
12.25718,38512
12.26530,39388
12.27343,40189
12.28155,42393
12.28968,37363
12.29780,37461
12.30592,33847
12.31405,30766
12.32217,28320
12.33028,29944
12.33842,26060
12.34653,26901
12.35467,26207
12.36278,37017
12.37090,34297
12.37903,28277
12.38715,27048
12.39528,28498
12.40340,27613
12.41152,31435
12.41965,31791
12.42777,38390
12.43588,31839
12.44402,36644
12.45213,38498
12.46027,37456
12.46838,37373
12.47650,34208
12.48463,29770
12.49275,32363
12.50088,29925
12.50900,30208
12.51712,30296
12.52525,29299
12.53337,31795
12.54150,29876
12.54962,32147
12.55773,31409
12.56587,31194
12.57398,33487
12.58210,42220
12.59023,33325
12.59835,31918
12.60648,31328
12.61460,29371
12.62272,29476
12.63085,29148
12.63897,28831
12.64710,30075
12.65522,29030
12.66333,31388
12.67147,28625
12.67958,28112
12.68772,25192
12.69583,26942
12.70395,25560
12.71208,29879
12.72020,34498
12.72832,39112
12.73645,47062
12.74457,46911
12.75270,48210
12.76082,42354
12.76893,36839
12.77707,34688
12.78518,31599
12.79332,29184
12.80143,31274
12.80955,29443
12.81768,31517
12.82580,32041
12.83392,28016
12.84205,29554
12.85017,26786
12.85830,25591
12.86642,25166
12.87453,28832
12.88267,29210
12.89078,27563
12.89892,28170
12.90703,29851
12.91515,27450
12.92328,27379
12.93140,26008
12.93953,26418
12.94765,28190
12.95577,28306
12.96390,25536
12.97202,31027
12.98013,30318
12.98827,33255
12.99638,28490
13.00452,28437
13.01263,31065
13.02075,28772
13.02888,27148
13.03700,24468
13.04513,28104
13.05325,28290
13.06137,26347
13.06950,23877
13.07762,25654
13.08575,25787
13.09387,25353
13.10198,24553
13.11012,26872
13.11823,25823
13.12635,26062
13.13448,28256
13.14260,27897
13.15073,26154
13.15885,24659
13.16697,27722
13.17510,30716
13.18322,25497
13.19135,29479
13.19947,27743
13.20758,29279
13.21572,30153
13.22383,32624
13.23195,33259
13.24008,33184
13.24820,27701
13.25633,30881
13.26445,28460
13.27257,25673
13.28070,26720
13.28882,27510
13.29695,27945
13.30507,26343
13.31318,22794
13.32132,25373
13.32943,28152
13.33757,25512
13.34568,24358
13.35380,31221
13.36193,25187
13.37005,23843
13.37817,23517
13.38630,23100
13.39442,24667
13.40255,23872
13.41067,25585
13.41878,22842
13.42692,25427
13.43503,26211
13.44317,24168
13.45128,26353
13.45940,26193
13.46753,25966
13.47565,25289
13.48377,27348
13.49190,27654
13.50002,25216
13.50815,26835
13.51627,24902
13.52438,24773
13.53252,25295
13.54063,24339
13.54877,25548
13.55688,24805
13.56500,27462
13.57313,24264
13.58125,26820
13.58938,24578
13.59750,23244
13.60562,22074
13.61375,24546
13.62187,25467
13.62998,28533
13.63812,24853
13.64623,23351
13.65437,24265
13.66248,25344
13.67060,25487
13.67873,21687
13.68685,23986
13.69498,22776
13.70310,27131
13.71122,23915
13.71935,25096
13.72747,28060
13.73560,27342
13.74372,28747
13.75183,35800
13.75997,44569
13.76808,59827
13.77620,97470
13.78433,112463
13.79245,123813
13.80058,114746
13.80870,103098
13.81682,74949
13.82495,61318
13.83307,47364
13.84120,41713
13.84932,46009
13.85743,39922
13.86557,36297
13.87368,32492
13.88180,34924
13.88993,37066
13.89805,31706
13.90618,36547
13.91430,33170
13.92242,30506
13.93055,32602
13.93867,32419
13.94680,33429
13.95492,37201
13.96303,46853
13.97117,80050
13.97928,103625
13.98742,130603
13.99553,152136
14.00365,147973
14.01178,131758
14.01990,94625
14.02802,79214
14.03615,63358
14.04427,58868
14.05240,53245
14.06052,47737
14.06863,48222
14.07677,51502
14.08488,45839
14.09302,42892
14.10113,42403
14.10925,43554
14.11738,39593
14.12550,37418
14.13363,34795
14.14175,38870
14.14987,38898
14.15800,41808
14.16612,40740
14.17423,39875
14.18237,45687
14.19048,42938
14.19862,51026
14.20673,65954
14.21485,77780
14.22298,95211
14.23110,107659
14.23923,107154
14.24735,99349
14.25547,99837
14.26360,86967
14.27172,82076
14.27983,76707
14.28797,66773
14.29608,62264
14.30422,59706
14.31233,56481
14.32045,52724
14.32858,50693
14.33670,48961
14.34483,50481
14.35295,50774
14.36107,50077
14.36920,40804
14.37732,36815
14.38545,39168
14.39357,34183
14.40168,35022
14.40982,33303
14.41793,32405
14.42605,29653
14.43418,28996
14.44230,25679
14.45043,30218
14.45855,31446
14.46667,27107
14.47480,30931
14.48292,30126
14.49105,32469
14.49917,30731
14.50728,30011
14.51542,29762
14.52353,32518
14.53167,33529
14.53978,37525
14.54790,36599
14.55603,33553
14.56415,30671
14.57227,30618
14.58040,28444
14.58852,30643
14.59665,27067
14.60477,34126
14.61288,24405
14.62102,26725
14.62913,27730
14.63727,25944
14.64538,25025
14.65350,26385
14.66163,26283
14.66975,25823
14.67787,29359
14.68600,26139
14.69412,26689
14.70225,33720
14.71037,28694
14.71848,25978
14.72662,31535
14.73473,29752
14.74287,29369
14.75098,30149
14.75910,28630
14.76723,28745
14.77535,27847
14.78348,29259
14.79160,27895
14.79972,29414
14.80785,28098
14.81597,29774
14.82408,28553
14.83222,31998
14.84033,33525
14.84847,32066
14.85658,31955
14.86470,30897
14.87283,30047
14.88095,27290
14.88908,26077
14.89720,30929
14.90532,28872
14.91345,28260
14.92157,28603
14.92968,30184
14.93782,33022
14.94593,28221
14.95407,27028
14.96218,25908
14.97030,24687
14.97843,27296
14.98655,24991
14.99468,22574
15.00280,28767
15.01092,29228
15.01905,30712
15.02717,27247
15.03530,26426
15.04342,23924
15.05153,25676
15.05967,25953
15.06778,27387
15.07590,24205
15.08403,26423
15.09215,25660
15.10028,26980
15.10840,30684
15.11652,27326
15.12465,29898
15.13277,25124
15.14090,26220
15.14902,27441
15.15713,26324
15.16527,25104
15.17338,24577
15.18152,27051
15.18963,26831
15.19775,28598
15.20588,28278
15.21400,27749
15.22212,26205
15.23025,28586
15.23837,27643
15.24650,25287
15.25462,25081
15.26273,26691
15.27087,23965
15.27898,22284
15.28712,24487
15.29523,21437
15.30335,26069
15.31148,24371
15.31960,20305
15.32772,29382
15.33585,28263
15.34397,21295
15.35210,22366
15.36022,22209
15.36833,22305
15.37647,22149
15.38458,22682
15.39272,24128
15.40083,20700
15.40895,24275
15.41708,26257
15.42520,24226
15.43333,23991
15.44145,20705
15.44957,22704
15.45770,22788
15.46582,25577
15.47393,23591
15.48207,24300
15.49018,25438
15.49832,20770
15.50643,23329
15.51455,25492
15.52268,27413
15.53080,25040
15.53893,32965
15.54705,30670
15.55517,32842
15.56330,31633
15.57142,29527
15.57955,27867
15.58767,26445
15.59578,25721
15.60392,24138
15.61203,26633
15.62015,23501
15.62828,24898
15.63640,26699
15.64453,28653
15.65265,25815
15.66077,26446
15.66890,23761
15.67702,19708
15.68515,22387
15.69327,19563
15.70138,24226
15.70952,25896
15.71763,27793
15.72575,25223
15.73388,22043
15.74200,24731
15.75013,25653
15.75825,26415
15.76637,23867
15.77450,25945
15.78262,26915
15.79075,32437
15.79887,35663
15.80698,38302
15.81512,37895
15.82323,38807
15.83137,29479
15.83948,30663
15.84760,29329
15.85573,27680
15.86385,27857
15.87197,25191
15.88010,28380
15.88822,24306
15.89635,27176
15.90447,25645
15.91258,27185
15.92072,29096
15.92883,28223
15.93697,33614
15.94508,30177
15.95320,30794
15.96133,30068
15.96945,31972
15.97757,39375
15.98570,49988
15.99382,51609
16.00195,52236
16.01007,66876
16.01818,78594
16.02632,80769
16.03443,93432
16.04257,87348
16.05068,81918
16.05880,65089
16.06693,52261
16.07505,51794
16.08318,47382
16.09130,41551
16.09942,36536
16.10755,37317
16.11567,36307
16.12378,34074
16.13192,34899
16.14003,35830
16.14817,34184
16.15628,30343
16.16440,32962
16.17253,30688
16.18065,31359
16.18878,28363
16.19690,34167
16.20502,33116
16.21315,32855
16.22127,29423
16.22940,27205
16.23752,30354
16.24563,30950
16.25377,33581
16.26188,30453
16.27000,27311
16.27813,28328
16.28625,29386
16.29438,27750
16.30250,29825
16.31062,27051
16.31875,28307
16.32687,23999
16.33500,27492
16.34312,31325
16.35123,31745
16.35937,40242
16.36748,45259
16.37560,69118
16.38373,72573
16.39185,72761
16.39998,72861
16.40810,69210
16.41622,51867
16.42435,42128
16.43247,39646
16.44060,40645
16.44872,35234
16.45683,30563
16.46497,33871
16.47308,32580
16.48122,32227
16.48933,30582
16.49745,32045
16.50558,31422
16.51370,34736
16.52182,31449
16.52995,31471
16.53807,29761
16.54620,28749
16.55432,30906
16.56243,30261
16.57057,26597
16.57868,28768
16.58682,30999
16.59493,29934
16.60305,36034
16.61118,36559
16.61930,43787
16.62743,40831
16.63555,44063
16.64367,41884
16.65180,36200
16.65992,32074
16.66803,31223
16.67617,30691
16.68428,31450
16.69242,30833
16.70053,27258
16.70865,28190
16.71678,24815
16.72490,26594
16.73303,28390
16.74115,23806
16.74927,26802
16.75740,27514
16.76552,25575
16.77363,25191
16.78177,23143
16.78988,28885
16.79802,26977
16.80613,29560
16.81425,25984
16.82238,23794
16.83050,24624
16.83863,31956
16.84675,30015
16.85487,26499
16.86300,28625
16.87112,21970
16.87925,25084
16.88737,22860
16.89548,24808
16.90362,26648
16.91173,24961
16.91985,25423
16.92798,25975
16.93610,26037
16.94423,26145
16.95235,23888
16.96047,22532
16.96860,24050
16.97672,25255
16.98485,22223
16.99297,27564
17.00108,24564
17.00922,24199
17.01733,24567
17.02545,22127
17.03358,23470
17.04170,21877
17.04983,23082
17.05795,27038
17.06607,24082
17.07420,25528
17.08232,25206
17.09045,24211
17.09857,23854
17.10668,26153
17.11482,26123
17.12293,27367
17.13107,26690
17.13918,26680
17.14730,28278
17.15543,26643
17.16355,24933
17.17167,27569
17.17980,23009
17.18792,24836
17.19605,25465
17.20417,24612
17.21228,30024
17.22042,24996
17.22853,24125
17.23667,23478
17.24478,21382
17.25290,24519
17.26103,23994
17.26915,23579
17.27728,25666
17.28540,28586
17.29352,25858
17.30165,24966
17.30977,22886
17.31788,27980
17.32602,23810
17.33413,24619
17.34227,26577
17.35038,28634
17.35850,26982
17.36663,26983
17.37475,30234
17.38288,27396
17.39100,28523
17.39912,29011
17.40725,28160
17.41537,27594
17.42350,25938
17.43162,25976
17.43973,27100
17.44787,28895
17.45598,26533
17.46410,25247
17.47223,23724
17.48035,26745
17.48848,25016
17.49660,28226
17.50472,24995
17.51285,26789
17.52097,27952
17.52910,27263
17.53722,27011
17.54533,27640
17.55347,27038
17.56158,27522
17.56970,31126
17.57783,23034
17.58595,24920
17.59408,25740
17.60220,25138
17.61032,19434
17.61845,30130
17.62657,27703
17.63470,35039
17.64282,44036
17.65093,64731
17.65907,91261
17.66718,135285
17.67532,159241
17.68343,167989
17.69155,165648
17.69968,128220
17.70780,101469
17.71592,76380
17.72405,61627
17.73217,56984
17.74030,48634
17.74842,44865
17.75653,41432
17.76467,43387
17.77278,41922
17.78092,42895
17.78903,43850
17.79715,38251
17.80528,38552
17.81340,36636
17.82152,44820
17.82965,48003
17.83777,52049
17.84590,48378
17.85402,44845
17.86213,44091
17.87027,38072
17.87838,37495
17.88652,39393
17.89463,30155
17.90275,33051
17.91088,33165
17.91900,31487
17.92713,27765
17.93525,28823
17.94337,27771
17.95150,27744
17.95962,28625
17.96773,27785
17.97587,28699
17.98398,25123
17.99212,26083
18.00023,23794
18.00835,25652
18.01648,26151
18.02460,24654
18.03273,30012
18.04085,30477
18.04897,26280
18.05710,29109
18.06522,29020
18.07335,29421
18.08147,36413
18.08958,42027
18.09772,47591
18.10583,55407
18.11395,53525
18.12208,48059
18.13020,44338
18.13833,38472
18.14645,36671
18.15457,34337
18.16270,34753
18.17082,39284
18.17895,40039
18.18707,42212
18.19518,37805
18.20332,36363
18.21143,34899
18.21955,35314
18.22768,33132
18.23580,33219
18.24393,33090
18.25205,30231
18.26017,31998
18.26830,27594
18.27642,32767
18.28455,30004
18.29267,28752
18.30078,26633
18.30892,28039
18.31703,27038
18.32517,29647
18.33328,29408
18.34140,27994
18.34953,30932
18.35765,26135
18.36577,31170
18.37390,28026
18.38202,28849
18.39015,26961
18.39827,25355
18.40638,26648
18.41452,28102
18.42263,26618
18.43077,25553
18.43888,24068
18.44700,25589
18.45513,26610
18.46325,23856
18.47138,25045
18.47950,27313
18.48762,28916
18.49575,27489
18.50387,26221
18.51198,25332
18.52012,27830
18.52823,25528
18.53637,22197
18.54448,25337
18.55260,25044
18.56073,22560
18.56885,22745
18.57698,26125
18.58510,27280
18.59322,28508
18.60135,28102
18.60947,28242
18.61758,29164
18.62572,28000
18.63383,24859
18.64197,26284
18.65008,26979
18.65820,27946
18.66633,27167
18.67445,32631
18.68258,26584
18.69070,22123
18.69882,25042
18.70695,24846
18.71507,24763
18.72320,25928
18.73132,26559
18.73943,22191
18.74757,24343
18.75568,26496
18.76380,29600
18.77193,21926
18.78005,24680
18.78818,23621
18.79630,26763
18.80442,29677
18.81255,23964
18.82067,24676
18.82880,24142
18.83692,24492
18.84503,26305
18.85317,24427
18.86128,26925
18.86940,22968
18.87753,26656
18.88565,22364
18.89378,21639
18.90190,24929
18.91002,27179
18.91815,27061
18.92627,24323
18.93440,24087
18.94252,25807
18.95063,27325
18.95877,24384
18.96688,28487
18.97502,25739
18.98313,26712
18.99125,29480
18.99938,25111
19.00750,26841
19.01562,31913
19.02375,30805
19.03187,30582
19.04000,28121
19.04812,30198
19.05623,30469
19.06437,28776
19.07248,32015
19.08062,30821
19.08873,34412
19.09685,37117
19.10498,43960
19.11310,46886
19.12123,48775
19.12935,47718
19.13747,44568
19.14560,42955
19.15372,43353
19.16183,44073
19.16997,46220
19.17808,48568
19.18622,54246
19.19433,46444
19.20245,48980
19.21058,47998
19.21870,44809
19.22683,42065
19.23495,38909
19.24307,35268
19.25120,27726
19.25932,32456
19.26743,37518
19.27557,36986
19.28368,46220
19.29182,47470
19.29993,52086
19.30805,52197
19.31618,52916
19.32430,51674
19.33243,50883
19.34055,55248
19.34867,55020
19.35680,53028
19.36492,47996
19.37305,42793
19.38117,35453
19.38928,39505
19.39742,38042
19.40553,43522
19.41365,35504
19.42178,35411
19.42990,31107
19.43803,28592
19.44615,36458
19.45427,27194
19.46240,29154
19.47052,31334
19.47865,30828
19.48677,30919
19.49488,31902
19.50302,40254
19.51113,44595
19.51927,50530
19.52738,64354
19.53550,63202
19.54363,64354
19.55175,54584
19.55987,47359
19.56800,39132
19.57612,34380
19.58425,29523
19.59237,29527
19.60048,29391
19.60862,27741
19.61673,27674
19.62487,26409
19.63298,31186
19.64110,29031
19.64923,37826
19.65735,42788
19.66547,55716
19.67360,75200
19.68172,85278
19.68985,89173
19.69797,87880
19.70608,73385
19.71422,59930
19.72233,57100
19.73047,45322
19.73858,44212
19.74670,39334
19.75483,44185
19.76295,41248
19.77108,37946
19.77920,35444
19.78732,38716
19.79545,36188
19.80357,35056
19.81168,37095
19.81982,37094
19.82793,42392
19.83607,39520
19.84418,53006
19.85230,123421
19.86043,415554
19.86855,1342077
19.87668,3712575
19.88480,8333269
19.89292,1.484893E+07
19.90105,2.213357E+07
19.90917,2.689391E+07
19.91730,2.771228E+07
19.92542,2.527823E+07
19.93353,1.895059E+07
19.94167,1.288573E+07
19.94978,8493627
19.95790,5736579
19.96603,4433606
19.97415,3666628
19.98228,3175563
19.99040,2804052
19.99852,2475807
20.00665,2280513
20.01477,2118208
20.02290,1925918
20.03102,1795931
20.03913,1620159
20.04727,1433260
20.05538,1237177
20.06350,982615
20.07163,732036
20.07975,540246
20.08788,421506
20.09600,348605
20.10412,301392
20.11225,262672
20.12037,250842
20.12850,242990
20.13662,228650
20.14473,217288
20.15287,215220
20.16098,211651
20.16912,197418
20.17723,192234
20.18535,190972
20.19348,185413
20.20160,176281
20.20972,164469
20.21785,163011
20.22597,153753
20.23410,147140
20.24222,149298
20.25033,155614
20.25847,146823
20.26658,154211
20.27472,171247
20.28283,189690
20.29095,202132
20.29908,207551
20.30720,210349
20.31532,191596
20.32345,169168
20.33157,145677
20.33970,128920
20.34782,116242
20.35593,101766
20.36407,78430
20.37218,69611
20.38032,61854
20.38843,51355
20.39655,52554
20.40468,48033
20.41280,47275
20.42093,48138
20.42905,45386
20.43717,50115
20.44530,53710
20.45342,56916
20.46153,68582
20.46967,62245
20.47778,65879
20.48592,60700
20.49403,59989
20.50215,51570
20.51028,48103
20.51840,50457
20.52653,45009
20.53465,44202
20.54277,42656
20.55090,39289
20.55902,39690
20.56715,39794
20.57527,42658
20.58338,41636
20.59152,37870
20.59963,36469
20.60775,35654
20.61588,38785
20.62400,33913
20.63213,32605
20.64025,33904
20.64837,33250
20.65650,33239
20.66462,33586
20.67275,33423
20.68087,35636
20.68898,35946
20.69712,38904
20.70523,37167
20.71335,37812
20.72148,32566
20.72960,34268
20.73773,32305
20.74585,40940
20.75397,31495
20.76210,34880
20.77022,35187
20.77835,35830
20.78647,33345
20.79458,34258
20.80272,36209
20.81083,32575
20.81897,34599
20.82708,35106
20.83520,33780
20.84333,38394
20.85145,34861
20.85957,33752
20.86770,32017
20.87582,30198
20.88395,32004
20.89207,32305
20.90018,32269
20.90832,33794
20.91643,33197
20.92457,29275
20.93268,34716
20.94080,35290
20.94893,36225
20.95705,32832
20.96518,35018
20.97330,34553
20.98142,36003
20.98955,36171
20.99767,32243
21.00578,33612
21.01392,33887
21.02203,34131
21.03017,34261
21.03828,34568
21.04640,35266
21.05453,34234
21.06265,31430
21.07078,36180
21.07890,38648
21.08702,32131
21.09515,32973
21.10327,32780
21.11138,34096
21.11952,34971
21.12763,33628
21.13577,34306
21.14388,32854
21.15200,34885
21.16013,35772
21.16825,37384
21.17638,36251
21.18450,38598
21.19262,36058
21.20075,32871
21.20887,34356
21.21700,34257
21.22512,37204
21.23323,31803
21.24137,35114
21.24948,41298
21.25760,37136
21.26573,35718
21.27385,34260
21.28198,35635
21.29010,33448
21.29822,33380
21.30635,33847
21.31447,33044
21.32260,30801
21.33072,35141
21.33883,32749
21.34697,32776
21.35508,30906
21.36320,33792
21.37133,33703
21.37945,31845
21.38758,30743
21.39570,34444
21.40382,32793
21.41195,31443
21.42007,31338
21.42820,33800
21.43632,30204
21.44443,31622
21.45257,32869
21.46068,29961
21.46882,33024
21.47693,29903
21.48505,30742
21.49318,33137
21.50130,31338
21.50942,28176
21.51755,30232
21.52567,27034
21.53380,31583
21.54192,31711
21.55003,32983
21.55817,31204
21.56628,31773
21.57442,32559
21.58253,31350
21.59065,29929
21.59878,31052
21.60690,32702
21.61503,32010
21.62315,32714
21.63127,32924
21.63940,36340
21.64752,35398
21.65563,42407
21.66377,42934
21.67188,44656
21.68002,43151
21.68813,37802
21.69625,33368
21.70438,40513
21.71250,32367
21.72063,34476
21.72875,32107
21.73687,31380
21.74500,31562
21.75312,29684
21.76125,28997
21.76937,32994
21.77748,32093
21.78562,33273
21.79373,34441
21.80185,31728
21.80998,37825
21.81810,29911
21.82623,30357
21.83435,39506
21.84247,43788
21.85060,43562
21.85872,48511
21.86685,50125
21.87497,47860
21.88308,49040
21.89122,42515
21.89933,38163
21.90745,36643
21.91558,31346
21.92370,32685
21.93183,33720
21.93995,32230
21.94807,27513
21.95620,30815
21.96432,31085
21.97245,31413
21.98057,29303
21.98868,30881
21.99682,28971
22.00493,29137
22.01307,26552
22.02118,30092
22.02930,27829
22.03743,27238
22.04555,27586
22.05367,27710
22.06180,29591
22.06992,32499
22.07805,25986
22.08617,26137
22.09428,27689
22.10242,27445
22.11053,28047
22.11867,30704
22.12678,30448
22.13490,29936
22.14303,30161
22.15115,29212
22.15927,32901
22.16740,28705
22.17552,29263
22.18365,31674
22.19177,27972
22.19988,29802
22.20802,30235
22.21613,29177
22.22427,27687
22.23238,29996
22.24050,28610
22.24863,28288
22.25675,26697
22.26488,30132
22.27300,32383
22.28112,31116
22.28925,27484
22.29737,28830
22.30548,34500
22.31362,42995
22.32173,60203
22.32987,76194
22.33798,93758
22.34610,107502
22.35423,104226
22.36235,91620
22.37048,79823
22.37860,64274
22.38672,55170
22.39485,51805
22.40297,49087
22.41108,44154
22.41922,41858
22.42733,43325
22.43547,40764
22.44358,36898
22.45170,35923
22.45983,34304
22.46795,30975
22.47608,29409
22.48420,32473
22.49232,32926
22.50045,34828
22.50857,30134
22.51670,28966
22.52482,31431
22.53293,33279
22.54107,32442
22.54918,29434
22.55730,27778
22.56543,31649
22.57355,33946
22.58168,28036
22.58980,27971
22.59792,31352
22.60605,29604
22.61417,28878
22.62230,28078
22.63042,29787
22.63853,27265
22.64667,30547
22.65478,29708
22.66292,30262
22.67103,28169
22.67915,29896
22.68728,36011
22.69540,36313
22.70352,37060
22.71165,36669
22.71977,38392
22.72790,32623
22.73602,32510
22.74413,32258
22.75227,31589
22.76038,29734
22.76852,28078
22.77663,27687
22.78475,34635
22.79288,25641
22.80100,30322
22.80913,27063
22.81725,27455
22.82537,26251
22.83350,31678
22.84162,24622
22.84973,29209
22.85787,30730
22.86598,27951
22.87412,26879
22.88223,28062
22.89035,28235
22.89848,31966
22.90660,32213
22.91473,35174
22.92285,42375
22.93097,45503
22.93910,48757
22.94722,51099
22.95533,49374
22.96347,56373
22.97158,47906
22.97972,47018
22.98783,45062
22.99595,39235
23.00408,43980
23.01220,38276
23.02033,37980
23.02845,34550
23.03657,31053
23.04470,35575
23.05282,33650
23.06095,30416
23.06907,30531
23.07718,27623
23.08532,32485
23.09343,29948
23.10155,33133
23.10968,29079
23.11780,28631
23.12593,28331
23.13405,28980
23.14217,30287
23.15030,31076
23.15842,29266
23.16655,27509
23.17467,29128
23.18278,26677
23.19092,28957
23.19903,26641
23.20715,26465
23.21528,27580
23.22340,29887
23.23153,30843
23.23965,34905
23.24777,35673
23.25590,39583
23.26402,40350
23.27215,44056
23.28027,45268
23.28838,39858
23.29652,36212
23.30463,30603
23.31277,38336
23.32088,30798
23.32900,34292
23.33713,28685
23.34525,31329
23.35337,34792
23.36150,33958
23.36962,31860
23.37775,33236
23.38587,34472
23.39398,33338
23.40212,39409
23.41023,45670
23.41837,40360
23.42648,40936
23.43460,38212
23.44273,40636
23.45085,40543
23.45898,40191
23.46710,40330
23.47522,39638
23.48335,37951
23.49147,36365
23.49958,38114
23.50772,39285
23.51583,37158
23.52397,37890
23.53208,37503
23.54020,40324
23.54833,37591
23.55645,43607
23.56458,49690
23.57270,54677
23.58082,62007
23.58895,64015
23.59707,67964
23.60518,77077
23.61332,82075
23.62143,83935
23.62957,84140
23.63768,98015
23.64580,140712
23.65393,214459
23.66205,309035
23.67018,419227
23.67830,471504
23.68642,464515
23.69455,381738
23.70267,306474
23.71080,224265
23.71892,161907
23.72703,126262
23.73517,105787
23.74328,89295
23.75140,75437
23.75953,88586
23.76765,135771
23.77578,263228
23.78390,501064
23.79202,905125
23.80015,1271481
23.80827,1556764
23.81640,1584774
23.82452,1410038
23.83263,1081929
23.84077,807132
23.84888,609997
23.85702,470899
23.86513,380270
23.87325,313692
23.88138,262733
23.88950,237588
23.89762,202933
23.90575,182797
23.91387,162110
23.92200,152366
23.93012,137720
23.93823,136849
23.94637,122565
23.95448,113676
23.96262,109050
23.97073,101247
23.97885,95878
23.98698,91165
23.99510,90394
24.00322,88452
24.01135,89505
24.01947,91061
24.02760,87271
24.03572,96438
24.04383,103627
24.05197,105331
24.06008,97928
24.06822,94909
24.07633,85147
24.08445,82254
24.09258,76925
24.10070,75147
24.10883,68797
24.11695,64589
24.12507,60268
24.13320,62708
24.14132,59837
24.14943,64383
24.15757,63076
24.16568,59345
24.17382,59704
24.18193,64799
24.19005,55617
24.19818,60552
24.20630,53295
24.21443,61740
24.22255,61831
24.23067,56608
24.23880,55561
24.24692,55065
24.25503,53934
24.26317,52746
24.27128,49774
24.27942,48201
24.28753,46717
24.29565,46855
24.30378,44183
24.31190,44271
24.32003,47163
24.32815,47255
24.33627,47403
24.34440,44975
24.35252,47466
24.36065,43814
24.36877,42295
24.37688,44777
24.38502,45312
24.39313,42275
24.40125,54279
24.40938,57256
24.41750,58486
24.42563,64055
24.43375,64187
24.44187,52604
24.45000,49701
24.45812,48087
24.46625,47849
24.47437,53142
24.48248,54958
24.49062,62589
24.49873,62100
24.50687,59319
24.51498,59732
24.52310,60308
24.53123,61823
24.53935,62349
24.54747,71104
24.55560,70020
24.56372,79568
24.57185,84685
24.57997,83118
24.58808,81505
24.59622,76065
24.60433,72856
24.61247,66210
24.62058,58727
24.62870,50734
24.63683,53342
24.64495,48878
24.65307,42536
24.66120,50571
24.66932,48749
24.67745,45093
24.68557,44429
24.69368,42596
24.70182,45569
24.70993,36563
24.71807,40121
24.72618,40594
24.73430,40285
24.74243,41325
24.75055,39665
24.75868,39379
24.76680,38662
24.77492,35099
24.78305,38740
24.79117,35702
24.79928,35044
24.80742,35723
24.81553,37501
24.82367,31814
24.83178,31423
24.83990,33780
24.84803,40189
24.85615,38405
24.86428,42187
24.87240,45172
24.88052,45782
24.88865,47397
24.89677,47771
24.90490,46840
24.91302,41010
24.92113,38804
24.92927,37283
24.93738,37707
24.94550,35697
24.95363,34545
24.96175,37656
24.96988,33295
24.97800,32100
24.98612,31811
24.99425,33644
25.00237,34723
25.01050,31065
25.01862,33183
25.02673,30783
25.03487,32878
25.04298,32961
25.05110,34177
25.05923,29113
25.06735,32347
25.07548,33608
25.08360,32703
25.09172,34181
25.09985,31807
25.10797,32895
25.11610,32658
25.12422,30405
25.13233,32614
25.14047,30367
25.14858,35091
25.15672,36417
25.16483,34874
25.17295,36850
25.18108,35214
25.18920,36238
25.19732,37207
25.20545,34023
25.21357,32926
25.22170,34686
25.22982,31850
25.23793,27668
25.24607,29981
25.25418,36958
25.26232,30080
25.27043,32897
25.27855,34191
25.28668,35637
25.29480,33053
25.30293,30674
25.31105,37993
25.31917,37649
25.32730,38854
25.33542,37937
25.34353,38698
25.35167,36323
25.35978,34873
25.36792,32695
25.37603,30563
25.38415,32613
25.39228,32478
25.40040,30418
25.40853,30560
25.41665,32116
25.42477,31931
25.43290,28982
25.44102,26891
25.44913,31503
25.45727,30536
25.46538,29087
25.47352,30884
25.48163,24125
25.48975,28779
25.49788,29798
25.50600,29485
25.51413,32543
25.52225,32078
25.53037,29375
25.53850,26961
25.54662,29571
25.55475,28916
25.56287,32490
25.57098,29790
25.57912,30856
25.58723,27153
25.59535,28983
25.60348,27168
25.61160,32193
25.61973,26940
25.62785,31246
25.63597,30560
25.64410,31883
25.65222,34892
25.66035,36415
25.66847,36849
25.67658,39981
25.68472,34038
25.69283,33083
25.70095,32572
25.70908,29786
25.71720,29448
25.72533,31572
25.73345,28195
25.74157,28601
25.74970,28061
25.75782,30859
25.76595,31831
25.77407,27213
25.78218,32972
25.79032,25975
25.79843,30699
25.80657,30627
25.81468,34529
25.82280,32989
25.83093,41045
25.83905,40666
25.84717,38690
25.85530,37887
25.86342,35293
25.87155,38449
25.87967,32873
25.88778,34106
25.89592,31448
25.90403,28839
25.91217,27174
25.92028,27805
25.92840,31391
25.93653,36072
25.94465,29076
25.95278,27303
25.96090,29994
25.96902,26598
25.97715,34840
25.98527,25302
25.99338,25509
26.00152,23976
26.00963,25007
26.01777,24613
26.02588,22926
26.03400,25942
26.04213,31115
26.05025,28963
26.05838,28902
26.06650,28643
26.07462,30067
26.08275,24856
26.09087,28018
26.09898,23921
26.10712,25085
26.11523,27250
26.12337,28942
26.13148,29764
26.13960,32574
26.14773,31191
26.15585,34144
26.16398,35954
26.17210,33882
26.18022,36515
26.18835,32116
26.19647,30648
26.20460,28873
26.21272,27302
26.22083,32016
26.22897,29175
26.23708,28765
26.24520,30022
26.25333,28781
26.26145,26940
26.26958,25081
26.27770,27953
26.28582,27914
26.29395,28473
26.30207,26840
26.31020,28544
26.31832,27804
26.32643,25227
26.33457,27709
26.34268,26744
26.35082,27929
26.35893,25704
26.36705,26215
26.37518,25166
26.38330,29673
26.39142,27630
26.39955,30862
26.40767,25244
26.41580,26045
26.42392,26976
26.43203,24572
26.44017,28795
26.44828,29967
26.45642,26663
26.46453,30837
26.47265,26584
26.48078,24898
26.48890,26772
26.49702,23675
26.50515,26274
26.51327,28404
26.52140,30828
26.52952,24270
26.53763,24969
26.54577,25438
26.55388,24982
26.56202,25199
26.57013,25431
26.57825,27810
26.58638,21156
26.59450,29324
26.60263,23477
26.61075,25773
26.61887,26315
26.62700,26070
26.63512,28136
26.64323,26237
26.65137,24331
26.65948,26178
26.66762,30159
26.67573,34267
26.68385,28519
26.69198,32748
26.70010,33269
26.70823,31193
26.71635,25215
26.72447,26845
26.73260,30560
26.74072,30381
26.74883,26144
26.75697,26563
26.76508,27353
26.77322,27241
26.78133,26228
26.78945,26253
26.79758,28170
26.80570,25649
26.81383,27350
26.82195,27376
26.83007,29083
26.83820,30763
26.84632,30500
26.85445,28733
26.86257,26451
26.87068,27972
26.87882,28793
26.88693,26820
26.89505,26740
26.90318,26838
26.91130,26970
26.91943,29989
26.92755,32162
26.93567,25261
26.94380,24856
26.95192,28549
26.96005,28326
26.96817,28303
26.97628,30362
26.98442,33244
26.99253,41987
27.00067,58915
27.00878,81637
27.01690,116759
27.02503,132780
27.03315,161233
27.04127,167351
27.04940,153209
27.05752,150800
27.06565,133316
27.07377,108593
27.08188,95738
27.09002,75775
27.09813,70871
27.10627,63319
27.11438,57739
27.12250,55923
27.13063,50361
27.13875,50151
27.14688,47382
27.15500,49422
27.16312,46526
27.17125,46949
27.17937,45842
27.18748,40426
27.19562,40373
27.20373,41458
27.21187,38518
27.21998,41061
27.22810,40081
27.23623,40740
27.24435,38274
27.25248,40338
27.26060,41158
27.26872,33490
27.27685,36972
27.28497,34897
27.29308,35094
27.30122,36130
27.30933,34836
27.31747,34244
27.32558,32887
27.33370,32992
27.34183,36539
27.34995,30439
27.35808,31068
27.36620,31489
27.37432,30190
27.38245,34724
27.39057,31638
27.39870,30940
27.40682,30981
27.41493,33158
27.42307,29110
27.43118,32207
27.43930,28964
27.44743,31927
27.45555,26450
27.46368,28075
27.47180,30834
27.47992,30943
27.48805,31881
27.49617,30991
27.50430,30336
27.51242,33971
27.52053,31798
27.52867,34163
27.53678,30222
27.54490,37136
27.55303,29696
27.56115,30804
27.56928,28915
27.57740,30291
27.58552,28085
27.59365,25291
27.60177,30183
27.60990,27206
27.61802,29702
27.62613,29885
27.63427,29041
27.64238,30143
27.65052,29982
27.65863,27936
27.66675,28713
27.67488,28049
27.68300,28882
27.69112,30314
27.69925,33354
27.70737,30819
27.71550,27914
27.72362,26186
27.73173,27851
27.73987,27587
27.74798,31083
27.75612,28282
27.76423,24119
27.77235,26145
27.78048,28715
27.78860,33261
27.79673,32187
27.80485,30599
27.81297,28972
27.82110,30204
27.82922,31272
27.83733,34043
27.84547,29375
27.85358,30834
27.86172,30224
27.86983,29916
27.87795,32305
27.88608,32136
27.89420,26644
27.90233,25107
27.91045,26286
27.91857,29705
27.92670,27383
27.93482,26947
27.94293,26875
27.95107,30790
27.95918,27549
27.96732,27012
27.97543,27978
27.98355,29450
27.99168,29162
27.99980,30977
28.00793,29465
28.01605,30262
28.02417,29399
28.03230,28922
28.04042,26009
28.04855,27738
28.05667,33057
28.06478,27548
28.07292,27390
28.08103,29842
28.08915,31861
28.09728,32991
28.10540,36018
28.11353,30560
28.12165,30612
28.12977,30037
28.13790,29588
28.14602,33234
28.15415,29726
28.16227,30469
28.17038,28380
28.17852,31534
28.18663,26136
28.19477,25122
28.20288,27138
28.21100,28431
28.21913,29185
28.22725,28037
28.23537,31720
28.24350,31566
28.25162,29751
28.25975,26052
28.26787,30230
28.27598,32097
28.28412,31281
28.29223,25818
28.30037,29408
28.30848,28558
28.31660,29163
28.32473,28459
28.33285,28073
28.34097,33207
28.34910,36554
28.35722,38340
28.36535,43381
28.37347,45243
28.38158,51773
28.38972,53894
28.39783,55690
28.40597,59988
28.41408,56506
28.42220,56823
28.43033,53750
28.43845,54973
28.44658,53946
28.45470,46420
28.46282,44694
28.47095,45762
28.47907,43195
28.48718,42872
28.49532,40063
28.50343,40504
28.51157,36125
28.51968,37952
28.52780,33805
28.53593,36467
28.54405,35312
28.55218,39615
28.56030,36362
28.56842,34136
28.57655,35269
28.58467,33938
28.59278,32103
28.60092,32036
28.60903,36038
28.61717,31209
28.62528,28156
28.63340,30686
28.64153,32445
28.64965,32783
28.65778,37910
28.66590,35440
28.67402,43456
28.68215,38239
28.69027,37290
28.69840,37918
28.70652,36865
28.71463,35641
28.72277,31715
28.73088,31004
28.73900,31900
28.74713,30109
28.75525,30582
28.76338,31390
28.77150,34909
28.77962,35332
28.78775,34680
28.79587,37357
28.80400,37512
28.81212,32191
28.82023,31472
28.82837,34013
28.83648,28761
28.84462,29669
28.85273,29515
28.86085,33268
28.86898,28476
28.87710,26138
28.88522,25433
28.89335,28250
28.90147,26737
28.90960,29237
28.91772,31637
28.92583,30364
28.93397,30081
28.94208,30515
28.95022,30611
28.95833,35839
28.96645,38857
28.97458,41144
28.98270,40105
28.99082,37697
28.99895,31214
29.00707,33870
29.01520,28680
29.02332,30736
29.03143,28539
29.03957,31151
29.04768,31137
29.05582,30728
29.06393,31587
29.07205,29059
29.08018,31788
29.08830,29673
29.09643,28826
29.10455,27872
29.11267,28406
29.12080,29227
29.12892,29326
29.13703,26461
29.14517,29168
29.15328,30861
29.16142,31833
29.16953,27221
29.17765,28565
29.18578,30051
29.19390,29075
29.20203,28887
29.21015,30183
29.21827,27958
29.22640,33873
29.23452,35026
29.24265,26444
29.25077,26794
29.25888,26411
29.26702,28399
29.27513,29960
29.28325,27873
29.29138,21583
29.29950,27368
29.30763,29264
29.31575,30828
29.32387,30228
29.33200,26699
29.34012,26518
29.34825,27505
29.35637,28987
29.36448,29536
29.37262,26214
29.38073,27952
29.38885,27980
29.39698,29073
29.40510,27354
29.41323,27508
29.42135,29671
29.42947,28118
29.43760,27376
29.44572,31125
29.45385,29328
29.46197,31195
29.47008,25754
29.47822,26830
29.48633,29593
29.49447,30006
29.50258,31403
29.51070,33867
29.51883,34923
29.52695,35055
29.53507,30212
29.54320,31047
29.55132,29333
29.55945,29782
29.56757,28482
29.57568,27545
29.58382,26626
29.59193,27579
29.60007,28304
29.60818,31610
29.61630,30338
29.62443,27171
29.63255,27475
29.64067,30987
29.64880,26839
29.65692,32787
29.66505,31343
29.67317,25014
29.68128,27410
29.68942,28404
29.69753,26066
29.70567,27633
29.71378,30272
29.72190,27085
29.73003,27695
29.73815,28701
29.74628,27917
29.75440,27604
29.76252,28287
29.77065,29012
29.77877,26402
29.78688,30510
29.79502,24214
29.80313,28951
29.81127,29209
29.81938,28534
29.82750,26755
29.83563,25260
29.84375,25789
29.85188,22609
29.86000,28626
29.86812,29090
29.87625,39568
29.88437,49436
29.89250,63654
29.90062,81706
29.90873,101291
29.91687,104199
29.92498,97845
29.93310,78207
29.94123,67102
29.94935,51771
29.95748,40536
29.96560,40495
29.97372,38346
29.98185,35220
29.98997,41329
29.99810,37553
30.00622,37588
30.01433,40599
30.02247,42583
30.03058,45776
30.03870,47233
30.04683,47899
30.05495,46386
30.06308,46783
30.07120,44973
30.07932,43820
30.08745,48530
30.09557,46501
30.10370,48324
30.11182,42518
30.11993,43517
30.12807,44005
30.13618,44319
30.14432,45342
30.15243,40801
30.16055,39226
30.16868,38417
30.17680,41524
30.18492,42510
30.19305,39249
30.20117,33810
30.20930,35921
30.21742,34787
30.22553,39632
30.23367,35686
30.24178,33206
30.24992,32676
30.25803,31195
30.26615,33369
30.27428,32190
30.28240,34608
30.29053,37723
30.29865,40175
30.30677,37386
30.31490,30829
30.32302,35649
30.33113,31224
30.33927,31153
30.34738,31123
30.35552,33725
30.36363,34009
30.37175,30991
30.37988,30340
30.38800,32033
30.39613,32015
30.40425,31755
30.41237,31530
30.42050,30609
30.42862,29907
30.43673,29871
30.44487,29624
30.45298,30857
30.46112,30118
30.46923,28824
30.47735,28658
30.48548,30849
30.49360,33379
30.50173,27514
30.50985,28459
30.51797,27500
30.52610,30639
30.53422,30590
30.54235,28212
30.55047,28980
30.55858,28710
30.56672,24254
30.57483,28840
30.58295,28119
30.59108,27977
30.59920,28020
30.60733,25749
30.61545,28880
30.62357,25108
30.63170,26410
30.63982,28109
30.64795,29311
30.65607,24920
30.66418,28235
30.67232,28299
30.68043,33229
30.68857,30789
30.69668,27480
30.70480,28734
30.71293,26006
30.72105,30047
30.72917,26485
30.73730,29204
30.74542,28297
30.75355,25564
30.76167,28876
30.76978,27210
30.77792,28334
30.78603,30374
30.79417,32502
30.80228,36701
30.81040,40529
30.81853,47282
30.82665,44485
30.83477,46055
30.84290,43214
30.85102,38569
30.85915,35605
30.86727,32140
30.87538,31351
30.88352,28189
30.89163,28810
30.89977,27629
30.90788,27768
30.91600,28215
30.92413,26987
30.93225,25941
30.94038,27990
30.94850,28440
30.95662,32852
30.96475,31511
30.97287,30061
30.98098,29014
30.98912,30363
30.99723,27914
31.00537,32289
31.01348,28214
31.02160,28725
31.02973,28972
31.03785,29757
31.04598,31047
31.05410,31466
31.06222,33670
31.07035,33150
31.07847,38115
31.08658,49000
31.09472,70197
31.10283,92142
31.11097,112701
31.11908,133703
31.12720,132713
31.13533,115296
31.14345,91357
31.15158,65224
31.15970,50352
31.16782,41956
31.17595,39752
31.18407,35595
31.19220,38237
31.20032,48152
31.20843,53293
31.21657,68555
31.22468,73780
31.23280,83408
31.24093,78541
31.24905,72787
31.25718,59218
31.26530,47581
31.27342,41842
31.28155,37762
31.28967,36667
31.29780,31814
31.30592,32925
31.31403,30188
31.32217,34880
31.33028,28558
31.33842,28093
31.34653,28586
31.35465,29476
31.36278,32221
31.37090,38942
31.37902,41887
31.38715,42728
31.39527,46982
31.40340,45017
31.41152,46911
31.41963,46404
31.42777,39330
31.43588,38346
31.44402,35590
31.45213,34739
31.46025,32414
31.46838,32910
31.47650,35815
31.48462,31426
31.49275,31937
31.50087,30831
31.50900,33183
31.51712,31595
31.52523,29525
31.53337,32370
31.54148,32284
31.54962,32260
31.55773,32085
31.56585,30016
31.57398,33909
31.58210,28398
31.59023,29202
31.59835,29870
31.60647,31592
31.61460,31062
31.62272,28730
31.63083,27053
31.63897,30364
31.64708,30437
31.65522,32494
31.66333,31191
31.67145,27858
31.67958,30358
31.68770,31740
31.69583,31914
31.70395,31861
31.71207,29527
31.72020,32578
31.72832,29061
31.73645,28703
31.74457,33122
31.75268,30002
31.76082,30846
31.76893,30994
31.77705,34092
31.78518,30352
31.79330,33868
31.80143,29996
31.80955,33281
31.81767,31323
31.82580,31580
31.83392,32252
31.84205,32894
31.85017,34318
31.85828,31651
31.86642,36329
31.87453,35064
31.88265,37531
31.89078,43201
31.89890,39932
31.90703,39275
31.91515,42093
31.92327,47132
31.93140,44475
31.93952,46880
31.94765,45566
31.95577,41650
31.96388,43504
31.97202,46979
31.98013,40959
31.98827,40505
31.99638,39245
32.00450,43962
32.01263,45362
32.02075,41178
32.02887,46812
32.03700,43426
32.04512,44310
32.05325,42845
32.06137,37884
32.06948,37503
32.07762,39566
32.08573,37989
32.09387,37082
32.10198,38974
32.11010,40182
32.11823,37773
32.12635,36326
32.13447,36640
32.14260,32371
32.15072,36695
32.15885,31623
32.16697,32003
32.17508,35367
32.18322,33439
32.19133,29985
32.19947,33970
32.20758,32110
32.21570,31808
32.22383,32514
32.23195,27632
32.24008,32576
32.24820,32209
32.25632,31811
32.26445,38546
32.27257,36043
32.28068,36394
32.28882,36061
32.29693,36679
32.30507,35662
32.31318,35456
32.32130,31782
32.32943,36207
32.33755,31631
32.34568,34001
32.35380,35770
32.36192,36995
32.37005,34491
32.37817,40999
32.38630,35078
32.39442,34850
32.40253,34712
32.41067,34585
32.41878,31247
32.42690,29609
32.43503,29661
32.44315,32256
32.45128,34392
32.45940,34735
32.46752,32143
32.47565,30699
32.48377,29348
32.49190,29873
32.50002,32257
32.50813,32975
32.51627,31058
32.52438,27960
32.53252,31417
32.54063,28890
32.54875,30064
32.55688,32199
32.56500,31028
32.57312,31453
32.58125,35990
32.58937,30907
32.59750,29576
32.60562,27136
32.61373,30214
32.62187,33149
32.62998,28859
32.63812,28597
32.64623,29269
32.65435,29454
32.66248,30831
32.67060,34763
32.67872,34511
32.68685,37759
32.69497,33654
32.70310,37593
32.71122,37374
32.71933,35655
32.72747,34333
32.73558,34440
32.74372,31579
32.75183,30935
32.75995,30675
32.76808,30433
32.77620,27487
32.78433,30698
32.79245,27097
32.80057,28578
32.80870,30297
32.81682,26846
32.82493,28803
32.83307,26773
32.84118,31724
32.84932,30580
32.85743,31369
32.86555,34269
32.87368,29646
32.88180,33202
32.88993,29640
32.89805,34390
32.90617,28166
32.91430,31353
32.92242,30272
32.93053,28313
32.93867,29546
32.94678,38362
32.95492,29697
32.96303,30669
32.97115,29572
32.97928,30093
32.98740,30795
32.99553,33245
33.00365,31038
33.01177,32987
33.01990,33274
33.02802,29112
33.03615,29450
33.04427,29791
33.05238,29204
33.06052,28165
33.06863,31872
33.07675,33875
33.08488,33325
33.09300,32403
33.10113,43252
33.10925,46111
33.11737,51021
33.12550,57606
33.13362,62499
33.14175,61824
33.14987,49290
33.15798,41356
33.16612,42621
33.17423,35593
33.18237,31184
33.19048,31553
33.19860,31987
33.20673,28881
33.21485,30442
33.22297,32272
33.23110,30945
33.23922,34437
33.24735,33520
33.25547,35029
33.26358,29035
33.27172,31211
33.27983,32035
33.28797,30735
33.29608,30723
33.30420,30982
33.31233,31136
33.32045,28669
33.32857,30443
33.33670,29262
33.34482,27830
33.35295,28450
33.36107,29906
33.36918,29985
33.37732,30164
33.38543,31281
33.39357,33261
33.40168,34852
33.40980,31460
33.41793,29983
33.42605,29582
33.43418,31318
33.44230,30635
33.45042,30643
33.45855,32392
33.46667,29906
33.47478,29733
33.48292,30762
33.49103,29766
33.49917,31885
33.50728,26814
33.51540,29615
33.52353,29465
33.53165,30677
33.53978,33038
33.54790,31498
33.55602,33669
33.56415,37400
33.57227,31131
33.58040,28284
33.58852,34047
33.59663,32200
33.60477,30596
33.61288,30987
33.62100,32090
33.62913,32877
33.63725,36043
33.64538,31408
33.65350,33158
33.66162,30219
33.66975,27902
33.67787,31064
33.68600,30820
33.69412,31960
33.70223,30010
33.71037,30415
33.71848,31751
33.72660,32091
33.73473,37323
33.74285,31802
33.75098,30471
33.75910,25585
33.76722,34458
33.77535,28731
33.78347,25449
33.79160,30177
33.79972,35729
33.80783,32663
33.81597,31562
33.82408,34364
33.83222,32199
33.84033,32926
33.84845,35594
33.85658,34065
33.86470,36405
33.87282,31194
33.88095,32331
33.88907,31714
33.89720,32470
33.90532,32863
33.91343,30755
33.92157,33267
33.92968,32070
33.93782,32603
33.94593,33401
33.95405,32969
33.96218,32010
33.97030,33133
33.97842,32824
33.98655,33781
33.99467,35480
34.00280,31264
34.01092,31283
34.01903,31943
34.02717,31155
34.03528,34398
34.04342,29784
34.05153,32801
34.05965,32667
34.06778,33879
34.07590,30646
34.08403,31496
34.09215,33131
34.10027,26798
34.10840,26757
34.11652,34765
34.12463,34531
34.13277,31451
34.14088,33722
34.14902,30076
34.15713,32070
34.16525,34025
34.17338,28994
34.18150,32045
34.18963,33546
34.19775,31249
34.20587,32787
34.21400,31353
34.22212,31307
34.23025,30614
34.23837,31669
34.24648,29345
34.25462,30552
34.26273,33013
34.27085,33142
34.27898,30128
34.28710,30308
34.29523,34356
34.30335,32871
34.31147,30835
34.31960,30132
34.32772,31201
34.33585,31871
34.34397,31217
34.35208,32820
34.36022,32854
34.36833,32002
34.37645,33296
34.38458,34417
34.39270,31977
34.40083,32255
34.40895,29662
34.41707,34283
34.42520,34397
34.43332,31644
34.44145,29267
34.44957,34684
34.45768,38372
34.46582,31062
34.47393,32827
34.48207,30278
34.49018,31523
34.49830,32250
34.50643,30137
34.51455,37204
34.52267,33759
34.53080,38571
34.53892,38035
34.54705,38017
34.55517,37991
34.56328,34722
34.57142,43171
34.57953,40163
34.58767,44445
34.59578,42888
34.60390,41578
34.61203,39922
34.62015,42903
34.62828,37363
34.63640,40588
34.64452,34646
34.65265,35594
34.66077,34150
34.66888,33943
34.67702,35573
34.68513,34940
34.69327,36209
34.70138,39509
34.70950,39856
34.71763,32943
34.72575,32242
34.73388,33016
34.74200,34559
34.75012,38647
34.75825,36795
34.76637,34432
34.77448,32072
34.78262,31403
34.79073,39170
34.79887,36272
34.80698,38265
34.81510,32153
34.82323,32467
34.83135,32915
34.83948,33194
34.84760,35049
34.85572,32813
34.86385,31547
34.87197,32179
34.88010,32304
34.88822,33450
34.89633,30445
34.90447,32165
34.91258,31140
34.92070,33391
34.92883,42392
34.93695,38742
34.94508,47621
34.95320,69945
34.96132,103056
34.96945,154130
34.97757,213710
34.98570,272623
34.99382,297367
35.00193,268087
35.01007,206768
35.01818,138545
35.02630,91824
35.03443,68681
35.04255,51333
35.05068,51832
35.05880,46505
35.06692,48207
35.07505,48529
35.08317,44377
35.09130,44958
35.09942,45800
35.10753,44280
35.11567,47058
35.12378,42034
35.13192,44781
35.14003,40557
35.14815,40762
35.15628,45480
35.16440,41908
35.17252,39367
35.18065,41593
35.18877,40444
35.19690,40132
35.20502,37583
35.21313,38852
35.22127,40119
35.22938,35024
35.23752,41288
35.24563,39406
35.25375,36973
35.26188,40648
35.27000,40977
35.27813,39526
35.28625,39063
35.29437,36998
35.30250,36964
35.31062,37967
35.31873,39733
35.32687,39636
35.33498,34289
35.34312,38151
35.35123,39393
35.35935,38533
35.36748,38371
35.37560,40142
35.38373,36732
35.39185,37467
35.39997,36555
35.40810,38530
35.41622,35414
35.42433,39518
35.43247,35713
35.44058,37980
35.44872,34574
35.45683,39625
35.46495,39609
35.47308,41549
35.48120,39238
35.48933,39511
35.49745,42033
35.50557,36681
35.51370,37041
35.52182,36133
35.52995,36825
35.53807,37886
35.54618,37127
35.55432,39774
35.56243,37744
35.57055,42868
35.57868,41028
35.58680,42123
35.59493,39701
35.60305,42731
35.61117,42499
35.61930,43320
35.62742,38965
35.63555,37368
35.64367,40475
35.65178,43795
35.65992,36243
35.66803,35140
35.67617,38347
35.68428,36661
35.69240,38718
35.70053,39402
35.70865,41491
35.71677,42788
35.72490,35662
35.73302,40695
35.74115,42576
35.74927,37726
35.75738,37802
35.76552,40919
35.77363,40070
35.78177,39900
35.78988,42916
35.79800,36733
35.80613,36631
35.81425,39453
35.82237,34959
35.83050,37951
35.83862,35473
35.84675,35735
35.85487,38894
35.86298,37766
35.87112,37239
35.87923,37609
35.88737,38760
35.89548,36147
35.90360,38665
35.91173,39877
35.91985,40993
35.92798,39365
35.93610,42510
35.94422,41438
35.95235,36383
35.96047,39312
35.96858,35075
35.97672,36167
35.98483,35846
35.99297,39577
36.00108,39441
36.00920,38042
36.01733,39559
36.02545,42534
36.03358,41951
36.04170,42144
36.04982,40595
36.05795,43371
36.06607,37873
36.07420,40563
36.08232,46509
36.09043,36657
36.09857,39981
36.10668,36979
36.11480,39364
36.12293,39780
36.13105,43080
36.13918,38409
36.14730,37876
36.15542,36947
36.16355,40968
36.17167,42695
36.17980,41742
36.18792,42993
36.19603,37776
36.20417,37975
36.21228,41491
36.22040,35417
36.22853,37551
36.23665,36914
36.24478,37022
36.25290,42090
36.26102,41098
36.26915,37809
36.27727,34043
36.28540,36378
36.29352,42802
36.30163,42024
36.30977,39222
36.31788,42019
36.32602,42069
36.33413,42144
36.34225,44638
36.35038,38319
36.35850,40755
36.36662,41946
36.37475,41725
36.38287,37050
36.39100,41335
36.39912,39820
36.40723,42610
36.41537,40120
36.42348,41460
36.43162,41437
36.43973,40460
36.44785,38190
36.45598,39537
36.46410,43283
36.47222,40136
36.48035,37569
36.48847,39625
36.49660,38457
36.50472,40738
36.51283,42125
36.52097,39405
36.52908,37603
36.53722,36103
36.54533,34776
36.55345,39169
36.56158,36396
36.56970,39071
36.57783,37302
36.58595,39666
36.59407,38805
36.60220,41820
36.61032,39136
36.61843,45566
36.62657,35635
36.63468,39858
36.64282,38461
36.65093,38907
36.65905,40645
36.66718,44659
36.67530,40904
36.68343,41343
36.69155,38241
36.69967,42850
36.70780,43901
36.71592,39980
36.72405,40964
36.73217,40624
36.74028,37308
36.74842,42776
36.75653,43595
36.76465,42210
36.77278,40574
36.78090,42770
36.78903,43082
36.79715,41655
36.80527,42123
36.81340,43015
36.82152,39908
36.82965,37801
36.83777,38226
36.84588,43505
36.85402,44433
36.86213,39318
36.87025,42712
36.87838,37199
36.88650,42387
36.89463,38440
36.90275,41987
36.91087,43363
36.91900,43600
36.92712,40594
36.93525,42674
36.94337,41600
36.95148,42590
36.95962,42850
36.96773,37516
36.97587,40946
36.98398,41729
36.99210,41615
37.00023,41310
37.00835,41742
37.01647,41582
37.02460,42471
37.03272,41153
37.04085,38451
37.04897,41686
37.05708,41365
37.06522,42790
37.07333,40745
37.08147,42225
37.08958,43846
37.09770,39137
37.10583,43857
37.11395,46505
37.12208,43028
37.13020,44563
37.13832,42547
37.14645,44167
37.15457,43941
37.16268,42702
37.17082,47281
37.17893,46360
37.18707,42517
37.19518,43568
37.20330,45930
37.21143,39004
37.21955,44211
37.22768,41723
37.23580,46791
37.24392,45902
37.25205,43335
37.26017,44378
37.26828,47924
37.27642,42844
37.28453,42175
37.29267,37988
37.30078,45011
37.30890,44130
37.31703,47939
37.32515,40056
37.33328,47313
37.34140,44899
37.34952,40874
37.35765,47960
37.36577,49528
37.37390,47783
37.38202,49711
37.39013,47162
37.39827,53582
37.40638,49196
37.41450,47370
37.42263,49380
37.43075,46698
37.43888,54124
37.44700,49832
37.45512,47161
37.46325,44019
37.47137,45358
37.47950,43497
37.48762,47864
