Z:\data\JTB-E02\BACandBLUE\JTB-E02-194-17.D Thu Dec 20 15:51:04 2018
Start of data points
2.09512	69830
2.10323	69714
2.11135	67515
2.11948	72796
2.12760	70487
2.13573	70571
2.14385	70124
2.15197	72446
2.16010	69550
2.16822	72038
2.17635	71337
2.18447	66542
2.19258	67089
2.20072	65486
2.20883	61891
2.21697	69740
2.22508	62080
2.23320	63257
2.24133	60269
2.24945	61270
2.25757	62660
2.26570	87780
2.27382	487568
2.28195	1493497
2.29007	1701472
2.29818	925156
2.30632	551908
2.31443	435816
2.32257	355641
2.33068	306754
2.33880	268449
2.34693	241840
2.35505	221250
2.36317	194311
2.37130	190055
2.37942	187967
2.38755	177537
2.39567	170537
2.40378	163034
2.41192	154824
2.42003	150438
2.42817	159418
2.43628	148498
2.44440	150468
2.45253	133112
2.46065	132403
2.46878	131940
2.47690	128248
2.48502	125248
2.49315	128623
2.50127	129849
2.50938	134928
2.51752	126528
2.52563	125100
2.53377	116963
2.54188	121758
2.55000	119403
2.55813	130163
2.56625	143423
2.57438	130737
2.58250	117328
2.59062	109859
2.59875	115246
2.60687	215459
2.61500	513295
2.62312	607620
2.63123	398718
2.63937	259072
2.64748	206772
2.65560	174151
2.66373	166245
2.67185	143205
2.67998	136509
2.68810	130506
2.69622	125427
2.70435	118726
2.71247	115578
2.72060	120154
2.72872	107712
2.73683	104717
2.74497	105083
2.75308	101925
2.76120	104231
2.76933	104690
2.77745	200167
2.78558	733091
2.79370	1334055
2.80182	1043426
2.80995	576762
2.81807	428320
2.82620	396969
2.83432	327042
2.84243	267205
2.85057	232621
2.85868	203699
2.86682	191106
2.87493	175584
2.88305	166347
2.89118	151245
2.89930	147669
2.90742	141372
2.91555	129168
2.92367	126281
2.93180	123632
2.93992	121136
2.94803	120753
2.95617	122133
2.96428	128987
2.97242	141193
2.98053	132441
2.98865	128812
2.99678	116481
3.00490	123991
3.01302	126243
3.02115	124562
3.02927	120772
3.03740	110850
3.04552	114529
3.05363	109383
3.06177	104516
3.06988	105402
3.07802	119444
3.08613	311875
3.09425	939948
3.10238	2119232
3.11050	4380673
3.11863	6025780
3.12675	4670172
3.13487	2830251
3.14300	1972860
3.15112	1522247
3.15923	1212249
3.16737	1033268
3.17548	967026
3.18362	1179736
3.19173	2622339
3.19985	4865797
3.20798	5089614
3.21610	3554048
3.22423	2501649
3.23235	1950445
3.24047	1627510
3.24860	1381684
3.25672	1178212
3.26485	1041586
3.27297	923834
3.28108	838818
3.28922	782293
3.29733	1051357
3.30545	2088377
3.31358	3844122
3.32170	4956929
3.32983	4524561
3.33795	3465259
3.34607	2620452
3.35420	2097671
3.36232	1743212
3.37045	1494628
3.37857	1323009
3.38668	1175052
3.39482	1046966
3.40293	938199
3.41107	881325
3.41918	801090
3.42730	753487
3.43543	733245
3.44355	726855
3.45167	687683
3.45980	668087
3.46792	721646
3.47605	902454
3.48417	994630
3.49228	805009
3.50042	646212
3.50853	547138
3.51667	504253
3.52478	479006
3.53290	471649
3.54103	523219
3.54915	547556
3.55727	507152
3.56540	450635
3.57352	413139
3.58165	394133
3.58977	383982
3.59788	360450
3.60602	356129
3.61413	337079
3.62227	352904
3.63038	357188
3.63850	357932
3.64663	365685
3.65475	393369
3.66288	1122203
3.67100	6871928
3.67912	2.262855E+07
3.68725	3.745205E+07
3.69537	3.869006E+07
3.70348	2.907201E+07
3.71162	1.920552E+07
3.71973	1.449154E+07
3.72787	1.193688E+07
3.73598	1.010163E+07
3.74410	8655929
3.75223	7592412
3.76035	6786851
3.76848	6100215
3.77660	5406219
3.78472	4885434
3.79285	4560410
3.80097	4284169
3.80908	4211458
3.81722	4420060
3.82533	4711269
3.83347	4473566
3.84158	3933734
3.84970	3474192
3.85783	3216337
3.86595	2960648
3.87408	2791219
3.88220	2642018
3.89032	2504330
3.89845	2392389
3.90657	2283675
3.91470	2223129
3.92282	2352325
3.93093	2743258
3.93907	2994020
3.94718	2755837
3.95530	2441127
3.96343	2552263
3.97155	2892406
3.97968	2902818
3.98780	2493683
3.99592	2069345
4.00405	2046133
4.01217	2759508
4.02030	3606484
4.02842	3691397
4.03653	2921075
4.04467	2125859
4.05278	1700481
4.06092	1495410
4.06903	1357376
4.07715	1286353
4.08528	1229337
4.09340	1192151
4.10152	1149395
4.10965	1127819
4.11777	1065639
4.12590	1052405
4.13402	1012699
4.14213	1004614
4.15027	1023988
4.15838	1038656
4.16652	1024690
4.17463	972323
4.18275	962493
4.19088	942754
4.19900	915494
4.20712	1012140
4.21525	2028060
4.22337	6110210
4.23150	1.440223E+07
4.23962	2.313958E+07
4.24773	2.951859E+07
4.25587	3.390538E+07
4.26398	3.57213E+07
4.27212	3.164604E+07
4.28023	1.902206E+07
4.28835	1.146401E+07
4.29648	8466072
4.30460	6676494
4.31273	5480865
4.32085	4627761
4.32897	3878282
4.33710	3439887
4.34522	3011890
4.35333	2737396
4.36147	2523725
4.36958	2463580
4.37772	2398480
4.38583	2256275
4.39395	2019072
4.40208	1763378
4.41020	1609396
4.41833	1477977
4.42645	1388473
4.43457	1291796
4.44270	1238197
4.45082	1155584
4.45895	1099374
4.46707	1047150
4.47518	1021619
4.48332	984837
4.49143	960502
4.49955	952258
4.50768	898507
4.51580	886376
4.52393	853797
4.53205	827004
4.54017	824151
4.54830	804962
4.55642	822636
4.56455	816565
4.57267	780905
4.58078	733882
4.58892	708941
4.59703	701780
4.60515	673251
4.61328	666308
4.62140	670602
4.62953	796720
4.63765	1153077
4.64577	1697033
4.65390	2083736
4.66202	1912480
4.67015	1440749
4.67827	1108696
4.68638	946862
4.69452	831574
4.70263	784878
4.71077	699108
4.71888	649309
4.72700	617191
4.73513	579877
4.74325	564120
4.75137	562185
4.75950	552011
4.76762	533140
4.77575	505610
4.78387	502552
4.79198	525983
4.80012	597269
4.80823	747950
4.81637	868971
4.82448	854593
4.83260	752610
4.84073	693422
4.84885	761639
4.85697	826324
4.86510	850108
4.87322	792732
4.88135	677876
4.88947	612381
4.89758	571977
4.90572	536334
4.91383	514373
4.92197	510061
4.93008	487468
4.93820	513739
4.94633	634707
4.95445	997139
4.96258	1815927
4.97070	2706272
4.97882	3183062
4.98695	2970636
4.99507	2370118
5.00318	1791725
5.01132	1423376
5.01943	1197079
5.02757	1139522
5.03568	1362803
5.04380	1857141
5.05193	2259697
5.06005	2222319
5.06818	1843424
5.07630	1532707
5.08442	1338809
5.09255	1191514
5.10067	1082590
5.10880	1008337
5.11692	930013
5.12503	887996
5.13317	840881
5.14128	796833
5.14940	800831
5.15753	859615
5.16565	1008067
5.17378	1223846
5.18190	1292801
5.19002	1179239
5.19815	1022343
5.20627	999632
5.21440	1060092
5.22252	1098828
5.23063	1026111
5.23877	916257
5.24688	830740
5.25500	764512
5.26313	692646
5.27125	639911
5.27938	602484
5.28750	559150
5.29562	530500
5.30375	509518
5.31187	497478
5.32000	479231
5.32812	483168
5.33623	496926
5.34437	501878
5.35248	517115
5.36062	503035
5.36873	469575
5.37685	455128
5.38498	439700
5.39310	452094
5.40122	473721
5.40935	485160
5.41747	492291
5.42560	473058
5.43372	441156
5.44183	423349
5.44997	434229
5.45808	464311
5.46622	508507
5.47433	503225
5.48245	469310
5.49058	422918
5.49870	390840
5.50683	372957
5.51495	375989
5.52307	361920
5.53120	369111
5.53932	377805
5.54743	365952
5.55557	374791
5.56368	463723
5.57182	646208
5.57993	851037
5.58805	897320
5.59618	836545
5.60430	658726
5.61243	518594
5.62055	443776
5.62867	405316
5.63680	395325
5.64492	368878
5.65303	364185
5.66117	353181
5.66928	342636
5.67742	348085
5.68553	384555
5.69365	441800
5.70178	503102
5.70990	532327
5.71803	489932
5.72615	428505
5.73427	388496
5.74240	348209
5.75052	330271
5.75865	322465
5.76677	311604
5.77488	312536
5.78302	302876
5.79113	295439
5.79925	290967
5.80738	289175
5.81550	287603
5.82363	287844
5.83175	284302
5.83987	286287
5.84800	292537
5.85612	286160
5.86425	274164
5.87237	277696
5.88048	278755
5.88862	273444
5.89673	268761
5.90487	273478
5.91298	263857
5.92110	270328
5.92923	276478
5.93735	284574
5.94547	277531
5.95360	317003
5.96172	398604
5.96985	511640
5.97797	648848
5.98608	822082
5.99422	1045493
6.00233	1152451
6.01047	1118426
6.01858	928157
6.02670	709124
6.03483	513398
6.04295	397490
6.05107	339487
6.05920	311968
6.06732	293839
6.07545	281337
6.08357	272972
6.09168	261780
6.09982	248054
6.10793	246752
6.11607	245812
6.12418	270063
6.13230	404851
6.14043	733812
6.14855	1267892
6.15668	1716116
6.16480	1723409
6.17292	1384921
6.18105	1031439
6.18917	789931
6.19728	662881
6.20542	572029
6.21353	500015
6.22167	445499
6.22978	416982
6.23790	406233
6.24603	382117
6.25415	387656
6.26228	398344
6.27040	420812
6.27852	402719
6.28665	386225
6.29477	363724
6.30288	356360
6.31102	337444
6.31913	321563
6.32727	330556
6.33538	330155
6.34350	344246
6.35163	339154
6.35975	349793
6.36788	330132
6.37600	312690
6.38412	308319
6.39225	308550
6.40037	308756
6.40850	305475
6.41662	298781
6.42473	288442
6.43287	281210
6.44098	277288
6.44910	295780
6.45723	291090
6.46535	288532
6.47348	298591
6.48160	301080
6.48972	292288
6.49785	295091
6.50597	286756
6.51410	298821
6.52222	291342
6.53033	292582
6.53847	295005
6.54658	296446
6.55472	290023
6.56283	292334
6.57095	337311
6.57908	446989
6.58720	604530
6.59532	690877
6.60345	649560
6.61157	525252
6.61970	406357
6.62782	368731
6.63593	324779
6.64407	274163
6.65218	250019
6.66032	240171
6.66843	233505
6.67655	234508
6.68468	222893
6.69280	215608
6.70092	217041
6.70905	202238
6.71717	187420
6.72530	189871
6.73342	191415
6.74153	187313
6.74967	179366
6.75778	192484
6.76592	181018
6.77403	172448
6.78215	181964
6.79028	180556
6.79840	176475
6.80653	168545
6.81465	170126
6.82277	162488
6.83090	158258
6.83902	160103
6.84713	167282
6.85527	176770
6.86338	177653
6.87152	201994
6.87963	230611
6.88775	250786
6.89588	233606
6.90400	215348
6.91213	189323
6.92025	170399
6.92837	150292
6.93650	147305
6.94462	139476
6.95275	136837
6.96087	134606
6.96898	137909
6.97712	155919
6.98523	172727
6.99335	178733
7.00148	186708
7.00960	173914
7.01773	156217
7.02585	164671
7.03397	163437
7.04210	158446
7.05022	150883
7.05835	143686
7.06647	141705
7.07458	160501
7.08272	186598
7.09083	211638
7.09895	228986
7.10708	211820
7.11520	196989
7.12333	173106
7.13145	154735
7.13957	141241
7.14770	157539
7.15582	180551
7.16395	218568
7.17207	274087
7.18018	416351
7.18832	913802
7.19643	2376656
7.20457	5100127
7.21268	8345599
7.22080	1.008943E+07
7.22893	8885944
7.23705	5642614
7.24517	2741259
7.25330	1118574
7.26142	474066
7.26955	255803
7.27767	206908
7.28578	191042
7.29392	183735
7.30203	183624
7.31017	177210
7.31828	171161
7.32640	178865
7.33453	197028
7.34265	246583
7.35077	303837
7.35890	356118
7.36702	367322
7.37515	341133
7.38327	292806
7.39138	240320
7.39952	196225
7.40763	175155
7.41577	166022
7.42388	161052
7.43200	155763
7.44013	147814
7.44825	138789
7.45638	147893
7.46450	137799
7.47262	142236
7.48075	138373
7.48887	145677
7.49698	141341
7.50512	129946
7.51323	125814
7.52137	125976
7.52948	139546
7.53760	157474
7.54573	247114
7.55385	463403
7.56198	897059
7.57010	1637883
7.57822	2541158
7.58635	3224391
7.59447	3447070
7.60260	3097397
7.61072	2376032
7.61883	1589772
7.62697	985048
7.63508	616828
7.64320	403802
7.65133	301448
7.65945	233534
7.66758	205998
7.67570	169285
7.68382	153621
7.69195	129824
7.70007	127365
7.70820	120129
7.71632	125331
7.72443	146025
7.73257	157403
7.74068	176399
7.74880	187957
7.75693	187233
7.76505	188224
7.77318	175325
7.78130	165218
7.78942	161058
7.79755	145509
7.80567	151048
7.81380	175179
7.82192	204321
7.83003	225510
7.83817	212523
7.84628	189841
7.85442	159291
7.86253	144797
7.87065	140804
7.87878	139941
7.88690	158163
7.89502	179210
7.90315	228386
7.91127	259367
7.91940	256637
7.92752	239569
7.93563	215699
7.94377	199485
7.95188	215739
7.96002	248494
7.96813	251387
7.97625	253431
7.98438	236600
7.99250	197057
8.00063	172093
8.00875	142318
8.01687	133340
8.02500	132840
8.03312	120595
8.04123	120247
8.04937	110944
8.05748	113764
8.06562	110309
8.07373	109769
8.08185	106201
8.08998	107623
8.09810	105898
8.10623	106415
8.11435	104960
8.12247	98617
8.13060	108775
8.13872	134230
8.14683	191773
8.15497	271816
8.16308	354160
8.17122	372019
8.17933	328170
8.18745	266802
8.19558	201018
8.20370	167029
8.21183	146733
8.21995	129233
8.22807	120803
8.23620	115815
8.24432	112621
8.25245	111611
8.26057	110764
8.26868	101055
8.27682	93147
8.28493	99799
8.29305	103087
8.30118	98946
8.30930	97388
8.31743	92373
8.32555	93158
8.33367	102770
8.34180	100516
8.34992	103787
8.35805	109626
8.36617	102974
8.37428	101700
8.38242	95839
8.39053	88702
8.39865	89765
8.40678	86938
8.41490	82813
8.42303	84543
8.43115	81194
8.43927	81868
8.44740	82885
8.45552	86025
8.46365	87157
8.47177	83697
8.47988	82745
8.48802	83599
8.49613	82356
8.50427	78594
8.51238	84535
8.52050	104298
8.52863	166129
8.53675	229627
8.54487	305422
8.55300	305499
8.56112	249542
8.56925	181061
8.57737	120492
8.58548	100251
8.59362	97008
8.60173	88385
8.60987	102588
8.61798	126648
8.62610	157608
8.63423	179507
8.64235	206787
8.65048	210421
8.65860	179522
8.66672	154726
8.67485	128551
8.68297	112380
8.69108	97091
8.69922	91086
8.70733	89080
8.71547	86313
8.72358	89657
8.73170	79951
8.73983	81275
8.74795	82007
8.75608	88295
8.76420	93785
8.77232	106637
8.78045	160481
8.78857	276097
8.79668	513859
8.80482	766522
8.81293	911936
8.82107	901983
8.82918	719679
8.83730	533785
8.84543	412077
8.85355	356720
8.86168	302412
8.86980	290126
8.87792	263085
8.88605	235251
8.89417	218426
8.90230	205155
8.91042	196087
8.91853	207548
8.92667	258363
8.93478	350500
8.94290	462093
8.95103	513332
8.95915	489643
8.96728	382319
8.97540	294025
8.98352	240100
8.99165	249125
8.99977	255319
9.00790	266893
9.01602	253824
9.02413	223600
9.03227	196530
9.04038	173255
9.04852	161508
9.05663	154318
9.06475	141981
9.07288	144040
9.08100	143796
9.08912	148694
9.09725	153635
9.10537	158160
9.11350	200465
9.12162	238395
9.12973	288558
9.13787	310344
9.14598	292147
9.15412	249937
9.16223	205811
9.17035	184833
9.17848	174311
9.18660	161621
9.19472	159516
9.20285	154052
9.21097	150442
9.21910	146938
9.22722	145301
9.23533	150662
9.24347	161043
9.25158	144350
9.25972	144405
9.26783	141398
9.27595	136499
9.28408	122967
9.29220	132555
9.30033	125565
9.30845	122830
9.31657	122644
9.32470	124670
9.33282	118151
9.34093	113115
9.34907	119601
9.35718	115243
9.36532	106955
9.37343	107724
9.38155	107318
9.38968	103437
9.39780	105405
9.40593	117877
9.41405	139145
9.42217	167467
9.43030	202500
9.43842	253299
9.44653	317094
9.45467	366913
9.46278	397483
9.47092	364263
9.47903	312614
9.48715	246231
9.49528	182746
9.50340	153984
9.51153	144369
9.51965	151135
9.52777	163149
9.53590	170967
9.54402	176264
9.55215	177219
9.56027	162235
9.56838	145783
9.57652	134061
9.58463	116635
9.59275	113960
9.60088	114983
9.60900	119295
9.61713	122489
9.62525	109719
9.63337	100325
9.64150	93238
9.64962	87201
9.65775	84617
9.66587	78580
9.67398	78655
9.68212	80748
9.69023	84523
9.69837	82672
9.70648	89178
9.71460	88049
9.72273	91980
9.73085	91933
9.73897	94427
9.74710	87053
9.75522	83562
9.76335	82952
9.77147	79781
9.77958	74683
9.78772	75836
9.79583	74342
9.80397	72497
9.81208	78428
9.82020	76965
9.82833	77068
9.83645	78375
9.84458	77821
9.85270	75675
9.86082	74517
9.86895	75138
9.87707	73540
9.88518	69026
9.89332	68403
9.90143	71253
9.90957	63504
9.91768	72605
9.92580	72606
9.93393	75809
9.94205	84148
9.95018	114411
9.95830	167497
9.96642	227247
9.97455	304164
9.98267	357148
9.99078	345094
9.99892	309528
10.00703	238931
10.01517	181063
10.02328	147934
10.03140	127945
10.03953	130947
10.04765	130997
10.05578	142748
10.06390	153885
10.07202	158600
10.08015	159428
10.08827	161766
10.09640	151363
10.10452	151263
10.11263	139871
10.12077	138547
10.12888	134621
10.13700	127177
10.14513	124713
10.15325	124889
10.16138	125069
10.16950	113168
10.17762	109232
10.18575	111608
10.19387	109367
10.20200	108041
10.21012	102437
10.21823	98449
10.22637	103476
10.23448	106612
10.24260	107662
10.25073	121961
10.25885	159826
10.26698	332293
10.27510	835571
10.28322	1978754
10.29135	4129181
10.29947	7021131
10.30760	1.022644E+07
10.31572	1.375868E+07
10.32383	1.776807E+07
10.33197	2.295796E+07
10.34008	2.994579E+07
10.34822	3.833783E+07
10.35633	4.58183E+07
10.36445	5.165278E+07
10.37258	5.070518E+07
10.38070	3.814494E+07
10.38882	1.896993E+07
10.39695	7491702
10.40507	3924166
10.41320	2667129
10.42132	1963725
10.42943	1498206
10.43757	1245445
10.44568	1095370
10.45382	1042085
10.46193	1018208
10.47005	985476
10.47818	936037
10.48630	845238
10.49443	757955
10.50255	669424
10.51067	602221
10.51880	550170
10.52692	512663
10.53503	520518
10.54317	507565
10.55128	528695
10.55942	540408
10.56753	532410
10.57565	504693
10.58378	485753
10.59190	472246
10.60003	452283
10.60815	427151
10.61627	416168
10.62440	388859
10.63252	369512
10.64063	341557
10.64877	325779
10.65688	315384
10.66502	301585
10.67313	289263
10.68125	295517
10.68938	276565
10.69750	279346
10.70563	291700
10.71375	281733
10.72187	282097
10.73000	283565
10.73812	272310
10.74625	275160
10.75437	275210
10.76248	259107
10.77062	248035
10.77873	239409
10.78685	239563
10.79498	220403
10.80310	213306
10.81123	227372
10.81935	220886
10.82747	219093
10.83560	221923
10.84372	219994
10.85185	197179
10.85997	194462
10.86808	183260
10.87622	181584
10.88433	178120
10.89247	171965
10.90058	165049
10.90870	162660
10.91683	171547
10.92495	159958
10.93307	164906
10.94120	165564
10.94932	160764
10.95745	165520
10.96557	161404
10.97368	154524
10.98182	154472
10.98993	153299
10.99807	154400
11.00618	153979
11.01430	155206
11.02243	153389
11.03055	162617
11.03867	160389
11.04680	154246
11.05492	145748
11.06305	143138
11.07117	145826
11.07928	144961
11.08742	159727
11.09553	165516
11.10367	175481
11.11178	171961
11.11990	161349
11.12803	155147
11.13615	155508
11.14428	128051
11.15240	123431
11.16052	112819
11.16865	109924
11.17677	111939
11.18488	109365
11.19302	110436
11.20113	114827
11.20927	107907
11.21738	108062
11.22550	107462
11.23363	104501
11.24175	101397
11.24988	88462
11.25800	85054
11.26612	93417
11.27425	83406
11.28237	81927
11.29048	80243
11.29862	85513
11.30673	89373
11.31487	122533
11.32298	214429
11.33110	441797
11.33923	871553
11.34735	1437730
11.35548	2014276
11.36360	2317557
11.37172	2259641
11.37985	1907336
11.38797	1483966
11.39610	1108232
11.40422	894455
11.41233	734481
11.42047	620896
11.42858	524281
11.43670	433550
11.44483	354785
11.45295	298284
11.46108	255926
11.46920	235058
11.47732	212017
11.48545	207849
11.49357	218233
11.50170	287167
11.50982	372208
11.51793	452207
11.52607	541022
11.53418	559562
11.54232	538754
11.55043	498340
11.55855	427641
11.56668	363464
11.57480	312698
11.58292	279648
11.59105	278907
11.59917	334558
11.60730	413038
11.61542	592755
11.62353	790588
11.63167	918608
11.63978	869879
11.64792	709453
11.65603	532619
11.66415	371719
11.67228	270387
11.68040	202467
11.68852	183787
11.69665	173415
11.70477	159580
11.71290	161915
11.72102	159858
11.72913	162260
11.73727	151961
11.74538	148540
11.75352	137373
11.76163	127804
11.76975	125363
11.77788	119646
11.78600	115165
11.79413	105577
11.80225	103476
11.81037	98723
11.81850	95646
11.82662	103778
11.83473	90605
11.84287	89379
11.85098	88885
11.85912	86383
11.86723	82580
11.87535	86120
11.88348	83615
11.89160	81642
11.89973	74857
11.90785	85473
11.91597	83657
11.92410	86574
11.93222	95593
11.94035	102233
11.94847	104799
11.95658	98874
11.96472	88221
11.97283	86256
11.98095	77264
11.98908	73212
11.99720	74729
12.00533	71362
12.01345	72629
12.02157	69788
12.02970	71044
12.03782	69052
12.04595	73812
12.05407	68949
12.06218	73216
12.07032	75987
12.07843	75210
12.08655	81561
12.09468	88812
12.10280	90597
12.11093	108786
12.11905	121420
12.12717	177315
12.13530	257875
12.14342	345945
12.15155	445348
12.15967	456154
12.16778	419460
12.17592	349826
12.18403	279198
12.19217	230405
12.20028	223940
12.20840	209116
12.21653	203672
12.22465	197949
12.23277	179860
12.24090	167198
12.24902	174061
12.25715	159350
12.26527	154249
12.27338	146206
12.28152	145347
12.28963	133060
12.29777	130672
12.30588	122843
12.31400	122597
12.32213	120468
12.33025	118929
12.33838	114896
12.34650	110169
12.35462	113408
12.36275	107962
12.37087	106823
12.37898	108672
12.38712	112520
12.39523	114571
12.40337	125235
12.41148	163836
12.41960	223019
12.42773	303936
12.43585	385052
12.44398	395142
12.45210	360525
12.46022	295608
12.46835	234807
12.47647	182472
12.48458	159734
12.49272	142434
12.50083	131946
12.50897	126025
12.51708	119251
12.52520	118456
12.53333	134179
12.54145	149714
12.54958	194469
12.55770	263614
12.56582	333423
12.57395	370719
12.58207	352030
12.59020	303212
12.59832	241636
12.60643	188586
12.61457	161446
12.62268	137161
12.63080	128950
12.63893	125858
12.64705	118571
12.65518	116849
12.66330	112158
12.67142	111002
12.67955	110638
12.68767	104059
12.69580	103294
12.70392	101073
12.71203	97873
12.72017	99434
12.72828	97696
12.73640	99814
12.74453	105553
12.75265	113321
12.76078	119103
12.76890	109789
12.77702	106565
12.78515	93959
12.79327	88645
12.80140	88395
12.80952	85259
12.81763	72282
12.82577	80016
12.83388	74796
12.84202	74334
12.85013	68300
12.85825	65012
12.86638	62698
12.87450	60606
12.88262	58605
12.89075	63646
12.89887	61604
12.90700	59527
12.91512	58470
12.92323	56723
12.93137	59468
12.93948	62393
12.94762	58932
12.95573	63040
12.96385	59156
12.97198	69001
12.98010	78136
12.98823	93927
12.99635	94300
13.00447	95700
13.01260	86997
13.02072	74479
13.02883	68072
13.03697	69496
13.04508	63128
13.05322	67258
13.06133	66436
13.06945	62996
13.07758	67585
13.08570	64751
13.09383	69801
13.10195	71197
13.11007	75364
13.11820	72727
13.12632	75178
13.13443	61641
13.14257	65165
13.15068	59990
13.15882	63932
13.16693	67676
13.17505	67931
13.18318	70565
13.19130	74528
13.19943	75326
13.20755	77825
13.21567	78752
13.22380	83262
13.23192	86569
13.24005	88782
13.24817	94360
13.25628	96162
13.26442	102458
13.27253	99605
13.28065	103659
13.28878	91174
13.29690	84186
13.30503	73306
13.31315	69052
13.32127	67778
13.32940	61128
13.33752	57724
13.34565	63499
13.35377	61758
13.36188	59997
13.37002	59468
13.37813	57463
13.38627	57034
13.39438	59056
13.40250	56754
13.41063	55904
13.41875	60182
13.42687	60865
13.43500	56313
13.44312	55263
13.45125	55884
13.45937	54204
13.46748	55486
13.47562	57086
13.48373	61650
13.49187	66376
13.49998	61762
13.50810	61597
13.51623	71744
13.52435	69926
13.53247	84006
13.54060	92786
13.54872	83384
13.55685	77693
13.56497	77196
13.57308	61222
13.58122	64460
13.58933	73867
13.59747	81083
13.60558	99729
13.61370	120632
13.62183	143615
13.62995	162583
13.63808	161953
13.64620	159977
13.65432	127675
13.66245	95114
13.67057	78652
13.67868	74009
13.68682	64962
13.69493	61009
13.70307	57171
13.71118	53827
13.71930	52478
13.72743	53496
13.73555	54246
13.74368	55450
13.75180	64651
13.75992	80995
13.76805	113498
13.77617	169611
13.78428	233954
13.79242	334662
13.80053	470964
13.80867	600133
13.81678	700866
13.82490	772099
13.83303	892187
13.84115	1062473
13.84928	1219223
13.85740	1288066
13.86552	1220186
13.87365	999061
13.88177	790133
13.88990	572874
13.89802	372938
13.90613	283629
13.91427	214086
13.92238	160190
13.93050	140395
13.93863	122460
13.94675	115955
13.95488	100040
13.96300	97839
13.97112	93403
13.97925	83187
13.98737	83330
13.99550	88558
14.00362	95185
14.01173	95423
14.01987	99292
14.02798	94100
14.03612	91191
14.04423	88423
14.05235	78856
14.06048	76674
14.06860	71037
14.07672	75129
14.08485	77455
14.09297	77374
14.10110	78593
14.10922	70801
14.11733	72754
14.12547	68324
14.13358	65509
14.14172	72830
14.14983	68264
14.15795	67758
14.16608	68597
14.17420	82489
14.18232	82003
14.19045	87626
14.19857	99325
14.20670	121858
14.21482	159960
14.22293	204103
14.23107	266089
14.23918	298558
14.24732	312177
14.25543	306494
14.26355	302959
14.27168	295718
14.27980	283876
14.28793	265434
14.29605	216030
14.30417	181863
14.31230	161782
14.32042	144986
14.32853	137497
14.33667	125711
14.34478	125838
14.35292	121207
14.36103	121729
14.36915	122203
14.37728	115900
14.38540	106466
14.39353	100782
14.40165	108266
14.40977	126924
14.41790	169705
14.42602	244954
14.43415	304852
14.44227	320272
14.45038	290825
14.45852	246840
14.46663	201781
14.47475	160659
14.48288	151831
14.49100	132853
14.49913	136521
14.50725	129597
14.51537	124857
14.52350	117739
14.53162	107583
14.53975	96299
14.54787	89579
14.55598	87343
14.56412	82699
14.57223	84300
14.58035	79689
14.58848	72909
14.59660	70506
14.60473	64065
14.61285	65796
14.62097	65291
14.62910	63325
14.63722	60758
14.64535	57368
14.65347	55493
14.66158	59078
14.66972	60570
14.67783	56519
14.68597	53914
14.69408	58915
14.70220	55752
14.71033	53790
14.71845	55650
14.72657	58279
14.73470	64832
14.74282	63460
14.75095	66551
14.75907	67037
14.76718	69167
14.77532	69178
14.78343	76046
14.79157	99863
14.79968	207786
14.80780	581059
14.81593	1675286
14.82405	4101727
14.83218	8367526
14.84030	1.395949E+07
14.84842	1.999182E+07
14.85655	2.472796E+07
14.86467	2.572708E+07
14.87278	2.159334E+07
14.88092	1.510564E+07
14.88903	8967369
14.89717	5161687
14.90528	3385259
14.91340	2590035
14.92153	2194799
14.92965	1900975
14.93778	1684502
14.94590	1482429
14.95402	1320265
14.96215	1224325
14.97027	1116134
14.97838	1059774
14.98652	985152
14.99463	930068
15.00277	856024
15.01088	830039
15.01900	781181
15.02713	736264
15.03525	689452
15.04338	642400
15.05150	611650
15.05962	589760
15.06775	554095
15.07587	536719
15.08400	505832
15.09212	480044
15.10023	461673
15.10837	440868
15.11648	439567
15.12460	425428
15.13273	440758
15.14085	477626
15.14898	533421
15.15710	568477
15.16522	582610
15.17335	527980
15.18147	430045
15.18960	317538
15.19772	237890
15.20583	197253
15.21397	160725
15.22208	155991
15.23022	144149
15.23833	135662
15.24645	127838
15.25458	122000
15.26270	121951
15.27082	115692
15.27895	111334
15.28707	105259
15.29520	106440
15.30332	102405
15.31143	102233
15.31957	98380
15.32768	96088
15.33582	93724
15.34393	96513
15.35205	94041
15.36018	89087
15.36830	92396
15.37642	92716
15.38455	99831
15.39267	113961
15.40080	111172
15.40892	109469
15.41703	104283
15.42517	97394
15.43328	89276
15.44142	85594
15.44953	93564
15.45765	85614
15.46578	84553
15.47390	92590
15.48203	113621
15.49015	155196
15.49827	217951
15.50640	310260
15.51452	393225
15.52263	455127
15.53077	477911
15.53888	448425
15.54702	383802
15.55513	307096
15.56325	248506
15.57138	184130
15.57950	148484
15.58763	126437
15.59575	117452
15.60387	102718
15.61200	99264
15.62012	92806
15.62823	94468
15.63637	92132
15.64448	90595
15.65262	89736
15.66073	92297
15.66885	90252
15.67698	80315
15.68510	79327
15.69323	75276
15.70135	68841
15.70947	64701
15.71760	63779
15.72572	66096
15.73385	59105
15.74197	69083
15.75008	72997
15.75822	98678
15.76633	183054
15.77445	372275
15.78258	788788
15.79070	1398794
15.79883	2002635
15.80695	2307736
15.81507	2187120
15.82320	1735844
15.83132	1223009
15.83945	786449
15.84757	544957
15.85568	414672
15.86382	333092
15.87193	284043
15.88007	253234
15.88818	244106
15.89630	220476
15.90443	206564
15.91255	189313
15.92067	186297
15.92880	173470
15.93692	161980
15.94505	154740
15.95317	146316
15.96128	149271
15.96942	139137
15.97753	135428
15.98567	132562
15.99378	125059
16.00190	132104
16.01003	141708
16.01815	161550
16.02627	180359
16.03440	204946
16.04252	209764
16.05065	200303
16.05877	187469
16.06688	172880
16.07502	142355
16.08313	125138
16.09127	112711
16.09938	91958
16.10750	89602
16.11563	91419
16.12375	93573
16.13188	93238
16.14000	114840
16.14812	127084
16.15625	141431
16.16437	154597
16.17248	159322
16.18062	152413
16.18873	140124
16.19687	121035
16.20498	104801
16.21310	104445
16.22123	110793
16.22935	113898
16.23748	109374
16.24560	116012
16.25372	99171
16.26185	89013
16.26997	93855
16.27810	86095
16.28622	83144
16.29433	88665
16.30247	103675
16.31058	117209
16.31870	124130
16.32683	134710
16.33495	138369
16.34308	124779
16.35120	119037
16.35932	119893
16.36745	111847
16.37557	108122
16.38370	105032
16.39182	101889
16.39993	95247
16.40807	88808
16.41618	86803
16.42430	89479
16.43243	88763
16.44055	92747
16.44868	129297
16.45680	244427
16.46492	580818
16.47305	1391508
16.48117	2858033
16.48930	4649546
16.49742	6183339
16.50553	6570642
16.51367	5856065
16.52178	4266416
16.52992	2702285
16.53803	1659359
16.54615	1111750
16.55428	798960
16.56240	658833
16.57052	536089
16.57865	502105
16.58677	461300
16.59490	419731
16.60302	378174
16.61113	345609
16.61927	325024
16.62738	305706
16.63552	274879
16.64363	255484
16.65175	245012
16.65988	222067
16.66800	218001
16.67612	214079
16.68425	206094
16.69237	200593
16.70050	186340
16.70862	173463
16.71673	158449
16.72487	137239
16.73298	132971
16.74112	118395
16.74923	120619
16.75735	128628
16.76548	150938
16.77360	187891
16.78173	215184
16.78985	216894
16.79797	185321
16.80610	154999
16.81422	132801
16.82233	103388
16.83047	95040
16.83858	90938
16.84672	86285
16.85483	81358
16.86295	77010
16.87108	74348
16.87920	78961
16.88733	70062
16.89545	69626
16.90357	65279
16.91170	63923
16.91982	64746
16.92795	69077
16.93607	72630
16.94418	70696
16.95232	68285
16.96043	68033
16.96855	69338
16.97668	70523
16.98480	75611
16.99293	67942
17.00105	74517
17.00917	73960
17.01730	71702
17.02542	77587
17.03355	75093
17.04167	84464
17.04978	110690
17.05792	151104
17.06603	182225
17.07415	205536
17.08228	206478
17.09040	177897
17.09853	139388
17.10665	122030
17.11477	96316
17.12290	87434
17.13102	91872
17.13915	95041
17.14727	108309
17.15538	104449
17.16352	96088
17.17163	93245
17.17977	90818
17.18788	91399
17.19600	86447
17.20413	79607
17.21225	71521
17.22037	68529
17.22850	68073
17.23662	69475
17.24475	71483
17.25287	69252
17.26098	69155
17.26912	79841
17.27723	70028
17.28537	70684
17.29348	64066
17.30160	70189
17.30973	66491
17.31785	70950
17.32598	85722
17.33410	107596
17.34222	152365
17.35035	201697
17.35847	249375
17.36658	267404
17.37472	277681
17.38283	257898
17.39097	238353
17.39908	212339
17.40720	197874
17.41533	188857
17.42345	179065
17.43158	178559
17.43970	165249
17.44782	165521
17.45595	156713
17.46407	154518
17.47218	143313
17.48032	124181
17.48843	123761
17.49657	109622
17.50468	108017
17.51280	108117
17.52093	105923
17.52905	103197
17.53718	102107
17.54530	100471
17.55342	99462
17.56155	119283
17.56967	183120
17.57780	355436
17.58592	827326
17.59403	1898548
17.60217	3544396
17.61028	5460844
17.61840	7050350
17.62653	7662675
17.63465	6894472
17.64278	5452824
17.65090	3736467
17.65902	2245494
17.66715	1286215
17.67527	728607
17.68340	469585
17.69152	343968
17.69963	273380
17.70777	242872
17.71588	211427
17.72402	204421
17.73213	198083
17.74025	178921
17.74838	168686
17.75650	150031
17.76462	139872
17.77275	127253
17.78087	118009
17.78900	107683
17.79712	101328
17.80523	94237
17.81337	96729
17.82148	90911
17.82962	92739
17.83773	99724
17.84585	105333
17.85398	129007
17.86210	152717
17.87022	194835
17.87835	240455
17.88647	259350
17.89460	238963
17.90272	213835
17.91083	168182
17.91897	140837
17.92708	109446
17.93522	95651
17.94333	86602
17.95145	81890
17.95958	81051
17.96770	76551
17.97583	76905
17.98395	72391
17.99207	74899
18.00020	70176
18.00832	75277
18.01643	85537
18.02457	106843
18.03268	155416
18.04082	230432
18.04893	335784
18.05705	442985
18.06518	601118
18.07330	1046648
18.08143	2080039
18.08955	4146094
18.09767	6918255
18.10580	9526587
18.11392	1.125888E+07
18.12203	1.124552E+07
18.13017	9821909
18.13828	7807560
18.14642	5787051
18.15453	4570425
18.16265	3756427
18.17078	3141465
18.17890	2772106
18.18703	2404291
18.19515	2129894
18.20327	1913160
18.21140	1717165
18.21952	1575292
18.22765	1442006
18.23577	1308041
18.24388	1222865
18.25202	1129905
18.26013	1060999
18.26825	972522
18.27638	913675
18.28450	764311
18.29263	634940
18.30075	510459
18.30887	377447
18.31700	297413
18.32512	232464
18.33325	207593
18.34137	177257
18.34948	171834
18.35762	165221
18.36573	159390
18.37387	145281
18.38198	142179
18.39010	138386
18.39823	137211
18.40635	136038
18.41447	144117
18.42260	140956
18.43072	143465
18.43885	176997
18.44697	214131
18.45508	301691
18.46322	496329
18.47133	844756
18.47947	1410212
18.48758	2092298
18.49570	2672531
18.50383	2766718
18.51195	2491751
18.52007	1896389
18.52820	1270232
18.53632	762480
18.54445	460380
18.55257	284119
18.56068	200126
18.56882	158610
18.57693	135903
18.58507	125756
18.59318	116541
18.60130	111913
18.60943	110156
18.61755	120180
18.62568	127235
18.63380	132133
18.64192	144164
18.65005	156266
18.65817	202903
18.66628	260469
18.67442	320954
18.68253	343120
18.69067	354615
18.69878	344524
18.70690	353382
18.71503	350445
18.72315	351575
18.73128	360850
18.73940	345942
18.74752	352857
18.75565	345560
18.76377	345642
18.77190	350923
18.78002	340442
18.78813	348099
18.79627	339315
18.80438	343261
18.81250	339360
18.82063	347218
18.82875	341550
18.83688	338493
18.84500	334628
18.85312	326200
18.86125	332011
18.86937	330667
18.87750	338865
18.88562	336719
18.89373	328904
18.90187	325542
18.90998	336050
18.91810	336754
18.92623	322287
18.93435	352651
18.94248	367132
18.95060	379789
18.95872	387781
18.96685	420703
18.97497	422286
18.98310	430341
18.99122	409083
18.99933	390351
19.00747	359050
19.01558	340074
19.02372	323796
19.03183	318864
19.03995	305910
19.04808	301450
19.05620	291032
19.06432	285715
19.07245	291737
19.08057	297205
19.08870	297288
19.09682	304724
19.10493	344308
19.11307	388127
19.12118	409864
19.12932	415064
19.13743	395326
19.14555	366667
19.15368	324070
19.16180	305599
19.16992	295590
19.17805	287858
19.18617	265515
19.19430	265748
19.20242	260597
19.21053	262121
19.21867	254510
19.22678	271582
19.23492	264595
19.24303	266990
19.25115	262954
19.25928	261764
19.26740	249775
19.27553	252177
19.28365	251767
19.29177	270230
19.29990	274087
19.30802	290400
19.31613	290544
19.32427	285879
19.33238	285699
19.34052	267484
19.34863	270079
19.35675	290352
19.36488	323772
19.37300	423410
19.38113	522953
19.38925	629011
19.39737	679930
19.40550	654163
19.41362	569727
19.42175	489449
19.42987	415709
19.43798	367221
19.44612	341594
19.45423	319255
19.46235	309138
19.47048	297232
19.47860	299512
19.48673	288363
19.49485	292557
19.50297	297103
19.51110	324288
19.51922	345295
19.52735	391543
19.53547	422731
19.54358	442941
19.55172	424559
19.55983	415187
19.56795	366172
19.57608	328580
19.58420	296676
19.59233	278086
19.60045	248570
19.60857	234700
19.61670	224240
19.62482	223548
19.63295	203156
19.64107	217146
19.64918	239760
19.65732	288805
19.66543	377073
19.67357	506354
19.68168	657591
19.68980	828006
19.69793	889732
19.70605	881828
19.71417	839712
19.72230	738055
19.73042	626014
19.73855	555973
19.74667	474397
19.75478	409134
19.76292	372410
19.77103	324970
19.77917	306022
19.78728	310464
19.79540	330724
19.80353	371835
19.81165	419574
19.81978	446290
19.82790	467286
19.83602	437992
19.84415	381108
19.85227	324960
19.86038	290789
19.86852	281716
19.87663	293084
19.88477	369213
19.89288	530220
19.90100	766060
19.90913	1028671
19.91725	1198581
19.92538	1227758
19.93350	1131859
19.94162	926618
19.94975	754826
19.95787	613369
19.96598	532260
19.97412	462503
19.98223	430396
19.99037	402722
19.99848	381810
20.00660	364813
20.01473	341132
20.02285	333720
20.03098	324946
20.03910	321389
20.04722	302262
20.05535	295249
20.06347	277590
20.07160	286092
20.07972	292875
20.08783	325420
20.09597	367864
20.10408	398767
20.11220	396059
20.12033	378178
20.12845	346053
20.13658	297401
20.14470	264195
20.15282	253773
20.16095	263656
20.16907	332115
20.17720	454977
20.18532	625494
20.19343	841870
20.20157	1105495
20.20968	1246945
20.21780	1263161
20.22593	1161004
20.23405	965664
20.24218	792881
20.25030	657589
20.25842	607783
20.26655	669600
20.27467	854729
20.28280	1102748
20.29092	1316470
20.29903	1465460
20.30717	1479922
20.31528	1309157
20.32342	1086825
20.33153	840481
20.33965	605333
20.34778	441594
20.35590	357757
20.36402	296769
20.37215	254399
20.38027	230314
20.38840	212499
20.39652	202370
20.40463	204001
20.41277	185897
20.42088	191713
20.42902	187982
20.43713	206657
20.44525	221695
20.45338	250955
20.46150	287143
20.46963	279712
20.47775	279839
20.48587	279153
20.49400	252189
20.50212	228092
20.51023	196806
20.51837	192946
20.52648	178671
20.53462	181414
20.54273	182533
20.55085	191496
20.55898	203064
20.56710	203758
20.57523	199200
20.58335	190046
20.59147	183665
20.59960	173465
20.60772	167983
20.61585	159387
20.62397	154172
20.63208	157601
20.64022	155114
20.64833	152542
20.65645	167897
20.66458	166390
20.67270	176155
20.68083	180822
20.68895	169590
20.69707	167177
20.70520	157197
20.71332	152727
20.72145	148764
20.72957	146528
20.73768	142331
20.74582	145566
20.75393	151582
20.76205	162843
20.77018	182573
20.77830	189872
20.78643	221089
20.79455	283342
20.80267	425663
20.81080	719189
20.81892	1200461
20.82705	1677102
20.83517	2026732
20.84328	2073264
20.85142	1722182
20.85953	1267759
20.86767	846107
20.87578	498023
20.88390	332746
20.89203	248350
20.90015	206244
20.90827	207650
20.91640	196864
20.92452	191321
20.93265	204114
20.94077	208479
20.94888	223345
20.95702	223287
20.96513	230180
20.97327	219198
20.98138	200307
20.98950	182965
20.99763	168396
21.00575	152513
21.01387	143348
21.02200	144670
21.03012	152478
21.03825	156313
21.04637	158191
21.05448	163384
21.06262	163534
21.07073	154551
21.07887	155350
21.08698	157668
21.09510	148249
21.10323	143845
21.11135	143463
21.11948	145219
21.12760	134653
21.13572	143677
21.14385	158838
21.15197	212833
21.16008	291372
21.16822	386722
21.17633	474734
21.18447	523422
21.19258	510058
21.20070	432003
21.20883	361683
21.21695	292033
21.22508	244962
21.23320	228836
21.24132	201378
21.24945	193184
21.25757	170160
21.26570	156027
21.27382	147329
21.28193	136593
21.29007	137506
21.29818	129718
21.30630	124207
21.31443	131208
21.32255	128475
21.33068	119084
21.33880	124504
21.34692	122222
21.35505	121315
21.36317	125363
21.37130	128098
21.37942	138157
21.38753	137109
21.39567	166208
21.40378	206463
21.41190	263759
21.42003	325970
21.42815	376479
21.43628	386495
21.44440	374303
21.45252	338952
21.46065	289568
21.46877	249699
21.47690	226061
21.48502	204010
21.49313	186858
21.50127	177889
21.50938	162247
21.51752	143675
21.52563	137207
21.53375	136544
21.54188	129400
21.55000	125648
21.55812	129918
21.56625	120281
21.57437	123817
21.58250	138955
21.59062	154704
21.59873	187858
21.60687	213956
21.61498	232315
21.62312	224821
21.63123	221210
21.63935	209988
21.64748	215636
21.65560	238776
21.66373	267401
21.67185	309377
21.67997	351565
21.68810	382001
21.69622	399558
21.70433	391619
21.71247	357644
21.72058	301927
21.72872	249060
21.73683	202723
21.74495	171343
21.75308	158080
21.76120	150455
21.76933	143258
21.77745	143570
21.78557	134757
21.79370	135752
21.80182	134659
21.80993	129567
21.81807	131702
21.82618	134313
21.83432	131218
21.84243	146286
21.85055	174925
21.85868	198433
21.86680	223821
21.87493	226795
21.88305	223707
21.89117	196174
21.89930	181964
21.90742	174515
21.91555	158534
21.92367	154207
21.93178	155726
21.93992	153011
21.94803	137759
21.95615	128625
21.96428	113204
21.97240	110266
21.98053	100594
21.98865	101723
21.99677	94651
22.00490	96647
22.01302	96752
22.02115	95769
22.02927	99211
22.03738	111498
22.04552	117197
22.05363	125319
22.06175	138309
22.06988	134366
22.07800	140162
22.08613	127934
22.09425	118296
22.10237	114162
22.11050	107489
22.11862	109256
22.12675	100823
22.13487	98452
22.14298	97411
22.15112	90714
22.15923	89935
22.16737	97212
22.17548	92389
22.18360	91901
22.19173	89735
22.19985	87661
22.20797	90715
22.21610	86642
22.22422	91965
22.23235	92903
22.24047	103324
22.24858	111085
22.25672	112248
22.26483	125184
22.27297	118969
22.28108	127424
22.28920	129664
22.29733	143749
22.30545	143398
22.31358	149696
22.32170	152986
22.32982	145882
22.33795	144785
22.34607	136605
22.35418	126021
22.36232	120139
22.37043	117174
22.37857	110511
22.38668	112559
22.39480	133113
22.40293	180081
22.41105	269982
22.41918	388313
22.42730	561660
22.43542	689265
22.44355	746685
22.45167	681243
22.45978	577226
22.46792	433604
22.47603	314769
22.48417	241786
22.49228	225227
22.50040	226034
22.50853	258181
22.51665	280749
22.52478	314102
22.53290	307054
22.54102	293264
22.54915	268730
22.55727	234151
22.56540	204787
22.57352	182989
22.58163	150845
22.58977	143616
22.59788	132151
22.60600	121219
22.61413	107500
22.62225	102925
22.63038	100292
22.63850	102004
22.64662	100621
22.65475	106835
22.66287	108944
22.67100	120285
22.67912	125975
22.68723	134192
22.69537	157431
22.70348	196288
22.71162	255449
22.71973	350448
22.72785	444679
22.73598	499282
22.74410	491387
22.75222	466624
22.76035	398231
22.76847	326522
22.77660	274210
22.78472	268432
22.79283	311450
22.80097	418844
22.80908	573156
22.81722	752768
22.82533	916301
22.83345	967523
22.84158	912909
22.84970	797421
22.85782	617178
22.86595	498153
22.87407	397600
22.88220	348128
22.89032	326755
22.89843	317710
22.90657	329211
22.91468	350304
22.92282	388830
22.93093	472908
22.93905	553448
22.94718	638101
22.95530	651012
22.96343	590045
22.97155	502106
22.97967	395936
22.98780	324524
22.99592	258208
23.00403	212921
23.01217	187927
23.02028	164812
23.02842	151450
23.03653	141069
23.04465	120340
23.05278	119468
23.06090	111267
23.06903	118280
23.07715	120839
23.08527	122681
23.09340	125715
23.10152	130859
23.10965	116969
23.11777	118219
23.12588	110439
23.13402	103753
23.14213	95596
23.15025	95758
23.15838	96761
23.16650	98231
23.17463	95874
23.18275	95016
23.19087	89476
23.19900	87953
23.20712	83895
23.21525	81882
23.22337	83089
23.23148	77406
23.23962	88284
23.24773	88478
23.25585	117072
23.26398	138335
23.27210	180692
23.28023	212907
23.28835	237980
23.29647	225682
23.30460	199065
23.31272	163075
23.32085	129862
23.32897	115890
23.33708	119045
23.34522	144889
23.35333	184511
23.36147	257263
23.36958	328376
23.37770	409750
23.38583	454281
23.39395	453834
23.40207	413505
23.41020	341323
23.41832	277231
23.42645	233189
23.43457	199156
23.44268	180074
23.45082	166430
23.45893	173957
23.46707	156181
23.47518	142591
23.48330	145261
23.49143	145302
23.49955	136734
23.50767	127121
23.51580	119965
23.52392	117757
23.53205	114399
23.54017	115289
23.54828	111242
23.55642	119181
23.56453	127359
23.57267	146772
23.58078	159759
23.58890	192170
23.59703	230618
23.60515	304784
23.61328	346678
23.62140	359806
23.62952	342158
23.63765	304340
23.64577	239550
23.65388	178300
23.66202	157338
23.67013	140424
23.67827	139427
23.68638	133019
23.69450	134240
23.70263	129111
23.71075	117994
23.71888	105434
23.72700	102619
23.73512	96794
23.74325	92960
23.75137	84869
23.75950	84908
23.76762	103992
23.77573	156169
23.78387	294868
23.79198	558015
23.80010	911537
23.80823	1275907
23.81635	1476182
23.82448	1522036
23.83260	1283383
23.84072	1014654
23.84885	780966
23.85697	608535
23.86510	484236
23.87322	406665
23.88133	344358
23.88947	295942
23.89758	283622
23.90570	288003
23.91383	335247
23.92195	393725
23.93008	462961
23.93820	498481
23.94632	484108
23.95445	411081
23.96257	335881
23.97070	261987
23.97882	219332
23.98693	185902
23.99507	166487
24.00318	154981
24.01132	153283
24.01943	165123
24.02755	199639
24.03568	230032
24.04380	300679
24.05192	354757
24.06005	357075
24.06817	307366
24.07630	246603
24.08442	189110
24.09253	157551
24.10067	140496
24.10878	125456
24.11692	120765
24.12503	118472
24.13315	116583
24.14128	129357
24.14940	139154
24.15753	147411
24.16565	167831
24.17377	185428
24.18190	197452
24.19002	208230
24.19813	202502
24.20627	200215
24.21438	199461
24.22252	190254
24.23063	171753
24.23875	168213
24.24688	163177
24.25500	163464
24.26313	154849
24.27125	142225
24.27937	138792
24.28750	123226
24.29562	126327
24.30373	118095
24.31187	117482
24.31998	133043
24.32812	133117
24.33623	135048
24.34435	130733
24.35248	123092
24.36060	120467
24.36873	114615
24.37685	107886
24.38497	103001
24.39310	101262
24.40122	101746
24.40935	110982
24.41747	132588
24.42558	152715
24.43372	166782
24.44183	164183
24.44995	153983
24.45808	146874
24.46620	129159
24.47433	113690
24.48245	111934
24.49057	112946
24.49870	113781
24.50682	128307
24.51495	135638
24.52307	147273
24.53118	171350
24.53932	186749
24.54743	209277
24.55555	238876
24.56368	269545
24.57180	281637
24.57993	300026
24.58805	301838
24.59617	300962
24.60430	279295
24.61242	256254
24.62055	231165
24.62867	219036
24.63678	186149
24.64492	167096
24.65303	154746
24.66117	152534
24.66928	152679
24.67740	146058
24.68553	150146
24.69365	145774
24.70177	141736
24.70990	133018
24.71802	141620
24.72615	137099
24.73427	142634
24.74238	143588
24.75052	139635
24.75863	140231
24.76677	138106
24.77488	149735
24.78300	156703
24.79113	164080
24.79925	184167
24.80738	195449
24.81550	187662
24.82362	175114
24.83175	173292
24.83987	193183
24.84798	264918
24.85612	389208
24.86423	591200
24.87237	881817
24.88048	1369961
24.88860	2072744
24.89673	2913236
24.90485	3606548
24.91298	4047311
24.92110	3961592
24.92922	3208924
24.93735	2295410
24.94547	1404568
24.95360	803132
24.96172	458093
24.96983	274119
24.97797	197467
24.98608	149807
24.99420	127994
25.00233	113096
25.01045	111107
25.01858	104882
25.02670	101106
25.03482	109856
25.04295	107790
25.05107	108846
25.05920	107384
25.06732	102125
25.07543	102546
25.08357	109177
25.09168	115490
25.09980	145570
25.10793	212661
25.11605	484984
25.12418	1253677
25.13230	3014890
25.14042	6138185
25.14855	1.062265E+07
25.15667	1.548035E+07
25.16480	1.877937E+07
25.17292	1.912089E+07
25.18103	1.69489E+07
25.18917	1.25077E+07
25.19728	7748536
25.20542	4228639
25.21353	2127741
25.22165	1097730
25.22978	611116
25.23790	391541
25.24602	325068
25.25415	357774
25.26227	471285
25.27040	651897
25.27852	821719
25.28663	930491
25.29477	950306
25.30288	833612
25.31102	658164
25.31913	454205
25.32725	328557
25.33538	242405
25.34350	182282
25.35162	153946
25.35975	132550
25.36787	116981
25.37600	110251
25.38412	105151
25.39223	104088
25.40037	98704
25.40848	91295
25.41662	88375
25.42473	89987
25.43285	97936
25.44098	90124
25.44910	87243
25.45723	88467
25.46535	85596
25.47347	94157
25.48160	90460
25.48972	96085
25.49783	91365
25.50597	100146
25.51408	102389
25.52222	98027
25.53033	99047
25.53845	96341
25.54658	87134
25.55470	82439
25.56283	80998
25.57095	80431
25.57907	82269
25.58720	81778
25.59532	91986
25.60345	86708
25.61157	85019
25.61968	84328
25.62782	86313
25.63593	81377
25.64405	79605
25.65218	78754
25.66030	79173
25.66843	76894
25.67655	86575
25.68467	101917
25.69280	142286
25.70092	216609
25.70905	328027
25.71717	415402
25.72528	494813
25.73342	511920
25.74153	509975
25.74965	506534
25.75778	518518
25.76590	510405
25.77403	516442
25.78215	510555
25.79027	504720
25.79840	491908
25.80652	499136
25.81465	488053
25.82277	513128
25.83088	500564
25.83902	514995
25.84713	508129
25.85527	499741
25.86338	489890
25.87150	488285
25.87963	479160
25.88775	503913
25.89587	496886
25.90400	473913
25.91212	479933
25.92025	472198
25.92837	470627
25.93648	478466
25.94462	478550
25.95273	477965
25.96087	480181
25.96898	491173
25.97710	475107
25.98523	460707
25.99335	471722
26.00148	458443
26.00960	467223
26.01772	447949
26.02585	451305
26.03397	433886
26.04208	418663
26.05022	430045
26.05833	445100
26.06647	431613
26.07458	431366
26.08270	434299
26.09083	440323
26.09895	443417
26.10708	458094
26.11520	449951
26.12332	447788
26.13145	442830
26.13957	440963
26.14768	427038
26.15582	432616
26.16393	440829
26.17207	450157
26.18018	444387
26.18830	437590
26.19643	422543
26.20455	428277
26.21268	424549
26.22080	422874
26.22892	409003
26.23705	411028
26.24517	399082
26.25330	407057
26.26142	407280
26.26953	378654
26.27767	377429
26.28578	365495
26.29390	376882
26.30203	373539
26.31015	360683
26.31828	355691
26.32640	361912
26.33452	351060
26.34265	347361
26.35077	340947
26.35890	357902
26.36702	362638
26.37513	413491
26.38327	506702
26.39138	647297
26.39950	801831
26.40763	1003385
26.41575	1087632
26.42388	1092347
26.43200	990068
26.44012	846156
26.44825	687876
26.45637	568217
26.46450	463402
26.47262	412236
26.48073	383482
26.48887	367176
26.49698	367587
26.50512	350302
26.51323	345466
26.52135	323114
26.52948	304738
26.53760	298631
26.54572	295946
26.55385	268372
26.56197	280649
26.57010	275669
26.57822	271054
26.58633	264131
26.59447	270907
26.60258	267368
26.61072	263949
26.61883	275363
26.62695	271348
26.63508	261761
26.64320	261432
26.65133	257390
26.65945	259371
26.66757	260760
26.67570	253004
26.68382	258363
26.69193	247023
26.70007	243738
26.70818	242552
26.71632	249171
26.72443	229512
26.73255	239489
26.74068	233840
26.74880	228058
26.75693	230604
26.76505	232475
26.77317	237148
26.78130	229565
26.78942	237852
26.79753	239057
26.80567	237760
26.81378	251421
26.82192	252081
26.83003	248563
26.83815	240777
26.84628	242132
26.85440	243150
26.86253	243567
26.87065	229017
26.87877	229199
26.88690	229457
26.89502	228844
26.90315	231218
26.91127	220495
26.91938	214950
26.92752	211206
26.93563	205478
26.94375	204400
26.95188	206976
26.96000	204765
26.96813	220138
26.97625	229927
26.98437	250048
26.99250	297760
27.00062	378883
27.00875	534706
27.01687	779036
27.02498	1082527
27.03312	1354146
27.04123	1523239
27.04937	1510538
27.05748	1330557
27.06560	1075481
27.07373	880472
27.08185	685213
27.08997	557005
27.09810	488345
27.10622	432053
27.11435	402826
27.12247	373728
27.13058	369666
27.13872	352546
27.14683	348851
27.15497	346696
27.16308	332017
27.17120	331103
27.17933	342534
27.18745	372115
27.19557	381373
27.20370	412348
27.21182	411202
27.21995	373898
27.22807	357235
27.23618	320833
27.24432	302416
27.25243	281030
27.26057	252358
27.26868	233980
27.27680	232418
27.28493	223309
27.29305	215083
27.30118	199679
27.30930	196262
27.31742	201994
27.32555	198665
27.33367	191897
27.34178	193322
27.34992	195471
27.35803	198546
27.36617	203896
27.37428	200301
27.38240	206217
27.39053	204195
27.39865	207526
27.40678	194695
27.41490	187591
27.42302	175081
27.43115	178838
27.43927	168621
27.44740	169766
27.45552	170647
27.46363	172232
27.47177	166993
27.47988	175023
27.48800	162714
27.49613	157859
27.50425	156898
27.51238	150595
27.52050	153055
27.52862	144620
27.53675	144726
27.54487	149363
27.55300	148723
27.56112	152381
27.56923	152766
27.57737	166062
27.58548	184909
27.59360	223029
27.60173	268996
27.60985	320923
27.61798	351160
27.62610	337773
27.63422	297730
27.64235	245601
27.65047	203858
27.65860	179573
27.66672	160319
27.67483	137207
27.68297	143752
27.69108	142102
27.69922	141221
27.70733	145054
27.71545	135060
27.72358	139518
27.73170	132204
27.73982	126538
27.74795	118363
27.75607	115283
27.76420	116672
27.77232	112036
27.78043	121104
27.78857	126545
27.79668	130904
27.80482	143279
27.81293	148414
27.82105	149118
27.82918	141508
27.83730	129469
27.84542	122673
27.85355	112452
27.86167	110039
27.86980	109294
27.87792	108681
27.88603	109462
27.89417	102773
27.90228	102729
27.91042	108606
27.91853	106898
27.92665	102761
27.93478	102468
27.94290	103541
27.95103	105416
27.95915	98766
27.96727	103224
27.97540	97103
27.98352	99094
27.99163	100292
27.99977	97383
28.00788	99796
28.01602	105763
28.02413	119577
28.03225	124596
28.04038	137791
28.04850	156016
28.05663	164030
28.06475	177029
28.07287	184753
28.08100	172823
28.08912	162859
28.09725	144366
28.10537	130644
28.11348	119637
28.12162	101091
28.12973	98843
28.13785	97107
28.14598	100802
28.15410	97855
28.16223	94196
28.17035	92266
28.17847	88406
28.18660	96719
28.19472	111969
28.20285	134990
28.21097	178290
28.21908	240927
28.22722	297872
28.23533	353558
28.24345	377726
28.25158	362141
28.25970	321910
28.26783	267978
28.27595	206044
28.28407	158547
28.29220	123100
28.30032	118331
28.30845	116912
28.31657	125775
28.32468	149831
28.33282	172269
28.34093	193358
28.34907	214960
28.35718	238145
28.36530	249753
28.37343	276804
28.38155	302133
28.38967	324755
28.39780	333900
28.40592	351138
28.41405	363099
28.42217	340525
28.43028	321778
28.43842	297079
28.44653	266081
28.45467	239447
28.46278	221783
28.47090	192634
28.47903	181407
28.48715	168143
28.49528	162807
28.50340	159056
28.51152	169561
28.51965	164187
28.52777	170784
28.53588	158082
28.54402	149475
28.55213	137804
28.56027	135596
28.56838	122449
28.57650	123204
28.58463	119289
28.59275	118034
28.60088	111929
28.60900	119238
28.61712	118764
28.62525	112957
28.63337	117536
28.64148	120783
28.64962	131745
28.65773	134348
28.66587	130122
28.67398	138080
28.68210	143496
28.69023	128121
28.69835	122321
28.70648	116782
28.71460	112651
28.72272	111347
28.73085	100948
28.73897	97884
28.74710	98923
28.75522	96365
28.76333	95918
28.77147	101091
28.77958	105826
28.78770	115582
28.79583	128052
28.80395	143547
28.81208	160748
28.82020	183864
28.82832	186200
28.83645	181626
28.84457	171702
28.85270	160085
28.86082	138125
28.86893	130182
28.87707	138406
28.88518	142547
28.89330	169237
28.90143	197790
28.90955	237917
28.91768	265201
28.92580	266492
28.93392	232400
28.94205	201491
28.95017	157893
28.95830	142853
28.96642	127965
28.97453	113421
28.98267	113050
28.99078	106052
28.99892	98988
29.00703	97969
29.01515	97638
29.02328	94271
29.03140	93144
29.03952	93061
29.04765	99202
29.05577	90956
29.06390	93191
29.07202	97142
29.08013	99365
29.08827	104205
29.09638	113338
29.10452	122667
29.11263	128209
29.12075	123833
29.12888	115057
29.13700	103024
29.14513	97221
29.15325	95124
29.16137	90208
29.16950	89774
29.17762	95355
29.18573	98081
29.19387	120368
29.20198	160191
29.21012	226452
29.21823	319816
29.22635	405337
29.23448	457946
29.24260	463060
29.25073	400301
29.25885	329486
29.26697	261242
29.27510	212872
29.28322	175488
29.29135	149759
29.29947	125949
29.30758	108342
29.31572	99678
29.32383	91857
29.33195	95182
29.34008	89329
29.34820	87591
29.35633	86140
29.36445	85788
29.37257	84111
29.38070	79068
29.38882	83323
29.39695	79576
29.40507	81517
29.41318	90956
29.42132	92175
29.42943	89854
29.43755	98807
29.44568	97811
29.45380	95700
29.46193	95076
29.47005	89483
29.47817	88827
29.48630	83933
29.49442	84292
29.50255	86134
29.51067	88945
29.51878	97298
29.52692	106038
29.53503	101425
29.54317	102246
29.55128	101309
29.55940	98260
29.56753	91431
29.57565	92378
29.58377	87086
29.59190	96045
29.60002	86675
29.60815	78732
29.61627	77749
29.62438	73657
29.63252	81147
29.64063	78622
29.64877	79460
29.65688	79368
29.66500	81640
29.67313	84819
29.68125	86890
29.68937	91020
29.69750	107906
29.70562	125340
29.71375	133204
29.72187	134074
29.72998	128853
29.73812	113729
29.74623	103142
29.75437	95049
29.76248	89505
29.77060	86442
29.77873	81915
29.78685	77395
29.79498	75185
29.80310	74973
29.81122	70770
29.81935	72047
29.82747	71100
29.83558	73629
29.84372	76338
29.85183	73939
29.85997	74814
29.86808	72656
29.87620	83264
29.88433	98707
29.89245	136027
29.90058	183492
29.90870	238834
29.91682	279548
29.92495	292041
29.93307	256904
29.94118	211953
29.94932	158663
29.95743	115770
29.96557	97498
29.97368	94623
29.98180	94700
29.98993	100206
29.99805	110255
30.00618	121021
30.01430	132539
30.02242	149553
30.03055	160627
30.03867	180085
30.04680	179211
30.05492	185942
30.06303	194226
30.07117	186990
30.07928	193510
30.08740	181735
30.09553	183684
30.10365	167513
30.11178	167398
30.11990	163639
30.12802	158432
30.13615	146031
30.14427	141526
30.15240	139615
30.16052	126168
30.16863	126678
30.17677	120533
30.18488	122102
30.19302	115643
30.20113	116137
30.20925	122001
30.21738	121422
30.22550	121765
30.23362	113954
30.24175	112400
30.24987	105005
30.25800	105345
30.26612	98422
30.27423	94848
30.28237	92555
30.29048	92858
30.29862	88289
30.30673	86990
30.31485	78998
30.32298	88740
30.33110	91057
30.33923	86811
30.34735	86042
30.35547	87348
30.36360	90432
30.37172	87639
30.37983	88037
30.38797	87954
30.39608	87314
30.40422	81534
30.41233	83190
30.42045	76350
30.42858	82207
30.43670	84658
30.44483	77708
30.45295	78486
30.46107	84581
30.46920	75729
30.47732	78649
30.48543	76491
30.49357	75759
30.50168	73208
30.50982	81579
30.51793	74936
30.52605	77626
30.53418	77338
30.54230	78824
30.55043	79795
30.55855	83404
30.56667	84368
30.57480	89194
30.58292	87777
30.59105	87138
30.59917	82308
30.60728	83832
30.61542	83287
30.62353	82586
30.63165	79415
30.63978	87854
30.64790	80073
30.65603	83442
30.66415	74524
30.67227	72920
30.68040	74543
30.68852	71051
30.69665	70588
30.70477	71356
30.71288	76524
30.72102	70400
30.72913	75264
30.73725	80798
30.74538	75394
30.75350	79799
30.76163	77025
30.76975	76014
30.77787	80055
30.78600	95382
30.79412	129954
30.80225	186860
30.81037	270885
30.81848	377797
30.82662	477179
30.83473	466204
30.84287	415249
30.85098	319334
30.85910	229566
30.86723	174311
30.87535	135142
30.88347	109127
30.89160	107464
30.89972	99582
30.90785	95060
30.91597	93931
30.92408	90121
30.93222	82769
30.94033	82603
30.94847	81667
30.95658	76321
30.96470	87035
30.97283	91482
30.98095	88374
30.98908	91233
30.99720	91262
31.00532	87806
31.01345	89340
31.02157	75490
31.02968	83665
31.03782	76491
31.04593	76140
31.05407	75151
31.06218	75895
31.07030	79457
31.07843	78911
31.08655	84942
31.09468	85837
31.10280	100754
31.11092	121925
31.11905	131326
31.12717	152296
31.13528	143496
31.14342	140098
31.15153	134190
31.15967	136582
31.16778	141996
31.17590	152765
31.18403	156204
31.19215	158210
31.20028	170283
31.20840	185109
31.21652	233221
31.22465	288352
31.23277	348871
31.24090	377602
31.24902	388102
31.25713	341187
31.26527	271601
31.27338	201842
31.28150	156806
31.28963	115094
31.29775	104444
31.30588	94178
31.31400	98130
31.32212	99442
31.33025	115829
31.33837	125429
31.34650	133500
31.35462	144647
31.36273	147418
31.37087	141078
31.37898	122706
31.38712	103066
31.39523	93413
31.40335	91379
31.41148	82251
31.41960	80788
31.42772	78373
31.43585	79422
31.44397	83260
31.45210	82606
31.46022	81992
31.46833	86601
31.47647	86801
31.48458	85350
31.49272	83679
31.50083	89179
31.50895	84740
31.51708	92479
31.52520	93706
31.53332	101595
31.54145	96977
31.54957	104917
31.55770	95153
31.56582	101361
31.57393	93600
31.58207	93620
31.59018	91617
31.59832	87367
31.60643	87247
31.61455	75476
31.62268	75726
31.63080	78354
31.63893	79933
31.64705	83845
31.65517	84478
31.66330	96413
31.67142	113630
31.67953	144213
31.68767	153289
31.69578	166989
31.70392	167789
31.71203	150009
31.72015	130664
31.72828	113260
31.73640	97689
31.74453	82391
31.75265	80848
31.76077	76876
31.76890	75561
31.77702	78589
31.78513	75149
31.79327	80392
31.80138	78098
31.80952	79009
31.81763	80538
31.82575	85794
31.83388	84752
31.84200	85032
31.85013	80655
31.85825	85413
31.86637	90113
31.87450	92112
31.88262	95109
31.89075	100640
31.89887	96041
31.90698	95084
31.91512	87468
31.92323	78019
31.93135	75658
31.93948	82326
31.94760	87798
31.95573	93054
31.96385	102711
31.97197	112977
31.98010	126784
31.98822	136606
31.99635	154753
32.00447	155952
32.01258	167398
32.02072	179832
32.02883	168710
32.03697	163607
32.04508	161974
32.05320	149464
32.06133	133275
32.06945	124479
32.07757	113125
32.08570	105284
32.09382	107730
32.10195	106327
32.11007	107547
32.11818	105652
32.12632	99977
32.13443	96851
32.14257	96208
32.15068	92173
32.15880	91077
32.16693	86169
32.17505	83816
32.18317	83757
32.19130	81064
32.19942	85531
32.20755	78970
32.21567	86150
32.22378	82804
32.23192	79307
32.24003	78956
32.24817	79023
32.25628	71908
32.26440	82222
32.27253	76970
32.28065	81139
32.28878	78860
32.29690	77317
32.30502	80111
32.31315	77181
32.32127	76461
32.32938	75225
32.33752	72736
32.34563	76739
32.35377	77955
32.36188	79356
32.37000	88061
32.37813	82080
32.38625	81231
32.39438	88401
32.40250	78731
32.41062	82567
32.41875	79184
32.42687	74012
32.43500	78247
32.44312	71951
32.45123	77053
32.45937	74669
32.46748	79061
32.47560	74938
32.48373	74161
32.49185	70253
32.49998	72051
32.50810	72236
32.51622	74656
32.52435	75884
32.53247	76417
32.54060	82246
32.54872	76935
32.55683	73898
32.56497	79179
32.57308	80769
32.58120	75623
32.58933	73765
32.59745	69813
32.60558	67134
32.61370	71357
32.62182	75206
32.62995	67924
32.63807	70628
32.64620	70658
32.65432	73452
32.66243	75397
32.67057	77042
32.67868	78533
32.68682	85554
32.69493	92242
32.70305	96068
32.71118	98033
32.71930	97355
32.72742	94836
32.73555	87386
32.74367	84936
32.75180	86320
32.75992	79298
32.76803	77886
32.77617	81519
32.78428	74419
32.79242	73661
32.80053	74320
32.80865	74569
32.81678	72634
32.82490	74158
32.83303	77887
32.84115	77793
32.84927	80823
32.85740	73867
32.86552	71788
32.87363	73284
32.88177	80770
32.88988	83529
32.89802	82260
32.90613	101788
32.91425	103179
32.92238	114391
32.93050	118879
32.93863	116109
32.94675	101927
32.95487	91926
32.96300	80716
32.97112	81313
32.97923	88865
32.98737	103985
32.99548	135947
33.00362	183290
33.01173	223504
33.01985	283404
33.02798	300906
33.03610	280223
33.04423	236941
33.05235	188429
33.06047	158334
33.06860	150424
33.07672	160643
33.08485	181429
33.09297	195112
33.10108	199555
33.10922	212575
33.11733	217394
33.12545	223090
33.13358	219664
33.14170	212998
33.14983	196045
33.15795	173138
33.16607	160456
33.17420	140721
33.18232	131257
33.19045	117049
33.19857	109881
33.20668	99555
33.21482	96470
33.22293	84990
33.23105	96373
33.23918	101052
33.24730	95506
33.25543	96869
33.26355	95358
33.27167	85382
33.27980	87086
33.28792	85332
33.29605	85715
33.30417	87286
33.31228	85976
33.32042	84518
33.32853	82438
33.33667	84279
33.34478	82918
33.35290	91485
33.36103	93912
33.36915	102751
33.37727	113974
33.38540	120540
33.39352	118629
33.40165	107557
33.40977	99068
33.41788	89995
33.42602	80686
33.43413	79396
33.44227	72323
33.45038	75953
33.45850	73939
33.46663	76986
33.47475	70503
33.48288	74804
33.49100	71083
33.49912	74662
33.50725	80014
33.51537	84852
33.52348	92001
33.53162	95146
33.53973	99376
33.54787	108632
33.55598	127607
33.56410	140270
33.57223	160953
33.58035	167497
33.58848	156427
33.59660	149388
33.60472	115695
33.61285	102691
33.62097	83537
33.62908	80368
33.63722	81096
33.64533	82732
33.65347	84924
33.66158	94740
33.66970	97905
33.67783	101831
33.68595	100220
33.69408	101463
33.70220	92881
33.71032	91282
33.71845	83073
33.72657	74974
33.73470	77302
33.74282	71627
33.75093	72991
33.75907	75591
33.76718	77908
33.77530	72375
33.78343	71877
33.79155	69747
33.79968	74261
33.80780	77589
33.81592	77122
33.82405	70103
33.83217	69289
33.84030	68945
33.84842	73276
33.85653	72975
33.86467	77216
33.87278	75028
33.88092	77206
33.88903	81003
33.89715	81798
33.90528	87945
33.91340	90753
33.92152	80713
33.92965	80943
33.93777	81193
33.94590	77408
33.95402	72858
33.96213	75056
33.97027	71140
33.97838	73937
33.98652	72879
33.99463	69004
34.00275	70991
34.01088	69039
34.01900	71259
34.02712	71022
34.03525	70432
34.04337	70790
34.05150	70423
34.05962	71688
34.06773	69601
34.07587	73027
34.08398	71786
34.09212	69016
34.10023	71769
34.10835	74185
34.11648	74065
34.12460	70644
34.13273	70880
34.14085	76000
34.14897	73029
34.15710	68158
34.16522	74256
34.17333	72044
34.18147	73753
34.18958	76001
34.19772	70268
34.20583	69760
34.21395	68691
34.22208	73472
34.23020	73265
34.23833	70166
34.24645	67567
34.25457	70078
34.26270	69537
34.27082	67521
34.27893	65247
34.28707	66567
34.29518	66447
34.30332	76974
34.31143	71652
34.31955	67527
34.32768	68041
34.33580	68021
34.34393	69755
34.35205	69383
34.36017	67423
34.36830	70275
34.37642	67938
34.38455	71204
34.39267	72194
34.40078	63634
34.40892	65940
34.41703	66638
34.42515	68732
34.43328	69473
34.44140	70363
34.44953	66870
34.45765	71618
34.46577	69206
34.47390	68524
34.48202	70775
34.49015	67256
34.49827	70430
34.50638	69938
34.51452	67526
34.52263	75045
34.53077	72171
34.53888	74361
34.54700	76345
34.55513	88054
34.56325	96628
34.57137	109429
34.57950	123812
34.58762	132549
34.59575	134760
34.60387	120592
34.61198	114339
34.62012	115823
34.62823	102554
34.63637	96578
34.64448	93958
34.65260	88492
34.66073	87153
34.66885	91893
34.67698	89000
34.68510	81800
34.69322	84032
34.70135	82790
34.70947	81198
34.71758	77967
34.72572	77656
34.73383	75836
34.74197	79870
34.75008	74861
34.75820	80195
34.76633	80446
34.77445	86423
34.78258	88921
34.79070	85240
34.79882	89317
34.80695	86837
34.81507	87609
34.82318	83433
34.83132	83215
34.83943	80622
34.84757	79529
34.85568	78453
34.86380	78566
34.87193	76034
34.88005	73354
34.88818	75451
34.89630	79411
34.90442	73157
34.91255	76065
34.92067	73564
34.92880	75424
34.93692	76701
34.94503	77646
34.95317	79927
34.96128	83506
34.96940	90921
34.97753	96117
34.98565	103587
34.99378	105653
35.00190	105191
35.01002	105598
35.01815	94873
35.02627	92381
35.03440	82302
35.04252	81553
35.05063	85761
35.05877	77435
35.06688	76804
35.07500	76745
35.08313	73292
35.09125	69338
35.09938	73415
35.10750	74385
35.11562	76479
35.12375	72964
35.13187	76371
35.14000	77046
35.14812	75805
35.15623	80148
35.16437	75380
35.17248	83708
35.18062	81737
35.18873	86800
35.19685	87779
35.20498	78278
35.21310	75410
35.22122	80684
35.22935	74666
35.23747	71139
35.24560	74248
35.25372	70630
35.26183	74932
35.26997	77652
35.27808	81109
35.28622	79420
35.29433	84051
35.30245	76869
35.31058	76976
35.31870	77319
35.32683	73297
35.33495	73345
35.34307	77602
35.35120	71005
35.35932	67190
35.36743	70932
35.37557	73345
35.38368	72328
35.39182	73302
35.39993	72004
35.40805	72643
35.41618	85288
35.42430	90171
35.43243	83038
35.44055	83697
35.44867	85600
35.45680	82299
35.46492	88025
35.47303	84319
35.48117	82031
35.48928	87310
35.49742	84648
35.50553	84313
35.51365	88400
35.52178	88482
35.52990	75246
35.53803	81179
35.54615	74137
35.55427	73587
35.56240	72742
35.57052	70479
35.57865	75812
35.58677	80307
35.59488	73713
35.60302	78849
35.61113	71948
35.61925	80419
35.62738	74120
35.63550	72154
35.64363	75505
35.65175	72916
35.65987	67680
35.66800	71984
35.67612	69782
35.68425	72616
35.69237	69315
35.70048	78738
35.70862	78865
35.71673	85303
35.72487	84603
35.73298	78630
35.74110	82885
35.74923	85951
35.75735	96343
35.76547	106056
35.77360	126852
35.78172	139817
35.78985	147842
35.79797	147307
35.80608	132014
35.81422	116376
35.82233	96683
35.83047	97379
35.83858	88262
35.84670	80889
35.85483	87855
35.86295	83366
35.87107	74800
35.87920	79304
35.88732	78628
35.89545	82391
35.90357	83043
35.91168	80044
35.91982	79385
35.92793	83770
35.93607	80852
35.94418	75036
35.95230	75460
35.96043	76597
35.96855	76779
35.97668	76638
35.98480	80305
35.99292	75507
36.00105	79233
36.00917	74868
36.01728	83247
36.02542	80086
36.03353	79652
36.04167	84079
36.04978	80351
36.05790	81345
36.06603	79382
36.07415	78970
36.08228	75539
36.09040	77825
36.09852	77358
36.10665	84866
36.11477	77440
36.12288	79814
36.13102	81672
36.13913	80447
36.14727	85893
36.15538	90244
36.16350	99449
36.17163	98144
36.17975	94462
36.18788	96271
36.19600	85948
36.20412	80694
36.21225	75334
36.22037	75879
36.22850	74906
36.23662	72137
36.24473	78822
36.25287	71789
36.26098	75839
36.26910	75031
36.27723	74920
36.28535	74736
36.29348	80285
36.30160	77534
36.30972	85138
36.31785	80844
36.32597	86481
36.33410	91537
36.34222	90514
36.35033	97174
36.35847	96891
36.36658	99721
36.37472	92406
36.38283	91214
36.39095	87209
36.39908	89272
36.40720	88861
36.41532	94431
36.42345	96247
36.43157	95475
36.43970	94922
36.44782	93787
36.45593	92949
36.46407	95599
36.47218	88870
36.48032	82281
36.48843	83567
36.49655	80701
36.50468	77261
36.51280	73946
36.52092	76256
36.52905	74358
36.53717	79914
36.54530	82032
36.55342	77760
36.56153	78726
36.56967	82759
36.57778	82666
36.58592	83062
36.59403	78144
36.60215	75689
36.61028	74679
36.61840	76475
36.62653	79209
36.63465	84324
36.64277	77799
36.65090	82416
36.65902	79922
36.66713	79099
36.67527	79496
36.68338	83110
36.69152	82618
36.69963	80062
36.70775	76837
36.71588	80859
36.72400	80195
36.73213	81226
36.74025	84270
36.74837	82138
36.75650	84549
36.76462	83147
36.77275	88168
36.78087	81413
36.78898	80247
36.79712	80554
36.80523	86932
36.81335	84203
36.82148	84761
36.82960	83596
36.83773	79503
36.84585	79799
36.85397	75938
36.86210	82596
36.87022	83382
36.87835	81723
36.88647	76889
36.89458	76839
36.90272	78747
36.91083	83916
36.91895	75582
36.92708	80438
36.93520	74635
36.94333	84164
36.95145	96229
36.95957	117236
36.96770	148929
36.97582	181017
36.98395	215669
36.99207	254341
37.00018	245586
37.00832	211481
37.01643	168802
37.02457	133503
37.03268	113459
37.04080	97514
37.04893	93909
37.05705	90344
37.06517	87211
37.07330	94256
37.08142	91272
37.08955	91071
37.09767	94963
37.10578	96935
37.11392	97241
37.12203	97758
37.13017	96567
37.13828	96852
37.14640	93145
37.15453	83090
37.16265	82940
37.17078	85538
37.17890	84013
37.18702	86463
37.19515	82594
37.20327	86371
37.21138	84691
37.21952	87512
37.22763	84592
37.23577	83551
37.24388	82791
37.25200	90891
37.26013	88671
37.26825	85944
37.27638	80676
37.28450	87143
37.29262	80731
37.30075	82065
37.30887	84507
37.31698	86025
37.32512	88634
37.33323	91032
37.34137	101107
37.34948	92895
37.35760	87447
37.36573	93186
37.37385	93841
37.38198	104939
37.39010	105395
37.39822	105931
37.40635	109332
37.41447	110749
37.42260	109029
37.43072	104029
37.43883	106830
37.44697	108119
37.45508	113663
37.46320	104864
37.47133	103096
37.47945	104787
37.48758	100429
