C:\MassHunter\GCMS\1\data\JTB-E02\BACandBLUE\JTB-E18-014-07.D Tue Jun 25 11:39:43 2019
Start of data points
2.09512	61197
2.10323	59536
2.11137	66815
2.11948	65505
2.12760	65248
2.13573	63689
2.14385	66543
2.15198	60906
2.16010	63259
2.16822	60650
2.17635	62222
2.18447	62166
2.19258	55947
2.20072	57227
2.20883	56780
2.21697	52474
2.22508	53171
2.23320	54914
2.24133	56823
2.24945	49517
2.25758	53851
2.26570	55258
2.27382	168670
2.28195	948663
2.29007	1300511
2.29818	579001
2.30632	319187
2.31443	241960
2.32257	209519
2.33068	193810
2.33880	169170
2.34693	161293
2.35505	143776
2.36318	141837
2.37130	126826
2.37942	121045
2.38755	121181
2.39567	113730
2.40380	121950
2.41192	113428
2.42003	110998
2.42817	107294
2.43628	106912
2.44440	101779
2.45253	110098
2.46065	101573
2.46878	104077
2.47690	92931
2.48502	96459
2.49315	110085
2.50127	138975
2.50940	122820
2.51752	104525
2.52563	107384
2.53377	104509
2.54188	98890
2.55000	101650
2.55813	111114
2.56625	181834
2.57438	198609
2.58250	155833
2.59062	133638
2.59875	129773
2.60687	169740
2.61500	480165
2.62312	715582
2.63123	465233
2.63937	291415
2.64748	221228
2.65562	184529
2.66373	163051
2.67185	147944
2.67998	139281
2.68810	130316
2.69622	133034
2.70435	118556
2.71247	121674
2.72060	117737
2.72872	112051
2.73683	107552
2.74497	104414
2.75308	104318
2.76122	102110
2.76933	104655
2.77745	104337
2.78558	153814
2.79370	251622
2.80183	222754
2.80995	160509
2.81807	154633
2.82620	182693
2.83432	176214
2.84243	154933
2.85057	138508
2.85868	119806
2.86682	120384
2.87493	115831
2.88305	109630
2.89118	104787
2.89930	101187
2.90743	100184
2.91555	102003
2.92367	99527
2.93180	98759
2.93992	93811
2.94803	96071
2.95617	98509
2.96428	100623
2.97242	114701
2.98053	111311
2.98865	103830
2.99678	111971
3.00490	121454
3.01303	125933
3.02115	121772
3.02927	109028
3.03740	98504
3.04552	96012
3.05365	96178
3.06177	94600
3.06988	100244
3.07802	114689
3.08613	290618
3.09425	1171164
3.10238	2466210
3.11050	3832118
3.11863	4649697
3.12675	3326980
3.13487	1993303
3.14300	1431767
3.15112	1109241
3.15925	908608
3.16737	776454
3.17548	756887
3.18362	794776
3.19173	1263275
3.19987	2207249
3.20798	2175418
3.21610	1457577
3.22423	1064628
3.23235	887434
3.24047	750250
3.24860	650947
3.25672	569228
3.26485	506878
3.27297	468413
3.28108	438165
3.28922	551773
3.29733	1453397
3.30547	4179452
3.31358	7302774
3.32170	7735895
3.32983	5638713
3.33795	3657784
3.34607	2541390
3.35420	1959392
3.36232	1615559
3.37045	1345127
3.37857	1159657
3.38668	1032838
3.39482	931450
3.40293	831877
3.41107	786556
3.41918	723541
3.42730	680425
3.43543	648549
3.44355	628483
3.45168	603984
3.45980	570638
3.46792	567825
3.47605	571092
3.48417	564674
3.49228	537997
3.50042	506924
3.50853	490947
3.51667	473341
3.52478	451003
3.53290	448296
3.54103	470046
3.54915	474388
3.55728	439056
3.56540	422373
3.57352	439631
3.58165	488539
3.58977	475867
3.59790	427332
3.60602	392425
3.61413	399607
3.62227	389878
3.63038	397807
3.63850	397695
3.64663	393167
3.65475	394434
3.66288	550484
3.67100	2001019
3.67912	6538587
3.68725	1.037261E+07
3.69537	8599686
3.70350	5016823
3.71162	3178074
3.71973	2403884
3.72787	2027536
3.73598	1711281
3.74410	1540957
3.75223	1380959
3.76035	1274019
3.76848	1186308
3.77660	1099162
3.78472	1030333
3.79285	989552
3.80097	1011457
3.80910	1352868
3.81722	2210697
3.82533	2697126
3.83347	2176981
3.84158	1535845
3.84972	1237747
3.85783	1084327
3.86595	988314
3.87408	898725
3.88220	852820
3.89032	809314
3.89845	768030
3.90657	731701
3.91470	736176
3.92282	841903
3.93093	1063339
3.93907	1150549
3.94718	1132849
3.95532	1633985
3.96343	3407545
3.97155	5286769
3.97968	5055713
3.98780	3386401
3.99593	2689150
4.00405	5374608
4.01217	1.30461E+07
4.02030	2.031051E+07
4.02842	1.923405E+07
4.03653	1.207988E+07
4.04467	6506402
4.05278	4070402
4.06092	2930082
4.06903	2264521
4.07715	1875365
4.08528	1597806
4.09340	1399137
4.10153	1282614
4.10965	1148021
4.11777	1041946
4.12590	956203
4.13402	949228
4.14213	1094404
4.15027	1606918
4.15838	2045041
4.16652	1913582
4.17463	1503311
4.18275	1231781
4.19088	1090349
4.19900	957309
4.20713	1012830
4.21525	2101483
4.22337	6083097
4.23150	1.2889E+07
4.23962	1.828899E+07
4.24775	1.800243E+07
4.25587	1.224426E+07
4.26398	7373646
4.27212	5082031
4.28023	3823881
4.28835	3087699
4.29648	2503193
4.30460	2130941
4.31273	1863770
4.32085	1642527
4.32897	1539354
4.33710	1445854
4.34522	1344942
4.35335	1299594
4.36147	1290367
4.36958	1283950
4.37772	1219549
4.38583	1096229
4.39395	973224
4.40208	911127
4.41020	861768
4.41833	827335
4.42645	788821
4.43457	747806
4.44270	737581
4.45082	709467
4.45895	680805
4.46707	662429
4.47518	640857
4.48332	616660
4.49143	612941
4.49957	589271
4.50768	580219
4.51580	551500
4.52393	544956
4.53205	542681
4.54017	521540
4.54830	529450
4.55642	535316
4.56455	504866
4.57267	480931
4.58078	468013
4.58892	462610
4.59703	457012
4.60517	435104
4.61328	443346
4.62140	486531
4.62953	665845
4.63765	1065290
4.64578	1426132
4.65390	1426660
4.66202	1136777
4.67015	831775
4.67827	667461
4.68638	600940
4.69452	550520
4.70263	503616
4.71077	468154
4.71888	437684
4.72700	420749
4.73513	399443
4.74325	390160
4.75138	384328
4.75950	372091
4.76762	362339
4.77575	361060
4.78387	360259
4.79198	377562
4.80012	460115
4.80823	527866
4.81637	554801
4.82448	492471
4.83260	440258
4.84073	436386
4.84885	459104
4.85698	467091
4.86510	441565
4.87322	408768
4.88135	386949
4.88947	369661
4.89760	352464
4.90572	341750
4.91383	331747
4.92197	336895
4.93008	382517
4.93820	631667
4.94633	1281958
4.95445	2356490
4.96258	3433104
4.97070	3748126
4.97882	3129710
4.98695	2311760
4.99507	1663811
5.00320	1293442
5.01132	1021939
5.01943	926494
5.02757	993509
5.03568	1384648
5.04382	1755169
5.05193	1786065
5.06005	1512820
5.06818	1178205
5.07630	996490
5.08442	859777
5.09255	799246
5.10067	732750
5.10880	696530
5.11692	654674
5.12503	615146
5.13317	592212
5.14128	574273
5.14942	562890
5.15753	621619
5.16565	691691
5.17378	748196
5.18190	724419
5.19002	675735
5.19815	661205
5.20627	719478
5.21440	767539
5.22252	752352
5.23063	682915
5.23877	600539
5.24688	555336
5.25502	506183
5.26313	465397
5.27125	437791
5.27938	401102
5.28750	394934
5.29563	378375
5.30375	373188
5.31187	380733
5.32000	372264
5.32812	398720
5.33623	419812
5.34437	445225
5.35248	431298
5.36062	400219
5.36873	377498
5.37685	367680
5.38498	376272
5.39310	399524
5.40123	414135
5.40935	418010
5.41747	396771
5.42560	368173
5.43372	350801
5.44183	343763
5.44997	339107
5.45808	361889
5.46622	364734
5.47433	343344
5.48245	327244
5.49058	312424
5.49870	295038
5.50683	295842
5.51495	299028
5.52307	299973
5.53120	306592
5.53932	299945
5.54745	295616
5.55557	334957
5.56368	379695
5.57182	476246
5.57993	519795
5.58805	500013
5.59618	414079
5.60430	352410
5.61243	314421
5.62055	303231
5.62867	302509
5.63680	306392
5.64492	310536
5.65305	314161
5.66117	300131
5.66928	285677
5.67742	296603
5.68553	312856
5.69367	353253
5.70178	349758
5.70990	341078
5.71803	309469
5.72615	292869
5.73427	274886
5.74240	254598
5.75052	263553
5.75865	255109
5.76677	249257
5.77488	239742
5.78302	236230
5.79113	244085
5.79927	234771
5.80738	227974
5.81550	236366
5.82363	233772
5.83175	236226
5.83987	238692
5.84800	233243
5.85612	236201
5.86425	230215
5.87237	230915
5.88048	220156
5.88862	226353
5.89673	219034
5.90487	212856
5.91298	192704
5.92110	178759
5.92923	175581
5.93735	172678
5.94548	179240
5.95360	195068
5.96172	220637
5.96985	258712
5.97797	313408
5.98608	356349
5.99422	377618
6.00233	344282
6.01047	294254
6.01858	243912
6.02670	212987
6.03483	196934
6.04295	191076
6.05108	177410
6.05920	173340
6.06732	167952
6.07545	164680
6.08357	163230
6.09170	171427
6.09982	154948
6.10793	155460
6.11607	166296
6.12418	207874
6.13230	339208
6.14043	565428
6.14855	747494
6.15668	750367
6.16480	600820
6.17292	447196
6.18105	342570
6.18917	281692
6.19730	248218
6.20542	235717
6.21353	224709
6.22167	221185
6.22978	213782
6.23790	219851
6.24603	216355
6.25415	247743
6.26228	262983
6.27040	271002
6.27852	254839
6.28665	228539
6.29477	215531
6.30290	208751
6.31102	208217
6.31913	211086
6.32727	222369
6.33538	223387
6.34352	229499
6.35163	231106
6.35975	210499
6.36788	220987
6.37600	213522
6.38412	216028
6.39225	221176
6.40037	213228
6.40850	219742
6.41662	216634
6.42473	205079
6.43287	212116
6.44098	213069
6.44912	212894
6.45723	210701
6.46535	212163
6.47348	212128
6.48160	209382
6.48973	213852
6.49785	227717
6.50597	224886
6.51410	226591
6.52222	224623
6.53033	239785
6.53847	226571
6.54658	229506
6.55472	245579
6.56283	271088
6.57095	349711
6.57908	447377
6.58720	499101
6.59533	471422
6.60345	389263
6.61157	306889
6.61970	278542
6.62782	270561
6.63593	273751
6.64407	389396
6.65218	957356
6.66032	2456339
6.66843	4668187
6.67655	5944106
6.68468	5369509
6.69280	3689528
6.70093	2195100
6.70905	1399107
6.71717	1034674
6.72530	859858
6.73342	741544
6.74155	664964
6.74967	581858
6.75778	519929
6.76592	465622
6.77403	430473
6.78215	402201
6.79028	381915
6.79840	365178
6.80653	330758
6.81465	312385
6.82277	293973
6.83090	284737
6.83902	277701
6.84715	285217
6.85527	303009
6.86338	318917
6.87152	314846
6.87963	281755
6.88775	237692
6.89588	202267
6.90400	182180
6.91213	163392
6.92025	162528
6.92837	155398
6.93650	150445
6.94462	139130
6.95275	133981
6.96087	141013
6.96898	168802
6.97712	189816
6.98523	197850
6.99337	180941
7.00148	158624
7.00960	143157
7.01773	148906
7.02585	166400
7.03397	172627
7.04210	179469
7.05022	178837
7.05835	181460
7.06647	190800
7.07458	192169
7.08272	179284
7.09083	162767
7.09897	155113
7.10708	139096
7.11520	145654
7.12333	135362
7.13145	133532
7.13958	151479
7.14770	192013
7.15582	263877
7.16395	317394
7.17207	343921
7.18018	297710
7.18832	232404
7.19643	194718
7.20457	221923
7.21268	380311
7.22080	797760
7.22893	1423067
7.23705	1771451
7.24518	1680468
7.25330	1199429
7.26142	741597
7.26955	491239
7.27767	360406
7.28578	272642
7.29392	198841
7.30203	159424
7.31017	143184
7.31828	144357
7.32640	146599
7.33453	155641
7.34265	143879
7.35078	134747
7.35890	132055
7.36702	128300
7.37515	131135
7.38327	127860
7.39140	129157
7.39952	128816
7.40763	124255
7.41577	124667
7.42388	115811
7.43200	113419
7.44013	108280
7.44825	111054
7.45638	117515
7.46450	109493
7.47262	109313
7.48075	106192
7.48887	99904
7.49700	102069
7.50512	109017
7.51323	143695
7.52137	235641
7.52948	442534
7.53762	799765
7.54573	1278248
7.55385	1750380
7.56198	1994921
7.57010	1908159
7.57822	1579719
7.58635	1119613
7.59447	734344
7.60260	473844
7.61072	327470
7.61883	250067
7.62697	208079
7.63508	172071
7.64322	151263
7.65133	143463
7.65945	126028
7.66758	118515
7.67570	111036
7.68382	106879
7.69195	99618
7.70007	102504
7.70820	97749
7.71632	99224
7.72443	96683
7.73257	93924
7.74068	93334
7.74882	95960
7.75693	99907
7.76505	108008
7.77318	117212
7.78130	124147
7.78943	133740
7.79755	143075
7.80567	149395
7.81380	148245
7.82192	145011
7.83003	132740
7.83817	118434
7.84628	114738
7.85442	121857
7.86253	127548
7.87065	148095
7.87878	170189
7.88690	191718
7.89503	180428
7.90315	166069
7.91127	134219
7.91940	122570
7.92752	133192
7.93563	152789
7.94377	184553
7.95188	191328
7.96002	175717
7.96813	146520
7.97625	124535
7.98438	105784
7.99250	90252
8.00063	88568
8.00875	83163
8.01687	79287
8.02500	79049
8.03312	81416
8.04125	89406
8.04937	87541
8.05748	84360
8.06562	83812
8.07373	83049
8.08185	73803
8.08998	73817
8.09810	70442
8.10623	70514
8.11435	71538
8.12247	76564
8.13060	84334
8.13872	100446
8.14685	114829
8.15497	130710
8.16308	124350
8.17122	109014
8.17933	97490
8.18747	87946
8.19558	80301
8.20370	76232
8.21183	75489
8.21995	78930
8.22807	80968
8.23620	74775
8.24432	75143
8.25245	71837
8.26057	71437
8.26868	67860
8.27682	61432
8.28493	65512
8.29307	68633
8.30118	64584
8.30930	73054
8.31743	71884
8.32555	79113
8.33368	75306
8.34180	77500
8.34992	67321
8.35805	64712
8.36617	64918
8.37428	66719
8.38242	71580
8.39053	76313
8.39867	70346
8.40678	60469
8.41490	61360
8.42303	60251
8.43115	56709
8.43928	57770
8.44740	62578
8.45552	60787
8.46365	55676
8.47177	61262
8.47988	61681
8.48802	57618
8.49613	58758
8.50427	59207
8.51238	59352
8.52050	72538
8.52863	126762
8.53675	209601
8.54488	295526
8.55300	345417
8.56112	303334
8.56925	219536
8.57737	144184
8.58550	100471
8.59362	94235
8.60173	89597
8.60987	88563
8.61798	90900
8.62610	87259
8.63423	76801
8.64235	70346
8.65048	69828
8.65860	66902
8.66672	71790
8.67485	74846
8.68297	74310
8.69110	86963
8.69922	93337
8.70733	101895
8.71547	96740
8.72358	86668
8.73170	77461
8.73983	91787
8.74795	154094
8.75608	340107
8.76420	775580
8.77232	1350530
8.78045	1818009
8.78857	1896572
8.79670	1557167
8.80482	1084396
8.81293	674057
8.82107	420014
8.82918	305073
8.83732	269775
8.84543	260796
8.85355	251393
8.86168	239007
8.86980	218171
8.87792	205091
8.88605	191556
8.89417	178943
8.90230	160562
8.91042	157797
8.91853	159102
8.92667	165093
8.93478	174075
8.94292	173947
8.95103	183185
8.95915	182305
8.96728	170309
8.97540	176564
8.98353	163028
8.99165	171109
8.99977	160503
9.00790	153711
9.01602	133187
9.02413	129827
9.03227	120957
9.04038	115068
9.04852	106225
9.05663	109967
9.06475	110166
9.07288	106024
9.08100	113787
9.08913	120419
9.09725	139265
9.10537	172972
9.11350	204844
9.12162	221459
9.12973	198806
9.13787	177248
9.14598	155815
9.15412	131489
9.16223	120579
9.17035	112996
9.17848	105026
9.18660	98235
9.19473	97659
9.20285	101002
9.21097	94459
9.21910	95692
9.22722	93088
9.23535	92982
9.24347	89718
9.25158	93805
9.25972	88492
9.26783	91797
9.27595	89724
9.28408	88190
9.29220	88039
9.30033	90253
9.30845	84670
9.31657	90834
9.32470	87112
9.33282	87394
9.34095	87089
9.34907	86796
9.35718	86348
9.36532	83200
9.37343	82341
9.38157	83494
9.38968	84860
9.39780	96857
9.40593	118199
9.41405	150517
9.42217	205829
9.43030	260223
9.43842	299497
9.44655	305309
9.45467	265592
9.46278	214138
9.47092	172234
9.47903	127209
9.48717	105389
9.49528	103337
9.50340	101645
9.51153	113289
9.51965	133591
9.52777	144698
9.53590	141434
9.54402	126368
9.55215	112003
9.56027	95698
9.56838	82627
9.57652	76691
9.58463	78898
9.59277	81105
9.60088	75006
9.60900	67960
9.61713	68055
9.62525	61531
9.63338	62668
9.64150	70775
9.64962	70285
9.65775	68816
9.66587	65896
9.67398	61355
9.68212	54726
9.69023	54701
9.69837	49827
9.70648	52187
9.71460	50589
9.72273	49287
9.73085	48291
9.73898	48082
9.74710	44839
9.75522	43516
9.76335	44356
9.77147	43782
9.77958	42027
9.78772	43672
9.79583	48728
9.80397	47085
9.81208	47032
9.82020	42011
9.82833	42864
9.83645	47127
9.84458	46390
9.85270	43495
9.86082	44165
9.86895	47826
9.87707	50193
9.88520	48860
9.89332	48351
9.90143	53110
9.90957	50838
9.91768	49693
9.92580	60861
9.93393	82650
9.94205	117534
9.95018	155026
9.95830	176793
9.96642	172285
9.97455	151475
9.98267	122901
9.99080	93023
9.99892	81340
10.00703	75118
10.01517	66350
10.02328	66807
10.03142	60122
10.03953	55717
10.04765	54377
10.05578	56005
10.06390	56468
10.07202	58995
10.08015	56605
10.08827	58888
10.09640	58692
10.10452	53350
10.11263	56306
10.12077	53393
10.12888	52148
10.13702	51886
10.14513	53283
10.15325	54347
10.16138	53878
10.16950	46568
10.17762	49532
10.18575	49032
10.19387	44265
10.20200	48674
10.21012	48604
10.21823	48618
10.22637	57090
10.23448	58254
10.24262	65913
10.25073	79373
10.25885	122835
10.26698	263122
10.27510	601236
10.28323	1221028
10.29135	2033117
10.29947	2987346
10.30760	4104430
10.31572	5830686
10.32383	8250364
10.33197	1.033458E+07
10.34008	1.076296E+07
10.34822	9196057
10.35633	6901688
10.36445	5229537
10.37258	4266549
10.38070	3469377
10.38883	2539160
10.39695	1679105
10.40507	1084173
10.41320	707468
10.42132	507848
10.42945	440594
10.43757	435695
10.44568	440206
10.45382	445466
10.46193	433842
10.47005	411670
10.47818	370525
10.48630	330417
10.49443	300340
10.50255	282309
10.51067	251660
10.51880	233459
10.52692	226084
10.53505	217021
10.54317	202878
10.55128	194179
10.55942	190518
10.56753	193315
10.57565	190541
10.58378	188292
10.59190	171537
10.60003	163623
10.60815	155044
10.61627	148057
10.62440	139814
10.63252	138291
10.64065	132607
10.64877	123656
10.65688	130128
10.66502	118188
10.67313	112128
10.68127	111837
10.68938	109466
10.69750	118948
10.70563	114082
10.71375	120833
10.72187	121746
10.73000	117690
10.73812	116052
10.74625	110781
10.75437	102963
10.76248	98513
10.77062	99459
10.77873	96666
10.78687	95979
10.79498	104994
10.80310	105980
10.81123	112854
10.81935	116634
10.82747	113483
10.83560	98979
10.84372	93953
10.85185	81376
10.85997	84284
10.86808	82217
10.87622	74451
10.88433	72296
10.89247	76209
10.90058	73538
10.90870	75172
10.91683	74223
10.92495	71914
10.93308	72373
10.94120	72428
10.94932	66621
10.95745	62908
10.96557	67551
10.97368	73457
10.98182	72479
10.98993	78688
10.99807	83839
11.00618	85546
11.01430	87608
11.02243	84237
11.03055	79437
11.03868	66228
11.04680	68495
11.05492	67446
11.06305	69110
11.07117	78497
11.07930	84183
11.08742	88330
11.09553	93081
11.10367	93473
11.11178	84527
11.11990	76000
11.12803	71015
11.13615	60139
11.14428	58820
11.15240	62942
11.16052	62973
11.16865	69321
11.17677	65891
11.18490	67975
11.19302	67262
11.20113	67248
11.20927	66365
11.21738	63893
11.22550	56183
11.23363	54458
11.24175	53323
11.24988	47644
11.25800	42715
11.26612	47948
11.27425	50919
11.28237	53953
11.29050	78392
11.29862	142315
11.30673	312260
11.31487	692681
11.32298	1372183
11.33112	2223738
11.33923	2933128
11.34735	3182572
11.35548	2866815
11.36360	2217471
11.37172	1474789
11.37985	947973
11.38797	653150
11.39610	507791
11.40422	434984
11.41233	418414
11.42047	384292
11.42858	344714
11.43672	298351
11.44483	275787
11.45295	243823
11.46108	223434
11.46920	216543
11.47733	226881
11.48545	267749
11.49357	300595
11.50170	312680
11.50982	286065
11.51793	245735
11.52607	211242
11.53418	180977
11.54232	169661
11.55043	161527
11.55855	160738
11.56668	157206
11.57480	156055
11.58293	151412
11.59105	146421
11.59917	159082
11.60730	173840
11.61542	198161
11.62353	203604
11.63167	177057
11.63978	155515
11.64792	129295
11.65603	108622
11.66415	102176
11.67228	100370
11.68040	97238
11.68853	103726
11.69665	109504
11.70477	103458
11.71290	104518
11.72102	102642
11.72915	93555
11.73727	84728
11.74538	82331
11.75352	75994
11.76163	73186
11.76975	71120
11.77788	71078
11.78600	66113
11.79413	62506
11.80225	65075
11.81037	59451
11.81850	62626
11.82662	64572
11.83475	66918
11.84287	64624
11.85098	66558
11.85912	69049
11.86723	67187
11.87537	63872
11.88348	62204
11.89160	61107
11.89973	53778
11.90785	58262
11.91597	59022
11.92410	64807
11.93222	62549
11.94035	61541
11.94847	57805
11.95658	59242
11.96472	58370
11.97283	58579
11.98097	71348
11.98908	101004
11.99720	137033
12.00533	177015
12.01345	195306
12.02157	176673
12.02970	162750
12.03782	111340
12.04595	92532
12.05407	81486
12.06218	75462
12.07032	83627
12.07843	92591
12.08657	96201
12.09468	104224
12.10280	112000
12.11093	119980
12.11905	135372
12.12718	156861
12.13530	166753
12.14342	167352
12.15155	150768
12.15967	117378
12.16778	90167
12.17592	75055
12.18403	66696
12.19217	65679
12.20028	62602
12.20840	66151
12.21653	69133
12.22465	62112
12.23278	60547
12.24090	62559
12.24902	64911
12.25715	64554
12.26527	68992
12.27338	63521
12.28152	58434
12.28963	56246
12.29777	51054
12.30588	52805
12.31400	51678
12.32213	50678
12.33025	49068
12.33838	47444
12.34650	49598
12.35462	49197
12.36275	49929
12.37087	47081
12.37900	50605
12.38712	53810
12.39523	60608
12.40337	75144
12.41148	90909
12.41960	113452
12.42773	116012
12.43585	114926
12.44398	100354
12.45210	95698
12.46022	83556
12.46835	73729
12.47647	72361
12.48460	70816
12.49272	69648
12.50083	63155
12.50897	59525
12.51708	61664
12.52522	63836
12.53333	71216
12.54145	93113
12.54958	111622
12.55770	145488
12.56582	169145
12.57395	161983
12.58207	141092
12.59020	110516
12.59832	102781
12.60643	87481
12.61457	81212
12.62268	72876
12.63082	70949
12.63893	68827
12.64705	62676
12.65518	52648
12.66330	54257
12.67142	54826
12.67955	55207
12.68767	53695
12.69580	49662
12.70392	53894
12.71203	50861
12.72017	53073
12.72828	53274
12.73642	57366
12.74453	60034
12.75265	54156
12.76078	50223
12.76890	49109
12.77703	48305
12.78515	43583
12.79327	43506
12.80140	45288
12.80952	41298
12.81763	39952
12.82577	40381
12.83388	40740
12.84202	38631
12.85013	40363
12.85825	38758
12.86638	38252
12.87450	35729
12.88263	39134
12.89075	38839
12.89887	37718
12.90700	44443
12.91512	39567
12.92325	35585
12.93137	35940
12.93948	37916
12.94762	46111
12.95573	45966
12.96385	59167
12.97198	79547
12.98010	88861
12.98823	91691
12.99635	84210
13.00447	75324
13.01260	64778
13.02072	58852
13.02885	53930
13.03697	53419
13.04508	50630
13.05322	46573
13.06133	41168
13.06945	49290
13.07758	44774
13.08570	43776
13.09383	41351
13.10195	41776
13.11007	38133
13.11820	45775
13.12632	38275
13.13445	40376
13.14257	41082
13.15068	38126
13.15882	38825
13.16693	45333
13.17507	46245
13.18318	43978
13.19130	46827
13.19943	46969
13.20755	48519
13.21567	52939
13.22380	53326
13.23192	48262
13.24005	46826
13.24817	47991
13.25628	45646
13.26442	45479
13.27253	42728
13.28067	42371
13.28878	42685
13.29690	37878
13.30503	39112
13.31315	36646
13.32127	35997
13.32940	37427
13.33752	38258
13.34565	39482
13.35377	36580
13.36188	39350
13.37002	39804
13.37813	32382
13.38627	35072
13.39438	40023
13.40250	35654
13.41063	37841
13.41875	36898
13.42688	31473
13.43500	33892
13.44312	39053
13.45125	38988
13.45937	41730
13.46748	42759
13.47562	43077
13.48373	41160
13.49187	41166
13.49998	42989
13.50810	40448
13.51623	40581
13.52435	42258
13.53248	39015
13.54060	37686
13.54872	41381
13.55685	37056
13.56497	40166
13.57310	45086
13.58122	46358
13.58933	60346
13.59747	76967
13.60558	106819
13.61370	139413
13.62183	168530
13.62995	165087
13.63808	140602
13.64620	108638
13.65432	74635
13.66245	61303
13.67057	52948
13.67870	46483
13.68682	43130
13.69493	42958
13.70307	41542
13.71118	41006
13.71932	44523
13.72743	51466
13.73555	90354
13.74368	172364
13.75180	374055
13.75992	700167
13.76805	1129063
13.77617	1480914
13.78430	1556676
13.79242	1372477
13.80053	1080548
13.80867	884381
13.81678	800469
13.82492	850519
13.83303	905018
13.84115	876143
13.84928	817523
13.85740	680823
13.86552	519301
13.87365	408039
13.88177	318338
13.88990	251910
13.89802	223902
13.90613	188026
13.91427	177675
13.92238	157224
13.93052	147243
13.93863	135575
13.94675	128000
13.95488	131726
13.96300	129280
13.97113	126889
13.97925	127706
13.98737	125337
13.99550	129005
14.00362	118912
14.01173	121955
14.01987	104236
14.02798	102972
14.03612	95981
14.04423	99023
14.05235	96068
14.06048	94836
14.06860	92297
14.07673	90824
14.08485	87290
14.09297	87870
14.10110	85105
14.10922	80068
14.11733	85139
14.12547	81881
14.13358	84608
14.14172	93675
14.14983	101370
14.15795	106827
14.16608	133796
14.17420	186487
14.18233	275731
14.19045	402306
14.19857	505826
14.20670	557524
14.21482	522982
14.22295	411901
14.23107	327125
14.23918	260209
14.24732	223554
14.25543	210199
14.26355	186395
14.27168	168222
14.27980	144735
14.28793	131761
14.29605	131962
14.30417	112908
14.31230	104972
14.32042	99869
14.32855	100754
14.33667	93589
14.34478	88320
14.35292	80090
14.36103	74724
14.36917	69168
14.37728	64982
14.38540	76789
14.39353	122606
14.40165	199651
14.40977	331969
14.41790	446257
14.42602	485232
14.43415	436150
14.44227	332818
14.45038	222750
14.45852	165042
14.46663	132726
14.47477	116383
14.48288	108460
14.49100	102441
14.49913	102298
14.50725	87103
14.51537	87217
14.52350	84501
14.53162	84663
14.53975	72599
14.54787	74980
14.55598	67737
14.56412	71002
14.57223	59737
14.58037	55382
14.58848	54857
14.59660	52704
14.60473	52128
14.61285	51062
14.62098	49954
14.62910	50396
14.63722	47940
14.64535	52919
14.65347	49773
14.66158	46902
14.66972	46776
14.67783	47413
14.68597	45082
14.69408	47253
14.70220	48009
14.71033	50241
14.71845	52529
14.72658	51725
14.73470	56752
14.74282	58706
14.75095	58592
14.75907	59114
14.76720	57798
14.77532	68831
14.78343	84205
14.79157	158658
14.79968	380822
14.80780	866870
14.81593	1791320
14.82405	2808317
14.83218	3492799
14.84030	3429142
14.84842	2792806
14.85655	1884789
14.86467	1131914
14.87280	701311
14.88092	472453
14.88903	342790
14.89717	280328
14.90528	249495
14.91340	216543
14.92153	206190
14.92965	191874
14.93778	176241
14.94590	159746
14.95402	155758
14.96215	136467
14.97027	133838
14.97840	125607
14.98652	123596
14.99463	116642
15.00277	121567
15.01088	108903
15.01902	117297
15.02713	111360
15.03525	110802
15.04338	106130
15.05150	96668
15.05962	98808
15.06775	87888
15.07587	84727
15.08400	84048
15.09212	80751
15.10023	74538
15.10837	74770
15.11648	74383
15.12462	82903
15.13273	89490
15.14085	88334
15.14898	91954
15.15710	89472
15.16522	76772
15.17335	69225
15.18147	66980
15.18960	67371
15.19772	60333
15.20583	53447
15.21397	53743
15.22208	53259
15.23022	52213
15.23833	53497
15.24645	52664
15.25458	46751
15.26270	46934
15.27083	47436
15.27895	46843
15.28707	46376
15.29520	46813
15.30332	45546
15.31143	47559
15.31957	41134
15.32768	42319
15.33582	43612
15.34393	40389
15.35205	42828
15.36018	39294
15.36830	41073
15.37643	42095
15.38455	40920
15.39267	42732
15.40080	42034
15.40892	42816
15.41705	43986
15.42517	42959
15.43328	43935
15.44142	47922
15.44953	54002
15.45765	70475
15.46578	98268
15.47390	160737
15.48203	268348
15.49015	416109
15.49827	535420
15.50640	566915
15.51452	576880
15.52265	575761
15.53077	626030
15.53888	691421
15.54702	764037
15.55513	771722
15.56325	667707
15.57138	504228
15.57950	362876
15.58763	253351
15.59575	187837
15.60387	146139
15.61200	127119
15.62012	110061
15.62825	95223
15.63637	92841
15.64448	83514
15.65262	76651
15.66073	77431
15.66887	71253
15.67698	69036
15.68510	65548
15.69323	63341
15.70135	57927
15.70947	58838
15.71760	57747
15.72572	61906
15.73385	57852
15.74197	61650
15.75008	73991
15.75822	105897
15.76633	165605
15.77447	239043
15.78258	306189
15.79070	353925
15.79883	333019
15.80695	268227
15.81508	204367
15.82320	147336
15.83132	109843
15.83945	91943
15.84757	81280
15.85568	76918
15.86382	73332
15.87193	73112
15.88007	71839
15.88818	69296
15.89630	65499
15.90443	60789
15.91255	63993
15.92068	57465
15.92880	60119
15.93692	62455
15.94505	64133
15.95317	73773
15.96128	85662
15.96942	102076
15.97753	101900
15.98567	108645
15.99378	101882
16.00190	91742
16.01003	84335
16.01815	85797
16.02628	81663
16.03440	78765
16.04252	79112
16.05065	68377
16.05877	64587
16.06690	61616
16.07502	56916
16.08313	57140
16.09127	51019
16.09938	55476
16.10750	54051
16.11563	58980
16.12375	63851
16.13188	66268
16.14000	74545
16.14812	80797
16.15625	78374
16.16437	75011
16.17250	67282
16.18062	63252
16.18873	62665
16.19687	58137
16.20498	54219
16.21312	51271
16.22123	54924
16.22935	49987
16.23748	50050
16.24560	47350
16.25372	46905
16.26185	47675
16.26997	48609
16.27810	56289
16.28622	67159
16.29433	68637
16.30247	74850
16.31058	72304
16.31872	71542
16.32683	64829
16.33495	59678
16.34308	57288
16.35120	69381
16.35932	75158
16.36745	95917
16.37557	102637
16.38370	106485
16.39182	97337
16.39993	81527
16.40807	67420
16.41618	61594
16.42432	60228
16.43243	58486
16.44055	64514
16.44868	91426
16.45680	160136
16.46493	259179
16.47305	384731
16.48117	475741
16.48930	465016
16.49742	412409
16.50553	296373
16.51367	202141
16.52178	138347
16.52992	103855
16.53803	89349
16.54615	82697
16.55428	76638
16.56240	73876
16.57053	73144
16.57865	80173
16.58677	81575
16.59490	86952
16.60302	98170
16.61113	107768
16.61927	117318
16.62738	105618
16.63552	96481
16.64363	82436
16.65175	70922
16.65988	67410
16.66800	62258
16.67613	59861
16.68425	57264
16.69237	57765
16.70050	59214
16.70862	53198
16.71675	49387
16.72487	49410
16.73298	56305
16.74112	49183
16.74923	49838
16.75735	52880
16.76548	56780
16.77360	54019
16.78173	52820
16.78985	46696
16.79797	46213
16.80610	45699
16.81422	43928
16.82235	49515
16.83047	45715
16.83858	42080
16.84672	43330
16.85483	41308
16.86297	45736
16.87108	42148
16.87920	42728
16.88733	37612
16.89545	40159
16.90357	44301
16.91170	39643
16.91982	45084
16.92795	39287
16.93607	40196
16.94418	38299
16.95232	39181
16.96043	39581
16.96857	38522
16.97668	42402
16.98480	43745
16.99293	45674
17.00105	45545
17.00917	49615
17.01730	50438
17.02542	51606
17.03355	53401
17.04167	56195
17.04978	53739
17.05792	54808
17.06603	54859
17.07417	52600
17.08228	50943
17.09040	47471
17.09853	50515
17.10665	50971
17.11478	49153
17.12290	52371
17.13102	54395
17.13915	57646
17.14727	60095
17.15538	56850
17.16352	53791
17.17163	56486
17.17977	51735
17.18788	53917
17.19600	44649
17.20413	46975
17.21225	43524
17.22038	43544
17.22850	46206
17.23662	43153
17.24475	44246
17.25287	45682
17.26100	42393
17.26912	45481
17.27723	39366
17.28537	44605
17.29348	40887
17.30160	39345
17.30973	40836
17.31785	52501
17.32598	58487
17.33410	64923
17.34222	71952
17.35035	76887
17.35847	74850
17.36660	78087
17.37472	68187
17.38283	69537
17.39097	64566
17.39908	70509
17.40720	73180
17.41533	74871
17.42345	78969
17.43158	73736
17.43970	74975
17.44782	72011
17.45595	69688
17.46407	59593
17.47220	53959
17.48032	52541
17.48843	51162
17.49657	48416
17.50468	49004
17.51282	45601
17.52093	47306
17.52905	50594
17.53718	48591
17.54530	52826
17.55342	66564
17.56155	94931
17.56967	162757
17.57780	305799
17.58592	531969
17.59403	833419
17.60217	1150210
17.61028	1265473
17.61842	1129079
17.62653	897116
17.63465	627143
17.64278	428472
17.65090	315708
17.65902	239799
17.66715	202011
17.67527	178051
17.68340	152498
17.69152	139841
17.69963	128476
17.70777	119285
17.71588	113055
17.72402	110931
17.73213	100643
17.74025	90150
17.74838	93341
17.75650	96797
17.76463	81108
17.77275	82863
17.78087	76694
17.78900	76192
17.79712	79293
17.80523	93041
17.81337	107036
17.82148	127859
17.82962	144183
17.83773	152951
17.84585	155569
17.85398	138470
17.86210	133711
17.87023	128720
17.87835	112567
17.88647	97234
17.89460	90567
17.90272	80388
17.91085	67603
17.91897	68106
17.92708	59110
17.93522	57772
17.94333	57456
17.95145	55173
17.95958	52427
17.96770	51341
17.97583	50506
17.98395	51262
17.99207	52966
18.00020	54372
18.00832	61819
18.01645	68875
18.02457	90219
18.03268	100674
18.04082	121428
18.04893	155761
18.05707	233532
18.06518	459506
18.07330	874707
18.08143	1425944
18.08955	1930251
18.09767	2237673
18.10580	2064152
18.11392	1591479
18.12205	1117318
18.13017	790473
18.13828	586452
18.14642	467637
18.15453	385568
18.16267	336284
18.17078	298885
18.17890	266636
18.18703	249716
18.19515	228578
18.20327	210328
18.21140	194866
18.21952	180209
18.22765	164999
18.23577	159053
18.24388	154886
18.25202	135512
18.26013	139041
18.26827	126399
18.27638	109625
18.28450	96847
18.29263	80739
18.30075	73649
18.30888	61416
18.31700	59781
18.32512	53108
18.33325	58145
18.34137	55743
18.34948	55219
18.35762	61260
18.36573	54023
18.37387	54218
18.38198	53727
18.39010	58407
18.39823	58848
18.40635	64386
18.41448	72330
18.42260	92018
18.43072	108972
18.43885	136443
18.44697	162793
18.45508	200731
18.46322	256284
18.47133	319342
18.47947	359960
18.48758	379512
18.49570	342702
18.50383	271395
18.51195	222692
18.52008	163859
18.52820	119707
18.53632	107715
18.54445	91871
18.55257	85645
18.56070	79336
18.56882	72748
18.57693	73755
18.58507	73803
18.59318	77684
18.60130	92556
18.60943	97459
18.61755	101283
18.62568	108793
18.63380	104538
18.64192	107396
18.65005	94046
18.65817	89787
18.66630	85653
18.67442	83017
18.68253	101148
18.69067	119114
18.69878	124313
18.70690	142927
18.71503	148065
18.72315	155023
18.73128	153622
18.73940	145928
18.74752	153858
18.75565	153329
18.76377	152673
18.77190	156569
18.78002	156015
18.78813	164710
18.79627	157010
18.80438	161579
18.81252	153379
18.82063	160153
18.82875	157542
18.83688	151422
18.84500	152049
18.85312	156347
18.86125	156331
18.86937	158402
18.87750	160843
18.88562	159039
18.89373	164555
18.90187	157808
18.90998	151958
18.91812	159242
18.92623	148509
18.93435	153489
18.94248	159446
18.95060	159378
18.95873	157254
18.96685	154646
18.97497	153686
18.98310	154638
18.99122	147625
18.99933	145417
19.00747	144063
19.01558	142697
19.02372	137436
19.03183	137020
19.03995	132593
19.04808	145192
19.05620	164797
19.06433	224265
19.07245	376444
19.08057	655532
19.08870	1117226
19.09682	1615212
19.10495	1961343
19.11307	1922627
19.12118	1674883
19.12932	1245714
19.13743	847272
19.14555	572006
19.15368	413097
19.16180	306527
19.16993	255294
19.17805	230146
19.18617	201731
19.19430	191041
19.20242	175982
19.21055	170059
19.21867	160548
19.22678	151038
19.23492	147869
19.24303	138636
19.25115	131548
19.25928	122951
19.26740	130742
19.27553	133149
19.28365	130321
19.29177	139418
19.29990	136690
19.30802	135328
19.31615	135331
19.32427	131002
19.33238	130572
19.34052	124881
19.34863	144731
19.35677	154033
19.36488	185312
19.37300	199032
19.38113	209514
19.38925	195517
19.39737	177296
19.40550	159725
19.41362	134962
19.42175	131137
19.42987	121274
19.43798	116236
19.44612	112148
19.45423	115810
19.46237	119802
19.47048	132140
19.47860	162397
19.48673	219465
19.49485	311369
19.50297	393029
19.51110	410627
19.51922	380202
19.52735	308646
19.53547	239756
19.54358	190097
19.55172	160258
19.55983	144910
19.56797	129589
19.57608	120604
19.58420	113794
19.59233	106879
19.60045	97638
19.60858	93654
19.61670	92286
19.62482	101531
19.63295	109253
19.64107	130987
19.64918	178902
19.65732	234583
19.66543	290574
19.67357	329554
19.68168	349052
19.68980	337257
19.69793	322972
19.70605	285637
19.71418	250166
19.72230	212783
19.73042	188844
19.73855	164616
19.74667	151329
19.75480	145982
19.76292	146535
19.77103	157368
19.77917	182980
19.78728	209392
19.79540	235782
19.80353	252544
19.81165	255733
19.81978	226629
19.82790	197425
19.83602	173843
19.84415	173298
19.85227	294963
19.86040	639358
19.86852	1490089
19.87663	3129903
19.88477	5539703
19.89288	7890786
19.90100	9529312
19.90913	9690266
19.91725	8202378
19.92538	5993289
19.93350	3916335
19.94162	2518076
19.94975	1710219
19.95787	1339057
19.96600	1132879
19.97412	998236
19.98223	852769
19.99037	777397
19.99848	709165
20.00662	705207
20.01473	664345
20.02285	611074
20.03098	554975
20.03910	512779
20.04722	459615
20.05535	412362
20.06347	387790
20.07160	383009
20.07972	385345
20.08783	396886
20.09597	390115
20.10408	335506
20.11222	289268
20.12033	254050
20.12845	220107
20.13658	203879
20.14470	228332
20.15283	266290
20.16095	378438
20.16907	526732
20.17720	712012
20.18532	899460
20.19343	1023799
20.20157	1056628
20.20968	961768
20.21782	847312
20.22593	720286
20.23405	603382
20.24218	542001
20.25030	564920
20.25843	625694
20.26655	728529
20.27467	807661
20.28280	809442
20.29092	754720
20.29903	651955
20.30717	535497
20.31528	415322
20.32342	323312
20.33153	258442
20.33965	204210
20.34778	172727
20.35590	141601
20.36403	128372
20.37215	114594
20.38027	109439
20.38840	103276
20.39652	94263
20.40465	93283
20.41277	97727
20.42088	101158
20.42902	105155
20.43713	108086
20.44525	111548
20.45338	111920
20.46150	111433
20.46963	102215
20.47775	100340
20.48587	96108
20.49400	83149
20.50212	80573
20.51025	79070
20.51837	71994
20.52648	77450
20.53462	76411
20.54273	75445
20.55085	73134
20.55898	76732
20.56710	72446
20.57523	73716
20.58335	68918
20.59147	68931
20.59960	72445
20.60772	70663
20.61585	70869
20.62397	75598
20.63208	76780
20.64022	83751
20.64833	88297
20.65647	94127
20.66458	85387
20.67270	82125
20.68083	75433
20.68895	69944
20.69707	66532
20.70520	67666
20.71332	65006
20.72145	67006
20.72957	67101
20.73768	68905
20.74582	72131
20.75393	75695
20.76207	85004
20.77018	91066
20.77830	119178
20.78643	184278
20.79455	310159
20.80268	493782
20.81080	713296
20.81892	843681
20.82705	828602
20.83517	707398
20.84328	520364
20.85142	330373
20.85953	215937
20.86767	163064
20.87578	131357
20.88390	111589
20.89203	107826
20.90015	108081
20.90828	104498
20.91640	112721
20.92452	118042
20.93265	112533
20.94077	124442
20.94888	116497
20.95702	108804
20.96513	107165
20.97327	93633
20.98138	87766
20.98950	81309
20.99763	75651
21.00575	80575
21.01388	78086
21.02200	80891
21.03012	82212
21.03825	79020
21.04637	81286
21.05450	82943
21.06262	78041
21.07073	75812
21.07887	68380
21.08698	67762
21.09510	68984
21.10323	66929
21.11135	63340
21.11948	66744
21.12760	79632
21.13572	96084
21.14385	129071
21.15197	158918
21.16010	189201
21.16822	196433
21.17633	182396
21.18447	156078
21.19258	132145
21.20072	104517
21.20883	96738
21.21695	88671
21.22508	78664
21.23320	75220
21.24132	76497
21.24945	72575
21.25757	73663
21.26570	68967
21.27382	69351
21.28193	66359
21.29007	66233
21.29818	66508
21.30632	66959
21.31443	58428
21.32255	65921
21.33068	56936
21.33880	57418
21.34692	58739
21.35505	62353
21.36317	58377
21.37130	59360
21.37942	65977
21.38753	78249
21.39567	89247
21.40378	101595
21.41192	114220
21.42003	108396
21.42815	99394
21.43628	89523
21.44440	80152
21.45253	74128
21.46065	67765
21.46877	69138
21.47690	64110
21.48502	65451
21.49313	60966
21.50127	58209
21.50938	61935
21.51752	59095
21.52563	55492
21.53375	55146
21.54188	51695
21.55000	54144
21.55813	60508
21.56625	61139
21.57437	64955
21.58250	67949
21.59062	83761
21.59875	86255
21.60687	78959
21.61498	86576
21.62312	85056
21.63123	88599
21.63935	96856
21.64748	100750
21.65560	101407
21.66373	109861
21.67185	111853
21.67997	115276
21.68810	115586
21.69622	99189
21.70435	90817
21.71247	85336
21.72058	69369
21.72872	65900
21.73683	68782
21.74495	68985
21.75308	64199
21.76120	64573
21.76933	64343
21.77745	63598
21.78557	62915
21.79370	65521
21.80182	66629
21.80995	73988
21.81807	76201
21.82618	81476
21.83432	82141
21.84243	86652
21.85057	80546
21.85868	79362
21.86680	75225
21.87493	75854
21.88305	69114
21.89117	65668
21.89930	63426
21.90742	66052
21.91555	65112
21.92367	60933
21.93178	61469
21.93992	57330
21.94803	55142
21.95617	51316
21.96428	51715
21.97240	51247
21.98053	50988
21.98865	50567
21.99677	48501
22.00490	52047
22.01302	58278
22.02115	60514
22.02927	64181
22.03738	75216
22.04552	68113
22.05363	71053
22.06177	73116
22.06988	76656
22.07800	78445
22.08613	76798
22.09425	81348
22.10238	76902
22.11050	80464
22.11862	81778
22.12675	78972
22.13487	74517
22.14298	77294
22.15112	79620
22.15923	78571
22.16737	75866
22.17548	75627
22.18360	74505
22.19173	71845
22.19985	75392
22.20798	75267
22.21610	80357
22.22422	79881
22.23235	76784
22.24047	75149
22.24860	73159
22.25672	70857
22.26483	73902
22.27297	75232
22.28108	78640
22.28920	84674
22.29733	92373
22.30545	85905
22.31358	83024
22.32170	83095
22.32982	82100
22.33795	76741
22.34607	77857
22.35420	66801
22.36232	66982
22.37043	65677
22.37857	72279
22.38668	88438
22.39480	111624
22.40293	150135
22.41105	191149
22.41918	220287
22.42730	220758
22.43542	196911
22.44355	164901
22.45167	142263
22.45980	115820
22.46792	100535
22.47603	110378
22.48417	113339
22.49228	147942
22.50042	154075
22.50853	159197
22.51665	157709
22.52478	147268
22.53290	140602
22.54102	134063
22.54915	134295
22.55727	141119
22.56540	133567
22.57352	129090
22.58163	135299
22.58977	124701
22.59788	133420
22.60602	129263
22.61413	130726
22.62225	129052
22.63038	130979
22.63850	136670
22.64663	132415
22.65475	141913
22.66287	142845
22.67100	136767
22.67912	143980
22.68723	151909
22.69537	165271
22.70348	162152
22.71162	168418
22.71973	176491
22.72785	172608
22.73598	162141
22.74410	155626
22.75223	145236
22.76035	143538
22.76847	140373
22.77660	142185
22.78472	147745
22.79283	168685
22.80097	172438
22.80908	186802
22.81722	190608
22.82533	178015
22.83345	171925
22.84158	156911
22.84970	151201
22.85783	154735
22.86595	168448
22.87407	187831
22.88220	216840
22.89032	229220
22.89845	257126
22.90657	270566
22.91468	279724
22.92282	307657
22.93093	294399
22.93905	275594
22.94718	241540
22.95530	197866
22.96343	165722
22.97155	144469
22.97967	133248
22.98780	127153
22.99592	121396
23.00405	115737
23.01217	109923
23.02028	108315
23.02842	104429
23.03653	107269
23.04465	106493
23.05278	105394
23.06090	104244
23.06903	109193
23.07715	117286
23.08527	110867
23.09340	102453
23.10152	109590
23.10965	102558
23.11777	93902
23.12588	91711
23.13402	93206
23.14213	87493
23.15027	84994
23.15838	85317
23.16650	87366
23.17463	85080
23.18275	84143
23.19087	80819
23.19900	86864
23.20712	77090
23.21525	84516
23.22337	79906
23.23148	77323
23.23962	85480
23.24773	90348
23.25587	88767
23.26398	98319
23.27210	103916
23.28023	99996
23.28835	95642
23.29648	86586
23.30460	79283
23.31272	85975
23.32085	91445
23.32897	99459
23.33708	122996
23.34522	136913
23.35333	172246
23.36147	199275
23.36958	222230
23.37770	247563
23.38583	230012
23.39395	217986
23.40208	206503
23.41020	192471
23.41832	187985
23.42645	173460
23.43457	178652
23.44270	156841
23.45082	155438
23.45893	144381
23.46707	143873
23.47518	130057
23.48330	128407
23.49143	123507
23.49955	121440
23.50768	111872
23.51580	116757
23.52392	109077
23.53205	105893
23.54017	117176
23.54830	126058
23.55642	147494
23.56453	169344
23.57267	200280
23.58078	257307
23.58890	336828
23.59703	400065
23.60515	429112
23.61328	423524
23.62140	364277
23.62952	290196
23.63765	243402
23.64577	219434
23.65390	207592
23.66202	213913
23.67013	208411
23.67827	197743
23.68638	169072
23.69452	136271
23.70263	119422
23.71075	98565
23.71888	91713
23.72700	94303
23.73512	93279
23.74325	129370
23.75137	229428
23.75950	477080
23.76762	932860
23.77573	1667130
23.78387	2456722
23.79198	3063095
23.80012	3071841
23.80823	2627657
23.81635	2097915
23.82448	1655080
23.83260	1219645
23.84072	942128
23.84885	736449
23.85697	602202
23.86510	478722
23.87322	399879
23.88133	367646
23.88947	328690
23.89758	304788
23.90572	305464
23.91383	285976
23.92195	268493
23.93008	255002
23.93820	238361
23.94633	216608
23.95445	198411
23.96257	186371
23.97070	171208
23.97882	163064
23.98693	165270
23.99507	150163
24.00318	156807
24.01132	168518
24.01943	194383
24.02755	219445
24.03568	226952
24.04380	228265
24.05193	204510
24.06005	175552
24.06817	151191
24.07630	136965
24.08442	124495
24.09255	116938
24.10067	112728
24.10878	106857
24.11692	113438
24.12503	114217
24.13315	126572
24.14128	134367
24.14940	136372
24.15753	145503
24.16565	141396
24.17377	139564
24.18190	141260
24.19002	140503
24.19815	142766
24.20627	139807
24.21438	129749
24.22252	123635
24.23063	118295
24.23875	103993
24.24688	97870
24.25500	95167
24.26313	88363
24.27125	85013
24.27937	83511
24.28750	85252
24.29562	89620
24.30375	100745
24.31187	111096
24.31998	131800
24.32812	151697
24.33623	153355
24.34437	172112
24.35248	164800
24.36060	175494
24.36873	193111
24.37685	230918
24.38497	269118
24.39310	296745
24.40122	312733
24.40935	296608
24.41747	270653
24.42558	237387
24.43372	205413
24.44183	195995
24.44997	195794
24.45808	204912
24.46620	211529
24.47433	242410
24.48245	259694
24.49058	284233
24.49870	286904
24.50682	270797
24.51495	287151
24.52307	291473
24.53118	309804
24.53932	340248
24.54743	393458
24.55557	429693
24.56368	422674
24.57180	380929
24.57993	333457
24.58805	284488
24.59618	237983
24.60430	215599
24.61242	187314
24.62055	179881
24.62867	178780
24.63678	180314
24.64492	166322
24.65303	157589
24.66117	158994
24.66928	162398
24.67740	159964
24.68553	161473
24.69365	157554
24.70178	159399
24.70990	164151
24.71802	159652
24.72615	166719
24.73427	160262
24.74240	163019
24.75052	166373
24.75863	168472
24.76677	166473
24.77488	171051
24.78300	179013
24.79113	186949
24.79925	182889
24.80738	185451
24.81550	185075
24.82362	197883
24.83175	222612
24.83987	251647
24.84800	307886
24.85612	386485
24.86423	490342
24.87237	613940
24.88048	777793
24.88860	903187
24.89673	897148
24.90485	826008
24.91298	672723
24.92110	521610
24.92922	363185
24.93735	272879
24.94547	219549
24.95360	184363
24.96172	165745
24.96983	147363
24.97797	140318
24.98608	138522
24.99422	134070
25.00233	138423
25.01045	129598
25.01858	126547
25.02670	132067
25.03482	124466
25.04295	118106
25.05107	119548
25.05920	107556
25.06732	99054
25.07543	97365
25.08357	108421
25.09168	123866
25.09982	214032
25.10793	437678
25.11605	914844
25.12418	1807653
25.13230	2852790
25.14043	3770956
25.14855	4130564
25.15667	3955420
25.16480	3187517
25.17292	2182469
25.18103	1367076
25.18917	772720
25.19728	464633
25.20542	310625
25.21353	212414
25.22165	175717
25.22978	171163
25.23790	193887
25.24603	231822
25.25415	289487
25.26227	356599
25.27040	402180
25.27852	414856
25.28663	390912
25.29477	322540
25.30288	246438
25.31102	188533
25.31913	150277
25.32725	127512
25.33538	110616
25.34350	95612
25.35163	94358
25.35975	84874
25.36787	82693
25.37600	83468
25.38412	78267
25.39225	74404
25.40037	75736
25.40848	74551
25.41662	71350
25.42473	72687
25.43285	73964
25.44098	67262
25.44910	73794
25.45723	78672
25.46535	87498
25.47347	112957
25.48160	136254
25.48972	163927
25.49785	175194
25.50597	194980
25.51408	197749
25.52222	195757
25.53033	208864
25.53847	212921
25.54658	213578
25.55470	214355
25.56283	217210
25.57095	216318
25.57907	222198
25.58720	232054
25.59532	224765
25.60345	226849
25.61157	230473
25.61968	210800
25.62782	217724
25.63593	206732
25.64407	215636
25.65218	215174
25.66030	215012
25.66843	216295
25.67655	218569
25.68467	214848
25.69280	220201
25.70092	218684
25.70905	211454
25.71717	212307
25.72528	215247
25.73342	200135
25.74153	196096
25.74967	189194
25.75778	189737
25.76590	188884
25.77403	187252
25.78215	178868
25.79028	188148
25.79840	186390
25.80652	179004
25.81465	176005
25.82277	180160
25.83088	182829
25.83902	184059
25.84713	183890
25.85527	178586
25.86338	178268
25.87150	179122
25.87963	172194
25.88775	164885
25.89588	167991
25.90400	157769
25.91212	150524
25.92025	152160
25.92837	151139
25.93650	146073
25.94462	149226
25.95273	147381
25.96087	141752
25.96898	138751
25.97710	138252
25.98523	138423
25.99335	136545
26.00148	132175
26.00960	134757
26.01772	128812
26.02585	124271
26.03397	124550
26.04210	125671
26.05022	129128
26.05833	127135
26.06647	125678
26.07458	127223
26.08270	129022
26.09083	127947
26.09895	127530
26.10708	125596
26.11520	121144
26.12332	127865
26.13145	121493
26.13957	126279
26.14770	122657
26.15582	127318
26.16393	126955
26.17207	127167
26.18018	118511
26.18832	115553
26.19643	110686
26.20455	110771
26.21268	104380
26.22080	104585
26.22892	98580
26.23705	100170
26.24517	101168
26.25330	95009
26.26142	97771
26.26953	99366
26.27767	95864
26.28578	89647
26.29392	89039
26.30203	88266
26.31015	87641
26.31828	85681
26.32640	85770
26.33452	84694
26.34265	89745
26.35077	101365
26.35890	116881
26.36702	154040
26.37513	204678
26.38327	262653
26.39138	315888
26.39952	346788
26.40763	341449
26.41575	312667
26.42388	260886
26.43200	199072
26.44013	154688
26.44825	115108
26.45637	100280
26.46450	100435
26.47262	95554
26.48073	92710
26.48887	88787
26.49698	88954
26.50512	79820
26.51323	87161
26.52135	82942
26.52948	82553
26.53760	77134
26.54573	71772
26.55385	70559
26.56197	69839
26.57010	72808
26.57822	68191
26.58635	66753
26.59447	70968
26.60258	67281
26.61072	69326
26.61883	65266
26.62695	72188
26.63508	66305
26.64320	73866
26.65133	68757
26.65945	72599
26.66757	72397
26.67570	77883
26.68382	73366
26.69195	72875
26.70007	68514
26.70818	65926
26.71632	66506
26.72443	67137
26.73255	64590
26.74068	67213
26.74880	71655
26.75693	66609
26.76505	65543
26.77317	70030
26.78130	72600
26.78942	77148
26.79755	78275
26.80567	81689
26.81378	71602
26.82192	74611
26.83003	73218
26.83817	70682
26.84628	70997
26.85440	66527
26.86253	65365
26.87065	63240
26.87877	63719
26.88690	61546
26.89502	64781
26.90315	64360
26.91127	59927
26.91938	62573
26.92752	65612
26.93563	58156
26.94377	59454
26.95188	67004
26.96000	78642
26.96813	90751
26.97625	121729
26.98438	189627
26.99250	280687
27.00062	421473
27.00875	566075
27.01687	707110
27.02498	861381
27.03312	890335
27.04123	810174
27.04937	692046
27.05748	580333
27.06560	473462
27.07373	380112
27.08185	315755
27.08998	272684
27.09810	232254
27.10622	209330
27.11435	200465
27.12247	181095
27.13058	168551
27.13872	161657
27.14683	158561
27.15497	154479
27.16308	177347
27.17120	171074
27.17933	182285
27.18745	177457
27.19558	166218
27.20370	155083
27.21182	148885
27.21995	128129
27.22807	122702
27.23620	121157
27.24432	108773
27.25243	102173
27.26057	105219
27.26868	104575
27.27680	100038
27.28493	91864
27.29305	94378
27.30118	93878
27.30930	91893
27.31742	99666
27.32555	94196
27.33367	93304
27.34180	96523
27.34992	100372
27.35803	93071
27.36617	95232
27.37428	89256
27.38240	88032
27.39053	86602
27.39865	83249
27.40678	83909
27.41490	80323
27.42302	80108
27.43115	78641
27.43927	78338
27.44740	79317
27.45552	73157
27.46363	73359
27.47177	69535
27.47988	69223
27.48802	73442
27.49613	75325
27.50425	73829
27.51238	76006
27.52050	82787
27.52862	80932
27.53675	79091
27.54487	75936
27.55300	76828
27.56112	74473
27.56923	77794
27.57737	81940
27.58548	96474
27.59362	113368
27.60173	113794
27.60985	118554
27.61798	107753
27.62610	101077
27.63423	94782
27.64235	85907
27.65047	86320
27.65860	86509
27.66672	93619
27.67483	103454
27.68297	117616
27.69108	126090
27.69922	115350
27.70733	107603
27.71545	99246
27.72358	82986
27.73170	78503
27.73983	67044
27.74795	70280
27.75607	69953
27.76420	67212
27.77232	66197
27.78045	65579
27.78857	68807
27.79668	67074
27.80482	68237
27.81293	70392
27.82105	65335
27.82918	64552
27.83730	61548
27.84543	62775
27.85355	62655
27.86167	61074
27.86980	58887
27.87792	57352
27.88605	59574
27.89417	57747
27.90228	57444
27.91042	60280
27.91853	56124
27.92665	52690
27.93478	55795
27.94290	52959
27.95103	59274
27.95915	62356
27.96727	55804
27.97540	57252
27.98352	55519
27.99165	61458
27.99977	70275
28.00788	81487
28.01602	102341
28.02413	145543
28.03227	177850
28.04038	233740
28.04850	263775
28.05663	269623
28.06475	244897
28.07287	200970
28.08100	163751
28.08912	120499
28.09725	100952
28.10537	85979
28.11348	81371
28.12162	78696
28.12973	69554
28.13787	65330
28.14598	63604
28.15410	60488
28.16223	63420
28.17035	68256
28.17847	68783
28.18660	78704
28.19472	85636
28.20285	100647
28.21097	108971
28.21908	112557
28.22722	112463
28.23533	101770
28.24347	97195
28.25158	89096
28.25970	77834
28.26783	70744
28.27595	67486
28.28408	71832
28.29220	73954
28.30032	82731
28.30845	98540
28.31657	111345
28.32468	128009
28.33282	148285
28.34093	169825
28.34907	186685
28.35718	200158
28.36530	206739
28.37343	231553
28.38155	251423
28.38968	247938
28.39780	239911
28.40592	237420
28.41405	222198
28.42217	208926
28.43030	197053
28.43842	182023
28.44653	169174
28.45467	158300
28.46278	150970
28.47090	141694
28.47903	139527
28.48715	134231
28.49528	129928
28.50340	123402
28.51152	125025
28.51965	121761
28.52777	109884
28.53590	105500
28.54402	93555
28.55213	84681
28.56027	84389
28.56838	85850
28.57650	80363
28.58463	82338
28.59275	75514
28.60088	78020
28.60900	82908
28.61712	82901
28.62525	84962
28.63337	81801
28.64150	88767
28.64962	88846
28.65773	87749
28.66587	85042
28.67398	80572
28.68212	77162
28.69023	73146
28.69835	72961
28.70648	71835
28.71460	69946
28.72272	71528
28.73085	69111
28.73897	69559
28.74710	83165
28.75522	96027
28.76333	105058
28.77147	108091
28.77958	109506
28.78772	109276
28.79583	94443
28.80395	88934
28.81208	89157
28.82020	84253
28.82833	77485
28.83645	76697
28.84457	74399
28.85270	72882
28.86082	72837
28.86893	71520
28.87707	79952
28.88518	85099
28.89332	89091
28.90143	93773
28.90955	98520
28.91768	88673
28.92580	81000
28.93393	79954
28.94205	79787
28.95017	77724
28.95830	74991
28.96642	73905
28.97453	74147
28.98267	69937
28.99078	65104
28.99892	60325
29.00703	59254
29.01515	58532
29.02328	59594
29.03140	57718
29.03953	56802
29.04765	60291
29.05577	61512
29.06390	60697
29.07202	63133
29.08015	64026
29.08827	66473
29.09638	63779
29.10452	61176
29.11263	60214
29.12075	58331
29.12888	59836
29.13700	55535
29.14513	59295
29.15325	57805
29.16137	55322
29.16950	60065
29.17762	61596
29.18575	70918
29.19387	91232
29.20198	102947
29.21012	117291
29.21823	123313
29.22635	129762
29.23448	137727
29.24260	144426
29.25073	168572
29.25885	201203
29.26697	204192
29.27510	192814
29.28322	176061
29.29135	139274
29.29947	107884
29.30758	90808
29.31572	74789
29.32383	65125
29.33197	62304
29.34008	62796
29.34820	57872
29.35633	57876
29.36445	56540
29.37257	55114
29.38070	57313
29.38882	52423
29.39695	64321
29.40507	64433
29.41318	62411
29.42132	64421
29.42943	63526
29.43757	62861
29.44568	59723
29.45380	62550
29.46193	59196
29.47005	57499
29.47818	62243
29.48630	63428
29.49442	60008
29.50255	65561
29.51067	60232
29.51878	64173
29.52692	61158
29.53503	60170
29.54317	57762
29.55128	52973
29.55940	52835
29.56753	52847
29.57565	52033
29.58378	53908
29.59190	49450
29.60002	52837
29.60815	50776
29.61627	52350
29.62438	52415
29.63252	49902
29.64063	52219
29.64877	54643
29.65688	50838
29.66500	56305
29.67313	54247
29.68125	55799
29.68938	62488
29.69750	66593
29.70562	65133
29.71375	67254
29.72187	61549
29.73000	60017
29.73812	59324
29.74623	61056
29.75437	55818
29.76248	55169
29.77060	51707
29.77873	49583
29.78685	50349
29.79498	44587
29.80310	49509
29.81122	48902
29.81935	50866
29.82747	46597
29.83560	50752
29.84372	48780
29.85183	51336
29.85997	53523
29.86808	54886
29.87622	58399
29.88433	73292
29.89245	89708
29.90058	93996
29.90870	96510
29.91682	93704
29.92495	72640
29.93307	70428
29.94120	65493
29.94932	67053
29.95743	75513
29.96557	73388
29.97368	85471
29.98182	94823
29.98993	107086
29.99805	114978
30.00618	117763
30.01430	121183
30.02242	129424
30.03055	133018
30.03867	132758
30.04680	130969
30.05492	138402
30.06303	128096
30.07117	122803
30.07928	118841
30.08742	117097
30.09553	115050
30.10365	114179
30.11178	110372
30.11990	102798
30.12803	103435
30.13615	97693
30.14427	95538
30.15240	91415
30.16052	95624
30.16863	89161
30.17677	92366
30.18488	96123
30.19302	94009
30.20113	107972
30.20925	99492
30.21738	93181
30.22550	86555
30.23363	84106
30.24175	77639
30.24987	69667
30.25800	64462
30.26612	63645
30.27423	60310
30.28237	58798
30.29048	60260
30.29862	60597
30.30673	62526
30.31485	57156
30.32298	63092
30.33110	61894
30.33923	56767
30.34735	60364
30.35547	65255
30.36360	58479
30.37172	61903
30.37985	60030
30.38797	53915
30.39608	56711
30.40422	52516
30.41233	53570
30.42045	54085
30.42858	58208
30.43670	51138
30.44483	56881
30.45295	54200
30.46107	55225
30.46920	53036
30.47732	51167
30.48545	53584
30.49357	52645
30.50168	55787
30.50982	53382
30.51793	53883
30.52607	49887
30.53418	49839
30.54230	53623
30.55043	56969
30.55855	53807
30.56667	59996
30.57480	58452
30.58292	56007
30.59105	58547
30.59917	50802
30.60728	53713
30.61542	52647
30.62353	54870
30.63167	57050
30.63978	49378
30.64790	47708
30.65603	48213
30.66415	45697
30.67227	55325
30.68040	49526
30.68852	49991
30.69665	48788
30.70477	55700
30.71288	52969
30.72102	48174
30.72913	52007
30.73727	54865
30.74538	53257
30.75350	55342
30.76163	54108
30.76975	62548
30.77788	69089
30.78600	83065
30.79412	96955
30.80225	112316
30.81037	116741
30.81848	120122
30.82662	111378
30.83473	99924
30.84287	82364
30.85098	78358
30.85910	76555
30.86723	76749
30.87535	80893
30.88348	79485
30.89160	79274
30.89972	79200
30.90785	80062
30.91597	73732
30.92410	76252
30.93222	72873
30.94033	73428
30.94847	74330
30.95658	74997
30.96470	70371
30.97283	72151
30.98095	69593
30.98908	65769
30.99720	65012
31.00532	70097
31.01345	69565
31.02157	69163
31.02970	68157
31.03782	69453
31.04593	69800
31.05407	72699
31.06218	73522
31.07030	73349
31.07843	72052
31.08655	85701
31.09468	90540
31.10280	96752
31.11092	94944
31.11905	90568
31.12717	86670
31.13530	76660
31.14342	75507
31.15153	83680
31.15967	75643
31.16778	78350
31.17592	88045
31.18403	111684
31.19215	129545
31.20028	180105
31.20840	219577
31.21652	267842
31.22465	275065
31.23277	280493
31.24090	243098
31.24902	200872
31.25713	150981
31.26527	109424
31.27338	95731
31.28152	77157
31.28963	77321
31.29775	65477
31.30588	64995
31.31400	65754
31.32213	66908
31.33025	69099
31.33837	64338
31.34650	65212
31.35462	69239
31.36273	69767
31.37087	64504
31.37898	69920
31.38712	65405
31.39523	65819
31.40335	67305
31.41148	66188
31.41960	67610
31.42773	66806
31.43585	64865
31.44397	62537
31.45210	57790
31.46022	59330
31.46833	56708
31.47647	55213
31.48458	62623
31.49272	62722
31.50083	68938
31.50895	67913
31.51708	73453
31.52520	73672
31.53333	73454
31.54145	74835
31.54957	74391
31.55770	71245
31.56582	65505
31.57395	65413
31.58207	62491
31.59018	60568
31.59832	55842
31.60643	56823
31.61455	55237
31.62268	56087
31.63080	57014
31.63893	60164
31.64705	60864
31.65517	62987
31.66330	59444
31.67142	64592
31.67955	59675
31.68767	61958
31.69578	57895
31.70392	59036
31.71203	57145
31.72015	54834
31.72828	54061
31.73640	54538
31.74453	57756
31.75265	53107
31.76077	53465
31.76890	54725
31.77702	53840
31.78515	55309
31.79327	56548
31.80138	58507
31.80952	57356
31.81763	58099
31.82577	51293
31.83388	57987
31.84200	59927
31.85013	54745
31.85825	54496
31.86637	60284
31.87450	61193
31.88262	65019
31.89075	68550
31.89887	75475
31.90698	85832
31.91512	88749
31.92323	95860
31.93137	102588
31.93948	100834
31.94760	106345
31.95573	118779
31.96385	115480
31.97198	118316
31.98010	119801
31.98822	128054
31.99635	121179
32.00447	123372
32.01258	122754
32.02072	118729
32.02883	110487
32.03697	106852
32.04508	96590
32.05320	98488
32.06133	93433
32.06945	93914
32.07758	93244
32.08570	87741
32.09382	85738
32.10195	82946
32.11007	80207
32.11818	76408
32.12632	75824
32.13443	67458
32.14257	70342
32.15068	73496
32.15880	76082
32.16693	72950
32.17505	68674
32.18318	67070
32.19130	67836
32.19942	68411
32.20755	66497
32.21567	73050
32.22380	67215
32.23192	63817
32.24003	63390
32.24817	64431
32.25628	66219
32.26440	67997
32.27253	65915
32.28065	70052
32.28878	65259
32.29690	62719
32.30502	63005
32.31315	58945
32.32127	58844
32.32940	63382
32.33752	61535
32.34563	64093
32.35377	62790
32.36188	62908
32.37002	65106
32.37813	58246
32.38625	57899
32.39438	57831
32.40250	58205
32.41062	55489
32.41875	55300
32.42687	55017
32.43500	52637
32.44312	51340
32.45123	56609
32.45937	57484
32.46748	53867
32.47562	57149
32.48373	54631
32.49185	54648
32.49998	51859
32.50810	48264
32.51622	53060
32.52435	54034
32.53247	54297
32.54060	56925
32.54872	55193
32.55683	57709
32.56497	53359
32.57308	60564
32.58122	52947
32.58933	52730
32.59745	56040
32.60558	52285
32.61370	52585
32.62183	51513
32.62995	58132
32.63807	60241
32.64620	67822
32.65432	77516
32.66243	79799
32.67057	79190
32.67868	79191
32.68682	72578
32.69493	68493
32.70305	63058
32.71118	62803
32.71930	56210
32.72743	59951
32.73555	53871
32.74367	53354
32.75180	55325
32.75992	55244
32.76803	55727
32.77617	56260
32.78428	53333
32.79242	50607
32.80053	54218
32.80865	49881
32.81678	51230
32.82490	56237
32.83303	52604
32.84115	55505
32.84927	54519
32.85740	54362
32.86552	59123
32.87365	58631
32.88177	67277
32.88988	67691
32.89802	72482
32.90613	81915
32.91425	75902
32.92238	73055
32.93050	68409
32.93863	66466
32.94675	60766
32.95487	58893
32.96300	56513
32.97112	61993
32.97925	61985
32.98737	67939
32.99548	79132
33.00362	81794
33.01173	83536
33.01987	78986
33.02798	74224
33.03610	64931
33.04423	63234
33.05235	65766
33.06047	65295
33.06860	72772
33.07672	83029
33.08485	93939
33.09297	97726
33.10108	98810
33.10922	99946
33.11733	104382
33.12547	96723
33.13358	94006
33.14170	88003
33.14983	73522
33.15795	66508
33.16608	66540
33.17420	63239
33.18232	61980
33.19045	61061
33.19857	59693
33.20668	61101
33.21482	57433
33.22293	63559
33.23107	58919
33.23918	60829
33.24730	63610
33.25543	60386
33.26355	56849
33.27168	57322
33.27980	57264
33.28792	57994
33.29605	60525
33.30417	60980
33.31228	57288
33.32042	61129
33.32853	60254
33.33667	59270
33.34478	63385
33.35290	69435
33.36103	70375
33.36915	66001
33.37728	65652
33.38540	62760
33.39352	61308
33.40165	55823
33.40977	53443
33.41790	52871
33.42602	56366
33.43413	54739
33.44227	50254
33.45038	51027
33.45850	50823
33.46663	55376
33.47475	50362
33.48288	49936
33.49100	56252
33.49912	53531
33.50725	56611
33.51537	54158
33.52350	55277
33.53162	59206
33.53973	60333
33.54787	62408
33.55598	62538
33.56410	69688
33.57223	64617
33.58035	59777
33.58848	58930
33.59660	52840
33.60472	51824
33.61285	52817
33.62097	61372
33.62910	54613
33.63722	57433
33.64533	55201
33.65347	58297
33.66158	58643
33.66972	60738
33.67783	62738
33.68595	54183
33.69408	56015
33.70220	54626
33.71032	51439
33.71845	54471
33.72657	54612
33.73470	50163
33.74282	49910
33.75093	46138
33.75907	51130
33.76718	53766
33.77532	50574
33.78343	51314
33.79155	48881
33.79968	51026
33.80780	51759
33.81593	53262
33.82405	50806
33.83217	53422
33.84030	54407
33.84842	51936
33.85653	55348
33.86467	50798
33.87278	57395
33.88092	61685
33.88903	63633
33.89715	67868
33.90528	64916
33.91340	65800
33.92153	66332
33.92965	61951
33.93777	61988
33.94590	67195
33.95402	63211
33.96213	62966
33.97027	65218
33.97838	67400
33.98652	70004
33.99463	61996
34.00275	67802
34.01088	71515
34.01900	75006
34.02713	82011
34.03525	85383
34.04337	90744
34.05150	95050
34.05962	96203
34.06775	101667
34.07587	106099
34.08398	113221
34.09212	119426
34.10023	122920
34.10835	126075
34.11648	137255
34.12460	135706
34.13273	142738
34.14085	147567
34.14897	146523
34.15710	146382
34.16522	149747
34.17335	154820
34.18147	147604
34.18958	144492
34.19772	147500
34.20583	134368
34.21397	139670
34.22208	129625
34.23020	135124
34.23833	131798
34.24645	135728
34.25457	129559
34.26270	125815
34.27082	123122
34.27895	126266
34.28707	123832
34.29518	122186
34.30332	125872
34.31143	120713
34.31957	115722
34.32768	122605
34.33580	112911
34.34393	113294
34.35205	110426
34.36017	112062
34.36830	105592
34.37642	104489
34.38455	99783
34.39267	107041
34.40078	97380
34.40892	97409
34.41703	97602
34.42517	91459
34.43328	92380
34.44140	90986
34.44953	89286
34.45765	90137
34.46578	86556
34.47390	87447
34.48202	91219
34.49015	89190
34.49827	89752
34.50638	95322
34.51452	113432
34.52263	122067
34.53077	125678
34.53888	135576
34.54700	139831
34.55513	135512
34.56325	135247
34.57138	136606
34.57950	132837
34.58762	127284
34.59575	118657
34.60387	109712
34.61198	104773
34.62012	105790
34.62823	103696
34.63637	103825
34.64448	93655
34.65260	91959
34.66073	94261
34.66885	93426
34.67698	94115
34.68510	94726
34.69322	90163
34.70135	85513
34.70947	89813
34.71760	85468
34.72572	81456
34.73383	81158
34.74197	82098
34.75008	83285
34.75820	85500
34.76633	86161
34.77445	84520
34.78258	88492
34.79070	89682
34.79882	93389
34.80695	93548
34.81507	88610
34.82320	92176
34.83132	87739
34.83943	93593
34.84757	97218
34.85568	97779
34.86382	94860
34.87193	99608
34.88005	105918
34.88818	102988
34.89630	105375
34.90442	107518
34.91255	106819
34.92067	103609
34.92880	111479
34.93692	113708
34.94503	114030
34.95317	117138
34.96128	112384
34.96942	115941
34.97753	122042
34.98565	118282
34.99378	110575
35.00190	112418
35.01002	114723
35.01815	107975
35.02627	104301
35.03440	102288
35.04252	97747
35.05063	95543
35.05877	87544
35.06688	89596
35.07502	82870
35.08313	81282
35.09125	81137
35.09938	84587
35.10750	81074
35.11563	74776
35.12375	80535
35.13187	78259
35.14000	75577
35.14812	82685
35.15623	79336
35.16437	77876
35.17248	79454
35.18062	74798
35.18873	79277
35.19685	70929
35.20498	70327
35.21310	76476
35.22123	72564
35.22935	70374
35.23747	75467
35.24560	76644
35.25372	72781
35.26185	73474
35.26997	71229
35.27808	73492
35.28622	73812
35.29433	71332
35.30245	67138
35.31058	75345
35.31870	69101
35.32683	69097
35.33495	70124
35.34307	68111
35.35120	67895
35.35932	71315
35.36745	69045
35.37557	73968
35.38368	80973
35.39182	85980
35.39993	98378
35.40805	122315
35.41618	127500
35.42430	139269
35.43243	135613
35.44055	136611
35.44867	125444
35.45680	107225
35.46492	102138
35.47305	85776
35.48117	79451
35.48928	85817
35.49742	77467
35.50553	76782
35.51367	75486
35.52178	75895
35.52990	72606
35.53803	73985
35.54615	69042
35.55427	65653
35.56240	72439
35.57052	68267
35.57865	69942
35.58677	69387
35.59488	68749
35.60302	69396
35.61113	68714
35.61927	67427
35.62738	70977
35.63550	75178
35.64363	68859
35.65175	75025
35.65988	71148
35.66800	73825
35.67612	76661
35.68425	78226
35.69237	77663
35.70048	76484
35.70862	75899
35.71673	75331
35.72487	73695
35.73298	81466
35.74110	80681
35.74923	85087
35.75735	86970
35.76548	87797
35.77360	85400
35.78172	85517
35.78985	79988
35.79797	79355
35.80608	69613
35.81422	74899
35.82233	74412
35.83047	69852
35.83858	74877
35.84670	69292
35.85483	69115
35.86295	67488
35.87108	76036
35.87920	71530
35.88732	66635
35.89545	66900
35.90357	67587
35.91170	66302
35.91982	67192
35.92793	71452
35.93607	72754
35.94418	68922
35.95230	72090
35.96043	69564
35.96855	68700
35.97668	68221
35.98480	68006
35.99292	66858
36.00105	71370
36.00917	73883
36.01730	69623
36.02542	72775
36.03353	71250
36.04167	72867
36.04978	69124
36.05790	75314
36.06603	73995
36.07415	72604
36.08228	75221
36.09040	74283
36.09852	71948
36.10665	74680
36.11477	72600
36.12290	68095
36.13102	80811
36.13913	74934
36.14727	76408
36.15538	78170
36.16352	72406
36.17163	70967
36.17975	73725
36.18788	69995
36.19600	69605
36.20412	68584
36.21225	64641
36.22037	71244
36.22850	73133
36.23662	69415
36.24473	67727
36.25287	69659
36.26098	69090
36.26912	75070
36.27723	73191
36.28535	70063
36.29348	82830
36.30160	88716
36.30973	96471
36.31785	94960
36.32597	86859
36.33410	86146
36.34222	76904
36.35033	82566
36.35847	78483
36.36658	74524
36.37472	74200
36.38283	80486
36.39095	80349
36.39908	76434
36.40720	77563
36.41533	79586
36.42345	77907
36.43157	75177
36.43970	75037
36.44782	71744
36.45593	73185
36.46407	72493
36.47218	73220
36.48032	71101
36.48843	69932
36.49655	70395
36.50468	72165
36.51280	76741
36.52093	70359
36.52905	76682
36.53717	70812
36.54530	78935
36.55342	78385
36.56155	71037
36.56967	69827
36.57778	70964
36.58592	69185
36.59403	71056
36.60215	67105
36.61028	75968
36.61840	70870
36.62653	75089
36.63465	75907
36.64277	77336
36.65090	73128
36.65902	73697
36.66715	74943
36.67527	76078
36.68338	70579
36.69152	70485
36.69963	71228
36.70777	73383
36.71588	70808
36.72400	72433
36.73213	73880
36.74025	75697
36.74837	72452
36.75650	71978
36.76462	73198
36.77275	75498
36.78087	74598
36.78898	73247
36.79712	71266
36.80523	72500
36.81337	68651
36.82148	72020
36.82960	72398
36.83773	73390
36.84585	74045
36.85397	69492
36.86210	66012
36.87022	70624
36.87835	72373
36.88647	71407
36.89458	68607
36.90272	70492
36.91083	71095
36.91897	65170
36.92708	70775
36.93520	77455
36.94333	80887
36.95145	88139
36.95958	90907
36.96770	88957
36.97582	93800
36.98395	90728
36.99207	86637
37.00018	81261
37.00832	78042
37.01643	73255
37.02457	77862
37.03268	72284
37.04080	74738
37.04893	73319
37.05705	75438
37.06518	72510
37.07330	80269
37.08142	76818
37.08955	78666
37.09767	75666
37.10578	74474
37.11392	73779
37.12203	70291
37.13017	69519
37.13828	73303
37.14640	73376
37.15453	72063
37.16265	74195
37.17078	75223
37.17890	73372
37.18702	71644
37.19515	75501
37.20327	71497
37.21140	76584
37.21952	75788
37.22763	73132
37.23577	76705
37.24388	73222
37.25200	73714
37.26013	70997
37.26825	72116
37.27638	72454
37.28450	71664
37.29262	69899
37.30075	73003
37.30887	78161
37.31700	80725
37.32512	90959
37.33323	103049
37.34137	101196
37.34948	106541
37.35762	109635
37.36573	109987
37.37385	110256
37.38198	108452
37.39010	100088
37.39822	97284
37.40635	93937
37.41447	93775
37.42260	89793
37.43072	91079
37.43883	92795
37.44697	87744
37.45508	88834
37.46322	85643
37.47133	81140
37.47945	87549
37.48758	81812
