Z:\data\JTB-E02\BACandBLUE\JTB-E02-198-15.D Fri Feb 22 16:23:27 2019
Start of data points
2.09528,75829
2.10340,71946
2.11153,71113
2.11965,67999
2.12777,70429
2.13590,68772
2.14402,74077
2.15215,71428
2.16027,65356
2.16838,64440
2.17652,66434
2.18463,63972
2.19277,61899
2.20088,57764
2.20900,60572
2.21713,58265
2.22525,66510
2.23337,57233
2.24150,56035
2.24962,55601
2.25775,72225
2.26587,409223
2.27398,1259856
2.28212,1336356
2.29023,754208
2.29837,448806
2.30648,366350
2.31460,292892
2.32273,272702
2.33085,247655
2.33898,233646
2.34710,210712
2.35522,182139
2.36335,180830
2.37147,175215
2.37958,165143
2.38772,152808
2.39583,142752
2.40397,140757
2.41208,138007
2.42020,136833
2.42833,132080
2.43645,127027
2.44458,128851
2.45270,134268
2.46082,124394
2.46895,126150
2.47707,126461
2.48520,118477
2.49332,131134
2.50143,128813
2.50957,125802
2.51768,116769
2.52580,116791
2.53393,114077
2.54205,116578
2.55018,149623
2.55830,357407
2.56642,564151
2.57455,426382
2.58267,297430
2.59080,250401
2.59892,222980
2.60703,204294
2.61517,204111
2.62328,190449
2.63140,178187
2.63953,169819
2.64765,162621
2.65578,157707
2.66390,156172
2.67202,149402
2.68015,143174
2.68827,139996
2.69640,142768
2.70452,140224
2.71263,133201
2.72077,129904
2.72888,125583
2.73702,127239
2.74513,128928
2.75325,116941
2.76138,121961
2.76950,119669
2.77762,116928
2.78575,128693
2.79387,134913
2.80200,130629
2.81012,132081
2.81823,136668
2.82637,126329
2.83448,125433
2.84262,121993
2.85073,122857
2.85885,124213
2.86698,119084
2.87510,118945
2.88323,118016
2.89135,118987
2.89947,114929
2.90760,112064
2.91572,110336
2.92383,108883
2.93197,111427
2.94008,106662
2.94822,104372
2.95633,107967
2.96445,102213
2.97258,103557
2.98070,98802
2.98883,105008
2.99695,98827
3.00507,109070
3.01320,132397
3.02132,118624
3.02943,101481
3.03757,101243
3.04568,96309
3.05382,99310
3.06193,106232
3.07005,103934
3.07818,101803
3.08630,107380
3.09443,140855
3.10255,431751
3.11067,1425251
3.11880,2206629
3.12692,1790133
3.13505,1230131
3.14317,932584
3.15128,785316
3.15942,646639
3.16753,563931
3.17565,490038
3.18378,410239
3.19190,390172
3.20003,342896
3.20815,315864
3.21627,298644
3.22440,284840
3.23252,277088
3.24065,241164
3.24877,229400
3.25688,216037
3.26502,207997
3.27313,189447
3.28125,181940
3.28938,234667
3.29750,600329
3.30563,1898752
3.31375,4155022
3.32187,5546173
3.33000,4986614
3.33812,3611780
3.34625,2628115
3.35437,2060861
3.36248,1688930
3.37062,1475134
3.37873,1268709
3.38687,1163391
3.39498,1052948
3.40310,949988
3.41123,884728
3.41935,845453
3.42747,778716
3.43560,714713
3.44372,665534
3.45185,634444
3.45997,604000
3.46808,714250
3.47622,1003160
3.48433,1178613
3.49247,1006213
3.50058,798493
3.50870,636019
3.51683,548000
3.52495,498916
3.53308,457157
3.54120,423722
3.54932,387999
3.55745,364874
3.56557,342520
3.57368,334710
3.58182,320943
3.58993,320647
3.59807,315614
3.60618,308305
3.61430,309441
3.62243,324349
3.63055,319156
3.63868,326852
3.64680,309013
3.65492,301041
3.66305,283380
3.67117,287568
3.67930,289305
3.68742,289715
3.69553,281905
3.70367,273883
3.71178,274106
3.71990,264905
3.72803,255164
3.73615,249422
3.74428,242558
3.75240,242889
3.76052,242789
3.76865,230435
3.77677,235565
3.78490,233787
3.79302,244245
3.80113,293796
3.80927,498343
3.81738,1164196
3.82550,2063446
3.83363,2190201
3.84175,1645729
3.84988,1178674
3.85800,946188
3.86612,808931
3.87425,689399
3.88237,637046
3.89050,589472
3.89862,546727
3.90673,491364
3.91487,490094
3.92298,456472
3.93112,442496
3.93923,414449
3.94735,397374
3.95548,391269
3.96360,366890
3.97172,363355
3.97985,354891
3.98797,338566
3.99610,322162
4.00422,318935
4.01233,311485
4.02047,314181
4.02858,303971
4.03672,290013
4.04483,303958
4.05295,283656
4.06108,287194
4.06920,278799
4.07732,259704
4.08545,258820
4.09357,250045
4.10170,252247
4.10982,246658
4.11793,244129
4.12607,254522
4.13418,249279
4.14232,260497
4.15043,272006
4.15855,275190
4.16668,294194
4.17480,312364
4.18293,318013
4.19105,307525
4.19917,283926
4.20730,247395
4.21542,237907
4.22353,288713
4.23167,491429
4.23978,873679
4.24792,1100799
4.25603,984003
4.26415,740275
4.27228,560686
4.28040,466068
4.28853,391956
4.29665,349778
4.30477,317853
4.31290,287988
4.32102,271026
4.32915,255879
4.33727,251541
4.34538,238376
4.35352,229028
4.36163,225602
4.36975,212794
4.37788,218402
4.38600,205328
4.39413,215923
4.40225,203679
4.41037,203874
4.41850,203388
4.42662,189961
4.43475,188829
4.44287,190117
4.45098,182992
4.45912,178236
4.46723,178726
4.47535,185091
4.48348,195033
4.49160,188295
4.49973,189713
4.50785,198476
4.51597,215309
4.52410,219349
4.53222,216613
4.54035,207640
4.54847,201778
4.55658,188684
4.56472,187201
4.57283,182434
4.58097,183789
4.58908,180882
4.59720,178405
4.60533,169172
4.61345,173099
4.62157,172988
4.62970,166588
4.63782,170198
4.64595,176101
4.65407,171436
4.66218,162937
4.67032,172963
4.67843,179856
4.68657,182214
4.69468,172694
4.70280,169474
4.71093,151464
4.71905,154943
4.72718,149459
4.73530,147313
4.74342,146178
4.75155,147868
4.75967,145514
4.76778,140955
4.77592,151643
4.78403,148701
4.79217,156069
4.80028,159156
4.80840,169729
4.81653,191163
4.82465,206113
4.83278,206002
4.84090,215042
4.84902,236043
4.85715,256017
4.86527,243834
4.87338,215200
4.88152,185846
4.88963,176607
4.89777,176704
4.90588,185030
4.91400,176916
4.92213,166465
4.93025,159302
4.93838,161953
4.94650,188112
4.95462,327704
4.96275,742759
4.97087,1606915
4.97900,2608919
4.98712,3137861
4.99523,2904939
5.00337,2260710
5.01148,1663738
5.01960,1252408
5.02773,1005793
5.03585,848852
5.04398,755261
5.05210,681347
5.06022,611167
5.06835,537769
5.07647,496382
5.08460,461472
5.09272,403330
5.10083,396315
5.10897,362446
5.11708,349482
5.12520,336485
5.13333,334314
5.14145,334666
5.14958,342477
5.15770,337452
5.16582,344168
5.17395,331711
5.18207,320981
5.19020,329805
5.19832,351283
5.20643,383463
5.21457,370253
5.22268,347955
5.23082,312961
5.23893,309807
5.24705,298499
5.25518,299003
5.26330,299995
5.27142,282232
5.27955,264043
5.28767,252340
5.29580,248205
5.30392,244833
5.31203,247151
5.32017,231597
5.32828,239249
5.33642,252983
5.34453,294483
5.35265,349589
5.36078,379348
5.36890,351884
5.37703,322044
5.38515,290919
5.39327,262683
5.40140,245365
5.40952,243608
5.41763,248361
5.42577,234124
5.43388,252855
5.44202,308593
5.45013,398990
5.45825,499084
5.46638,505848
5.47450,442973
5.48263,385742
5.49075,345085
5.49887,308476
5.50700,294751
5.51512,324967
5.52323,392248
5.53137,494024
5.53948,550360
5.54762,540361
5.55573,455348
5.56385,355415
5.57198,305842
5.58010,275449
5.58823,267126
5.59635,258374
5.60447,265024
5.61260,266354
5.62072,258987
5.62885,250229
5.63697,246797
5.64508,248447
5.65322,245801
5.66133,236836
5.66945,227332
5.67758,223925
5.68570,224158
5.69383,225310
5.70195,253871
5.71007,280391
5.71820,278052
5.72632,266057
5.73445,245380
5.74257,222309
5.75068,221932
5.75882,208301
5.76693,197363
5.77507,200719
5.78318,192702
5.79130,197693
5.79943,196052
5.80755,186177
5.81567,191934
5.82380,192926
5.83192,182375
5.84005,182504
5.84817,184117
5.85628,185909
5.86442,184041
5.87253,179846
5.88067,183032
5.88878,176523
5.89690,165446
5.90503,169066
5.91315,159712
5.92127,148440
5.92940,132766
5.93752,128633
5.94565,135373
5.95377,139291
5.96188,138452
5.97002,136740
5.97813,143780
5.98627,141233
5.99438,148443
6.00250,152574
6.01063,149903
6.01875,142589
6.02688,139534
6.03500,142448
6.04312,128970
6.05125,128099
6.05937,135477
6.06748,134576
6.07562,142510
6.08373,134398
6.09187,137166
6.09998,131401
6.10810,124684
6.11623,127225
6.12435,130976
6.13248,125761
6.14060,125398
6.14872,127940
6.15685,131393
6.16497,132116
6.17308,147076
6.18122,147624
6.18933,150108
6.19747,153225
6.20558,162197
6.21370,150148
6.22183,147674
6.22995,147390
6.23808,150102
6.24620,153193
6.25432,161308
6.26245,164582
6.27057,167218
6.27870,168801
6.28682,173072
6.29493,173333
6.30307,176354
6.31118,175437
6.31930,168748
6.32743,179096
6.33555,171800
6.34368,173967
6.35180,181153
6.35992,180830
6.36805,180362
6.37617,188062
6.38430,191658
6.39242,201545
6.40053,201926
6.40867,190805
6.41678,195743
6.42492,204410
6.43303,197162
6.44115,208744
6.44928,200355
6.45740,213637
6.46552,213471
6.47365,221293
6.48177,227065
6.48990,230387
6.49802,222943
6.50613,225190
6.51427,221384
6.52238,219623
6.53052,227045
6.53863,215456
6.54675,217231
6.55488,218658
6.56300,234508
6.57112,231540
6.57925,228890
6.58737,237069
6.59550,235645
6.60362,241339
6.61173,232955
6.61987,235798
6.62798,233493
6.63612,244311
6.64423,250080
6.65235,264586
6.66048,380415
6.66860,857899
6.67673,2059000
6.68485,3704351
6.69297,4613206
6.70110,4112244
6.70922,2870537
6.71733,1878354
6.72547,1325962
6.73358,1039541
6.74172,863455
6.74983,749918
6.75795,661659
6.76608,588274
6.77420,521530
6.78233,488005
6.79045,415594
6.79857,383075
6.80670,342962
6.81482,328497
6.82295,314632
6.83107,303864
6.83918,290539
6.84732,296975
6.85543,306106
6.86355,311297
6.87168,298550
6.87980,273084
6.88793,244061
6.89605,211872
6.90417,192390
6.91230,184842
6.92042,176198
6.92855,166465
6.93667,160119
6.94478,158318
6.95292,150350
6.96103,152712
6.96915,146395
6.97728,143950
6.98540,152564
6.99353,157977
7.00165,168044
7.00977,152375
7.01790,145509
7.02602,129155
7.03415,113273
7.04227,110209
7.05038,122792
7.05852,133238
7.06663,140630
7.07477,154532
7.08288,148113
7.09100,143264
7.09913,141153
7.10725,133883
7.11537,145078
7.12350,153216
7.13162,160958
7.13975,164552
7.14787,162661
7.15598,152869
7.16412,145367
7.17223,144236
7.18037,138518
7.18848,137151
7.19660,126401
7.20473,124413
7.21285,117053
7.22098,116975
7.22910,116495
7.23722,121299
7.24535,136195
7.25347,144757
7.26158,164239
7.26972,159125
7.27783,151627
7.28597,135636
7.29408,120834
7.30220,112664
7.31033,113298
7.31845,105096
7.32658,112207
7.33470,105516
7.34282,104177
7.35095,105728
7.35907,98342
7.36718,99657
7.37532,96037
7.38343,103875
7.39157,99342
7.39968,102537
7.40780,109069
7.41593,107701
7.42405,103157
7.43218,101348
7.44030,99082
7.44842,101195
7.45655,94097
7.46467,101169
7.47280,101078
7.48092,100739
7.48903,96104
7.49717,89471
7.50528,90321
7.51340,88863
7.52153,86537
7.52965,86005
7.53778,84523
7.54590,91757
7.55402,82142
7.56215,78166
7.57027,80294
7.57840,87150
7.58652,81581
7.59463,81438
7.60277,81448
7.61088,86647
7.61900,85315
7.62713,81320
7.63525,85827
7.64338,82075
7.65150,88017
7.65962,81136
7.66775,84406
7.67587,78631
7.68400,83858
7.69212,81598
7.70023,87099
7.70837,79990
7.71648,88346
7.72462,82379
7.73273,80451
7.74085,86849
7.74898,80889
7.75710,77978
7.76522,81525
7.77335,78564
7.78147,80577
7.78960,75938
7.79772,72577
7.80583,77892
7.81397,83268
7.82208,82277
7.83022,87290
7.83833,88727
7.84645,77400
7.85458,71746
7.86270,72374
7.87083,74256
7.87895,68333
7.88707,73244
7.89520,69395
7.90332,66567
7.91143,68780
7.91957,70441
7.92768,73238
7.93582,83630
7.94393,92772
7.95205,125861
7.96018,170930
7.96830,189899
7.97643,191181
7.98455,166879
7.99267,127750
8.00080,102431
8.00892,86967
8.01703,90985
8.02517,80701
8.03328,77898
8.04142,71880
8.04953,80815
8.05765,77012
8.06578,76169
8.07390,77814
8.08203,76007
8.09015,74105
8.09827,71776
8.10640,72874
8.11452,72323
8.12265,73555
8.13077,70026
8.13888,72381
8.14702,77624
8.15513,83572
8.16325,77673
8.17138,80412
8.17950,71843
8.18763,76058
8.19575,68504
8.20387,73233
8.21200,65763
8.22012,68233
8.22825,70646
8.23637,65554
8.24448,65053
8.25262,67068
8.26073,64890
8.26887,61811
8.27698,65569
8.28510,68443
8.29323,60505
8.30135,64034
8.30947,65418
8.31760,72426
8.32572,87268
8.33385,90416
8.34197,86767
8.35008,81366
8.35822,72617
8.36633,73699
8.37447,78833
8.38258,98456
8.39070,104928
8.39883,131128
8.40695,144889
8.41507,133782
8.42320,110810
8.43132,94535
8.43945,79780
8.44757,75387
8.45568,72733
8.46382,67042
8.47193,66427
8.48007,66526
8.48818,63739
8.49630,69340
8.50443,67969
8.51255,65576
8.52068,62227
8.52880,72950
8.53692,99251
8.54505,237677
8.55317,707213
8.56128,1825368
8.56942,3380311
8.57753,4846038
8.58567,5159724
8.59378,4092083
8.60190,2535658
8.61003,1316082
8.61815,640549
8.62628,385923
8.63440,309365
8.64252,280498
8.65065,249613
8.65877,233572
8.66688,219413
8.67502,201629
8.68313,191017
8.69127,189977
8.69938,186155
8.70750,175634
8.71563,172263
8.72375,159209
8.73188,155836
8.74000,151035
8.74812,151122
8.75625,140104
8.76437,137977
8.77250,143569
8.78062,192620
8.78873,301130
8.79687,540169
8.80498,784493
8.81310,951289
8.82123,956965
8.82935,788509
8.83748,594148
8.84560,417479
8.85372,325412
8.86185,271565
8.86997,260558
8.87810,264213
8.88622,266554
8.89433,266652
8.90247,249390
8.91058,242588
8.91872,226820
8.92683,218654
8.93495,217980
8.94308,202648
8.95120,194436
8.95932,187873
8.96745,183938
8.97557,176740
8.98370,175186
8.99182,169385
8.99993,173732
9.00807,165781
9.01618,173706
9.02432,162154
9.03243,157629
9.04055,147114
9.04868,151760
9.05680,149549
9.06493,147870
9.07305,140293
9.08117,134330
9.08930,143336
9.09742,141473
9.10553,140331
9.11367,135683
9.12178,134942
9.12992,132675
9.13803,131202
9.14615,131176
9.15428,131454
9.16240,123335
9.17053,124025
9.17865,121119
9.18677,123927
9.19490,122824
9.20302,113209
9.21113,115523
9.21927,114382
9.22738,116797
9.23552,111486
9.24363,116027
9.25175,114882
9.25988,120556
9.26800,114611
9.27613,114710
9.28425,110484
9.29237,104375
9.30050,108066
9.30862,98218
9.31675,102031
9.32487,104582
9.33298,94835
9.34112,103567
9.34923,97690
9.35735,92193
9.36548,96008
9.37360,97805
9.38173,90392
9.38985,101014
9.39797,93645
9.40610,93901
9.41422,89643
9.42235,100406
9.43047,91078
9.43858,90864
9.44672,96253
9.45483,92557
9.46295,89311
9.47108,90539
9.47920,92365
9.48733,85908
9.49545,84562
9.50357,86269
9.51170,93991
9.51982,99831
9.52795,116036
9.53607,131685
9.54418,141618
9.55232,140465
9.56043,126263
9.56857,114112
9.57668,103553
9.58480,91724
9.59293,81161
9.60105,72200
9.60917,66829
9.61730,68769
9.62542,63344
9.63355,60906
9.64167,63140
9.64978,55867
9.65792,60714
9.66603,56471
9.67417,56199
9.68228,52402
9.69040,52205
9.69853,56778
9.70665,55656
9.71478,54398
9.72290,52721
9.73102,52966
9.73915,53667
9.74727,52063
9.75538,53891
9.76352,58112
9.77163,49903
9.77977,48709
9.78788,52153
9.79600,53737
9.80413,52305
9.81225,49488
9.82038,49596
9.82850,51184
9.83662,49537
9.84475,55396
9.85287,49698
9.86098,47318
9.86912,52794
9.87723,47844
9.88537,51960
9.89348,51579
9.90160,49753
9.90973,53952
9.91785,51570
9.92598,52438
9.93410,53010
9.94222,53622
9.95035,56205
9.95847,62708
9.96660,67235
9.97472,71050
9.98283,69892
9.99097,63622
9.99908,64948
10.00720,67541
10.01533,64941
10.02345,71905
10.03158,73166
10.03970,74969
10.04782,75158
10.05595,72710
10.06407,64384
10.07220,62265
10.08032,57007
10.08843,54934
10.09657,60292
10.10468,61173
10.11282,58675
10.12093,58853
10.12905,57652
10.13718,56411
10.14530,57852
10.15342,51691
10.16155,51600
10.16967,50694
10.17780,53143
10.18592,50901
10.19403,48654
10.20217,51892
10.21028,47808
10.21842,53552
10.22653,51952
10.23465,53248
10.24278,51519
10.25090,61762
10.25902,69232
10.26715,82821
10.27527,87157
10.28340,140632
10.29152,300588
10.29963,726925
10.30777,1448938
10.31588,2363347
10.32402,3032342
10.33213,3217216
10.34025,3260262
10.34838,3377915
10.35650,3523792
10.36463,3274789
10.37275,2562745
10.38087,1598090
10.38900,866575
10.39712,468359
10.40523,297861
10.41337,226215
10.42148,188174
10.42962,175046
10.43773,150173
10.44585,140885
10.45398,130250
10.46210,122267
10.47023,113033
10.47835,110146
10.48647,101410
10.49460,100183
10.50272,90099
10.51083,92610
10.51897,101121
10.52708,109851
10.53522,111385
10.54333,114538
10.55145,119886
10.55958,110460
10.56770,100934
10.57583,88740
10.58395,79966
10.59207,75869
10.60020,75194
10.60832,80559
10.61645,76155
10.62457,75375
10.63268,76407
10.64082,73715
10.64893,66821
10.65705,64319
10.66518,62222
10.67330,70033
10.68143,69242
10.68955,66508
10.69767,65908
10.70580,68498
10.71392,69862
10.72205,66254
10.73017,69480
10.73828,62785
10.74642,64110
10.75453,69014
10.76267,69817
10.77078,73186
10.77890,73674
10.78703,68434
10.79515,66590
10.80327,58036
10.81140,60239
10.81952,56420
10.82765,55185
10.83577,57581
10.84388,53572
10.85202,55206
10.86013,56472
10.86827,53922
10.87638,55914
10.88450,51361
10.89263,50169
10.90075,51336
10.90887,57074
10.91700,49675
10.92512,49516
10.93325,52700
10.94137,55379
10.94948,52959
10.95762,51377
10.96573,46416
10.97387,50167
10.98198,47902
10.99010,49971
10.99823,45274
11.00635,48940
11.01448,48922
11.02260,49923
11.03072,44492
11.03885,45494
11.04697,46726
11.05508,46786
11.06322,47234
11.07133,45248
11.07947,48896
11.08758,46376
11.09570,41781
11.10383,41897
11.11195,44863
11.12008,41176
11.12820,46476
11.13632,44572
11.14445,42075
11.15257,37063
11.16070,45872
11.16882,42365
11.17693,45991
11.18507,45658
11.19318,52009
11.20130,54132
11.20943,54608
11.21755,53359
11.22568,50373
11.23380,52207
11.24192,46728
11.25005,45953
11.25817,48788
11.26630,43697
11.27442,48594
11.28253,42399
11.29067,40456
11.29878,40606
11.30690,44660
11.31503,45029
11.32315,47088
11.33128,48458
11.33940,44658
11.34752,43208
11.35565,44669
11.36377,42258
11.37190,46420
11.38002,40338
11.38813,40497
11.39627,41664
11.40438,39168
11.41252,40660
11.42063,39222
11.42875,47733
11.43688,41963
11.44500,40671
11.45312,39784
11.46125,41494
11.46937,43555
11.47750,40031
11.48562,40484
11.49373,41410
11.50187,50796
11.50998,53141
11.51812,61928
11.52623,68879
11.53435,62710
11.54248,62335
11.55060,60672
11.55873,62984
11.56685,65974
11.57497,64061
11.58310,59601
11.59122,54105
11.59933,48583
11.60747,45658
11.61558,44208
11.62372,48577
11.63183,45897
11.63995,43813
11.64808,48002
11.65620,46720
11.66433,42996
11.67245,41677
11.68057,44555
11.68870,46400
11.69682,60175
11.70493,76069
11.71307,97395
11.72118,108736
11.72932,113467
11.73743,105359
11.74555,87110
11.75368,70604
11.76180,59701
11.76993,53117
11.77805,56250
11.78617,56744
11.79430,48297
11.80242,51418
11.81055,48282
11.81867,50674
11.82678,43002
11.83492,48922
11.84303,40997
11.85115,49490
11.85928,40332
11.86740,49253
11.87553,48846
11.88365,47092
11.89177,46726
11.89990,47739
11.90802,44894
11.91615,46541
11.92427,45691
11.93238,43829
11.94052,47258
11.94863,45561
11.95675,46885
11.96488,46641
11.97300,41790
11.98113,40959
11.98925,43564
11.99737,42097
12.00550,41712
12.01362,48112
12.02175,54639
12.02987,60118
12.03798,64146
12.04612,61886
12.05423,58320
12.06237,50335
12.07048,52245
12.07860,45056
12.08673,49335
12.09485,47585
12.10297,45216
12.11110,46699
12.11922,43775
12.12735,42268
12.13547,42396
12.14358,43794
12.15172,46012
12.15983,47012
12.16797,48695
12.17608,45102
12.18420,39338
12.19233,41872
12.20045,40908
12.20858,36331
12.21670,41065
12.22482,40360
12.23295,45695
12.24107,41557
12.24918,42867
12.25732,42656
12.26543,42647
12.27357,42918
12.28168,49490
12.28980,43214
12.29793,43048
12.30605,43364
12.31418,39228
12.32230,40750
12.33042,40758
12.33855,39885
12.34667,36685
12.35478,38397
12.36292,42354
12.37103,42007
12.37917,43106
12.38728,40033
12.39540,44255
12.40353,44307
12.41165,43038
12.41978,40588
12.42790,42878
12.43602,45993
12.44415,47779
12.45227,51970
12.46040,58339
12.46852,55992
12.47663,53724
12.48477,47238
12.49288,43109
12.50100,46705
12.50913,45081
12.51725,37544
12.52538,45118
12.53350,45385
12.54162,43962
12.54975,45315
12.55787,50374
12.56600,65649
12.57412,85086
12.58223,114941
12.59037,145392
12.59848,147095
12.60662,126485
12.61473,96538
12.62285,70801
12.63098,66348
12.63910,54313
12.64722,52561
12.65535,50320
12.66347,47392
12.67160,48632
12.67972,47525
12.68783,44343
12.69597,39927
12.70408,43785
12.71222,43809
12.72033,45370
12.72845,43481
12.73658,45041
12.74470,46311
12.75282,48458
12.76095,45525
12.76907,44820
12.77720,51127
12.78532,43009
12.79343,39713
12.80157,41336
12.80968,40840
12.81782,40237
12.82593,41869
12.83405,36580
12.84218,34720
12.85030,39119
12.85843,38299
12.86655,38445
12.87467,41695
12.88280,38162
12.89092,39237
12.89903,43334
12.90717,37233
12.91528,41250
12.92342,37627
12.93153,34640
12.93965,35381
12.94778,36839
12.95590,35654
12.96403,37776
12.97215,33306
12.98027,36298
12.98840,39236
12.99652,42267
13.00463,49871
13.01277,47787
13.02088,51892
13.02902,42469
13.03713,42087
13.04525,38426
13.05338,39132
13.06150,34971
13.06963,38188
13.07775,36339
13.08587,35114
13.09400,38258
13.10212,38115
13.11025,41422
13.11837,37793
13.12648,38345
13.13462,42277
13.14273,37687
13.15085,41128
13.15898,36002
13.16710,39923
13.17523,37019
13.18335,38454
13.19147,41552
13.19960,40526
13.20772,40477
13.21585,42151
13.22397,43655
13.23208,46236
13.24022,44365
13.24833,39667
13.25647,42267
13.26458,42287
13.27270,39864
13.28083,39046
13.28895,36073
13.29707,34562
13.30520,38808
13.31332,38369
13.32145,38466
13.32957,40819
13.33768,38504
13.34582,43056
13.35393,39740
13.36207,35848
13.37018,35913
13.37830,35530
13.38643,36658
13.39455,37116
13.40267,36166
13.41080,33922
13.41892,36448
13.42705,37211
13.43517,38037
13.44328,36281
13.45142,36653
13.45953,35261
13.46767,32006
13.47578,37192
13.48390,31922
13.49203,33964
13.50015,34247
13.50828,37103
13.51640,37578
13.52452,34487
13.53265,35357
13.54077,34694
13.54888,33445
13.55702,40329
13.56513,37680
13.57327,35690
13.58138,37499
13.58950,36222
13.59763,40252
13.60575,40030
13.61388,35844
13.62200,39760
13.63012,37955
13.63825,37023
13.64637,39148
13.65450,33852
13.66262,35953
13.67073,34090
13.67887,35512
13.68698,32064
13.69510,30913
13.70323,32664
13.71135,35568
13.71948,34751
13.72760,38263
13.73572,34865
13.74385,36004
13.75197,46962
13.76010,70355
13.76822,134901
13.77633,283880
13.78447,567460
13.79258,925503
13.80070,1157599
13.80883,1216279
13.81695,999319
13.82508,716731
13.83320,500556
13.84132,322235
13.84945,216501
13.85757,184099
13.86570,153742
13.87382,144022
13.88193,130803
13.89007,118621
13.89818,108382
13.90632,109354
13.91443,101646
13.92255,99205
13.93068,104905
13.93880,90889
13.94692,89571
13.95505,96439
13.96317,118159
13.97130,146280
13.97942,221999
13.98753,393226
13.99567,552889
14.00378,690932
14.01192,752316
14.02003,654966
14.02815,489120
14.03628,333888
14.04440,230724
14.05253,172777
14.06065,158680
14.06877,133210
14.07690,131344
14.08502,115347
14.09313,114059
14.10127,112232
14.10938,105343
14.11752,94842
14.12563,98096
14.13375,98459
14.14188,96621
14.15000,95750
14.15813,87423
14.16625,88872
14.17437,83850
14.18250,88790
14.19062,92786
14.19873,105196
14.20687,123141
14.21498,155204
14.22312,220700
14.23123,289608
14.23935,332838
14.24748,334427
14.25560,302371
14.26373,268865
14.27185,239839
14.27997,222927
14.28810,190187
14.29622,165471
14.30435,150164
14.31247,139191
14.32058,126536
14.32872,125018
14.33683,112014
14.34495,110456
14.35308,100737
14.36120,103474
14.36933,91089
14.37745,90734
14.38557,88155
14.39370,78858
14.40182,76573
14.40995,67155
14.41807,63604
14.42618,61480
14.43432,59167
14.44243,54416
14.45057,60891
14.45868,53260
14.46680,59698
14.47493,54010
14.48305,46994
14.49117,49893
14.49930,43055
14.50742,46376
14.51555,46941
14.52367,45629
14.53178,43866
14.53992,48701
14.54803,53482
14.55617,49083
14.56428,46797
14.57240,49526
14.58053,45353
14.58865,40940
14.59677,41784
14.60490,40799
14.61302,41846
14.62115,46638
14.62927,40772
14.63738,43614
14.64552,40129
14.65363,39854
14.66177,41559
14.66988,41301
14.67800,38204
14.68613,39725
14.69425,41002
14.70238,42149
14.71050,39010
14.71862,42771
14.72675,41920
14.73487,41994
14.74298,39731
14.75112,42973
14.75923,40605
14.76737,40408
14.77548,39612
14.78360,38858
14.79173,40527
14.79985,39565
14.80798,41485
14.81610,38368
14.82422,45844
14.83235,44289
14.84047,46629
14.84858,53083
14.85672,49785
14.86483,50014
14.87297,56327
14.88108,52694
14.88920,57321
14.89733,55749
14.90545,50823
14.91358,50856
14.92170,57276
14.92982,52856
14.93795,49398
14.94607,46299
14.95420,50389
14.96232,47698
14.97043,50236
14.97857,50625
14.98668,51974
14.99480,45115
15.00293,47522
15.01105,49532
15.01918,43471
15.02730,44928
15.03542,40180
15.04355,44347
15.05167,42997
15.05980,47098
15.06792,43758
15.07603,44874
15.08417,47271
15.09228,41529
15.10042,43596
15.10853,42070
15.11665,44029
15.12478,43360
15.13290,44145
15.14102,45450
15.14915,42619
15.15727,43735
15.16540,41069
15.17352,38358
15.18163,43222
15.18977,41327
15.19788,41527
15.20602,38824
15.21413,41665
15.22225,37761
15.23038,40357
15.23850,38061
15.24662,41532
15.25475,40472
15.26287,40148
15.27100,36782
15.27912,35534
15.28723,40336
15.29537,35312
15.30348,38746
15.31162,40395
15.31973,39652
15.32785,38418
15.33598,35625
15.34410,37229
15.35223,35859
15.36035,37023
15.36847,41098
15.37660,40221
15.38472,33694
15.39283,38553
15.40097,37769
15.40908,36234
15.41722,42184
15.42533,35172
15.43345,38025
15.44158,37219
15.44970,38495
15.45783,34938
15.46595,35375
15.47407,38666
15.48220,36606
15.49032,34779
15.49845,36796
15.50657,35675
15.51468,39972
15.52282,49083
15.53093,62333
15.53905,92390
15.54718,130186
15.55530,182818
15.56343,224896
15.57155,219604
15.57967,195708
15.58780,148831
15.59592,102253
15.60405,75950
15.61217,54437
15.62028,50050
15.62842,48246
15.63653,45877
15.64465,41517
15.65278,41264
15.66090,41517
15.66903,41243
15.67715,41179
15.68527,44520
15.69340,41165
15.70152,36430
15.70965,38682
15.71777,37113
15.72588,39331
15.73402,42503
15.74213,39749
15.75027,36154
15.75838,39790
15.76650,39785
15.77463,38014
15.78275,41839
15.79087,42354
15.79900,46785
15.80712,50822
15.81525,51189
15.82337,47189
15.83148,45776
15.83962,44007
15.84773,42164
15.85587,44075
15.86398,39697
15.87210,49186
15.88023,46013
15.88835,47682
15.89647,43200
15.90460,47727
15.91272,40840
15.92085,44472
15.92897,42374
15.93708,43887
15.94522,42261
15.95333,40752
15.96147,40498
15.96958,43012
15.97770,42647
15.98583,45934
15.99395,51273
16.00208,50413
16.01020,47922
16.01832,50485
16.02645,48624
16.03457,51787
16.04268,49622
16.05082,48442
16.05893,49245
16.06707,44703
16.07518,44457
16.08330,44344
16.09143,46352
16.09955,49120
16.10768,41705
16.11580,42534
16.12392,42189
16.13205,42310
16.14017,40132
16.14830,38435
16.15642,40849
16.16453,38436
16.17267,39006
16.18078,41795
16.18890,39243
16.19703,43736
16.20515,38809
16.21328,42540
16.22140,40243
16.22952,40990
16.23765,41344
16.24577,38857
16.25390,41402
16.26202,49738
16.27013,42680
16.27827,39696
16.28638,41580
16.29450,41356
16.30263,40269
16.31075,39437
16.31888,44134
16.32700,37133
16.33512,42249
16.34325,38373
16.35137,43202
16.35950,45672
16.36762,51073
16.37573,67443
16.38387,85267
16.39198,118732
16.40012,134260
16.40823,131780
16.41635,109190
16.42448,89897
16.43260,82744
16.44072,62855
16.44885,58864
16.45697,50348
16.46510,49885
16.47322,46214
16.48133,46056
16.48947,50656
16.49758,49289
16.50572,45749
16.51383,52329
16.52195,45464
16.53008,46278
16.53820,44855
16.54633,50939
16.55445,46170
16.56257,46029
16.57070,45502
16.57882,40502
16.58693,46414
16.59507,46270
16.60318,44215
16.61132,50188
16.61943,49655
16.62755,48887
16.63568,50562
16.64380,50038
16.65193,49894
16.66005,51070
16.66817,45708
16.67630,40782
16.68442,44730
16.69253,41025
16.70067,41288
16.70878,44270
16.71692,36475
16.72503,37195
16.73315,40351
16.74128,37336
16.74940,35675
16.75753,38055
16.76565,38509
16.77377,35710
16.78190,36800
16.79002,43082
16.79815,37572
16.80627,35370
16.81438,37698
16.82252,37316
16.83063,38855
16.83875,36797
16.84688,38521
16.85500,33682
16.86313,33623
16.87125,35661
16.87937,35349
16.88750,42379
16.89562,37949
16.90375,37425
16.91187,38241
16.91998,34137
16.92812,34823
16.93623,36821
16.94437,34588
16.95248,35542
16.96060,37202
16.96873,36147
16.97685,40609
16.98497,31268
16.99310,34186
17.00122,34096
17.00935,33047
17.01747,36479
17.02558,38455
17.03372,33039
17.04183,33851
17.04997,39022
17.05808,34809
17.06620,33540
17.07433,37508
17.08245,40559
17.09057,35772
17.09870,41493
17.10682,39109
17.11495,47869
17.12307,45590
17.13118,47442
17.13932,46299
17.14743,44679
17.15557,47631
17.16368,44158
17.17180,51603
17.17993,38337
17.18805,37498
17.19618,37539
17.20430,36361
17.21242,36924
17.22055,36158
17.22867,34271
17.23678,41252
17.24492,34414
17.25303,37664
17.26117,35868
17.26928,39399
17.27740,44224
17.28553,38917
17.29365,35859
17.30178,36378
17.30990,37026
17.31802,37887
17.32615,36042
17.33427,40919
17.34238,35025
17.35052,35724
17.35863,40560
17.36677,40869
17.37488,37794
17.38300,42681
17.39113,46029
17.39925,44840
17.40738,44239
17.41550,42405
17.42362,45095
17.43175,43647
17.43987,40841
17.44800,43258
17.45612,39879
17.46423,40734
17.47237,44286
17.48048,38148
17.48860,38664
17.49673,40431
17.50485,37979
17.51298,39664
17.52110,38321
17.52922,38577
17.53735,39091
17.54547,39430
17.55360,41201
17.56172,45578
17.56983,42690
17.57797,41963
17.58608,43693
17.59422,42860
17.60233,38011
17.61045,40034
17.61858,42531
17.62670,32747
17.63482,39627
17.64295,37343
17.65107,43467
17.65920,54903
17.66732,70812
17.67543,83336
17.68357,95672
17.69168,106981
17.69982,102432
17.70793,96124
17.71605,79012
17.72418,65685
17.73230,62547
17.74042,52410
17.74855,48418
17.75667,47185
17.76480,46366
17.77292,45631
17.78103,45590
17.78917,48924
17.79728,46174
17.80542,42679
17.81353,42537
17.82165,41287
17.82978,39402
17.83790,41226
17.84603,40441
17.85415,41574
17.86227,41358
17.87040,39192
17.87852,38541
17.88663,39454
17.89477,40614
17.90288,36502
17.91102,37245
17.91913,36790
17.92725,36414
17.93538,34268
17.94350,35188
17.95163,36052
17.95975,36048
17.96787,31808
17.97600,31149
17.98412,36300
17.99225,35063
18.00037,36318
18.00848,37408
18.01662,34954
18.02473,40690
18.03285,38804
18.04098,34767
18.04910,39443
18.05723,40984
18.06535,40287
18.07347,38718
18.08160,39034
18.08972,44056
18.09785,44445
18.10597,46591
18.11408,51352
18.12222,54324
18.13033,51083
18.13845,57791
18.14658,60703
18.15470,58892
18.16283,56953
18.17095,56461
18.17907,54133
18.18720,58931
18.19532,61318
18.20345,49918
18.21157,53560
18.21968,55098
18.22782,55158
18.23593,48751
18.24407,49698
18.25218,51552
18.26030,49468
18.26843,47432
18.27655,49947
18.28467,46800
18.29280,38313
18.30092,44726
18.30905,43335
18.31717,44008
18.32528,39745
18.33342,36741
18.34153,40442
18.34967,35543
18.35778,37790
18.36590,36543
18.37403,38508
18.38215,40562
18.39027,39283
18.39840,37653
18.40652,37551
18.41465,34552
18.42277,33949
18.43088,36261
18.43902,35324
18.44713,34677
18.45527,33447
18.46338,37190
18.47150,44674
18.47963,37311
18.48775,30948
18.49588,35594
18.50400,35575
18.51212,38651
18.52025,34774
18.52837,34988
18.53648,35738
18.54462,35829
18.55273,35732
18.56087,37668
18.56898,30390
18.57710,35754
18.58523,35382
18.59335,37379
18.60148,33669
18.60960,41798
18.61772,39318
18.62585,37139
18.63397,39242
18.64210,37225
18.65022,38454
18.65833,36497
18.66647,33660
18.67458,35863
18.68270,35735
18.69083,33089
18.69895,33340
18.70708,34650
18.71520,34945
18.72332,36225
18.73145,32923
18.73957,32009
18.74770,33510
18.75582,34718
18.76393,34468
18.77207,35306
18.78018,34954
18.78832,32991
18.79643,33255
18.80455,37417
18.81268,34579
18.82080,36022
18.82892,37695
18.83705,35214
18.84517,38328
18.85330,36800
18.86142,31293
18.86953,32083
18.87767,30819
18.88578,32410
18.89392,34333
18.90203,34413
18.91015,36121
18.91828,32277
18.92640,31997
18.93452,33015
18.94265,36821
18.95077,33826
18.95890,33754
18.96702,36494
18.97513,38971
18.98327,39665
18.99138,35884
18.99952,34460
19.00763,35244
19.01575,35583
19.02388,36131
19.03200,35068
19.04013,32768
19.04825,34615
19.05637,34417
19.06450,33017
19.07262,34935
19.08073,33042
19.08887,39727
19.09698,40726
19.10512,50459
19.11323,55171
19.12135,60888
19.12948,65926
19.13760,61399
19.14573,56450
19.15385,55253
19.16197,44679
19.17010,47551
19.17822,49391
19.18633,46400
19.19447,47893
19.20258,46467
19.21072,52164
19.21883,47430
19.22695,49513
19.23508,44578
19.24320,43987
19.25133,41527
19.25945,36742
19.26757,36876
19.27570,44497
19.28382,44276
19.29195,49958
19.30007,44764
19.30818,49021
19.31632,47042
19.32443,45477
19.33255,51252
19.34068,53070
19.34880,46510
19.35693,52091
19.36505,48836
19.37317,48051
19.38130,48174
19.38942,44929
19.39755,42837
19.40567,45737
19.41378,42648
19.42192,39888
19.43003,41237
19.43817,40092
19.44628,43192
19.45440,37549
19.46253,40293
19.47065,41566
19.47877,38109
19.48690,41593
19.49502,45972
19.50315,54312
19.51127,73377
19.51938,103466
19.52752,136219
19.53563,163205
19.54377,165727
19.55188,158716
19.56000,118602
19.56813,87911
19.57625,68639
19.58437,56064
19.59250,46265
19.60062,43429
19.60875,46774
19.61687,48396
19.62498,41581
19.63312,44146
19.64123,48438
19.64937,54225
19.65748,79761
19.66560,117518
19.67373,167888
19.68185,222631
19.68998,281543
19.69810,306858
19.70622,278736
19.71435,226798
19.72247,184384
19.73058,140581
19.73872,120326
19.74683,110057
19.75497,104366
19.76308,99451
19.77120,101512
19.77933,94384
19.78745,97544
19.79558,74537
19.80370,71769
19.81182,68899
19.81995,65715
19.82807,54205
19.83620,56185
19.84432,57569
19.85243,56852
19.86057,50459
19.86868,54022
19.87680,63034
19.88493,98033
19.89305,153467
19.90118,254984
19.90930,387645
19.91742,508169
19.92555,646659
19.93367,708277
19.94180,721843
19.94992,687922
19.95803,657558
19.96617,633459
19.97428,576215
19.98240,532461
19.99053,508480
19.99865,502296
20.00678,469164
20.01490,430892
20.02302,421270
20.03115,411523
20.03927,390659
20.04740,341893
20.05552,310059
20.06363,268769
20.07177,223940
20.07988,180211
20.08802,145702
20.09613,124317
20.10425,111426
20.11238,97353
20.12050,90479
20.12862,84231
20.13675,87425
20.14487,82752
20.15300,82235
20.16112,79448
20.16923,84191
20.17737,78868
20.18548,77032
20.19362,77289
20.20173,80053
20.20985,75577
20.21798,75276
20.22610,73690
20.23422,70812
20.24235,70523
20.25047,78365
20.25860,76608
20.26672,97747
20.27483,132320
20.28297,184358
20.29108,240284
20.29922,287324
20.30733,307815
20.31545,303741
20.32358,271106
20.33170,211319
20.33983,164743
20.34795,129615
20.35607,106431
20.36420,91071
20.37232,77490
20.38043,71690
20.38857,63647
20.39668,61093
20.40482,55079
20.41293,55446
20.42105,56532
20.42918,58650
20.43730,59425
20.44543,67915
20.45355,81623
20.46167,90638
20.46980,96695
20.47792,95134
20.48605,90043
20.49417,88292
20.50228,75969
20.51042,67892
20.51853,59591
20.52665,56624
20.53478,50378
20.54290,47465
20.55103,45226
20.55915,44874
20.56727,44124
20.57540,44892
20.58352,42893
20.59165,46030
20.59977,46451
20.60788,49461
20.61602,40464
20.62413,39708
20.63225,42407
20.64038,40761
20.64850,42455
20.65663,43595
20.66475,41104
20.67287,36676
20.68100,38617
20.68912,36945
20.69725,41752
20.70537,40565
20.71348,42040
20.72162,40011
20.72973,39191
20.73787,40656
20.74598,35208
20.75410,33902
20.76223,37537
20.77035,39066
20.77847,39176
20.78660,36762
20.79472,39122
20.80285,38432
20.81097,34899
20.81908,37051
20.82722,39879
20.83533,37867
20.84347,42850
20.85158,36047
20.85970,39549
20.86783,41533
20.87595,36996
20.88408,38981
20.89220,37650
20.90032,37019
20.90845,40536
20.91657,38447
20.92468,39905
20.93282,37335
20.94093,43492
20.94907,40935
20.95718,37046
20.96530,36315
20.97343,35494
20.98155,34889
20.98968,41580
20.99780,40436
21.00592,41567
21.01405,37856
21.02217,37232
21.03028,39217
21.03842,39407
21.04653,38951
21.05467,39822
21.06278,38664
21.07090,39971
21.07903,41972
21.08715,40745
21.09528,41310
21.10340,44354
21.11152,44593
21.11965,45367
21.12777,40587
21.13590,42288
21.14402,42799
21.15213,47651
21.16027,46731
21.16838,43773
21.17650,46159
21.18463,47933
21.19275,45259
21.20088,43417
21.20900,43328
21.21712,42519
21.22525,45152
21.23337,42053
21.24150,44664
21.24962,40945
21.25773,41898
21.26587,44634
21.27398,46157
21.28210,44492
21.29023,49393
21.29835,44890
21.30648,47608
21.31460,44503
21.32272,42754
21.33085,43620
21.33897,44038
21.34710,42951
21.35522,41843
21.36333,42515
21.37147,45190
21.37958,40872
21.38772,38988
21.39583,41094
21.40395,43292
21.41208,42394
21.42020,49136
21.42832,43508
21.43645,43287
21.44457,45318
21.45270,42111
21.46082,49054
21.46893,46489
21.47707,42898
21.48518,39215
21.49332,40518
21.50143,37756
21.50955,39173
21.51768,41344
21.52580,44716
21.53393,45473
21.54205,40359
21.55017,39499
21.55830,42292
21.56642,43748
21.57453,42611
21.58267,40244
21.59078,39547
21.59892,40328
21.60703,39497
21.61515,40030
21.62328,41011
21.63140,50533
21.63953,58383
21.64765,74510
21.65577,88084
21.66390,96718
21.67202,98399
21.68013,96285
21.68827,82619
21.69638,72938
21.70452,57386
21.71263,54371
21.72075,48308
21.72888,46877
21.73700,46332
21.74513,44348
21.75325,48611
21.76137,39841
21.76950,41267
21.77762,43635
21.78575,40017
21.79387,40974
21.80198,39989
21.81012,42265
21.81823,47044
21.82635,46561
21.83448,58062
21.84260,71513
21.85073,88942
21.85885,102147
21.86697,111575
21.87510,98633
21.88322,89898
21.89135,79015
21.89947,65286
21.90758,58049
21.91572,53928
21.92383,43261
21.93197,45214
21.94008,43001
21.94820,42279
21.95633,46820
21.96445,44543
21.97257,41447
21.98070,39201
21.98882,41530
21.99695,46421
22.00507,42862
22.01318,41891
22.02132,39398
22.02943,38743
22.03757,37351
22.04568,39261
22.05380,38950
22.06193,35873
22.07005,39961
22.07817,38453
22.08630,39034
22.09442,38975
22.10255,38343
22.11067,39518
22.11878,36433
22.12692,37200
22.13503,38308
22.14317,36461
22.15128,37793
22.15940,41839
22.16753,40593
22.17565,39013
22.18378,40228
22.19190,46416
22.20002,48228
22.20815,44629
22.21627,39209
22.22438,42851
22.23252,44929
22.24063,48573
22.24877,54123
22.25688,50853
22.26500,50588
22.27313,44753
22.28125,39959
22.28938,40867
22.29750,42118
22.30562,44918
22.31375,38292
22.32187,48292
22.33000,55689
22.33812,58021
22.34623,62377
22.35437,71252
22.36248,68699
22.37060,64839
22.37873,62742
22.38685,50412
22.39498,52722
22.40310,49753
22.41122,45325
22.41935,47346
22.42747,43363
22.43560,42426
22.44372,43554
22.45183,37191
22.45997,35257
22.46808,38834
22.47620,38179
22.48433,40440
22.49245,37364
22.50058,39455
22.50870,36493
22.51682,34112
22.52495,34675
22.53307,39067
22.54120,37535
22.54932,35243
22.55743,35311
22.56557,34856
22.57368,35814
22.58182,33858
22.58993,35629
22.59805,36782
22.60618,34470
22.61430,36934
22.62242,34116
22.63055,35668
22.63867,35696
22.64680,31532
22.65492,36699
22.66303,40222
22.67117,38239
22.67928,32739
22.68742,38464
22.69553,38031
22.70365,38729
22.71178,40471
22.71990,39946
22.72802,36781
22.73615,38594
22.74427,35103
22.75240,39062
22.76052,37329
22.76863,35634
22.77677,39405
22.78488,36722
22.79302,38367
22.80113,33092
22.80925,33861
22.81738,30998
22.82550,37802
22.83363,37918
22.84175,32925
22.84987,31468
22.85800,38863
22.86612,36002
22.87423,39508
22.88237,36862
22.89048,33672
22.89862,37893
22.90673,37218
22.91485,38285
22.92298,49278
22.93110,47622
22.93923,58623
22.94735,63882
22.95547,67182
22.96360,69010
22.97172,69664
22.97985,68693
22.98797,68564
22.99608,65020
23.00422,60715
23.01233,58760
23.02045,52952
23.02858,46798
23.03670,48099
23.04483,46284
23.05295,46772
23.06107,41487
23.06920,38128
23.07732,41558
23.08545,36893
23.09357,35884
23.10168,41218
23.10982,42265
23.11793,37828
23.12605,36999
23.13418,39619
23.14230,38004
23.15043,35462
23.15855,35966
23.16667,35711
23.17480,38784
23.18292,32750
23.19105,36820
23.19917,37885
23.20728,36249
23.21542,35607
23.22353,31992
23.23167,34755
23.23978,38647
23.24790,40086
23.25603,38582
23.26415,42596
23.27227,37550
23.28040,42155
23.28852,39090
23.29665,44871
23.30477,40892
23.31288,37955
23.32102,37778
23.32913,34253
23.33727,32986
23.34538,33790
23.35350,36885
23.36163,36341
23.36975,39042
23.37788,34514
23.38600,33757
23.39412,33234
23.40225,35880
23.41037,36868
23.41848,34292
23.42662,39879
23.43473,34484
23.44287,37807
23.45098,39484
23.45910,30647
23.46723,34469
23.47535,37117
23.48348,35310
23.49160,36523
23.49972,37503
23.50785,35037
23.51597,36847
23.52408,35718
23.53222,37913
23.54033,40056
23.54847,39395
23.55658,38837
23.56470,38141
23.57283,38242
23.58095,40807
23.58908,41576
23.59720,40862
23.60532,50363
23.61345,47413
23.62157,44519
23.62970,50554
23.63782,52061
23.64593,53089
23.65407,74956
23.66218,106823
23.67030,136256
23.67843,173861
23.68655,187349
23.69468,188406
23.70280,167742
23.71092,143166
23.71905,105717
23.72717,86718
23.73530,78049
23.74342,69385
23.75153,69460
23.75967,84798
23.76778,165282
23.77590,369933
23.78403,938566
23.79215,2059069
23.80028,3405098
23.80840,4261230
23.81652,4434180
23.82465,3961298
23.83277,3057956
23.84090,2250321
23.84902,1543582
23.85713,1090753
23.86527,788447
23.87338,613993
23.88152,496561
23.88963,432657
23.89775,372957
23.90588,324568
23.91400,287641
23.92212,255512
23.93025,240870
23.93837,221540
23.94650,210142
23.95462,193856
23.96273,186782
23.97087,169285
23.97898,168881
23.98712,162020
23.99523,155998
24.00335,150483
24.01148,139188
24.01960,132038
24.02773,136247
24.03585,134643
24.04397,133498
24.05210,129717
24.06022,120370
24.06833,126065
24.07647,123159
24.08458,113625
24.09272,113883
24.10083,107716
24.10895,102198
24.11708,95171
24.12520,91706
24.13333,97001
24.14145,100946
24.14957,103652
24.15770,93743
24.16582,101671
24.17395,101763
24.18207,105965
24.19018,95914
24.19832,86825
24.20643,85250
24.21455,86851
24.22268,94014
24.23080,103933
24.23893,101837
24.24705,104781
24.25517,106117
24.26330,105537
24.27142,90685
24.27955,87301
24.28767,84143
24.29578,76500
24.30392,76196
24.31203,74099
24.32015,74515
24.32828,75416
24.33640,65556
24.34453,72953
24.35265,69121
24.36077,66533
24.36890,60943
24.37702,71233
24.38515,68334
24.39327,73462
24.40138,89527
24.40952,107134
24.41763,132449
24.42577,153438
24.43388,154670
24.44200,133860
24.45013,113095
24.45825,87396
24.46637,69516
24.47450,71190
24.48262,63903
24.49075,65364
24.49887,66625
24.50698,59917
24.51512,69589
24.52323,73308
24.53137,84493
24.53948,90424
24.54760,88766
24.55573,80574
24.56385,74141
24.57197,72153
24.58010,68759
24.58822,68560
24.59635,66935
24.60447,64375
24.61258,63328
24.62072,63192
24.62883,64791
24.63697,63491
24.64508,63361
24.65320,61396
24.66133,64113
24.66945,61991
24.67758,57790
24.68570,61341
24.69382,62051
24.70195,62982
24.71007,61295
24.71818,61954
24.72632,54516
24.73443,53886
24.74257,54277
24.75068,53061
24.75880,50272
24.76693,52052
24.77505,51561
24.78318,46497
24.79130,52525
24.79942,49752
24.80755,49434
24.81567,51264
24.82380,48320
24.83192,48690
24.84003,50947
24.84817,47517
24.85628,45618
24.86440,47739
24.87253,48854
24.88065,51684
24.88878,46281
24.89690,48913
24.90502,44859
24.91315,46445
24.92127,48339
24.92940,54869
24.93752,44519
24.94563,46615
24.95377,45670
24.96188,46809
24.97000,50241
24.97813,44723
24.98625,43660
24.99438,45582
25.00250,45585
25.01062,44170
25.01875,45607
25.02687,45269
25.03500,47874
25.04312,43281
25.05123,42518
25.05937,44095
25.06748,44878
25.07562,43793
25.08373,42907
25.09185,43853
25.09998,40057
25.10810,42659
25.11622,44280
25.12435,44530
25.13247,48533
25.14060,48840
25.14872,48472
25.15683,51270
25.16497,53916
25.17308,55374
25.18122,54686
25.18933,56213
25.19745,50857
25.20558,53908
25.21370,54767
25.22183,47512
25.22995,45510
25.23807,48229
25.24620,45558
25.25432,47944
25.26243,46161
25.27057,42726
25.27868,43254
25.28682,48874
25.29493,42504
25.30305,43344
25.31118,45370
25.31930,48154
25.32743,54231
25.33555,49922
25.34367,55067
25.35180,51329
25.35992,48970
25.36803,56343
25.37617,41768
25.38428,43956
25.39242,45419
25.40053,41539
25.40865,45611
25.41678,41465
25.42490,41733
25.43303,41807
25.44115,36321
25.44927,41947
25.45740,40028
25.46552,37901
25.47365,42527
25.48177,46145
25.48988,48250
25.49802,46291
25.50613,55205
25.51425,51072
25.52238,50123
25.53050,49388
25.53863,49221
25.54675,45107
25.55487,40438
25.56300,46220
25.57112,41375
25.57925,41098
25.58737,39756
25.59548,41897
25.60362,38288
25.61173,38472
25.61985,39345
25.62798,37462
25.63610,42508
25.64423,40629
25.65235,40260
25.66047,42444
25.66860,39991
25.67672,38667
25.68485,43005
25.69297,42427
25.70108,44328
25.70922,40974
25.71733,39932
25.72547,39805
25.73358,40038
25.74170,41682
25.74983,38670
25.75795,47320
25.76607,42126
25.77420,40379
25.78232,42173
25.79045,40393
25.79857,42190
25.80668,38366
25.81482,46157
25.82293,42192
25.83107,42502
25.83918,42426
25.84730,49982
25.85543,45510
25.86355,41061
25.87168,38684
25.87980,38184
25.88792,39410
25.89605,38201
25.90417,33579
25.91228,33717
25.92042,35597
25.92853,34338
25.93667,35380
25.94478,35232
25.95290,34200
25.96103,37042
25.96915,36371
25.97728,35598
25.98540,35890
25.99352,34343
26.00165,35124
26.00977,35466
26.01788,36358
26.02602,38444
26.03413,36631
26.04227,37457
26.05038,37404
26.05850,32172
26.06663,36369
26.07475,35906
26.08288,35667
26.09100,37957
26.09912,35536
26.10725,33666
26.11537,36831
26.12350,43144
26.13162,39876
26.13973,43079
26.14787,43127
26.15598,49567
26.16410,44144
26.17223,54927
26.18035,50944
26.18848,49168
26.19660,51756
26.20472,48448
26.21285,47286
26.22097,46713
26.22910,38724
26.23722,38845
26.24533,39607
26.25347,36515
26.26158,41252
26.26972,37171
26.27783,36486
26.28595,40481
26.29408,38091
26.30220,37645
26.31032,42448
26.31845,39191
26.32657,37418
26.33470,36601
26.34282,37002
26.35093,33768
26.35907,36511
26.36718,35451
26.37532,39127
26.38343,35403
26.39155,35740
26.39968,35930
26.40780,39088
26.41592,40477
26.42405,38828
26.43217,35812
26.44030,37780
26.44842,37705
26.45653,39576
26.46467,37237
26.47278,30528
26.48092,34595
26.48903,37301
26.49715,36789
26.50528,38946
26.51340,40741
26.52153,35469
26.52965,35355
26.53777,35430
26.54590,34002
26.55402,35365
26.56213,34251
26.57027,33031
26.57838,37870
26.58652,34442
26.59463,32571
26.60275,35606
26.61088,35587
26.61900,34756
26.62713,35906
26.63525,33613
26.64337,30865
26.65150,32313
26.65962,33511
26.66773,37243
26.67587,37069
26.68398,40537
26.69212,36948
26.70023,40044
26.70835,39013
26.71648,40696
26.72460,38680
26.73273,38121
26.74085,40434
26.74897,35530
26.75710,37444
26.76522,43124
26.77335,40265
26.78147,35225
26.78958,36299
26.79772,37777
26.80583,35952
26.81395,37098
26.82208,36750
26.83020,45674
26.83833,43223
26.84645,42505
26.85457,45769
26.86270,51845
26.87082,47470
26.87895,47145
26.88707,49214
26.89518,48630
26.90332,46759
26.91143,43204
26.91957,39874
26.92768,40872
26.93580,37451
26.94393,35577
26.95205,41555
26.96017,40183
26.96830,43852
26.97642,50394
26.98455,68131
26.99267,117058
27.00078,216567
27.00892,383767
27.01703,636973
27.02517,965990
27.03328,1328375
27.04140,1468859
27.04953,1425532
27.05765,1255502
27.06577,1000306
27.07390,708369
27.08202,521460
27.09015,416030
27.09827,326653
27.10638,269439
27.11452,236827
27.12263,203909
27.13077,185017
27.13888,181172
27.14700,150307
27.15513,150078
27.16325,138084
27.17138,126055
27.17950,115072
27.18762,115405
27.19575,113975
27.20387,116219
27.21198,106645
27.22012,102732
27.22823,98277
27.23637,93422
27.24448,95013
27.25260,90077
27.26073,91518
27.26885,83363
27.27698,80516
27.28510,76117
27.29322,75613
27.30135,67611
27.30947,69136
27.31760,68666
27.32572,73253
27.33383,70858
27.34197,67274
27.35008,66480
27.35820,59796
27.36633,60108
27.37445,63122
27.38258,62883
27.39070,66806
27.39882,66353
27.40695,62456
27.41507,62548
27.42320,60965
27.43132,64604
27.43943,62757
27.44757,60479
27.45568,58544
27.46380,58569
27.47193,59526
27.48005,53535
27.48818,60567
27.49630,57713
27.50442,53529
27.51255,57311
27.52067,52806
27.52880,54876
27.53692,53307
27.54503,57262
27.55317,58935
27.56128,56027
27.56942,56529
27.57753,53730
27.58565,53914
27.59378,50186
27.60190,48332
27.61002,46529
27.61815,55055
27.62627,52953
27.63440,56021
27.64252,49957
27.65063,49368
27.65877,47447
27.66688,49320
27.67502,47342
27.68313,45827
27.69125,44205
27.69938,48278
27.70750,45529
27.71563,43613
27.72375,45247
27.73187,42169
27.74000,43443
27.74812,43181
27.75623,46834
27.76437,45489
27.77248,50083
27.78062,38297
27.78873,44670
27.79685,42773
27.80498,41589
27.81310,49615
27.82123,42971
27.82935,47490
27.83747,44943
27.84560,42388
27.85372,46634
27.86183,41743
27.86997,45703
27.87808,43988
27.88622,44441
27.89433,41398
27.90245,42520
27.91058,42044
27.91870,40629
27.92683,44356
27.93495,41059
27.94307,46784
27.95120,43424
27.95932,46228
27.96745,40060
27.97557,42668
27.98368,38452
27.99182,42373
27.99993,43706
28.00805,42036
28.01618,41268
28.02430,42553
28.03243,43979
28.04055,44740
28.04867,38777
28.05680,37849
28.06492,39559
28.07305,38155
28.08117,40876
28.08928,41872
28.09742,38308
28.10553,39579
28.11365,39697
28.12178,42661
28.12990,37600
28.13803,48424
28.14615,39697
28.15427,38054
28.16240,38243
28.17052,37869
28.17865,36783
28.18677,37422
28.19488,38918
28.20302,44251
28.21113,41267
28.21927,48333
28.22738,47702
28.23550,55437
28.24363,50786
28.25175,49061
28.25987,50471
28.26800,45715
28.27612,44511
28.28425,44997
28.29237,45174
28.30048,40631
28.30862,42862
28.31673,52135
28.32487,66567
28.33298,74067
28.34110,100034
28.34923,126606
28.35735,168858
28.36548,203345
28.37360,229263
28.38172,253458
28.38985,261496
28.39797,257189
28.40608,240723
28.41422,221100
28.42233,200537
28.43047,187081
28.43858,164810
28.44670,152126
28.45483,128559
28.46295,117399
28.47108,104912
28.47920,96920
28.48732,91862
28.49545,86059
28.50357,90575
28.51168,80827
28.51982,81100
28.52793,72485
28.53607,75037
28.54418,74375
28.55230,68599
28.56043,67170
28.56855,68659
28.57668,68062
28.58480,64180
28.59292,60474
28.60105,65149
28.60917,60510
28.61730,61380
28.62542,61217
28.63353,60583
28.64167,58423
28.64978,60810
28.65790,56166
28.66603,59549
28.67415,66883
28.68228,64132
28.69040,60707
28.69852,57100
28.70665,59035
28.71477,55693
28.72290,53450
28.73102,56525
28.73913,51549
28.74727,50639
28.75538,49234
28.76352,50620
28.77163,65750
28.77975,64693
28.78788,78964
28.79600,87470
28.80412,86575
28.81225,82563
28.82037,69866
28.82850,60712
28.83662,56744
28.84473,49079
28.85287,49241
28.86098,48693
28.86912,49999
28.87723,46703
28.88535,42242
28.89348,45372
28.90160,47494
28.90972,43797
28.91785,47300
28.92597,44543
28.93410,46183
28.94222,44742
28.95033,46578
28.95847,51381
28.96658,49660
28.97472,49665
28.98283,50572
28.99095,56236
28.99908,49081
29.00720,51353
29.01533,47244
29.02345,47186
29.03157,48251
29.03970,49363
29.04782,44834
29.05593,41524
29.06407,48291
29.07218,45712
29.08032,41506
29.08843,43856
29.09655,44961
29.10468,47023
29.11280,43992
29.12093,40640
29.12905,44379
29.13717,45574
29.14530,40732
29.15342,40919
29.16153,46066
29.16967,42419
29.17778,45184
29.18592,47365
29.19403,44080
29.20215,44740
29.21028,47111
29.21840,40769
29.22653,42894
29.23465,44656
29.24277,47859
29.25090,52987
29.25902,55711
29.26715,51959
29.27527,53266
29.28338,56019
29.29152,56785
29.29963,51565
29.30775,46341
29.31588,41397
29.32400,42061
29.33213,43918
29.34025,47160
29.34837,44805
29.35650,42981
29.36462,41956
29.37275,39327
29.38087,48655
29.38898,42034
29.39712,44600
29.40523,45735
29.41337,46024
29.42148,50279
29.42960,44315
29.43773,44680
29.44585,43025
29.45397,44765
29.46210,45197
29.47022,41725
29.47835,39592
29.48647,39208
29.49458,42997
29.50272,44882
29.51083,47487
29.51897,52299
29.52708,47910
29.53520,50355
29.54333,51348
29.55145,44693
29.55958,45342
29.56770,41483
29.57582,43513
29.58395,45410
29.59207,42241
29.60018,40678
29.60832,42637
29.61643,42129
29.62457,45319
29.63268,40943
29.64080,39189
29.64893,40592
29.65705,44332
29.66518,44633
29.67330,41349
29.68142,40141
29.68955,38165
29.69767,36994
29.70578,38845
29.71392,35968
29.72203,36809
29.73017,41169
29.73828,41445
29.74640,40036
29.75453,37471
29.76265,40266
29.77078,45711
29.77890,36387
29.78702,35474
29.79515,39507
29.80327,40387
29.81140,41546
29.81952,37766
29.82763,32824
29.83577,35430
29.84388,38080
29.85200,36809
29.86013,44614
29.86825,44536
29.87638,57535
29.88450,87517
29.89262,132303
29.90075,210973
29.90887,291164
29.91700,325563
29.92512,340423
29.93323,290771
29.94137,207832
29.94948,141630
29.95760,96003
29.96573,79143
29.97385,76960
29.98198,83093
29.99010,93373
29.99822,105217
30.00635,116698
30.01447,139177
30.02260,151153
30.03072,169015
30.03883,165298
30.04697,171586
30.05508,173642
30.06322,164532
30.07133,158520
30.07945,156634
30.08758,152664
30.09570,141276
30.10382,127197
30.11195,122967
30.12007,113899
30.12820,104666
30.13632,101414
30.14443,95499
30.15257,87894
30.16068,93005
30.16882,81364
30.17693,79321
30.18505,80277
30.19318,72239
30.20130,72670
30.20943,70333
30.21755,65650
30.22567,66584
30.23380,65364
30.24192,62789
30.25003,60148
30.25817,59444
30.26628,57324
30.27442,53200
30.28253,54275
30.29065,54756
30.29878,53748
30.30690,53773
30.31503,54757
30.32315,54513
30.33127,53910
30.33940,50934
30.34752,50731
30.35563,52325
30.36377,50768
30.37188,50944
30.38002,49233
30.38813,48015
30.39625,48242
30.40438,46951
30.41250,48635
30.42063,46772
30.42875,48237
30.43687,45465
30.44500,46077
30.45312,43250
30.46125,45404
30.46937,48680
30.47748,46277
30.48562,44108
30.49373,44657
30.50185,44162
30.50998,42264
30.51810,40600
30.52623,45617
30.53435,41541
30.54247,45208
30.55060,45458
30.55872,46525
30.56685,43617
30.57497,43034
30.58308,42074
30.59122,39291
30.59933,44874
30.60747,44704
30.61558,42617
30.62370,40514
30.63183,39875
30.63995,40347
30.64807,43655
30.65620,43214
30.66432,40264
30.67245,36314
30.68057,39459
30.68868,43174
30.69682,40197
30.70493,40126
30.71307,46672
30.72118,42364
30.72930,44754
30.73743,39532
30.74555,43130
30.75367,43560
30.76180,41501
30.76992,41243
30.77805,38156
30.78617,40863
30.79428,46418
30.80242,50803
30.81053,53796
30.81867,54998
30.82678,59249
30.83490,58603
30.84303,58477
30.85115,52181
30.85928,44755
30.86740,44019
30.87552,41748
30.88365,44749
30.89177,40672
30.89988,41825
30.90802,41876
30.91613,38600
30.92427,45116
30.93238,40038
30.94050,40513
30.94863,39594
30.95675,42883
30.96488,40824
30.97300,41372
30.98112,39743
30.98925,45065
30.99737,40480
31.00548,40690
31.01362,36320
31.02173,38119
31.02987,39789
31.03798,36950
31.04610,43789
31.05423,43004
31.06235,44739
31.07048,41563
31.07860,42542
31.08672,45547
31.09485,48834
31.10297,58939
31.11110,72617
31.11922,87106
31.12733,93605
31.13547,83375
31.14358,79772
31.15170,69208
31.15983,56449
31.16795,47808
31.17608,43383
31.18420,49844
31.19232,51852
31.20045,69877
31.20857,81537
31.21670,100497
31.22482,122348
31.23293,144748
31.24107,153422
31.24918,139432
31.25732,124174
31.26543,102213
31.27355,76957
31.28168,58438
31.28980,55516
31.29792,47147
31.30605,46683
31.31417,49695
31.32230,44740
31.33042,42079
31.33853,40650
31.34667,39996
31.35478,42973
31.36292,44399
31.37103,42690
31.37915,43195
31.38728,49548
31.39540,52278
31.40352,49639
31.41165,49873
31.41977,53933
31.42790,51878
31.43602,45977
31.44413,54172
31.45227,48765
31.46038,44818
31.46852,46044
31.47663,44402
31.48475,40283
31.49288,42529
31.50100,39544
31.50913,40016
31.51725,37372
31.52537,38620
31.53350,40906
31.54162,41149
31.54973,35578
31.55787,39395
31.56598,42870
31.57412,38329
31.58223,36327
31.59035,38097
31.59848,37561
31.60660,40361
31.61473,44202
31.62285,39001
31.63097,37589
31.63910,38842
31.64722,39763
31.65535,35623
31.66347,36633
31.67158,38158
31.67972,39967
31.68783,39345
31.69595,36297
31.70408,40940
31.71220,39958
31.72033,42377
31.72845,36702
31.73657,39994
31.74470,35961
31.75282,46006
31.76095,38744
31.76907,39281
31.77718,36964
31.78532,38471
31.79343,37110
31.80155,39493
31.80968,37483
31.81780,36698
31.82593,47562
31.83405,41846
31.84217,41361
31.85030,42082
31.85842,40819
31.86655,42266
31.87467,45905
31.88278,42473
31.89092,51215
31.89903,45533
31.90717,46741
31.91528,53573
31.92340,54378
31.93153,59002
31.93965,71679
31.94777,79843
31.95590,95516
31.96402,111425
31.97215,123745
31.98027,131149
31.98838,133714
31.99652,130595
32.00463,128875
32.01277,133259
32.02088,123693
32.02900,115851
32.03713,117317
32.04525,107714
32.05337,99203
32.06150,93616
32.06962,84546
32.07775,87804
32.08587,82405
32.09398,81460
32.10212,81679
32.11023,74374
32.11837,71526
32.12648,73149
32.13460,63121
32.14273,57527
32.15085,58707
32.15898,53750
32.16710,55055
32.17522,53022
32.18335,59033
32.19147,50620
32.19958,49711
32.20772,52056
32.21583,50927
32.22397,50892
32.23208,48809
32.24020,49629
32.24833,49279
32.25645,54138
32.26458,51586
32.27270,48838
32.28082,50445
32.28895,56711
32.29707,44194
32.30520,53885
32.31332,47155
32.32143,45886
32.32957,46891
32.33768,42980
32.34580,50856
32.35393,46847
32.36205,47697
32.37018,50342
32.37830,55244
32.38642,50145
32.39455,53748
32.40267,48562
32.41080,49565
32.41892,46376
32.42703,44484
32.43517,46850
32.44328,49102
32.45140,45956
32.45953,45061
32.46765,41587
32.47578,40607
32.48390,42556
32.49202,43518
32.50015,43498
32.50827,43461
32.51640,37677
32.52452,41824
32.53263,44922
32.54077,41615
32.54888,41100
32.55702,43779
32.56513,45583
32.57325,42337
32.58138,46635
32.58950,43164
32.59762,41035
32.60575,42116
32.61387,43148
32.62200,42201
32.63012,44217
32.63823,39523
32.64637,41263
32.65448,43750
32.66262,44837
32.67073,51845
32.67885,60533
32.68698,66264
32.69510,68043
32.70323,72953
32.71135,59911
32.71947,57591
32.72760,54948
32.73572,51511
32.74383,46695
32.75197,43626
32.76008,43958
32.76822,42883
32.77633,41155
32.78445,41113
32.79258,43556
32.80070,39274
32.80883,40541
32.81695,39854
32.82507,41895
32.83320,36291
32.84132,37724
32.84943,44080
32.85757,37651
32.86568,39064
32.87382,37414
32.88193,38461
32.89005,43601
32.89818,41187
32.90630,40108
32.91443,41495
32.92255,39881
32.93067,39082
32.93880,41212
32.94692,40025
32.95505,39150
32.96317,38342
32.97128,38546
32.97942,38508
32.98753,39826
32.99565,37701
33.00378,39723
33.01190,42315
33.02003,37280
33.02815,45077
33.03627,44785
33.04440,35254
33.05252,36933
33.06065,42062
33.06877,44593
33.07688,39460
33.08502,40856
33.09313,39992
33.10127,44045
33.10938,45658
33.11750,49641
33.12563,53546
33.13375,62630
33.14187,62563
33.15000,58740
33.15812,56057
33.16625,50143
33.17437,43647
33.18248,42337
33.19062,39849
33.19873,37701
33.20687,43626
33.21498,44892
33.22310,47502
33.23123,46523
33.23935,50189
33.24747,44283
33.25560,43392
33.26372,46294
33.27185,40291
33.27997,44416
33.28808,36431
33.29622,38647
33.30433,40739
33.31247,43412
33.32058,41217
33.32870,42850
33.33683,40603
33.34495,40344
33.35308,45232
33.36120,39399
33.36932,42010
33.37745,39759
33.38557,39333
33.39368,43827
33.40182,38681
33.40993,45472
33.41807,38950
33.42618,40902
33.43430,37343
33.44243,38418
33.45055,39260
33.45868,39606
33.46680,42366
33.47492,37937
33.48305,40893
33.49117,41617
33.49928,39325
33.50742,40887
33.51553,42975
33.52367,39709
33.53178,38205
33.53990,34775
33.54803,39125
33.55615,39346
33.56428,36619
33.57240,42470
33.58052,41447
33.58865,42381
33.59677,39761
33.60490,37238
33.61302,37029
33.62113,41632
33.62927,38240
33.63738,38577
33.64550,36133
33.65363,38420
33.66175,41337
33.66988,40093
33.67800,42888
33.68612,39479
33.69425,39133
33.70237,40945
33.71050,42269
33.71862,44917
33.72673,42134
33.73487,42578
33.74298,39836
33.75112,38018
33.75923,36616
33.76735,37980
33.77548,37829
33.78360,37988
33.79172,39841
33.79985,36766
33.80797,38553
33.81610,43784
33.82422,39000
33.83233,36619
33.84047,41133
33.84858,41477
33.85672,52064
33.86483,49960
33.87295,44896
33.88108,49335
33.88920,47091
33.89733,50209
33.90545,48300
33.91357,40700
33.92170,40183
33.92982,41237
33.93793,42945
33.94607,47643
33.95418,47793
33.96232,42778
33.97043,39682
33.97855,40672
33.98668,41500
33.99480,41761
34.00293,37111
34.01105,43435
34.01917,38276
34.02730,41183
34.03542,40843
34.04353,40215
34.05167,40522
34.05978,39708
34.06792,39242
34.07603,40480
34.08415,39302
34.09228,46289
34.10040,42650
34.10853,40551
34.11665,44823
34.12477,40428
34.13290,42609
34.14102,39803
34.14915,47614
34.15727,42143
34.16538,41848
34.17352,42546
34.18163,40724
34.18975,42447
34.19788,45753
34.20600,40129
34.21413,41979
34.22225,40599
34.23037,45278
34.23850,40853
34.24662,41156
34.25475,44822
34.26287,47334
34.27098,42908
34.27912,45651
34.28723,46660
34.29535,43657
34.30348,43762
34.31160,40640
34.31973,40118
34.32785,43311
34.33597,45017
34.34410,42232
34.35222,44300
34.36035,46262
34.36847,39361
34.37658,44732
34.38472,43414
34.39283,43646
34.40097,45133
34.40908,44675
34.41720,42148
34.42533,42570
34.43345,43961
34.44157,40787
34.44970,42134
34.45782,42582
34.46595,47865
34.47407,47030
34.48218,43491
34.49032,39815
34.49843,46647
34.50657,45865
34.51468,50109
34.52280,45555
34.53093,55985
34.53905,60654
34.54718,74423
34.55530,93065
34.56342,109305
34.57155,120363
34.57967,120909
34.58778,119712
34.59592,122203
34.60403,108407
34.61217,96907
34.62028,88368
34.62840,85197
34.63653,77169
34.64465,72126
34.65278,70329
34.66090,69498
34.66902,64874
34.67715,61094
34.68527,62701
34.69338,61125
34.70152,67333
34.70963,57082
34.71777,59645
34.72588,55111
34.73400,57614
34.74213,53585
34.75025,58460
34.75838,54148
34.76650,58156
34.77462,59233
34.78275,51667
34.79087,55671
34.79900,56426
34.80712,50762
34.81523,54524
34.82337,52040
34.83148,50576
34.83960,54985
34.84773,47441
34.85585,52246
34.86398,52175
34.87210,48520
34.88022,46559
34.88835,53007
34.89647,47978
34.90460,48097
34.91272,47790
34.92083,47191
34.92897,55631
34.93708,51139
34.94522,53887
34.95333,54337
34.96145,70345
34.96958,91843
34.97770,120505
34.98582,143912
34.99395,152271
35.00207,166580
35.01020,138572
35.01832,112664
35.02643,83298
35.03457,68768
35.04268,64551
35.05082,60917
35.05893,57021
35.06705,56157
35.07518,54047
35.08330,54111
35.09142,61289
35.09955,54583
35.10767,56836
35.11580,56376
35.12392,53564
35.13203,55182
35.14017,53421
35.14828,56324
35.15642,56557
35.16453,58620
35.17265,57559
35.18078,58606
35.18890,61576
35.19703,57015
35.20515,56225
35.21327,56350
35.22140,50736
35.22952,58867
35.23763,53255
35.24577,51807
35.25388,47724
35.26202,48857
35.27013,51740
35.27825,49630
35.28638,58488
35.29450,49011
35.30263,48930
35.31075,55798
35.31887,50668
35.32700,51461
35.33512,53504
35.34323,49432
35.35137,46203
35.35948,49962
35.36762,47975
35.37573,46008
35.38385,50897
35.39198,44671
35.40010,47074
35.40823,43935
35.41635,48545
35.42447,48612
35.43260,48422
35.44072,47853
35.44885,49386
35.45697,51337
35.46508,52788
35.47322,53801
35.48133,53830
35.48945,53995
35.49758,48837
35.50570,53563
35.51383,50853
35.52195,46032
35.53007,50327
35.53820,52064
35.54632,46023
35.55445,49468
35.56257,53170
35.57068,47387
35.57882,47338
35.58693,52847
35.59507,56747
35.60318,53345
35.61130,59033
35.61943,53163
35.62755,50905
35.63567,51847
35.64380,50363
35.65192,55959
35.66005,53088
35.66817,52809
35.67628,51344
35.68442,62270
35.69253,54741
35.70067,57350
35.70878,63266
35.71690,57428
35.72503,57307
35.73315,57377
35.74127,58655
35.74940,51905
35.75752,54678
35.76565,53575
35.77377,51660
35.78188,49812
35.79002,53072
35.79813,49378
35.80627,51526
35.81438,51620
35.82250,50456
35.83063,51583
35.83875,49134
35.84688,50238
35.85500,52235
35.86312,54346
35.87125,51880
35.87937,52173
35.88748,47671
35.89562,55318
35.90373,52559
35.91187,54171
35.91998,54554
35.92810,51763
35.93623,50575
35.94435,55727
35.95248,51654
35.96060,48221
35.96872,50626
35.97685,52795
35.98497,50258
35.99310,50413
36.00122,49947
36.00933,51006
36.01747,51872
36.02558,53638
36.03370,55718
36.04183,52548
36.04995,52236
36.05808,51019
36.06620,53630
36.07432,56279
36.08245,55263
36.09057,51016
36.09870,56470
36.10682,49250
36.11493,46003
36.12307,48400
36.13118,54332
36.13930,56053
36.14743,52854
36.15555,49591
36.16368,50976
36.17180,55287
36.17992,49505
36.18805,54825
36.19617,53166
36.20430,46915
36.21242,53576
36.22053,52751
36.22867,50711
36.23678,49513
36.24492,50967
36.25303,53381
36.26115,48092
36.26928,51307
36.27740,56858
36.28552,50797
36.29365,50118
36.30177,52049
36.30990,57675
36.31802,60862
36.32613,68191
36.33427,72811
36.34238,74679
36.35052,71605
36.35863,72651
36.36675,65407
36.37488,63262
36.38300,56545
36.39112,56524
36.39925,57542
36.40737,54837
36.41550,58374
36.42362,57950
36.43173,59576
36.43987,52807
36.44798,49757
36.45612,52962
36.46423,52377
36.47235,52069
36.48048,49916
36.48860,51434
36.49673,47545
36.50485,50830
36.51297,51086
36.52110,49295
36.52922,47893
36.53733,49952
36.54547,49856
36.55358,55532
36.56172,52135
36.56983,56887
36.57795,55870
36.58608,55701
36.59420,55980
36.60233,51704
36.61045,52266
36.61857,50766
36.62670,55911
36.63482,50596
36.64295,52599
36.65107,51831
36.65918,50318
36.66732,54839
36.67543,55823
36.68355,58159
36.69168,60100
36.69980,56683
36.70793,57616
36.71605,57497
36.72417,60608
36.73230,56226
36.74042,54342
36.74855,55221
36.75667,55349
36.76478,55942
36.77292,55529
36.78103,49142
36.78915,52457
36.79728,51560
36.80540,54216
36.81353,55275
36.82165,55774
36.82977,53486
36.83790,54571
36.84602,52685
36.85415,52839
36.86227,46302
36.87038,52549
36.87852,55193
36.88663,52806
36.89477,52737
36.90288,54313
36.91100,56141
36.91913,56097
36.92725,52503
36.93537,54719
36.94350,52857
36.95162,52070
36.95975,50267
36.96787,50793
36.97598,57718
36.98412,52984
36.99223,53183
37.00037,55391
37.00848,58501
37.01660,56588
37.02473,52557
37.03285,54760
37.04098,51038
37.04910,51054
37.05722,60476
37.06535,60421
37.07347,53036
37.08158,52629
37.08972,60420
37.09783,59302
37.10597,54049
37.11408,53552
37.12220,56743
37.13033,51295
37.13845,55573
37.14658,57531
37.15470,62207
37.16282,58471
37.17095,55700
37.17907,57222
37.18718,54967
37.19532,61175
37.20343,58052
37.21157,55932
37.21968,60618
37.22780,56389
37.23593,61496
37.24405,61225
37.25218,60117
37.26030,60353
37.26842,58402
37.27655,60932
37.28467,65537
37.29280,61734
37.30092,56572
37.30903,52204
37.31717,56602
37.32528,60365
37.33340,58646
37.34153,67347
37.34965,69461
37.35778,79791
37.36590,93563
37.37402,103003
37.38215,106999
37.39027,110902
37.39840,106795
37.40652,103100
37.41463,91333
37.42277,91831
37.43088,85617
37.43902,77174
37.44713,73798
37.45525,71864
37.46338,72974
37.47150,70528
37.47962,75312
37.48775,70827
