C:\MassHunter\GCMS\1\data\JTB-E18\JTB-E18-031-08.D Thu Oct 03 13:20:03 2019
Start of data points
2.09533	123991
2.10345	119717
2.11158	121881
2.11970	113879
2.12782	111573
2.13595	111452
2.14407	112561
2.15218	107664
2.16032	107762
2.16843	100498
2.17657	101553
2.18468	97656
2.19280	96257
2.20093	96872
2.20905	93147
2.21718	99609
2.22530	88764
2.23342	93044
2.24155	92258
2.24967	89560
2.25780	92171
2.26592	116284
2.27403	446256
2.28217	1317461
2.29028	1165538
2.29840	586767
2.30653	386195
2.31465	304264
2.32278	274257
2.33090	233048
2.33902	221469
2.34715	204683
2.35527	191316
2.36340	172544
2.37152	165519
2.37963	170791
2.38777	204799
2.39588	187335
2.40402	162671
2.41213	156151
2.42025	152103
2.42838	150727
2.43650	147979
2.44462	148886
2.45275	151039
2.46087	140918
2.46900	136675
2.47712	136257
2.48523	132106
2.49337	139898
2.50148	144642
2.50962	134137
2.51773	131642
2.52585	132895
2.53398	124147
2.54210	131941
2.55022	138208
2.55835	167573
2.56647	186023
2.57460	156998
2.58272	134785
2.59083	130080
2.59897	127350
2.60708	129198
2.61522	154647
2.62333	165340
2.63145	156703
2.63958	134828
2.64770	127973
2.65583	129766
2.66395	124317
2.67207	138904
2.68020	162508
2.68832	157346
2.69643	129729
2.70457	123514
2.71268	119902
2.72082	117512
2.72893	121774
2.73705	119270
2.74518	115991
2.75330	115123
2.76143	110990
2.76955	109716
2.77767	113526
2.78580	137962
2.79392	153683
2.80205	143218
2.81017	132895
2.81828	146116
2.82642	239534
2.83453	456908
2.84265	463776
2.85078	274316
2.85890	202582
2.86703	202531
2.87515	179934
2.88327	151682
2.89140	137322
2.89952	129910
2.90765	126714
2.91577	124948
2.92388	120150
2.93202	110910
2.94013	110694
2.94825	108547
2.95638	113090
2.96450	109595
2.97263	108229
2.98075	108315
2.98887	107189
2.99700	119540
3.00512	122065
3.01325	124456
3.02137	158038
3.02948	308997
3.03762	607855
3.04573	866710
3.05387	2283149
3.06198	5704998
3.07010	6497079
3.07823	3862451
3.08635	1870918
3.09447	1202913
3.10260	1316319
3.11072	2266313
3.11885	2568133
3.12697	1809300
3.13508	1229474
3.14322	954750
3.15133	780048
3.15947	678346
3.16758	596472
3.17570	545034
3.18383	512734
3.19195	618012
3.20007	713531
3.20820	629994
3.21632	502422
3.22445	441282
3.23257	408548
3.24068	360200
3.24882	336153
3.25693	312533
3.26507	293910
3.27318	271941
3.28130	317070
3.28943	653376
3.29755	1670508
3.30568	3025372
3.31380	3599250
3.32192	3014665
3.33005	2200339
3.33817	1692489
3.34628	1397316
3.35442	1173445
3.36253	1066274
3.37067	1022693
3.37878	1148774
3.38690	1219389
3.39503	1083915
3.40315	1127923
3.41128	1953291
3.41940	3027472
3.42752	2809939
3.43565	1782155
3.44377	1107788
3.45190	832528
3.46002	712293
3.46813	638471
3.47627	583190
3.48438	534543
3.49250	483852
3.50063	456167
3.50875	432712
3.51688	404713
3.52500	391583
3.53312	380454
3.54125	377317
3.54937	358627
3.55750	345452
3.56562	330952
3.57373	323474
3.58187	303704
3.58998	298195
3.59810	290418
3.60623	289392
3.61435	332005
3.62248	580869
3.63060	1189791
3.63872	1821631
3.64685	1671702
3.65497	1093653
3.66310	755480
3.67122	960871
3.67933	1674213
3.68747	1953635
3.69558	1400932
3.70372	894562
3.71183	654304
3.71995	559950
3.72808	498491
3.73620	453673
3.74432	428551
3.75245	412700
3.76057	407044
3.76870	388064
3.77682	383460
3.78493	378235
3.79307	366851
3.80118	401436
3.80932	564402
3.81743	838801
3.82555	883837
3.83368	671152
3.84180	511821
3.84993	434869
3.85805	381095
3.86617	350650
3.87430	330862
3.88242	320355
3.89053	300365
3.89867	300193
3.90678	282895
3.91492	291191
3.92303	329334
3.93115	367214
3.93928	367135
3.94740	329353
3.95553	300730
3.96365	307319
3.97177	305006
3.97990	291354
3.98802	264146
3.99613	266077
4.00427	342960
4.01238	464900
4.02052	541441
4.02863	452823
4.03675	352626
4.04488	290428
4.05300	265608
4.06113	260847
4.06925	247832
4.07737	235847
4.08550	231693
4.09362	218603
4.10175	216605
4.10987	202750
4.11798	203434
4.12612	202204
4.13423	208619
4.14235	242936
4.15048	281088
4.15860	311049
4.16673	282926
4.17485	258189
4.18297	240653
4.19110	213865
4.19922	212046
4.20735	274895
4.21547	860013
4.22358	3126261
4.23172	7218094
4.23983	1.035915E+07
4.24797	9858437
4.25608	6800113
4.26420	4268188
4.27233	2929641
4.28045	2150935
4.28857	1677543
4.29670	1339556
4.30482	1114486
4.31295	933735
4.32107	837543
4.32918	735950
4.33732	684471
4.34543	626781
4.35357	597618
4.36168	571407
4.36980	541569
4.37793	499074
4.38605	466387
4.39417	432853
4.40230	412187
4.41042	397664
4.41855	380741
4.42667	369647
4.43478	347244
4.44292	348172
4.45103	349655
4.45917	352367
4.46728	346025
4.47540	319912
4.48353	312323
4.49165	303556
4.49978	287241
4.50790	278763
4.51602	264976
4.52415	261463
4.53227	259491
4.54038	254862
4.54852	253355
4.55663	248342
4.56477	240540
4.57288	232655
4.58100	229821
4.58913	223185
4.59725	222547
4.60538	223376
4.61350	219310
4.62162	226334
4.62975	259477
4.63787	308613
4.64598	336976
4.65412	315547
4.66223	265134
4.67037	237686
4.67848	218710
4.68660	215886
4.69473	208023
4.70285	197914
4.71098	194534
4.71910	194103
4.72722	184474
4.73535	193825
4.74347	185603
4.75160	181451
4.75972	175149
4.76783	181512
4.77597	171884
4.78408	200773
4.79220	323178
4.80033	623506
4.80845	952471
4.81658	990145
4.82470	734472
4.83282	526622
4.84095	416989
4.84907	365797
4.85720	321407
4.86532	288719
4.87343	267441
4.88157	251173
4.88968	241447
4.89782	229426
4.90593	229992
4.91405	246902
4.92218	333595
4.93030	575662
4.93842	1024129
4.94655	1511382
4.95467	1723277
4.96280	1578547
4.97092	1260104
4.97903	969394
4.98717	788947
4.99528	657003
5.00342	572493
5.01153	514895
5.01965	480655
5.02778	506232
5.03590	617295
5.04402	714003
5.05215	712106
5.06027	610928
5.06840	501177
5.07652	435750
5.08463	387618
5.09277	379303
5.10088	380361
5.10902	419061
5.11713	450750
5.12525	455321
5.13338	430803
5.14150	376267
5.14963	325241
5.15775	329538
5.16587	343401
5.17400	372012
5.18212	421652
5.19023	416363
5.19837	418911
5.20648	383632
5.21462	337827
5.22273	305935
5.23085	288056
5.23898	284693
5.24710	283774
5.25523	270450
5.26335	248318
5.27147	243126
5.27960	237470
5.28772	233817
5.29585	226769
5.30397	227796
5.31208	210501
5.32022	212480
5.32833	216629
5.33645	223442
5.34458	222033
5.35270	221090
5.36083	210703
5.36895	198791
5.37707	196849
5.38520	194780
5.39332	184327
5.40145	192210
5.40957	189683
5.41768	183404
5.42582	185074
5.43393	177240
5.44205	175048
5.45018	180747
5.45830	178437
5.46643	174670
5.47455	169933
5.48267	161759
5.49080	170474
5.49892	174594
5.50705	165828
5.51517	177493
5.52328	183038
5.53142	164795
5.53953	167392
5.54767	159332
5.55578	166894
5.56390	168951
5.57203	175775
5.58015	171400
5.58827	177410
5.59640	173398
5.60452	167802
5.61265	162481
5.62077	171555
5.62888	184084
5.63702	184242
5.64513	195258
5.65327	191666
5.66138	168112
5.66950	172931
5.67763	179840
5.68575	188833
5.69387	201057
5.70200	211826
5.71012	218301
5.71825	224667
5.72637	230948
5.73448	241093
5.74262	227132
5.75073	222888
5.75887	222086
5.76698	233831
5.77510	246026
5.78323	240007
5.79135	238379
5.79948	226624
5.80760	307893
5.81572	525146
5.82385	876648
5.83197	1208743
5.84008	1326456
5.84822	1135079
5.85633	819277
5.86447	562882
5.87258	401930
5.88070	308905
5.88883	266462
5.89695	250830
5.90508	257910
5.91320	316323
5.92132	432064
5.92945	549605
5.93757	624222
5.94570	570378
5.95382	451943
5.96193	360017
5.97007	305608
5.97818	280398
5.98630	292344
5.99443	286893
6.00255	255718
6.01068	227022
6.01880	188716
6.02692	174256
6.03505	164584
6.04317	161584
6.05130	146646
6.05942	143037
6.06753	134048
6.07567	137664
6.08378	131701
6.09192	126049
6.10003	127140
6.10815	125198
6.11628	125444
6.12440	137516
6.13252	168073
6.14065	223203
6.14877	263617
6.15690	257038
6.16502	227050
6.17313	192339
6.18127	176096
6.18938	181611
6.19752	189097
6.20563	191321
6.21375	190897
6.22188	178068
6.23000	167163
6.23812	160156
6.24625	152661
6.25437	159632
6.26250	160618
6.27062	155825
6.27873	164334
6.28687	155549
6.29498	158064
6.30312	158204
6.31123	160237
6.31935	172961
6.32748	184941
6.33560	214767
6.34373	225193
6.35185	218738
6.35997	210054
6.36810	201809
6.37622	198021
6.38433	189764
6.39247	189947
6.40058	184693
6.40872	190048
6.41683	185488
6.42495	192892
6.43308	190189
6.44120	198999
6.44933	190600
6.45745	198016
6.46557	200347
6.47370	198270
6.48182	197047
6.48993	210325
6.49807	214749
6.50618	211254
6.51432	215906
6.52243	219405
6.53055	219668
6.53868	222600
6.54680	229609
6.55493	224325
6.56305	225601
6.57117	220312
6.57930	233430
6.58742	223851
6.59555	239415
6.60367	233223
6.61178	233904
6.61992	220688
6.62803	225994
6.63615	229991
6.64428	230250
6.65240	239053
6.66053	265393
6.66865	304097
6.67677	322840
6.68490	344047
6.69302	381581
6.70115	374663
6.70927	311964
6.71738	257766
6.72552	196451
6.73363	167567
6.74177	143208
6.74988	135265
6.75800	126147
6.76613	120462
6.77425	130936
6.78237	130910
6.79050	164831
6.79862	248298
6.80675	406335
6.81487	632828
6.82298	859447
6.83112	924877
6.83923	765280
6.84737	560130
6.85548	364149
6.86360	231572
6.87173	163236
6.87985	134939
6.88797	117376
6.89610	111841
6.90422	102396
6.91235	98484
6.92047	94207
6.92858	93710
6.93672	105205
6.94483	122298
6.95297	174760
6.96108	255795
6.96920	321748
6.97733	369195
6.98545	356410
6.99358	296318
7.00170	222556
7.00982	165533
7.01795	130553
7.02607	109163
7.03418	98525
7.04232	97202
7.05043	92245
7.05857	100070
7.06668	96079
7.07480	95832
7.08293	88444
7.09105	80190
7.09918	79784
7.10730	79456
7.11542	69888
7.12355	76162
7.13167	77225
7.13980	79826
7.14792	91599
7.15603	95075
7.16417	112217
7.17228	113045
7.18040	115326
7.18853	126898
7.19665	182432
7.20478	350854
7.21290	644276
7.22102	953862
7.22915	978196
7.23727	825229
7.24540	558130
7.25352	363603
7.26163	267711
7.26977	214214
7.27788	177659
7.28600	146126
7.29413	128877
7.30225	119630
7.31038	124645
7.31850	141320
7.32662	180843
7.33475	228263
7.34287	280549
7.35100	286983
7.35912	268248
7.36723	215900
7.37537	177847
7.38348	133826
7.39162	121075
7.39973	118806
7.40785	106921
7.41598	109610
7.42410	121948
7.43222	148794
7.44035	163483
7.44847	184037
7.45660	191565
7.46472	178136
7.47283	158940
7.48097	131823
7.48908	109971
7.49722	96104
7.50533	87681
7.51345	79828
7.52158	83228
7.52970	81508
7.53782	85970
7.54595	91713
7.55407	102925
7.56220	108481
7.57032	109884
7.57843	102237
7.58657	97686
7.59468	89639
7.60282	89371
7.61093	77916
7.61905	80574
7.62718	81510
7.63530	80736
7.64343	73554
7.65155	72067
7.65967	72703
7.66780	72548
7.67592	69350
7.68403	68581
7.69217	71807
7.70028	71955
7.70842	72202
7.71653	72494
7.72465	76909
7.73278	74448
7.74090	67658
7.74903	66850
7.75715	69688
7.76527	69138
7.77340	70376
7.78152	67503
7.78965	69205
7.79777	68847
7.80588	72871
7.81402	69762
7.82213	69994
7.83025	71045
7.83838	66188
7.84650	71708
7.85463	66200
7.86275	68203
7.87087	63082
7.87900	62617
7.88712	64603
7.89525	62045
7.90337	64347
7.91148	59414
7.91962	65416
7.92773	72424
7.93585	74128
7.94398	80199
7.95210	87238
7.96023	84355
7.96835	83008
7.97647	78934
7.98460	66195
7.99272	68190
8.00085	63054
8.00897	60098
8.01708	59223
8.02522	58201
8.03333	58087
8.04147	60593
8.04958	53506
8.05770	55921
8.06583	57506
8.07395	58999
8.08207	54566
8.09020	53349
8.09832	51415
8.10645	54764
8.11457	56168
8.12268	56168
8.13082	57790
8.13893	64818
8.14707	69018
8.15518	74628
8.16330	68296
8.17143	60114
8.17955	67177
8.18768	57617
8.19580	56762
8.20392	54018
8.21205	55487
8.22017	55210
8.22828	52608
8.23642	57144
8.24453	53208
8.25267	54729
8.26078	52919
8.26890	51322
8.27703	48261
8.28515	53869
8.29328	52459
8.30140	55538
8.30952	56356
8.31765	63183
8.32577	74167
8.33388	70341
8.34202	68174
8.35013	60161
8.35827	57249
8.36638	55309
8.37450	51971
8.38263	49256
8.39075	50531
8.39888	52925
8.40700	50950
8.41512	52332
8.42325	49843
8.43137	49439
8.43950	47015
8.44762	46398
8.45573	49984
8.46387	51401
8.47198	51224
8.48010	49565
8.48823	50226
8.49635	54233
8.50448	49165
8.51260	61711
8.52072	95112
8.52885	148252
8.53697	213677
8.54510	268288
8.55322	256604
8.56133	198622
8.56947	133972
8.57758	91884
8.58572	76904
8.59383	65498
8.60195	59858
8.61008	59464
8.61820	64017
8.62632	58340
8.63445	58337
8.64257	50387
8.65070	53861
8.65882	51267
8.66693	53617
8.67507	55534
8.68318	57146
8.69132	60935
8.69943	57528
8.70755	62963
8.71568	70506
8.72380	91124
8.73192	169128
8.74005	269264
8.74817	420631
8.75630	499704
8.76442	485047
8.77253	392541
8.78067	274420
8.78878	189568
8.79692	152524
8.80503	131826
8.81315	131099
8.82128	119035
8.82940	113583
8.83753	109222
8.84565	102571
8.85377	98899
8.86190	91965
8.87002	88913
8.87813	90217
8.88627	79057
8.89438	78522
8.90252	79252
8.91063	82777
8.91875	76290
8.92688	81581
8.93500	83677
8.94313	81380
8.95125	89113
8.95937	83269
8.96750	72262
8.97562	76161
8.98373	74726
8.99187	74991
8.99998	71599
9.00812	66655
9.01623	71593
9.02435	66099
9.03248	66385
9.04060	63968
9.04873	62861
9.05685	65401
9.06497	60708
9.07310	63499
9.08122	61195
9.08935	58232
9.09747	61853
9.10558	67024
9.11372	63503
9.12183	67131
9.12995	64603
9.13808	64606
9.14620	62697
9.15433	57193
9.16245	63697
9.17057	55865
9.17870	55166
9.18682	59154
9.19495	52698
9.20307	51732
9.21118	57441
9.21932	57744
9.22743	57327
9.23557	57616
9.24368	54675
9.25180	59385
9.25993	58466
9.26805	64298
9.27617	65606
9.28430	69544
9.29242	66115
9.30055	68316
9.30867	61254
9.31678	55964
9.32492	58288
9.33303	63455
9.34117	59992
9.34928	61430
9.35740	61585
9.36553	58961
9.37365	57929
9.38177	55686
9.38990	52968
9.39802	54466
9.40615	56675
9.41427	54920
9.42238	59315
9.43052	58725
9.43863	61232
9.44677	58304
9.45488	56988
9.46300	54329
9.47113	51759
9.47925	51671
9.48738	49314
9.49550	54895
9.50362	58642
9.51175	70561
9.51987	73564
9.52798	72491
9.53612	66838
9.54423	65331
9.55237	54914
9.56048	49920
9.56860	46050
9.57673	42768
9.58485	42205
9.59298	41170
9.60110	39678
9.60922	41348
9.61735	38423
9.62547	41099
9.63360	44078
9.64172	44184
9.64983	45084
9.65797	49792
9.66608	40925
9.67420	40500
9.68233	38249
9.69045	36765
9.69858	38301
9.70670	36071
9.71482	42787
9.72295	37856
9.73107	41495
9.73920	36993
9.74732	37071
9.75543	35559
9.76357	37525
9.77168	35302
9.77980	34257
9.78793	36845
9.79605	34538
9.80418	32483
9.81230	35152
9.82042	37495
9.82855	37113
9.83667	34506
9.84480	36629
9.85292	31834
9.86103	38270
9.86917	37092
9.87728	38524
9.88542	36148
9.89353	35224
9.90165	34105
9.90978	34651
9.91790	40932
9.92602	44594
9.93415	55836
9.94227	71146
9.95040	93609
9.95852	111400
9.96663	101588
9.97477	84116
9.98288	78291
9.99102	63188
9.99913	55255
10.00725	47226
10.01538	46400
10.02350	43494
10.03162	42859
10.03975	41500
10.04787	41174
10.05600	43043
10.06412	41058
10.07223	41608
10.08037	38880
10.08848	38945
10.09662	41171
10.10473	39113
10.11285	38296
10.12098	38890
10.12910	37487
10.13723	38681
10.14535	37405
10.15347	36999
10.16160	37674
10.16972	38968
10.17783	33771
10.18597	35125
10.19408	36349
10.20222	34081
10.21033	37129
10.21845	39067
10.22658	39777
10.23470	39278
10.24283	43406
10.25095	50951
10.25907	78513
10.26720	144551
10.27532	305055
10.28345	560740
10.29157	953836
10.29968	1446498
10.30782	2236609
10.31593	3378500
10.32405	4803162
10.33218	5424761
10.34030	4818886
10.34843	3489297
10.35655	2039434
10.36467	1076891
10.37280	636587
10.38092	427609
10.38905	326791
10.39717	265887
10.40528	222005
10.41342	183300
10.42153	164056
10.42965	146304
10.43778	133655
10.44590	122643
10.45403	115103
10.46215	110725
10.47027	106919
10.47840	97393
10.48652	88961
10.49465	95169
10.50277	92662
10.51088	86040
10.51902	85693
10.52713	82609
10.53527	85967
10.54338	75282
10.55150	74231
10.55963	71841
10.56775	70004
10.57587	72639
10.58400	78070
10.59212	64530
10.60025	65593
10.60837	60943
10.61648	64008
10.62462	57130
10.63273	60137
10.64087	61297
10.64898	61432
10.65710	57695
10.66523	58535
10.67335	55465
10.68148	59352
10.68960	60615
10.69772	58478
10.70585	57332
10.71397	62657
10.72208	55355
10.73022	58153
10.73833	58472
10.74647	58728
10.75458	55076
10.76270	52558
10.77083	53257
10.77895	51623
10.78708	46661
10.79520	48187
10.80332	48677
10.81145	44570
10.81957	46310
10.82768	46445
10.83582	45199
10.84393	44208
10.85207	43125
10.86018	44595
10.86830	42433
10.87643	41008
10.88455	41735
10.89268	43146
10.90080	42221
10.90892	39192
10.91705	40801
10.92517	41854
10.93330	43489
10.94142	40132
10.94953	42365
10.95767	46738
10.96578	45706
10.97390	45454
10.98203	44445
10.99015	44211
10.99828	42022
11.00640	44231
11.01452	39165
11.02265	37791
11.03077	39323
11.03890	40483
11.04702	36193
11.05513	39851
11.06327	38802
11.07138	41269
11.07950	40053
11.08763	40133
11.09575	42714
11.10388	40899
11.11200	43233
11.12012	41406
11.12825	41770
11.13637	40574
11.14450	43860
11.15262	40453
11.16073	41205
11.16887	39152
11.17698	37456
11.18512	39675
11.19323	39668
11.20135	39048
11.20948	43553
11.21760	39860
11.22572	37553
11.23385	38974
11.24197	38007
11.25010	36188
11.25822	44923
11.26633	55999
11.27447	73281
11.28258	89089
11.29072	108496
11.29883	112493
11.30695	108327
11.31508	101528
11.32320	104504
11.33133	102674
11.33945	108817
11.34757	109693
11.35570	105723
11.36382	96919
11.37193	81770
11.38007	79862
11.38818	69294
11.39632	67249
11.40443	57768
11.41255	54507
11.42068	52638
11.42880	50850
11.43693	49272
11.44505	44968
11.45317	42406
11.46130	43397
11.46942	45911
11.47755	54787
11.48567	58713
11.49378	68760
11.50192	74288
11.51003	73040
11.51815	76063
11.52628	73570
11.53440	71508
11.54253	69326
11.55065	68266
11.55877	60909
11.56690	53732
11.57502	54107
11.58315	47403
11.59127	56566
11.59938	59801
11.60752	76501
11.61563	76061
11.62375	76541
11.63188	70363
11.64000	60410
11.64813	53223
11.65625	51369
11.66437	48557
11.67250	49347
11.68062	57782
11.68875	60013
11.69687	62308
11.70498	65353
11.71312	65547
11.72123	71802
11.72937	68179
11.73748	67670
11.74560	58686
11.75373	50985
11.76185	48916
11.76997	46281
11.77810	43414
11.78622	43455
11.79435	46228
11.80247	43673
11.81058	40943
11.81872	44701
11.82683	41579
11.83497	42276
11.84308	41040
11.85120	39202
11.85933	38454
11.86745	39045
11.87557	36303
11.88370	39177
11.89182	37295
11.89995	40484
11.90807	41462
11.91618	50588
11.92432	53678
11.93243	56411
11.94057	61330
11.94868	60350
11.95680	55627
11.96493	52051
11.97305	43966
11.98118	43059
11.98930	45362
11.99742	49252
12.00555	53933
12.01367	53315
12.02178	51633
12.02992	48378
12.03803	40691
12.04617	39415
12.05428	39963
12.06240	38555
12.07053	37546
12.07865	39152
12.08678	38631
12.09490	37108
12.10302	38287
12.11115	37974
12.11927	38159
12.12740	38237
12.13552	37583
12.14363	39711
12.15177	40855
12.15988	36066
12.16800	37126
12.17613	34053
12.18425	34244
12.19238	36306
12.20050	34635
12.20862	34519
12.21675	35670
12.22487	32921
12.23300	30986
12.24112	35186
12.24923	33394
12.25737	30520
12.26548	30021
12.27360	31985
12.28173	33886
12.28985	34963
12.29798	34244
12.30610	32312
12.31422	32466
12.32235	33339
12.33047	33512
12.33860	32488
12.34672	30529
12.35483	32634
12.36297	30153
12.37108	32170
12.37922	32215
12.38733	35666
12.39545	35001
12.40358	46231
12.41170	58344
12.41982	65859
12.42795	65202
12.43607	64210
12.44420	56703
12.45232	50073
12.46043	46089
12.46857	39594
12.47668	37571
12.48482	36602
12.49293	36457
12.50105	31546
12.50918	37835
12.51730	35189
12.52543	33085
12.53355	42474
12.54167	61334
12.54980	87314
12.55792	113477
12.56603	131890
12.57417	128285
12.58228	100544
12.59042	79507
12.59853	66524
12.60665	52586
12.61478	51623
12.62290	46172
12.63103	46239
12.63915	45385
12.64727	41259
12.65540	41884
12.66352	34258
12.67163	42393
12.67977	35818
12.68788	32571
12.69602	34055
12.70413	35419
12.71225	32836
12.72038	33627
12.72850	35529
12.73663	34668
12.74475	32637
12.75287	35079
12.76100	36956
12.76912	36898
12.77725	35633
12.78537	41739
12.79348	39190
12.80162	40404
12.80973	37947
12.81785	38658
12.82598	34331
12.83410	34310
12.84223	34785
12.85035	37185
12.85847	35254
12.86660	37238
12.87472	33173
12.88285	34849
12.89097	32149
12.89908	32149
12.90722	34781
12.91533	31439
12.92345	35155
12.93158	38866
12.93970	45184
12.94783	59189
12.95595	73697
12.96407	88206
12.97220	98208
12.98032	94942
12.98845	83493
12.99657	77890
13.00468	66437
13.01282	64630
13.02093	59374
13.02907	61634
13.03718	56634
13.04530	53693
13.05343	52437
13.06155	46058
13.06967	45068
13.07780	41462
13.08592	39508
13.09405	36227
13.10217	38649
13.11028	40218
13.11842	37377
13.12653	34895
13.13467	39585
13.14278	36729
13.15090	36899
13.15903	39970
13.16715	34607
13.17528	35370
13.18340	34973
13.19152	32495
13.19965	34831
13.20777	39450
13.21588	38873
13.22402	35978
13.23213	40379
13.24027	40641
13.24838	44721
13.25650	45402
13.26463	45845
13.27275	46898
13.28088	45165
13.28900	47741
13.29712	39714
13.30525	42504
13.31337	41321
13.32148	45585
13.32962	48444
13.33773	46241
13.34587	45663
13.35398	40804
13.36210	40485
13.37023	41740
13.37835	38661
13.38648	37196
13.39460	36141
13.40272	33180
13.41085	33665
13.41897	36579
13.42710	32061
13.43522	35007
13.44333	35694
13.45147	31755
13.45958	32515
13.46770	30382
13.47583	33104
13.48395	31647
13.49208	31042
13.50020	29447
13.50832	31007
13.51645	32394
13.52457	38899
13.53270	35736
13.54082	37633
13.54893	37707
13.55707	40110
13.56518	43540
13.57332	43260
13.58143	41801
13.58955	45735
13.59768	55909
13.60580	69489
13.61392	81451
13.62205	92081
13.63017	95587
13.63830	88153
13.64642	78975
13.65453	62292
13.66267	56626
13.67078	48928
13.67892	48395
13.68703	49106
13.69515	44883
13.70328	47480
13.71140	40580
13.71952	44572
13.72765	43220
13.73577	45130
13.74390	44601
13.75202	53808
13.76013	65423
13.76827	78712
13.77638	87117
13.78452	103277
13.79263	108094
13.80075	105275
13.80888	100928
13.81700	100423
13.82513	99013
13.83325	93445
13.84137	93029
13.84950	83600
13.85762	70928
13.86573	64127
13.87387	63635
13.88198	59368
13.89012	57785
13.89823	55604
13.90635	53481
13.91448	56502
13.92260	53510
13.93073	49925
13.93885	47415
13.94697	47709
13.95510	50589
13.96322	52028
13.97133	49866
13.97947	48544
13.98758	47534
13.99572	47430
14.00383	46474
14.01195	42339
14.02008	50988
14.02820	42770
14.03633	43830
14.04445	40550
14.05257	39307
14.06070	40683
14.06882	37208
14.07695	34962
14.08507	35268
14.09318	34409
14.10132	34831
14.10943	33355
14.11755	35771
14.12568	50542
14.13380	72047
14.14193	112594
14.15005	155202
14.15817	195050
14.16630	207376
14.17442	189900
14.18255	148255
14.19067	110394
14.19878	92135
14.20692	78451
14.21503	68430
14.22317	67218
14.23128	66741
14.23940	64867
14.24753	65630
14.25565	61201
14.26377	60892
14.27190	57065
14.28002	52717
14.28815	49706
14.29627	48986
14.30438	42404
14.31252	41634
14.32063	43962
14.32877	40520
14.33688	42658
14.34500	46193
14.35313	52426
14.36125	50523
14.36937	46228
14.37750	45350
14.38562	51226
14.39375	58073
14.40187	77475
14.40998	105335
14.41812	126095
14.42623	136733
14.43437	122481
14.44248	101114
14.45060	82245
14.45873	60758
14.46685	53904
14.47498	45675
14.48310	47472
14.49122	46303
14.49935	39003
14.50747	44260
14.51558	39340
14.52372	39291
14.53183	39665
14.53997	38231
14.54808	34925
14.55620	38813
14.56433	38180
14.57245	36651
14.58058	38545
14.58870	33823
14.59682	31792
14.60495	32822
14.61307	32090
14.62120	32953
14.62932	33023
14.63743	36650
14.64557	37459
14.65368	33299
14.66180	28890
14.66993	31629
14.67805	31088
14.68618	32797
14.69430	31153
14.70242	34030
14.71055	31999
14.71867	32480
14.72680	30691
14.73492	33127
14.74303	34403
14.75117	31588
14.75928	29173
14.76740	27868
14.77553	36999
14.78365	47450
14.79178	72028
14.79990	157003
14.80802	313494
14.81615	580452
14.82427	886090
14.83240	1038738
14.84052	945727
14.84863	722304
14.85677	481726
14.86488	309971
14.87302	204799
14.88113	153906
14.88925	123526
14.89738	109201
14.90550	95039
14.91362	80318
14.92175	76198
14.92987	79474
14.93800	66050
14.94612	70135
14.95423	65845
14.96237	57931
14.97048	61503
14.97862	59954
14.98673	52931
14.99485	53006
15.00298	50762
15.01110	50537
15.01923	51756
15.02735	46976
15.03547	48137
15.04360	47478
15.05172	46297
15.05983	44563
15.06797	42781
15.07608	44884
15.08422	45059
15.09233	41106
15.10045	43649
15.10858	40465
15.11670	43426
15.12483	44248
15.13295	48598
15.14107	49735
15.14920	45037
15.15732	49601
15.16543	45903
15.17357	42292
15.18168	41490
15.18982	42898
15.19793	39862
15.20605	33884
15.21418	35407
15.22230	34256
15.23043	31889
15.23855	37574
15.24667	30346
15.25480	32283
15.26292	29863
15.27105	34107
15.27917	31574
15.28728	31668
15.29542	34034
15.30353	31836
15.31165	33931
15.31978	33103
15.32790	30929
15.33603	31376
15.34415	32005
15.35227	30895
15.36040	29727
15.36852	32275
15.37665	30375
15.38477	31800
15.39288	30646
15.40102	30765
15.40913	28825
15.41725	30775
15.42538	31826
15.43350	30901
15.44163	31403
15.44975	33893
15.45787	31925
15.46600	29995
15.47412	32500
15.48225	38341
15.49037	40176
15.49848	46109
15.50662	41590
15.51473	45103
15.52287	42173
15.53098	42191
15.53910	41584
15.54723	37163
15.55535	37203
15.56347	35212
15.57160	29784
15.57972	33648
15.58785	33466
15.59597	27806
15.60408	33317
15.61222	27799
15.62033	29142
15.62847	32220
15.63658	31065
15.64470	26889
15.65283	30586
15.66095	27029
15.66908	32021
15.67720	27927
15.68532	28736
15.69345	29322
15.70157	28384
15.70968	29778
15.71782	28770
15.72593	31283
15.73407	31513
15.74218	35229
15.75030	40704
15.75843	56695
15.76655	85961
15.77468	102850
15.78280	131444
15.79092	149785
15.79905	131507
15.80717	108693
15.81528	81675
15.82342	64611
15.83153	54680
15.83967	48387
15.84778	46922
15.85590	43987
15.86403	47269
15.87215	46510
15.88028	49074
15.88840	49605
15.89652	49247
15.90465	45947
15.91277	42981
15.92090	44040
15.92902	38873
15.93713	39570
15.94527	40003
15.95338	36306
15.96150	38014
15.96963	35960
15.97775	35865
15.98588	40744
15.99400	41265
16.00212	39358
16.01025	45650
16.01837	42941
16.02650	39991
16.03462	39859
16.04273	38558
16.05087	37143
16.05898	36505
16.06712	35375
16.07523	33236
16.08335	34448
16.09148	33602
16.09960	31812
16.10772	33572
16.11585	32982
16.12397	35782
16.13210	34990
16.14022	31238
16.14833	32860
16.15647	31095
16.16458	30839
16.17272	31279
16.18083	30556
16.18895	31492
16.19708	32467
16.20520	32641
16.21332	34066
16.22145	33525
16.22957	30829
16.23770	30353
16.24582	30079
16.25393	32031
16.26207	27368
16.27018	31109
16.27832	30110
16.28643	31780
16.29455	34830
16.30268	32751
16.31080	31699
16.31893	29322
16.32705	30776
16.33517	30317
16.34330	32865
16.35142	32106
16.35953	32071
16.36767	30577
16.37578	37155
16.38392	34997
16.39203	33633
16.40015	31337
16.40828	35195
16.41640	33078
16.42453	31476
16.43265	33854
16.44077	42907
16.44890	47817
16.45702	60561
16.46513	90148
16.47327	112334
16.48138	133754
16.48952	126826
16.49763	104847
16.50575	86947
16.51388	64235
16.52200	54586
16.53013	46047
16.53825	42725
16.54637	38220
16.55450	40782
16.56262	36402
16.57075	39724
16.57887	35759
16.58698	33438
16.59512	35490
16.60323	36510
16.61135	37222
16.61948	36623
16.62760	37057
16.63573	35994
16.64385	35320
16.65197	31879
16.66010	37703
16.66822	30704
16.67635	32470
16.68447	33806
16.69258	31610
16.70072	33889
16.70883	33386
16.71697	34984
16.72508	32522
16.73320	29453
16.74133	31587
16.74945	36427
16.75757	32700
16.76570	31608
16.77382	36720
16.78195	31026
16.79007	27581
16.79818	29852
16.80632	31623
16.81443	31097
16.82257	31870
16.83068	27450
16.83880	28935
16.84693	29735
16.85505	31013
16.86318	30788
16.87130	29336
16.87942	31757
16.88755	28567
16.89567	26227
16.90378	31611
16.91192	29130
16.92003	32269
16.92817	28847
16.93628	29769
16.94440	27735
16.95253	31372
16.96065	29760
16.96878	29613
16.97690	27368
16.98502	31646
16.99315	28455
17.00127	29110
17.00938	30915
17.01752	30713
17.02563	29293
17.03377	30737
17.04188	33190
17.05000	36595
17.05813	32338
17.06625	33749
17.07438	33522
17.08250	35066
17.09062	35333
17.09875	31211
17.10687	33894
17.11500	31716
17.12312	30978
17.13123	33696
17.13937	33513
17.14748	34634
17.15560	31011
17.16373	29774
17.17185	31866
17.17998	29693
17.18810	29777
17.19622	29254
17.20435	31729
17.21247	30534
17.22060	28927
17.22872	29835
17.23683	32026
17.24497	30379
17.25308	30292
17.26120	31904
17.26933	32900
17.27745	26548
17.28558	31190
17.29370	24283
17.30182	28420
17.30995	31701
17.31807	31548
17.32620	30366
17.33432	38680
17.34243	33006
17.35057	37770
17.35868	37931
17.36682	34764
17.37493	34835
17.38305	34897
17.39118	34384
17.39930	34038
17.40742	34167
17.41555	34082
17.42367	35622
17.43180	33943
17.43992	31806
17.44803	32546
17.45617	32527
17.46428	31352
17.47242	33754
17.48053	33617
17.48865	30236
17.49678	30394
17.50490	35118
17.51303	32950
17.52115	36872
17.52927	40310
17.53740	41814
17.54552	49029
17.55363	52504
17.56177	59314
17.56988	71871
17.57802	93167
17.58613	114940
17.59425	139859
17.60238	148058
17.61050	145733
17.61863	130628
17.62675	107529
17.63487	93047
17.64300	77217
17.65112	66826
17.65923	59286
17.66737	57641
17.67548	53328
17.68362	51019
17.69173	52882
17.69985	49169
17.70798	49829
17.71610	45638
17.72423	44185
17.73235	40491
17.74047	43813
17.74860	43195
17.75672	40746
17.76485	37220
17.77297	40974
17.78108	43164
17.78922	38233
17.79733	36924
17.80545	40225
17.81358	40010
17.82170	44557
17.82983	42902
17.83795	40315
17.84607	47135
17.85420	47909
17.86232	48396
17.87045	45542
17.87857	40915
17.88668	48028
17.89482	42433
17.90293	38758
17.91107	35169
17.91918	37518
17.92730	36532
17.93543	34001
17.94355	33152
17.95167	34051
17.95980	37344
17.96792	33478
17.97605	33846
17.98417	33144
17.99228	31687
18.00042	36428
18.00853	35821
18.01667	43210
18.02478	47911
18.03290	50346
18.04103	50490
18.04915	49738
18.05727	47054
18.06540	48530
18.07352	52439
18.08165	65845
18.08977	72685
18.09788	77520
18.10602	73233
18.11413	76523
18.12227	85601
18.13038	112883
18.13850	149355
18.14663	187423
18.15475	216930
18.16288	221109
18.17100	233604
18.17912	238778
18.18725	243686
18.19537	251440
18.20348	250080
18.21162	251665
18.21973	246519
18.22787	238876
18.23598	246321
18.24410	230930
18.25223	239698
18.26035	231454
18.26848	221523
18.27660	217337
18.28472	213619
18.29285	214501
18.30097	209414
18.30908	200002
18.31722	197597
18.32533	199001
18.33347	195667
18.34158	187489
18.34970	186240
18.35783	180920
18.36595	178009
18.37408	184646
18.38220	174528
18.39032	176207
18.39845	171535
18.40657	172049
18.41470	167059
18.42282	163593
18.43093	158609
18.43907	161252
18.44718	163937
18.45530	176906
18.46343	184951
18.47155	190246
18.47968	192743
18.48780	193162
18.49592	182589
18.50405	167663
18.51217	149944
18.52030	148626
18.52842	147179
18.53653	132383
18.54467	136162
18.55278	128010
18.56092	125112
18.56903	120338
18.57715	117273
18.58528	121419
18.59340	118348
18.60152	120621
18.60965	118079
18.61777	115288
18.62590	111463
18.63402	108564
18.64213	110752
18.65027	110451
18.65838	103269
18.66652	107729
18.67463	101299
18.68275	102191
18.69088	97902
18.69900	97584
18.70712	95499
18.71525	87146
18.72337	87773
18.73150	86980
18.73962	86430
18.74773	84491
18.75587	86149
18.76398	86044
18.77212	82696
18.78023	78135
18.78835	77245
18.79648	74091
18.80460	77279
18.81273	76103
18.82085	75348
18.82897	77379
18.83710	75180
18.84522	72701
18.85333	71550
18.86147	73344
18.86958	68641
18.87772	70051
18.88583	70657
18.89395	70134
18.90208	68004
18.91020	69576
18.91833	68708
18.92645	70578
18.93457	68808
18.94270	72978
18.95082	66096
18.95895	64467
18.96707	65434
18.97518	63021
18.98332	59698
18.99143	63701
18.99955	64026
19.00768	63192
19.01580	58062
19.02393	63156
19.03205	60612
19.04017	59437
19.04830	55184
19.05642	59486
19.06455	59855
19.07267	64400
19.08078	73774
19.08892	85583
19.09703	93018
19.10515	89624
19.11328	89849
19.12140	85247
19.12953	75281
19.13765	73519
19.14577	72847
19.15390	75560
19.16202	67760
19.17015	68859
19.17827	68519
19.18638	65046
19.19452	62858
19.20263	59765
19.21077	55018
19.21888	53171
19.22700	48488
19.23513	54567
19.24325	49930
19.25137	52539
19.25950	52017
19.26762	54124
19.27575	50401
19.28387	56089
19.29198	49667
19.30012	53204
19.30823	53606
19.31637	52922
19.32448	46600
19.33260	51610
19.34073	48034
19.34885	48701
19.35697	56330
19.36510	61180
19.37322	70038
19.38135	59926
19.38947	57058
19.39758	54569
19.40572	51501
19.41383	52766
19.42197	55909
19.43008	65495
19.43820	85372
19.44633	109544
19.45445	128224
19.46258	133941
19.47070	122714
19.47882	99374
19.48695	83083
19.49507	62199
19.50318	57519
19.51132	55277
19.51943	49770
19.52757	50099
19.53568	48010
19.54380	45457
19.55193	48024
19.56005	47562
19.56818	44189
19.57630	41648
19.58442	40464
19.59255	41590
19.60067	45565
19.60880	37339
19.61692	44921
19.62503	47499
19.63317	57358
19.64128	68429
19.64940	79308
19.65753	95686
19.66565	99924
19.67378	101974
19.68190	96272
19.69002	92835
19.69815	85391
19.70627	79384
19.71440	70154
19.72252	65983
19.73063	55279
19.73877	57728
19.74688	54985
19.75500	52654
19.76313	49091
19.77125	49502
19.77938	49326
19.78750	50071
19.79562	58991
19.80375	58256
19.81187	50237
19.82000	49789
19.82812	46903
19.83623	49711
19.84437	50593
19.85248	49838
19.86062	57188
19.86873	68206
19.87685	89334
19.88498	122872
19.89310	156886
19.90122	182490
19.90935	178995
19.91747	170163
19.92560	143378
19.93372	127870
19.94183	113193
19.94997	105090
19.95808	96702
19.96622	92249
19.97433	85061
19.98245	91536
19.99058	86154
19.99870	87984
20.00683	89717
20.01495	78585
20.02307	73868
20.03120	74951
20.03932	70275
20.04743	66967
20.05557	61628
20.06368	60686
20.07182	54000
20.07993	52363
20.08805	50934
20.09618	50559
20.10430	49682
20.11243	47246
20.12055	48070
20.12867	49845
20.13680	46697
20.14492	44606
20.15303	47615
20.16117	46890
20.16928	50047
20.17742	52192
20.18553	52564
20.19365	53020
20.20178	48068
20.20990	48627
20.21803	51837
20.22615	54284
20.23427	61298
20.24240	71607
20.25052	75941
20.25865	84274
20.26677	87899
20.27488	80100
20.28302	74681
20.29113	64814
20.29925	57117
20.30738	53247
20.31550	48108
20.32363	47883
20.33175	44098
20.33987	45612
20.34800	38735
20.35612	40065
20.36425	36495
20.37237	37335
20.38048	40820
20.38862	42337
20.39673	41786
20.40487	40148
20.41298	43646
20.42110	46719
20.42923	45562
20.43735	45659
20.44547	41302
20.45360	47143
20.46172	45337
20.46985	40042
20.47797	38903
20.48608	38591
20.49422	35430
20.50233	37131
20.51047	38405
20.51858	38076
20.52670	37617
20.53483	32470
20.54295	36857
20.55107	35959
20.55920	36934
20.56732	36925
20.57545	35088
20.58357	34868
20.59168	33265
20.59982	33629
20.60793	35820
20.61607	35895
20.62418	40996
20.63230	34582
20.64043	34704
20.64855	34657
20.65668	33356
20.66480	34694
20.67292	35058
20.68105	33959
20.68917	34422
20.69728	34738
20.70542	34919
20.71353	33358
20.72167	34995
20.72978	33150
20.73790	36698
20.74603	35503
20.75415	41493
20.76228	39138
20.77040	38725
20.77852	45433
20.78665	54679
20.79477	59336
20.80288	76856
20.81102	84165
20.81913	83651
20.82727	76049
20.83538	73946
20.84350	61382
20.85163	52131
20.85975	46243
20.86788	43147
20.87600	41647
20.88412	37011
20.89225	40144
20.90037	40536
20.90850	38901
20.91662	38175
20.92473	38498
20.93287	36300
20.94098	38084
20.94910	37291
20.95723	35586
20.96535	32678
20.97348	32854
20.98160	35264
20.98972	34377
20.99785	34496
21.00597	31214
21.01410	34747
21.02222	34334
21.03033	34875
21.03847	36160
21.04658	30527
21.05472	34203
21.06283	36262
21.07095	35762
21.07908	36161
21.08720	34507
21.09532	33307
21.10345	34218
21.11157	35534
21.11970	38137
21.12782	40010
21.13593	45352
21.14407	50026
21.15218	57174
21.16032	58108
21.16843	61199
21.17655	52760
21.18468	47577
21.19280	43311
21.20092	47923
21.20905	46272
21.21717	46053
21.22530	48620
21.23342	48853
21.24153	46992
21.24967	50625
21.25778	50085
21.26592	45615
21.27403	47951
21.28215	48088
21.29028	45997
21.29840	46030
21.30653	49684
21.31465	50973
21.32277	47424
21.33090	50978
21.33902	48697
21.34713	47531
21.35527	48808
21.36338	44539
21.37152	44977
21.37963	45888
21.38775	49071
21.39588	47712
21.40400	44365
21.41213	44821
21.42025	48506
21.42837	47090
21.43650	50867
21.44462	50765
21.45275	46390
21.46087	49072
21.46898	47450
21.47712	48579
21.48523	45675
21.49335	46359
21.50148	45740
21.50960	48371
21.51773	46926
21.52585	43439
21.53397	43153
21.54210	45829
21.55022	40785
21.55835	44688
21.56647	44151
21.57458	44347
21.58272	45450
21.59083	55167
21.59895	52877
21.60708	56325
21.61520	54977
21.62333	53536
21.63145	48870
21.63957	48243
21.64770	48364
21.65582	47341
21.66395	45883
21.67207	45974
21.68018	45893
21.68832	46593
21.69643	43630
21.70457	39962
21.71268	40535
21.72080	43215
21.72893	39898
21.73705	35950
21.74517	33280
21.75330	38335
21.76142	38151
21.76955	42243
21.77767	41222
21.78578	41961
21.79392	42164
21.80203	46965
21.81017	44139
21.81828	43266
21.82640	39783
21.83453	41329
21.84265	39827
21.85077	37402
21.85890	36753
21.86702	36946
21.87515	35627
21.88327	38903
21.89138	41691
21.89952	51265
21.90763	75668
21.91577	84754
21.92388	94271
21.93200	99096
21.94013	104674
21.94825	108914
21.95638	117231
21.96450	114178
21.97262	119424
21.98075	114150
21.98887	113146
21.99698	116328
22.00512	113081
22.01323	115576
22.02137	114532
22.02948	117188
22.03760	114452
22.04573	116566
22.05385	112908
22.06198	106122
22.07010	107211
22.07822	105176
22.08635	108917
22.09447	103228
22.10260	98712
22.11072	100329
22.11883	101154
22.12697	93562
22.13508	92144
22.14320	88452
22.15133	89530
22.15945	90384
22.16758	84741
22.17570	81876
22.18382	87068
22.19195	77968
22.20007	77108
22.20820	79613
22.21632	74147
22.22443	70831
22.23257	71437
22.24068	72138
22.24880	71014
22.25693	70503
22.26505	72487
22.27318	67148
22.28130	67465
22.28942	63948
22.29755	63832
22.30567	69931
22.31380	60048
22.32192	63507
22.33003	63042
22.33817	62431
22.34628	58153
22.35442	59934
22.36253	54622
22.37065	53960
22.37878	59216
22.38690	58435
22.39502	65745
22.40315	63214
22.41127	72144
22.41940	69902
22.42752	66886
22.43563	64907
22.44377	62489
22.45188	53311
22.46002	55095
22.46813	52303
22.47625	59227
22.48438	58396
22.49250	59307
22.50063	60560
22.50875	60110
22.51687	58255
22.52500	55078
22.53312	52168
22.54123	51185
22.54937	51148
22.55748	45429
22.56562	43490
22.57373	44626
22.58185	43669
22.58998	41432
22.59810	45433
22.60623	38852
22.61435	37912
22.62247	38271
22.63060	40688
22.63872	39824
22.64683	42172
22.65497	37753
22.66308	38972
22.67122	39873
22.67933	40588
22.68745	41325
22.69558	46015
22.70370	46404
22.71183	49746
22.71995	45970
22.72807	45733
22.73620	43583
22.74432	43082
22.75245	42404
22.76057	42969
22.76868	39855
22.77682	40448
22.78493	41268
22.79305	46600
22.80118	44694
22.80930	47403
22.81743	46290
22.82555	40582
22.83367	45890
22.84180	41654
22.84992	40393
22.85805	42782
22.86617	44165
22.87428	48462
22.88242	47576
22.89053	59442
22.89865	58153
22.90678	64672
22.91490	82717
22.92303	90579
22.93115	94815
22.93927	89257
22.94740	80937
22.95552	68916
22.96365	61299
22.97177	58704
22.97988	54715
22.98802	49604
22.99613	52001
23.00427	47703
23.01238	45701
23.02050	41301
23.02863	43667
23.03675	37868
23.04487	40904
23.05300	36875
23.06112	35754
23.06925	42607
23.07737	38909
23.08548	41625
23.09362	38944
23.10173	36676
23.10987	39036
23.11798	39052
23.12610	37150
23.13423	35022
23.14235	34541
23.15048	36878
23.15860	34229
23.16672	36376
23.17485	33486
23.18297	33822
23.19108	35468
23.19922	36877
23.20733	35982
23.21547	36599
23.22358	33998
23.23170	37838
23.23983	36039
23.24795	34151
23.25608	34153
23.26420	38369
23.27232	37489
23.28045	39697
23.28857	36628
23.29670	36690
23.30482	36060
23.31293	34969
23.32107	37180
23.32918	40549
23.33730	47615
23.34543	44948
23.35355	44973
23.36168	48203
23.36980	50303
23.37792	49327
23.38605	48231
23.39417	49251
23.40230	45561
23.41042	40330
23.41853	41475
23.42667	37461
23.43478	41032
23.44290	37736
23.45103	38045
23.45915	34061
23.46728	37612
23.47540	38091
23.48352	38057
23.49165	37665
23.49977	33523
23.50790	35284
23.51602	36297
23.52413	34087
23.53227	35779
23.54038	34766
23.54852	38877
23.55663	39624
23.56475	38253
23.57288	48141
23.58100	53392
23.58912	58811
23.59725	64766
23.60537	62339
23.61350	65825
23.62162	62580
23.62973	50550
23.63787	52805
23.64598	53936
23.65412	54638
23.66223	62083
23.67035	75352
23.67848	93235
23.68660	106852
23.69472	114803
23.70285	113764
23.71097	124548
23.71910	122754
23.72722	138601
23.73533	169117
23.74347	240385
23.75158	439096
23.75972	806143
23.76783	1392997
23.77595	2054384
23.78408	2393477
23.79220	2516998
23.80033	2243398
23.80845	1844637
23.81657	1420303
23.82470	1095478
23.83282	828745
23.84093	664419
23.84907	540903
23.85718	460784
23.86532	400346
23.87343	366811
23.88155	332274
23.88968	303524
23.89780	276325
23.90593	263293
23.91405	251210
23.92217	232100
23.93030	227179
23.93842	209599
23.94655	196486
23.95467	191518
23.96278	190684
23.97092	173423
23.97903	166572
23.98715	164384
23.99528	157122
24.00340	155204
24.01153	153240
24.01965	160170
24.02777	169183
24.03590	165538
24.04402	155250
24.05215	149805
24.06027	135877
24.06838	128705
24.07652	123570
24.08463	114489
24.09275	114723
24.10088	118656
24.10900	111649
24.11713	106923
24.12525	104648
24.13337	112275
24.14150	116164
24.14962	111205
24.15775	110664
24.16587	104961
24.17398	108126
24.18212	105618
24.19023	99909
24.19837	99122
24.20648	95420
24.21460	96284
24.22273	89753
24.23085	84071
24.23897	80523
24.24710	82916
24.25522	79441
24.26335	78156
24.27147	70878
24.27958	75246
24.28772	73213
24.29583	74233
24.30397	75767
24.31208	79151
24.32020	89888
24.32833	105587
24.33645	120223
24.34458	117789
24.35270	113076
24.36082	106737
24.36895	86701
24.37707	70611
24.38518	66374
24.39332	65514
24.40143	62834
24.40957	66056
24.41768	63355
24.42580	64509
24.43393	60807
24.44205	57720
24.45018	62515
24.45830	63303
24.46642	62220
24.47455	60411
24.48267	58922
24.49078	54388
24.49892	57810
24.50703	55047
24.51517	58747
24.52328	59710
24.53140	59143
24.53953	64127
24.54765	63126
24.55578	64457
24.56390	64478
24.57202	57135
24.58015	57409
24.58827	53313
24.59640	54682
24.60452	53743
24.61263	54482
24.62077	48894
24.62888	49046
24.63700	54715
24.64513	44981
24.65325	47505
24.66138	50030
24.66950	45521
24.67762	46280
24.68575	48877
24.69387	49640
24.70200	48021
24.71012	47740
24.71823	42455
24.72637	46942
24.73448	46726
24.74262	46391
24.75073	46654
24.75885	45586
24.76698	49732
24.77510	49304
24.78322	53152
24.79135	48877
24.79947	51067
24.80760	52253
24.81572	55012
24.82383	52761
24.83197	53986
24.84008	60851
24.84822	66109
24.85633	80623
24.86445	93933
24.87258	109810
24.88070	122276
24.88882	129453
24.89695	123896
24.90507	122246
24.91320	127276
24.92132	128842
24.92943	131511
24.93757	134628
24.94568	134679
24.95382	139115
24.96193	134393
24.97005	137703
24.97818	134586
24.98630	138011
24.99443	137053
25.00255	133863
25.01067	133327
25.01880	137512
25.02692	128994
25.03503	126384
25.04317	130320
25.05128	129223
25.05942	129239
25.06753	123086
25.07565	130803
25.08378	126915
25.09190	137364
25.10003	156636
25.10815	205650
25.11627	317111
25.12440	466149
25.13252	643668
25.14063	795437
25.14877	815048
25.15688	698991
25.16502	528036
25.17313	378177
25.18125	270819
25.18938	205825
25.19750	170786
25.20563	141101
25.21375	130364
25.22187	126472
25.23000	135595
25.23812	165209
25.24625	207780
25.25437	258729
25.26248	313305
25.27062	334543
25.27873	328008
25.28685	292153
25.29498	233234
25.30310	174448
25.31123	142687
25.31935	117173
25.32747	105879
25.33560	98797
25.34372	89297
25.35185	83219
25.35997	78379
25.36808	77446
25.37622	71527
25.38433	72657
25.39247	73444
25.40058	71055
25.40870	72806
25.41683	64073
25.42495	64570
25.43307	64328
25.44120	65471
25.44932	58268
25.45745	59889
25.46557	58049
25.47368	59547
25.48182	58220
25.48993	62180
25.49807	57195
25.50618	61425
25.51430	55979
25.52243	57661
25.53055	55902
25.53867	61338
25.54680	54442
25.55492	47890
25.56305	56070
25.57117	53189
25.57928	49626
25.58742	52321
25.59553	52625
25.60367	49683
25.61178	50136
25.61990	56166
25.62803	49649
25.63615	53357
25.64428	52447
25.65240	48568
25.66052	47507
25.66865	50446
25.67677	46862
25.68488	48651
25.69302	44671
25.70113	48280
25.70927	48879
25.71738	45992
25.72550	45676
25.73363	46648
25.74175	46400
25.74988	45106
25.75800	48386
25.76612	45637
25.77425	45073
25.78237	43512
25.79050	44965
25.79862	45810
25.80673	45719
25.81487	46449
25.82298	42459
25.83110	39172
25.83923	47744
25.84735	43916
25.85548	40943
25.86360	43421
25.87172	40842
25.87985	43612
25.88797	42855
25.89610	42679
25.90422	40381
25.91233	40647
25.92047	41287
25.92858	40202
25.93670	38890
25.94483	36219
25.95295	43275
25.96108	37680
25.96920	40620
25.97732	37469
25.98545	39408
25.99357	39914
26.00170	38111
26.00982	41653
26.01793	39739
26.02607	35513
26.03418	39111
26.04232	40917
26.05043	37787
26.05855	41552
26.06668	38798
26.07480	42554
26.08292	40606
26.09105	40821
26.09917	41630
26.10730	44623
26.11542	40806
26.12353	43805
26.13167	41791
26.13978	40925
26.14792	44430
26.15603	42956
26.16415	44881
26.17228	41261
26.18040	42685
26.18852	44664
26.19665	40517
26.20477	40703
26.21290	42947
26.22102	38013
26.22913	39109
26.23727	41082
26.24538	37530
26.25352	35776
26.26163	36970
26.26975	38255
26.27788	36776
26.28600	35228
26.29413	37808
26.30225	37134
26.31037	37515
26.31850	39521
26.32662	34106
26.33473	35424
26.34287	35096
26.35098	34214
26.35912	33092
26.36723	39528
26.37535	35465
26.38348	36556
26.39160	36045
26.39973	39766
26.40785	38897
26.41597	37221
26.42410	41136
26.43222	36966
26.44035	35263
26.44847	37358
26.45658	34247
26.46472	34119
26.47283	37863
26.48095	36745
26.48908	32248
26.49720	35826
26.50533	35605
26.51345	33275
26.52157	32175
26.52970	30405
26.53782	38117
26.54595	31840
26.55407	32667
26.56218	31525
26.57032	36661
26.57843	32560
26.58657	31595
26.59468	32500
26.60280	34241
26.61093	31785
26.61905	32573
26.62717	36956
26.63530	34288
26.64342	34671
26.65155	35316
26.65967	33497
26.66778	35549
26.67592	38498
26.68403	33652
26.69217	34109
26.70028	34996
26.70840	35930
26.71653	34981
26.72465	34340
26.73277	36756
26.74090	30081
26.74902	33993
26.75715	34266
26.76527	32956
26.77338	36382
26.78152	34750
26.78963	37680
26.79777	34180
26.80588	39527
26.81400	36874
26.82213	37624
26.83025	35287
26.83838	34838
26.84650	32303
26.85462	31433
26.86275	33948
26.87087	33244
26.87898	36896
26.88712	32809
26.89523	33308
26.90337	35851
26.91148	31080
26.91960	31848
26.92773	34055
26.93585	35225
26.94398	44000
26.95210	58073
26.96022	82097
26.96835	126298
26.97647	183507
26.98458	267541
26.99272	326087
27.00083	378950
27.00897	409828
27.01708	367897
27.02520	311900
27.03333	259632
27.04145	211679
27.04958	168338
27.05770	142226
27.06582	123893
27.07395	98720
27.08207	89609
27.09020	83476
27.09832	80023
27.10643	76826
27.11457	73267
27.12268	65816
27.13080	65072
27.13893	67748
27.14705	63442
27.15518	65751
27.16330	70644
27.17142	68830
27.17955	72003
27.18767	65517
27.19580	64187
27.20392	55927
27.21203	52301
27.22017	55154
27.22828	50849
27.23640	51663
27.24453	48500
27.25265	49716
27.26078	50806
27.26890	47393
27.27702	51642
27.28515	45504
27.29327	45148
27.30140	42759
27.30952	42329
27.31763	41872
27.32577	44686
27.33388	44548
27.34202	43632
27.35013	40642
27.35825	46863
27.36638	43161
27.37450	42665
27.38262	41011
27.39075	41839
27.39887	40593
27.40700	41192
27.41512	39067
27.42323	37292
27.43137	40866
27.43948	37377
27.44762	36695
27.45573	37403
27.46385	40536
27.47198	41809
27.48010	38313
27.48823	39328
27.49635	35235
27.50447	35727
27.51260	36137
27.52072	40693
27.52883	38106
27.53697	36452
27.54508	35784
27.55322	36144
27.56133	36172
27.56945	39044
27.57758	38004
27.58570	41790
27.59383	40332
27.60195	40974
27.61007	40353
27.61820	39115
27.62632	36798
27.63445	35805
27.64257	36365
27.65068	34089
27.65882	34132
27.66693	33621
27.67505	36286
27.68318	37309
27.69130	34637
27.69943	34618
27.70755	40268
27.71567	37373
27.72380	39734
27.73192	42907
27.74005	45387
27.74817	46501
27.75628	51464
27.76442	48596
27.77253	49678
27.78065	47698
27.78878	45190
27.79690	45747
27.80503	42548
27.81315	37544
27.82127	38840
27.82940	35196
27.83752	33924
27.84565	31831
27.85377	36423
27.86188	30095
27.87002	35375
27.87813	34258
27.88627	32299
27.89438	35891
27.90250	34724
27.91063	32976
27.91875	32828
27.92687	35758
27.93500	36873
27.94312	32222
27.95125	34092
27.95937	33187
27.96748	33155
27.97562	44449
27.98373	39586
27.99187	41763
27.99998	44905
28.00810	42225
28.01623	42178
28.02435	42955
28.03247	43803
28.04060	43550
28.04872	42294
28.05685	40405
28.06497	38624
28.07308	39578
28.08122	38100
28.08933	40851
28.09747	38249
28.10558	42367
28.11370	43948
28.12183	37477
28.12995	36946
28.13808	41633
28.14620	36483
28.15432	36731
28.16245	32832
28.17057	32651
28.17868	33843
28.18682	35395
28.19493	38462
28.20307	41719
28.21118	41603
28.21930	41229
28.22743	39229
28.23555	36421
28.24368	40437
28.25180	42253
28.25992	44100
28.26805	60914
28.27617	73759
28.28430	92851
28.29242	106085
28.30053	134244
28.30867	138096
28.31678	155791
28.32490	160467
28.33303	161861
28.34115	151485
28.34928	142764
28.35740	134288
28.36552	119237
28.37365	106507
28.38177	102570
28.38990	91423
28.39802	82414
28.40613	76561
28.41427	73480
28.42238	66325
28.43050	64207
28.43863	57881
28.44675	55675
28.45488	53500
28.46300	51231
28.47112	49173
28.47925	47128
28.48737	50615
28.49550	50095
28.50362	47835
28.51173	45408
28.51987	45046
28.52798	44095
28.53612	45419
28.54423	43719
28.55235	43187
28.56048	42846
28.56860	41526
28.57672	39244
28.58485	41300
28.59297	42637
28.60110	37021
28.60922	37707
28.61733	42597
28.62547	41467
28.63358	39236
28.64172	44771
28.64983	44070
28.65795	41855
28.66608	46327
28.67420	45479
28.68233	47253
28.69045	51185
28.69857	52686
28.70670	61049
28.71482	61639
28.72293	57562
28.73107	50792
28.73918	44464
28.74732	40120
28.75543	35015
28.76355	36583
28.77168	37153
28.77980	39050
28.78793	36033
28.79605	36755
28.80417	36976
28.81230	36142
28.82042	36990
28.82853	37335
28.83667	34725
28.84478	36580
28.85292	38170
28.86103	35993
28.86915	35311
28.87728	37292
28.88540	40463
28.89353	40131
28.90165	43098
28.90977	43114
28.91790	36973
28.92602	32529
28.93415	39711
28.94227	39147
28.95038	39397
28.95852	39994
28.96663	34576
28.97475	36817
28.98288	37400
28.99100	36745
28.99913	34464
29.00725	36370
29.01537	38568
29.02350	35860
29.03162	34932
29.03975	37977
29.04787	37893
29.05598	39917
29.06412	38465
29.07223	41209
29.08035	42919
29.08848	38179
29.09660	34859
29.10473	35421
29.11285	35546
29.12097	34243
29.12910	34437
29.13722	30794
29.14535	33450
29.15347	32121
29.16158	33947
29.16972	33296
29.17783	36009
29.18597	37127
29.19408	39047
29.20220	41521
29.21033	47596
29.21845	45637
29.22657	44427
29.23470	44855
29.24282	46342
29.25095	46411
29.25907	42256
29.26718	39691
29.27532	40292
29.28343	39270
29.29157	36053
29.29968	36956
29.30780	35681
29.31593	31666
29.32405	31826
29.33218	32630
29.34030	33754
29.34842	32333
29.35655	32252
29.36467	31504
29.37278	32110
29.38092	33877
29.38903	30312
29.39717	31513
29.40528	33168
29.41340	32318
29.42153	35692
29.42965	31837
29.43778	32771
29.44590	28774
29.45402	30946
29.46215	34209
29.47027	29797
29.47838	34258
29.48652	33007
29.49463	32964
29.50277	34757
29.51088	33192
29.51900	37999
29.52713	33726
29.53525	34327
29.54338	32250
29.55150	35759
29.55962	30899
29.56775	34549
29.57587	35554
29.58400	37368
29.59212	42000
29.60023	40390
29.60837	40797
29.61648	37055
29.62460	40544
29.63273	33370
29.64085	32969
29.64898	33053
29.65710	30591
29.66522	34486
29.67335	32381
29.68147	34914
29.68960	35598
29.69772	31557
29.70583	33812
29.71397	34278
29.72208	33352
29.73022	31542
29.73833	29318
29.74645	29442
29.75458	27234
29.76270	31878
29.77082	29657
29.77895	30725
29.78707	27078
29.79520	27646
29.80332	31816
29.81143	28976
29.81957	31508
29.82768	30703
29.83582	27724
29.84393	32271
29.85205	28927
29.86018	35921
29.86830	42151
29.87642	51124
29.88455	60320
29.89267	67701
29.90080	79272
29.90892	84940
29.91703	78296
29.92517	84276
29.93328	84102
29.94142	86999
29.94953	84466
29.95765	86502
29.96578	85396
29.97390	83389
29.98203	82013
29.99015	87786
29.99827	85605
30.00640	81980
30.01452	79289
30.02263	75403
30.03077	79513
30.03888	70684
30.04702	66597
30.05513	67955
30.06325	61541
30.07138	64033
30.07950	60131
30.08763	60524
30.09575	55463
30.10387	54829
30.11200	53698
30.12012	53290
30.12825	51686
30.13637	48330
30.14448	47992
30.15262	44480
30.16073	47785
30.16885	45439
30.17698	46841
30.18510	44421
30.19323	47260
30.20135	46791
30.20947	45704
30.21760	41642
30.22572	44845
30.23385	41454
30.24197	42956
30.25008	41191
30.25822	40515
30.26633	41660
30.27445	40364
30.28258	42349
30.29070	39713
30.29883	37050
30.30695	37392
30.31507	38574
30.32320	37442
30.33132	33614
30.33945	35706
30.34757	37288
30.35568	35819
30.36382	35310
30.37193	40461
30.38007	37699
30.38818	36494
30.39630	34601
30.40443	39083
30.41255	37055
30.42067	35441
30.42880	34921
30.43692	34108
30.44505	35456
30.45317	32804
30.46128	33337
30.46942	36167
30.47753	32593
30.48567	32327
30.49378	36293
30.50190	39979
30.51003	34909
30.51815	34533
30.52627	34643
30.53440	35648
30.54252	32793
30.55065	35056
30.55877	33978
30.56688	32622
30.57502	35461
30.58313	31685
30.59127	32718
30.59938	33621
30.60750	32431
30.61563	32510
30.62375	35991
30.63188	33599
30.64000	32535
30.64812	36760
30.65625	38082
30.66437	33883
30.67248	29848
30.68062	31840
30.68873	31526
30.69687	34910
30.70498	32761
30.71310	29272
30.72123	30918
30.72935	32780
30.73748	33054
30.74560	33531
30.75372	35286
30.76185	36148
30.76997	44287
30.77810	56863
30.78622	76868
30.79433	94403
30.80247	96413
30.81058	103226
30.81870	93732
30.82683	73741
30.83495	61723
30.84308	51532
30.85120	41658
30.85932	41477
30.86745	38530
30.87557	33916
30.88370	37067
30.89182	35915
30.89993	35013
30.90807	35469
30.91618	33923
30.92430	31829
30.93243	34610
30.94055	31996
30.94868	35453
30.95680	32393
30.96492	29153
30.97305	33087
30.98117	32718
30.98930	36555
30.99742	35139
31.00553	33723
31.01367	32127
31.02178	36774
31.02992	35095
31.03803	35264
31.04615	34376
31.05428	32168
31.06240	33662
31.07052	31048
31.07865	34237
31.08677	39902
31.09490	37718
31.10302	39289
31.11113	39813
31.11927	41423
31.12738	38687
31.13552	33154
31.14363	36336
31.15175	37754
31.15988	39983
31.16800	46610
31.17613	51912
31.18425	71526
31.19237	86091
31.20050	99614
31.20862	106329
31.21673	108940
31.22487	98646
31.23298	77923
31.24112	63054
31.24923	53387
31.25735	44717
31.26548	37027
31.27360	38282
31.28173	37083
31.28985	33970
31.29797	35917
31.30610	35835
31.31422	36280
31.32233	36700
31.33047	38052
31.33858	37148
31.34672	35757
31.35483	33810
31.36295	32393
31.37108	35702
31.37920	32786
31.38733	34182
31.39545	33491
31.40357	38111
31.41170	32831
31.41982	32774
31.42795	40280
31.43607	33032
31.44418	35933
31.45232	35657
31.46043	39048
31.46855	40306
31.47668	43247
31.48480	47155
31.49293	43471
31.50105	38802
31.50917	42451
31.51730	36705
31.52542	38102
31.53355	36340
31.54167	38481
31.54978	47195
31.55792	45528
31.56603	46826
31.57415	45959
31.58228	43109
31.59040	40490
31.59853	40195
31.60665	33113
31.61477	35132
31.62290	32274
31.63102	36359
31.63915	33156
31.64727	36910
31.65538	34903
31.66352	37687
31.67163	35245
31.67977	39913
31.68788	37855
31.69600	40026
31.70413	41585
31.71225	42051
31.72037	38451
31.72850	33242
31.73662	31962
31.74475	33991
31.75287	35179
31.76098	33694
31.76912	32584
31.77723	33123
31.78537	35203
31.79348	33612
31.80160	33623
31.80973	37282
31.81785	34668
31.82598	34254
31.83410	40686
31.84222	41104
31.85035	42446
31.85847	55905
31.86658	55911
31.87472	61481
31.88283	63263
31.89097	64063
31.89908	68092
31.90720	63888
31.91533	65851
31.92345	63148
31.93158	60706
31.93970	55402
31.94782	51063
31.95595	57873
31.96407	51287
31.97220	48911
31.98032	50339
31.98843	48474
31.99657	48923
32.00468	47271
32.01280	44507
32.02093	44070
32.02905	45707
32.03718	45409
32.04530	39149
32.05342	40689
32.06155	39362
32.06967	39548
32.07780	38965
32.08592	39973
32.09403	40079
32.10217	34230
32.11028	35834
32.11840	34726
32.12653	38340
32.13465	35479
32.14278	37343
32.15090	34105
32.15902	34047
32.16715	35738
32.17527	34062
32.18340	32501
32.19152	39236
32.19963	32492
32.20777	29861
32.21588	33818
32.22402	34953
32.23213	35731
32.24025	35665
32.24838	35331
32.25650	35345
32.26462	37027
32.27275	34609
32.28087	30820
32.28900	31778
32.29712	36676
32.30523	33950
32.31337	36472
32.32148	32610
32.32962	35327
32.33773	35767
32.34585	35515
32.35398	36426
32.36210	37271
32.37022	31449
32.37835	31099
32.38647	39524
32.39460	34263
32.40272	36188
32.41083	32899
32.41897	33094
32.42708	30820
32.43522	32375
32.44333	30792
32.45145	33646
32.45958	33812
32.46770	34190
32.47583	31345
32.48395	33045
32.49207	33016
32.50020	34607
32.50832	33066
32.51643	32337
32.52457	35131
32.53268	33522
32.54082	35232
32.54893	32617
32.55705	32213
32.56518	37104
32.57330	39458
32.58143	42901
32.58955	47209
32.59767	48394
32.60580	46082
32.61392	46626
32.62205	41311
32.63017	40376
32.63828	38268
32.64642	35487
32.65453	32946
32.66265	34012
32.67078	35183
32.67890	33529
32.68703	34477
32.69515	31824
32.70327	34449
32.71140	40405
32.71952	36726
32.72765	31912
32.73577	33940
32.74388	34837
32.75202	33934
32.76013	32764
32.76825	35579
32.77638	32594
32.78450	30682
32.79263	32034
32.80075	32297
32.80887	31853
32.81700	33811
32.82512	32968
32.83325	32866
32.84137	33802
32.84948	32110
32.85762	35799
32.86573	32527
32.87387	31788
32.88198	35675
32.89010	37248
32.89823	34641
32.90635	35772
32.91447	38451
32.92260	36263
32.93072	36665
32.93885	37833
32.94697	35686
32.95508	41230
32.96322	41952
32.97133	50640
32.97947	55555
32.98758	70987
32.99570	72137
33.00383	75506
33.01195	66604
33.02008	59086
33.02820	50953
33.03632	46238
33.04445	45013
33.05257	41112
33.06068	41880
33.06882	39845
33.07693	42384
33.08507	42964
33.09318	43257
33.10130	44100
33.10943	43698
33.11755	46997
33.12568	43000
33.13380	44381
33.14192	37768
33.15005	40065
33.15817	40597
33.16628	41614
33.17442	39237
33.18253	35827
33.19067	36495
33.19878	36902
33.20690	41921
33.21503	39162
33.22315	36181
33.23128	35848
33.23940	38033
33.24752	37088
33.25565	35652
33.26377	39464
33.27190	36181
33.28002	41589
33.28813	35393
33.29627	36867
33.30438	36235
33.31250	38163
33.32063	33168
33.32875	33235
33.33688	35159
33.34500	34447
33.35312	35720
33.36125	35355
33.36937	37872
33.37750	36266
33.38562	37269
33.39373	40714
33.40187	35229
33.40998	33012
33.41810	34752
33.42623	38193
33.43435	34120
33.44248	34029
33.45060	32474
33.45872	35982
33.46685	32578
33.47497	38638
33.48310	39248
33.49122	35513
33.49933	39303
33.50747	35237
33.51558	36306
33.52372	35638
33.53183	37561
33.53995	36456
33.54808	39096
33.55620	37138
33.56432	38758
33.57245	37162
33.58057	38212
33.58870	36678
33.59682	33182
33.60493	41056
33.61307	33647
33.62118	35434
33.62932	37496
33.63743	33556
33.64555	36987
33.65368	37998
33.66180	38435
33.66993	37233
33.67805	32610
33.68617	33107
33.69430	36470
33.70242	37052
33.71053	36955
33.71867	34949
33.72678	40015
33.73492	38628
33.74303	40704
33.75115	36840
33.75928	37692
33.76740	40185
33.77553	44538
33.78365	44324
33.79177	42584
33.79990	39242
33.80802	37681
33.81613	39877
33.82427	40583
33.83238	37659
33.84052	40939
33.84863	44864
33.85675	40490
33.86488	44756
33.87300	42845
33.88113	41440
33.88925	42411
33.89737	44010
33.90550	40261
33.91362	40717
33.92175	40396
33.92987	38455
33.93798	41069
33.94612	43260
33.95423	39952
33.96235	35785
33.97048	37763
33.97860	38841
33.98673	40810
33.99485	39104
34.00297	41593
34.01110	40051
34.01922	39935
34.02735	38725
34.03547	40397
34.04358	37314
34.05172	37161
34.05983	39092
34.06797	37913
34.07608	34674
34.08420	36591
34.09233	39504
34.10045	36602
34.10857	38361
34.11670	36751
34.12482	36126
34.13295	35580
34.14107	39277
34.14918	36367
34.15732	37328
34.16543	37639
34.17357	35916
34.18168	35642
34.18980	35741
34.19793	40108
34.20605	41329
34.21417	35226
34.22230	35427
34.23042	35566
34.23855	37724
34.24667	37246
34.25478	35230
34.26292	34295
34.27103	35726
34.27917	34888
34.28728	37745
34.29540	36486
34.30353	37417
34.31165	37200
34.31978	35600
34.32790	36248
34.33602	36924
34.34415	40841
34.35227	41357
34.36038	40606
34.36852	35457
34.37663	38977
34.38477	39887
34.39288	36896
34.40100	35352
34.40913	36605
34.41725	37834
34.42538	37969
34.43350	40109
34.44162	41359
34.44975	48556
34.45787	54380
34.46600	61699
34.47412	65081
34.48223	72664
34.49037	68340
34.49848	74309
34.50660	67616
34.51473	67683
34.52285	63757
34.53098	61720
34.53910	53810
34.54722	55131
34.55535	52511
34.56347	51101
34.57160	50647
34.57972	48086
34.58783	46922
34.59597	46788
34.60408	47601
34.61220	44955
34.62033	48166
34.62845	44939
34.63658	46438
34.64470	46713
34.65282	51811
34.66095	45532
34.66907	44289
34.67720	42982
34.68532	45316
34.69343	43746
34.70157	42408
34.70968	42166
34.71782	44015
34.72593	42409
34.73405	41042
34.74218	44326
34.75030	41124
34.75842	41087
34.76655	41001
34.77467	41453
34.78280	40678
34.79092	39813
34.79903	42012
34.80717	42191
34.81528	39299
34.82342	40513
34.83153	38368
34.83965	38717
34.84778	38959
34.85590	41713
34.86402	39682
34.87215	41317
34.88027	43330
34.88840	41490
34.89652	41352
34.90463	38790
34.91277	39795
34.92088	45462
34.92902	42963
34.93713	41218
34.94525	41655
34.95338	39060
34.96150	42835
34.96963	46465
34.97775	45807
34.98587	46635
34.99400	43624
35.00212	38779
35.01023	38761
35.01837	40123
35.02648	38681
35.03462	39841
35.04273	41290
35.05085	41563
35.05898	38887
35.06710	40459
35.07523	38258
35.08335	39099
35.09147	39640
35.09960	39908
35.10772	42760
35.11585	41848
35.12397	40670
35.13208	40945
35.14022	42058
35.14833	40181
35.15645	42758
35.16458	45554
35.17270	39381
35.18083	39857
35.18895	42505
35.19707	38638
35.20520	43004
35.21332	41730
35.22145	41476
35.22957	39426
35.23768	41627
35.24582	38872
35.25393	45424
35.26205	40295
35.27018	39196
35.27830	40995
35.28643	42413
35.29455	41794
35.30267	38890
35.31080	42078
35.31892	41103
35.32705	42999
35.33517	39113
35.34328	39490
35.35142	39616
35.35953	44437
35.36767	39175
35.37578	40920
35.38390	39974
35.39203	42089
35.40015	43231
35.40827	41668
35.41640	43594
35.42452	47175
35.43265	42883
35.44077	43725
35.44888	46105
35.45702	45638
35.46513	41332
35.47327	44073
35.48138	49614
35.48950	46096
35.49763	46678
35.50575	47334
35.51388	48123
35.52200	47144
35.53012	42713
35.53825	42932
35.54637	44611
35.55448	45138
35.56262	46965
35.57073	48814
35.57887	43421
35.58698	46365
35.59510	46164
35.60323	43470
35.61135	44526
35.61948	42815
35.62760	48595
35.63572	45212
35.64385	44686
35.65197	44656
35.66008	48096
35.66822	48401
35.67633	47156
35.68447	44465
35.69258	43986
35.70070	45673
35.70883	45805
35.71695	44139
35.72508	44936
35.73320	44200
35.74132	45004
35.74945	45130
35.75757	46667
35.76570	45693
35.77382	43639
35.78193	43623
35.79007	45362
35.79818	43826
35.80630	41785
35.81443	41750
35.82255	44208
35.83068	43567
35.83880	44638
35.84692	42244
35.85505	42854
35.86317	45232
35.87130	44993
35.87942	47542
35.88753	48027
35.89567	40234
35.90378	42266
35.91190	42679
35.92003	47814
35.92815	44189
35.93628	44270
35.94440	42358
35.95252	44037
35.96065	45189
35.96877	45284
35.97690	45642
35.98502	47854
35.99313	44046
36.00127	44298
36.00938	44372
36.01752	49647
36.02563	45337
36.03375	45519
36.04188	47812
36.05000	47943
36.05812	43543
36.06625	45954
36.07437	44095
36.08250	45312
36.09062	45819
36.09873	44853
36.10687	49391
36.11498	47778
36.12312	43802
36.13123	46451
36.13935	48486
36.14748	41613
36.15560	47579
36.16373	42605
36.17185	46787
36.17997	45897
36.18810	40332
36.19622	49315
36.20433	48015
36.21247	48577
36.22058	51019
36.22872	60028
36.23683	63713
36.24495	64090
36.25308	61316
36.26120	57515
36.26933	59845
36.27745	53189
36.28557	48365
36.29370	49963
36.30182	47925
36.30993	45220
36.31807	45334
36.32618	46774
36.33432	49469
36.34243	46307
36.35055	46262
36.35868	44728
36.36680	46695
36.37493	49471
36.38305	54208
36.39117	56093
36.39930	53000
36.40742	52690
36.41555	54378
36.42367	49171
36.43178	51554
36.43992	46926
36.44803	45958
36.45615	52292
36.46428	51244
36.47240	49768
36.48053	49186
36.48865	49802
36.49677	46092
36.50490	50246
36.51302	45613
36.52115	47784
36.52927	44573
36.53738	46611
36.54552	47885
36.55363	47241
36.56177	43392
36.56988	46312
36.57800	48191
36.58613	50781
36.59425	48920
36.60237	48990
36.61050	49295
36.61862	43712
36.62675	49028
36.63487	47699
36.64298	49971
36.65112	48407
36.65923	47760
36.66737	45989
36.67548	49738
36.68360	44896
36.69173	47267
36.69985	51791
36.70797	44483
36.71610	49273
36.72422	48562
36.73235	45248
36.74047	51097
36.74858	45233
36.75672	47409
36.76483	50796
36.77297	47649
36.78108	45699
36.78920	51042
36.79733	47702
36.80545	48558
36.81358	48218
36.82170	47706
36.82982	47405
36.83795	50310
36.84607	46030
36.85418	48035
36.86232	49864
36.87043	51790
36.87857	51195
36.88668	51115
36.89480	48372
36.90293	54127
36.91105	52775
36.91918	50325
36.92730	54519
36.93542	58607
36.94355	61110
36.95167	63864
36.95978	62996
36.96792	69263
36.97603	61398
36.98417	61237
36.99228	59717
37.00040	68937
37.00853	72110
37.01665	79093
37.02478	81736
37.03290	82655
37.04102	74557
37.04915	75129
37.05727	64122
37.06540	64510
37.07352	61826
37.08163	56877
37.08977	56475
37.09788	58009
37.10600	53706
37.11413	56866
37.12225	52555
37.13038	54693
37.13850	58636
37.14662	56803
37.15475	59028
37.16287	56365
37.17100	57058
37.17912	56223
37.18723	56960
37.19537	56610
37.20348	55963
37.21162	57141
37.21973	56696
37.22785	57050
37.23598	59034
37.24410	59730
37.25222	65786
37.26035	73484
37.26847	77161
37.27660	85308
37.28472	90712
37.29283	87377
37.30097	82910
37.30908	79898
37.31722	78143
37.32533	72715
37.33345	70286
37.34158	70479
37.34970	69339
37.35783	65521
37.36595	65679
37.37407	68675
37.38220	62902
37.39032	65303
37.39843	61769
37.40657	63947
37.41468	60948
37.42282	63284
37.43093	62982
37.43905	64429
37.44718	62355
37.45530	57597
37.46343	62340
37.47155	61875
37.47967	56704
37.48780	63812
