Z:\data\JTB-E02\BACandBLUE\JTB-E02-192-12.D Tue Dec 18 12:14:36 2018
Start of data points
2.09530	80818
2.10343	82383
2.11155	78061
2.11967	78937
2.12780	77207
2.13592	78189
2.14405	74117
2.15217	84712
2.16028	78430
2.16842	73300
2.17653	79621
2.18465	74956
2.19278	75259
2.20090	74475
2.20903	72916
2.21715	69861
2.22527	71497
2.23340	72036
2.24152	69269
2.24965	75575
2.25777	305219
2.26588	1068289
2.27402	1598482
2.28213	1881297
2.29027	1128766
2.29838	677439
2.30650	498136
2.31463	419391
2.32275	377331
2.33087	325045
2.33900	294795
2.34712	271200
2.35525	249485
2.36337	244437
2.37148	232186
2.37962	215232
2.38773	205669
2.39587	195114
2.40398	186318
2.41210	187320
2.42023	191434
2.42835	182348
2.43648	167656
2.44460	169536
2.45272	162682
2.46085	162100
2.46897	146484
2.47708	160026
2.48522	176697
2.49333	182488
2.50147	184624
2.50958	170413
2.51770	163333
2.52583	161274
2.53395	157387
2.54208	163939
2.55020	172724
2.55832	167932
2.56645	164952
2.57457	156043
2.58268	149825
2.59082	154610
2.59893	226430
2.60707	332440
2.61518	401126
2.62330	339298
2.63143	244779
2.63955	206722
2.64768	177434
2.65580	165447
2.66392	158835
2.67205	151766
2.68017	142761
2.68830	137459
2.69642	136689
2.70453	132447
2.71267	133572
2.72078	142083
2.72890	126290
2.73703	126363
2.74515	126996
2.75328	131967
2.76140	475818
2.76952	3746399
2.77765	9350489
2.78577	1.276139E+07
2.79390	1.160458E+07
2.80202	6713928
2.81013	4146449
2.81827	3093470
2.82638	2395865
2.83452	1861034
2.84263	1485195
2.85075	1244476
2.85888	1046499
2.86700	910041
2.87512	801341
2.88325	715727
2.89137	623911
2.89950	557326
2.90762	506675
2.91573	467269
2.92387	437907
2.93198	400296
2.94012	376007
2.94823	353348
2.95635	338124
2.96448	335226
2.97260	323131
2.98072	305237
2.98885	310700
2.99697	322944
3.00510	318644
3.01322	321486
3.02133	288017
3.02947	265180
3.03758	249402
3.04572	229158
3.05383	223233
3.06195	222097
3.07008	235182
3.07820	370579
3.08633	747188
3.09445	1710978
3.10257	2945582
3.11070	3734526
3.11882	3323431
3.12693	2213816
3.13507	1518483
3.14318	1165058
3.15132	973120
3.15943	994165
3.16755	1244896
3.17568	2479834
3.18380	5389289
3.19193	8476064
3.20005	9160135
3.20817	6872416
3.21630	4633419
3.22442	3469586
3.23253	2802651
3.24067	2336415
3.24878	1951179
3.25692	1675090
3.26503	1458595
3.27315	1298121
3.28128	1321313
3.28940	1958413
3.29753	3752926
3.30565	6195902
3.31377	7561970
3.32190	6718485
3.33002	5065666
3.33815	3814865
3.34627	3027558
3.35438	2511847
3.36252	2148963
3.37063	1879651
3.37875	1678896
3.38688	1503567
3.39500	1364159
3.40313	1281918
3.41125	1181758
3.41937	1127060
3.42750	1141579
3.43562	1163420
3.44375	1144305
3.45187	1082648
3.45998	1159829
3.46812	1310029
3.47623	1316047
3.48437	1171257
3.49248	970200
3.50060	810328
3.50873	720385
3.51685	702097
3.52497	724754
3.53310	790940
3.54122	834018
3.54935	795057
3.55747	694704
3.56558	612824
3.57372	552373
3.58183	535911
3.58997	501256
3.59808	493448
3.60620	471326
3.61433	467447
3.62245	487733
3.63058	497136
3.63870	528789
3.64682	901251
3.65495	5391445
3.66307	2.336446E+07
3.67118	4.794166E+07
3.67932	6.31454E+07
3.68743	6.618562E+07
3.69557	5.78737E+07
3.70368	4.144829E+07
3.71180	3.034918E+07
3.71993	2.49617E+07
3.72805	2.131091E+07
3.73618	1.839073E+07
3.74430	1.611437E+07
3.75242	1.427317E+07
3.76055	1.284354E+07
3.76867	1.152161E+07
3.77678	1.037105E+07
3.78492	9478607
3.79303	8921987
3.80117	8599330
3.80928	8459918
3.81740	8467855
3.82553	8042048
3.83365	7212788
3.84178	6503164
3.84990	5971856
3.85802	5593014
3.86615	5255018
3.87427	5013515
3.88240	4746670
3.89052	4538916
3.89863	4312421
3.90677	4230709
3.91488	4562212
3.92300	5232864
3.93113	5626720
3.93925	5352624
3.94738	4598128
3.95550	4089930
3.96362	3881271
3.97175	3682517
3.97987	3395204
3.98800	3074663
3.99612	2952327
4.00423	2964389
4.01237	3038859
4.02048	3025752
4.02860	2782985
4.03673	2522133
4.04485	2342008
4.05298	2221821
4.06110	2139408
4.06922	2096070
4.07735	2061506
4.08547	2038050
4.09360	2011476
4.10172	1955843
4.10983	1884308
4.11797	1804050
4.12608	1743683
4.13422	1706784
4.14233	1677243
4.15045	1682926
4.15858	1630961
4.16670	1638987
4.17482	1623996
4.18295	1620168
4.19107	1574580
4.19920	1804601
4.20732	3630126
4.21543	9542995
4.22357	1.828157E+07
4.23168	2.637129E+07
4.23982	3.167625E+07
4.24793	3.52817E+07
4.25605	3.749901E+07
4.26418	3.684552E+07
4.27230	2.684298E+07
4.28043	1.477854E+07
4.28855	1.01111E+07
4.29667	7933752
4.30480	6331889
4.31292	5264685
4.32103	4546788
4.32917	3988949
4.33728	3532025
4.34542	3267262
4.35353	3302705
4.36165	3802554
4.36978	4389267
4.37790	4335875
4.38603	3598284
4.39415	2824365
4.40227	2320260
4.41040	1994162
4.41852	1862063
4.42663	1746712
4.43477	1647691
4.44288	1558716
4.45102	1493823
4.45913	1409147
4.46725	1364147
4.47538	1329223
4.48350	1283310
4.49163	1261597
4.49975	1212865
4.50787	1189777
4.51600	1193079
4.52412	1173263
4.53225	1183138
4.54037	1276426
4.54848	1359813
4.55662	1374599
4.56473	1270762
4.57285	1120341
4.58098	1049493
4.58910	998697
4.59723	986308
4.60535	999012
4.61347	1079915
4.62160	1511950
4.62972	2645750
4.63785	4329651
4.64597	5498722
4.65408	4993859
4.66222	3766861
4.67033	2699323
4.67847	2276345
4.68658	2024996
4.69470	1700564
4.70283	1424861
4.71095	1186853
4.71907	1062652
4.72720	980233
4.73532	932878
4.74345	884381
4.75157	843918
4.75968	825798
4.76782	801343
4.77593	782755
4.78407	835101
4.79218	949591
4.80030	1146912
4.80843	1276572
4.81655	1200453
4.82467	1039997
4.83280	1012791
4.84092	1119483
4.84905	1272626
4.85717	1305563
4.86528	1171452
4.87342	998333
4.88153	872347
4.88967	806033
4.89778	754590
4.90590	709477
4.91403	694911
4.92215	676883
4.93028	670558
4.93840	752444
4.94652	997389
4.95465	1477681
4.96277	2043152
4.97088	2398210
4.97902	2358727
4.98713	2100034
4.99527	1819221
5.00338	1670331
5.01150	1547548
5.01963	1604890
5.02775	1977320
5.03588	2610095
5.04400	3127329
5.05212	3061162
5.06025	2549164
5.06837	2069403
5.07648	1759184
5.08462	1585924
5.09273	1444024
5.10087	1336715
5.10898	1274974
5.11710	1194453
5.12523	1125636
5.13335	1074220
5.14148	1113170
5.14960	1347235
5.15772	1876383
5.16585	2432116
5.17397	2663699
5.18210	2437030
5.19022	2094696
5.19833	2141453
5.20647	2477739
5.21458	2692024
5.22270	2497543
5.23083	2013766
5.23895	1578994
5.24708	1368905
5.25520	1074093
5.26332	939944
5.27145	824930
5.27957	804409
5.28770	735205
5.29582	700625
5.30393	694878
5.31207	670749
5.32018	682005
5.32832	691764
5.33643	739835
5.34455	780069
5.35268	759837
5.36080	708080
5.36892	655149
5.37705	672141
5.38517	771835
5.39330	976688
5.40142	1200294
5.40953	1239997
5.41767	1066697
5.42578	869648
5.43392	777467
5.44203	845016
5.45015	1076252
5.45828	1360140
5.46640	1387831
5.47452	1184584
5.48265	922708
5.49077	715628
5.49890	620455
5.50702	561278
5.51513	541117
5.52327	534903
5.53138	538722
5.53952	568642
5.54763	839265
5.55575	1626692
5.56388	3272044
5.57200	5117433
5.58013	5997411
5.58825	5333072
5.59637	3846820
5.60450	2421795
5.61262	1555950
5.62073	1114531
5.62887	895872
5.63698	800207
5.64512	712994
5.65323	670642
5.66135	620073
5.66948	602316
5.67760	608518
5.68573	638676
5.69385	734457
5.70197	815504
5.71010	851615
5.71822	831044
5.72635	722728
5.73447	626744
5.74258	555982
5.75072	503792
5.75883	493145
5.76695	479069
5.77508	452333
5.78320	448062
5.79133	437049
5.79945	437937
5.80757	417523
5.81570	418615
5.82382	415775
5.83195	416282
5.84007	398284
5.84818	405888
5.85632	396391
5.86443	394190
5.87255	383678
5.88068	400948
5.88880	393458
5.89693	416329
5.90505	500403
5.91317	634474
5.92130	769825
5.92942	760867
5.93755	678646
5.94567	568506
5.95378	545783
5.96192	608767
5.97003	774723
5.97817	988139
5.98628	1236164
5.99440	1347566
6.00253	1384874
6.01065	1183554
6.01877	984485
6.02690	757684
6.03502	598997
6.04315	491802
6.05127	438781
6.05938	409416
6.06752	401944
6.07563	407838
6.08377	413996
6.09188	382530
6.10000	357115
6.10813	357529
6.11625	402899
6.12437	678985
6.13250	1348094
6.14062	2349395
6.14875	3142966
6.15687	3129228
6.16498	2402574
6.17312	1635364
6.18123	1190454
6.18937	941127
6.19748	796418
6.20560	715411
6.21373	618712
6.22185	569631
6.22998	558526
6.23810	568076
6.24622	713802
6.25435	975550
6.26247	1251615
6.27058	1276764
6.27872	1069626
6.28683	797915
6.29497	634241
6.30308	578532
6.31120	538010
6.31933	508713
6.32745	486897
6.33558	470840
6.34370	442170
6.35182	421103
6.35995	408106
6.36807	400618
6.37620	406155
6.38432	440154
6.39243	434498
6.40057	432165
6.40868	388331
6.41680	364015
6.42493	356456
6.43305	352465
6.44118	391678
6.44930	445070
6.45742	501225
6.46555	494412
6.47367	450725
6.48180	422482
6.48992	404608
6.49803	378237
6.50617	394809
6.51428	396114
6.52240	426148
6.53053	432018
6.53865	425984
6.54678	435155
6.55490	604681
6.56302	1313293
6.57115	2918570
6.57927	5116091
6.58740	6340822
6.59552	5568518
6.60363	3651040
6.61177	2068602
6.61988	1247425
6.62802	911890
6.63613	729657
6.64425	618089
6.65238	562161
6.66050	504471
6.66862	505715
6.67675	480248
6.68487	425082
6.69300	376306
6.70112	344417
6.70923	331739
6.71737	338341
6.72548	326208
6.73362	315675
6.74173	308614
6.74985	311634
6.75798	295851
6.76610	294061
6.77423	290938
6.78235	299733
6.79047	286054
6.79860	262984
6.80672	235181
6.81483	226184
6.82297	213355
6.83108	202147
6.83922	214121
6.84733	225795
6.85545	246154
6.86358	284201
6.87170	319260
6.87983	347287
6.88795	298619
6.89607	271013
6.90420	241433
6.91232	216861
6.92043	218805
6.92857	201407
6.93668	194196
6.94482	191568
6.95293	190697
6.96105	205749
6.96918	231168
6.97730	260977
6.98543	295535
6.99355	299561
7.00167	268871
7.00980	247392
7.01792	243098
7.02605	232416
7.03417	236933
7.04228	258574
7.05042	350065
7.05853	581740
7.06665	962301
7.07478	1400937
7.08290	1694451
7.09103	1745356
7.09915	1452292
7.10727	1071374
7.11540	750554
7.12352	569103
7.13165	511051
7.13977	488119
7.14788	469091
7.15602	482830
7.16413	497726
7.17227	524530
7.18038	612432
7.18850	1143354
7.19663	2836942
7.20475	5937586
7.21287	9633757
7.22100	1.157514E+07
7.22912	1.050547E+07
7.23725	6902949
7.24537	3462948
7.25348	1441095
7.26162	608803
7.26973	332215
7.27787	274457
7.28598	280078
7.29410	281245
7.30223	296410
7.31035	289452
7.31847	303331
7.32660	365568
7.33472	453712
7.34285	573093
7.35097	649199
7.35908	638080
7.36722	575222
7.37533	473524
7.38347	383295
7.39158	323746
7.39970	284827
7.40783	254547
7.41595	230544
7.42408	224780
7.43220	208377
7.44032	201994
7.44845	207512
7.45657	214041
7.46468	232126
7.47282	254110
7.48093	251427
7.48907	245011
7.49718	221676
7.50530	210105
7.51343	227524
7.52155	377794
7.52968	867541
7.53780	2253224
7.54592	5280456
7.55405	1.073841E+07
7.56217	1.813338E+07
7.57028	2.607979E+07
7.57842	3.23278E+07
7.58653	3.375655E+07
7.59467	2.963148E+07
7.60278	2.175291E+07
7.61090	1.396923E+07
7.61903	7878826
7.62715	4395708
7.63528	2550907
7.64340	1689569
7.65152	1221060
7.65965	892374
7.66777	693765
7.67590	538659
7.68402	411497
7.69213	331685
7.70027	294220
7.70838	309833
7.71650	416227
7.72463	566811
7.73275	751624
7.74088	883199
7.74900	929118
7.75712	888482
7.76525	801838
7.77337	686006
7.78150	622062
7.78962	576493
7.79773	567805
7.80587	622914
7.81398	709438
7.82212	759763
7.83023	687666
7.83835	597088
7.84648	503629
7.85460	471183
7.86272	511052
7.87085	637875
7.87897	834224
7.88710	1107802
7.89522	1402846
7.90333	1525556
7.91147	1398732
7.91958	1061586
7.92772	767953
7.93583	596737
7.94395	548404
7.95208	578081
7.96020	570390
7.96832	515163
7.97645	441056
7.98457	354037
7.99270	289333
8.00082	253187
8.00893	240023
8.01707	228666
8.02518	215129
8.03332	211001
8.04143	193316
8.04955	193513
8.05768	197597
8.06580	206044
8.07393	210463
8.08205	214292
8.09017	206038
8.09830	191981
8.10642	184444
8.11453	175932
8.12267	189559
8.13078	219484
8.13892	313348
8.14703	467663
8.15515	608017
8.16328	655166
8.17140	611475
8.17953	478484
8.18765	381213
8.19577	306237
8.20390	272279
8.21202	231151
8.22015	205181
8.22827	191094
8.23638	179113
8.24452	162796
8.25263	163806
8.26075	159934
8.26888	147066
8.27700	142345
8.28513	151268
8.29325	147695
8.30137	160613
8.30950	189240
8.31762	259574
8.32575	346255
8.33387	412033
8.34198	426631
8.35012	369623
8.35823	292066
8.36635	228669
8.37448	174472
8.38260	153429
8.39073	140224
8.39885	129121
8.40697	130447
8.41510	115091
8.42322	118198
8.43135	128943
8.43947	118472
8.44758	132622
8.45572	138260
8.46383	133734
8.47197	133535
8.48008	125876
8.48820	121631
8.49633	119913
8.50445	124710
8.51257	134307
8.52070	167067
8.52882	230604
8.53695	314740
8.54507	359411
8.55318	327704
8.56132	249936
8.56943	186611
8.57757	150077
8.58568	137946
8.59380	134301
8.60193	158914
8.61005	201676
8.61817	243905
8.62630	284352
8.63442	285716
8.64255	274226
8.65067	214611
8.65878	180843
8.66692	152520
8.67503	135093
8.68317	131775
8.69128	122398
8.69940	126308
8.70753	119451
8.71565	122698
8.72378	115100
8.73190	124118
8.74002	111049
8.74815	116939
8.75627	115396
8.76438	132126
8.77252	175908
8.78063	267095
8.78877	420282
8.79688	581552
8.80500	658988
8.81313	653772
8.82125	558728
8.82938	440750
8.83750	381462
8.84562	347577
8.85375	328952
8.86187	305448
8.87000	292084
8.87812	278983
8.88623	263938
8.89437	256389
8.90248	238830
8.91060	252867
8.91873	268413
8.92685	340968
8.93498	460543
8.94310	542469
8.95122	548820
8.95935	500020
8.96747	431516
8.97560	461548
8.98372	542885
8.99183	659743
8.99997	684724
9.00808	620963
9.01622	504181
9.02433	390068
9.03245	298643
9.04058	263268
9.04870	228015
9.05682	206020
9.06495	204995
9.07307	204225
9.08120	213501
9.08932	268636
9.09743	360433
9.10557	556691
9.11368	844916
9.12182	1110810
9.12993	1177251
9.13805	1070862
9.14618	792376
9.15430	559799
9.16242	407599
9.17055	327199
9.17867	296410
9.18680	274921
9.19492	249605
9.20303	242422
9.21117	227802
9.21928	237589
9.22742	243744
9.23553	256943
9.24365	273443
9.25178	293787
9.25990	289778
9.26803	275216
9.27615	257058
9.28427	224185
9.29240	211647
9.30052	203327
9.30863	204243
9.31677	195692
9.32488	192029
9.33302	182086
9.34113	178598
9.34925	177860
9.35738	164064
9.36550	176464
9.37363	202564
9.38175	300692
9.38987	518182
9.39800	837049
9.40612	1306578
9.41423	1708567
9.42237	1994606
9.43048	2170441
9.43862	2280035
9.44673	2278227
9.45485	2230009
9.46298	1855428
9.47110	1373675
9.47923	951434
9.48735	622335
9.49547	429882
9.50360	376438
9.51172	426342
9.51985	537239
9.52797	662390
9.53608	766996
9.54422	791491
9.55233	711612
9.56045	579014
9.56858	439311
9.57670	330691
9.58483	251969
9.59295	226736
9.60107	198125
9.60920	193309
9.61732	186842
9.62545	189730
9.63357	175970
9.64168	173608
9.64982	166616
9.65793	170782
9.66607	175760
9.67418	186145
9.68230	192843
9.69043	187382
9.69855	169930
9.70667	163398
9.71480	153618
9.72292	151322
9.73105	154104
9.73917	149935
9.74728	137599
9.75542	140008
9.76353	125872
9.77167	121750
9.77978	116479
9.78790	116060
9.79603	116917
9.80415	109992
9.81227	117575
9.82040	119893
9.82852	116651
9.83665	124311
9.84477	114843
9.85288	121002
9.86102	118320
9.86913	113707
9.87727	113359
9.88538	112895
9.89350	112881
9.90163	116532
9.90975	117857
9.91788	139796
9.92600	198472
9.93412	360679
9.94225	744214
9.95037	1410653
9.95848	2321697
9.96662	3115851
9.97473	3391881
9.98287	2956586
9.99098	2210138
9.99910	1377407
10.00723	754224
10.01535	423238
10.02348	279600
10.03160	250443
10.03972	278139
10.04785	321386
10.05597	379709
10.06410	425869
10.07222	452781
10.08033	429995
10.08847	412061
10.09658	383822
10.10470	349782
10.11283	322656
10.12095	308500
10.12908	293622
10.13720	269025
10.14532	262723
10.15345	246643
10.16157	248210
10.16970	227231
10.17782	229707
10.18593	214167
10.19407	213245
10.20218	199458
10.21030	189124
10.21843	192549
10.22655	195458
10.23468	196108
10.24280	209170
10.25092	228468
10.25905	356102
10.26717	731904
10.27530	1724239
10.28342	3697275
10.29153	6898298
10.29967	1.095519E+07
10.30778	1.536236E+07
10.31592	2.000959E+07
10.32403	2.492311E+07
10.33215	3.147084E+07
10.34028	3.897927E+07
10.34840	4.800146E+07
10.35652	5.747778E+07
10.36465	6.465168E+07
10.37277	6.331032E+07
10.38090	4.896586E+07
10.38902	3.579534E+07
10.39713	2.784999E+07
10.40527	2.040722E+07
10.41338	1.300201E+07
10.42152	7325497
10.42963	4421021
10.43775	3450358
10.44588	3358797
10.45400	3696088
10.46212	3908376
10.47025	3944495
10.47837	3684617
10.48650	3146518
10.49462	2414109
10.50273	1886553
10.51087	1543658
10.51898	1347567
10.52712	1221810
10.53523	1110538
10.54335	1040610
10.55148	980366
10.55960	951087
10.56773	920330
10.57585	875064
10.58397	837035
10.59210	802982
10.60022	738540
10.60833	702265
10.61647	667956
10.62458	663071
10.63272	623271
10.64083	598092
10.64895	577218
10.65708	522252
10.66520	516677
10.67333	505015
10.68145	494792
10.68957	532640
10.69770	568735
10.70582	651011
10.71395	678926
10.72207	686465
10.73018	657227
10.73832	591957
10.74643	519436
10.75455	470702
10.76268	431194
10.77080	399299
10.77893	395324
10.78705	373923
10.79517	397157
10.80330	444407
10.81142	530350
10.81955	622907
10.82767	681438
10.83578	658024
10.84392	559935
10.85203	443903
10.86015	360993
10.86828	322593
10.87640	296036
10.88453	284951
10.89265	271894
10.90077	268790
10.90890	263545
10.91702	280270
10.92515	269300
10.93327	261342
10.94138	257886
10.94952	240355
10.95763	234672
10.96577	234334
10.97388	239029
10.98200	252563
10.99013	276495
10.99825	346425
11.00637	446437
11.01450	538440
11.02262	608900
11.03075	609072
11.03887	536651
11.04698	466830
11.05512	395233
11.06323	388476
11.07137	454004
11.07948	590987
11.08760	736972
11.09573	860757
11.10385	890260
11.11198	856713
11.12010	771301
11.12822	632528
11.13635	512215
11.14447	424718
11.15258	356894
11.16072	336393
11.16883	327121
11.17697	313759
11.18508	290049
11.19320	259861
11.20133	233057
11.20945	206181
11.21758	195665
11.22570	185621
11.23382	168357
11.24195	153832
11.25007	152802
11.25818	140133
11.26632	139468
11.27443	125458
11.28257	126147
11.29068	148244
11.29880	240222
11.30693	584376
11.31505	1544458
11.32318	3947118
11.33130	8277444
11.33942	1.413063E+07
11.34755	2.043988E+07
11.35567	2.51015E+07
11.36380	2.608785E+07
11.37192	2.28498E+07
11.38003	1.712321E+07
11.38817	1.190724E+07
11.39628	8224859
11.40440	6065389
11.41253	4725679
11.42065	3766935
11.42878	3010631
11.43690	2448718
11.44502	2012256
11.45315	1659578
11.46127	1419977
11.46940	1243256
11.47752	1120194
11.48563	1064007
11.49377	1059064
11.50188	1174308
11.51000	1331083
11.51813	1431113
11.52625	1448675
11.53438	1334139
11.54250	1186077
11.55062	1015255
11.55875	949544
11.56687	934164
11.57500	927626
11.58312	928778
11.59123	886087
11.59937	906992
11.60748	981641
11.61562	1110978
11.62373	1234619
11.63185	1198111
11.63998	1026983
11.64810	824647
11.65622	627452
11.66435	512818
11.67247	428030
11.68060	416288
11.68872	411981
11.69683	421695
11.70497	430380
11.71308	442654
11.72122	466707
11.72933	490514
11.73745	472611
11.74558	443557
11.75370	377641
11.76183	323766
11.76995	284647
11.77807	238408
11.78620	237310
11.79432	213175
11.80243	203885
11.81057	200464
11.81868	193899
11.82682	187070
11.83493	184942
11.84305	177051
11.85118	173509
11.85930	182016
11.86743	164794
11.87555	162922
11.88367	154885
11.89180	148654
11.89992	143215
11.90803	144487
11.91617	149399
11.92428	154084
11.93242	159160
11.94053	159461
11.94865	157375
11.95678	149074
11.96490	139590
11.97303	130802
11.98115	134323
11.98927	127804
11.99740	123509
12.00552	114656
12.01365	117620
12.02177	111770
12.02988	117670
12.03802	114445
12.04613	123797
12.05425	123554
12.06238	143501
12.07050	154944
12.07863	208157
12.08675	274476
12.09487	435391
12.10300	813116
12.11112	1751570
12.11925	3595077
12.12737	6603310
12.13548	1.021576E+07
12.14362	1.307297E+07
12.15173	1.392374E+07
12.15987	1.236043E+07
12.16798	9332354
12.17610	6268004
12.18423	4081411
12.19235	2968278
12.20047	2439315
12.20860	2163697
12.21672	1911080
12.22485	1643031
12.23297	1433109
12.24108	1253219
12.24922	1143756
12.25733	1042504
12.26547	1025283
12.27358	999629
12.28170	938468
12.28983	884445
12.29795	782937
12.30607	728465
12.31420	664283
12.32232	633228
12.33045	594499
12.33857	571692
12.34668	546109
12.35482	520527
12.36293	512617
12.37107	504771
12.37918	491557
12.38730	496067
12.39543	544077
12.40355	705745
12.41168	1016404
12.41980	1570462
12.42792	2109340
12.43605	2297669
12.44417	2086509
12.45228	1653939
12.46042	1234705
12.46853	912262
12.47667	739868
12.48478	645888
12.49290	595849
12.50103	543794
12.50915	515488
12.51728	494735
12.52540	554857
12.53352	680599
12.54165	887848
12.54977	1121140
12.55790	1269389
12.56602	1280928
12.57413	1137564
12.58227	941118
12.59038	721043
12.59850	601554
12.60663	526938
12.61475	483523
12.62288	454901
12.63100	412856
12.63912	383145
12.64725	355699
12.65537	321075
12.66350	318455
12.67162	303928
12.67973	309249
12.68787	293473
12.69598	301357
12.70410	294370
12.71223	289735
12.72035	293974
12.72848	291457
12.73660	269204
12.74472	260215
12.75285	262529
12.76097	247362
12.76910	238089
12.77722	239489
12.78533	229518
12.79347	223805
12.80158	222929
12.80972	201219
12.81783	193432
12.82595	161346
12.83408	145875
12.84220	130933
12.85032	112172
12.85845	110101
12.86657	111204
12.87470	106337
12.88282	103993
12.89093	108004
12.89907	108002
12.90718	110140
12.91532	110772
12.92343	102429
12.93155	104533
12.93968	106566
12.94780	101239
12.95592	107917
12.96405	115895
12.97217	119328
12.98030	131037
12.98842	140272
12.99653	138587
13.00467	128067
13.01278	122513
13.02092	113700
13.02903	104841
13.03715	95381
13.04528	97852
13.05340	96986
13.06153	98675
13.06965	102271
13.07777	97913
13.08590	106170
13.09402	108898
13.10213	117017
13.11027	113919
13.11838	97051
13.12652	92942
13.13463	95681
13.14275	96144
13.15088	98120
13.15900	102042
13.16713	104905
13.17525	108969
13.18337	113441
13.19150	114488
13.19962	117994
13.20775	126331
13.21587	131234
13.22398	143926
13.23212	158855
13.24023	160707
13.24835	162077
13.25648	169250
13.26460	158759
13.27273	144002
13.28085	138092
13.28897	123565
13.29710	116645
13.30522	110717
13.31335	98370
13.32147	93737
13.32958	86640
13.33772	83564
13.34583	86082
13.35395	86068
13.36208	89624
13.37020	82933
13.37833	84043
13.38645	83922
13.39457	82078
13.40270	81624
13.41082	82001
13.41895	88144
13.42707	82967
13.43518	83113
13.44332	92016
13.45143	100208
13.45957	124119
13.46768	147373
13.47580	165719
13.48393	181880
13.49205	178410
13.50017	149827
13.50830	139095
13.51642	132637
13.52455	124292
13.53267	124583
13.54078	122871
13.54892	114133
13.55703	99975
13.56517	106735
13.57328	111412
13.58140	146347
13.58953	187159
13.59765	223577
13.60578	260558
13.61390	278037
13.62202	288215
13.63015	278134
13.63827	264648
13.64638	225076
13.65452	191030
13.66263	154354
13.67077	127385
13.67888	106963
13.68700	98924
13.69513	82602
13.70325	77652
13.71138	73541
13.71950	73023
13.72762	72547
13.73575	69742
13.74387	75708
13.75198	91344
13.76012	115697
13.76823	169687
13.77637	256076
13.78448	372559
13.79260	563515
13.80073	816575
13.80885	1129245
13.81698	1479545
13.82510	1971855
13.83322	2627784
13.84135	3295772
13.84947	3681005
13.85760	3527043
13.86572	2983131
13.87383	2234532
13.88197	1567829
13.89008	1061598
13.89820	734621
13.90633	510337
13.91445	371120
13.92258	302013
13.93070	241408
13.93882	215082
13.94695	188315
13.95507	163386
13.96320	155478
13.97132	141866
13.97943	131010
13.98757	129075
13.99568	128136
14.00380	124541
14.01193	135710
14.02005	136270
14.02818	127106
14.03630	116545
14.04442	110139
14.05255	104852
14.06067	106882
14.06880	107183
14.07692	116200
14.08503	113608
14.09317	109762
14.10128	100995
14.10942	104419
14.11753	100200
14.12565	97853
14.13378	107013
14.14190	136210
14.15002	188530
14.15815	259383
14.16627	334776
14.17440	387248
14.18252	390060
14.19063	379855
14.19877	339954
14.20688	333997
14.21502	348582
14.22313	382680
14.23125	416671
14.23938	463612
14.24750	521950
14.25563	591884
14.26375	640442
14.27187	626251
14.28000	551973
14.28812	441516
14.29623	341182
14.30437	271823
14.31248	226716
14.32062	192563
14.32873	180269
14.33685	175275
14.34498	174973
14.35310	169386
14.36123	157576
14.36935	154153
14.37747	136411
14.38560	126066
14.39372	126001
14.40183	140220
14.40997	173007
14.41808	219555
14.42622	272867
14.43433	300886
14.44245	288314
14.45058	263412
14.45870	240535
14.46683	245692
14.47495	263421
14.48307	302130
14.49120	350042
14.49932	358884
14.50745	348752
14.51557	314426
14.52368	263680
14.53182	220069
14.53993	199698
14.54805	195799
14.55618	167113
14.56430	158569
14.57243	141287
14.58055	126689
14.58867	117874
14.59680	107498
14.60492	98056
14.61305	89642
14.62117	86881
14.62928	88584
14.63742	80243
14.64553	80117
14.65367	81929
14.66178	86574
14.66990	83717
14.67803	79184
14.68615	77039
14.69427	73654
14.70240	76105
14.71052	75931
14.71865	87542
14.72677	91599
14.73488	106882
14.74302	115869
14.75113	131448
14.75927	132734
14.76738	144549
14.77550	152387
14.78363	162748
14.79175	226934
14.79987	463819
14.80800	1256317
14.81612	3329337
14.82425	7100076
14.83237	1.274775E+07
14.84048	1.911091E+07
14.84862	2.543161E+07
14.85673	2.920909E+07
14.86487	2.734068E+07
14.87298	2.064209E+07
14.88110	1.211628E+07
14.88923	6088766
14.89735	3236853
14.90548	2183129
14.91360	1747495
14.92172	1554251
14.92985	1390635
14.93797	1299908
14.94608	1189188
14.95422	1082233
14.96233	976257
14.97047	882708
14.97858	810524
14.98670	769230
14.99483	691004
15.00295	643084
15.01108	619828
15.01920	620116
15.02732	608301
15.03545	618603
15.04357	625148
15.05168	604912
15.05982	576460
15.06793	524884
15.07607	480542
15.08418	437503
15.09230	407037
15.10043	374605
15.10855	355045
15.11668	354184
15.12480	365881
15.13292	386553
15.14105	430512
15.14917	512101
15.15730	552262
15.16542	529169
15.17353	445030
15.18167	334514
15.18978	242949
15.19790	194984
15.20603	164504
15.21415	163864
15.22228	158212
15.23040	154630
15.23852	157118
15.24665	160757
15.25477	156206
15.26290	160785
15.27102	152961
15.27913	139994
15.28727	134540
15.29538	134670
15.30352	114462
15.31163	114854
15.31975	112179
15.32788	113790
15.33600	106652
15.34412	104665
15.35225	102635
15.36037	99907
15.36850	107300
15.37662	118143
15.38473	118342
15.39287	126384
15.40098	125730
15.40912	115096
15.41723	117754
15.42535	116498
15.43348	116331
15.44160	113583
15.44973	120079
15.45785	142049
15.46597	214860
15.47410	416166
15.48222	827592
15.49033	1558193
15.49847	2514684
15.50658	3554467
15.51472	4123338
15.52283	4238362
15.53095	3760125
15.53908	3102267
15.54720	2306400
15.55533	1631406
15.56345	1151890
15.57157	820786
15.57970	616408
15.58782	478272
15.59593	386741
15.60407	349854
15.61218	327264
15.62032	305159
15.62843	286240
15.63655	265761
15.64468	249647
15.65280	235551
15.66093	220493
15.66905	210872
15.67717	181229
15.68530	173212
15.69342	161664
15.70155	153414
15.70967	136657
15.71778	138293
15.72592	134084
15.73403	135480
15.74215	134065
15.75028	152830
15.75840	200258
15.76653	348398
15.77465	645086
15.78277	1177747
15.79090	1824244
15.79902	2245444
15.80715	2240109
15.81527	1827619
15.82338	1273632
15.83152	827974
15.83963	533821
15.84775	381697
15.85588	311327
15.86400	265699
15.87213	249432
15.88025	231411
15.88837	219759
15.89650	214747
15.90462	205916
15.91275	196497
15.92087	183323
15.92898	179409
15.93712	168974
15.94523	179938
15.95337	176444
15.96148	170825
15.96960	165126
15.97773	159620
15.98585	163559
15.99397	159077
16.00210	173208
16.01022	207570
16.01835	234071
16.02647	274633
16.03458	278248
16.04272	274957
16.05083	245475
16.05897	206899
16.06708	182156
16.07520	154516
16.08333	144444
16.09145	124517
16.09958	127195
16.10770	124416
16.11582	128673
16.12395	149328
16.13207	177387
16.14018	214758
16.14832	272823
16.15643	311540
16.16457	324171
16.17268	315289
16.18080	285488
16.18893	250387
16.19705	206833
16.20518	182507
16.21330	176572
16.22142	180415
16.22955	169236
16.23767	165412
16.24578	158620
16.25392	140176
16.26203	133337
16.27017	124639
16.27828	127578
16.28640	147655
16.29453	193831
16.30265	241968
16.31078	292736
16.31890	318660
16.32702	307793
16.33515	292459
16.34327	276238
16.35140	252389
16.35952	232351
16.36763	224962
16.37577	199339
16.38388	189886
16.39200	172936
16.40013	158085
16.40825	151338
16.41638	139331
16.42450	140076
16.43262	135320
16.44075	147899
16.44887	219071
16.45700	457077
16.46512	1080111
16.47323	2355757
16.48137	4158200
16.48948	6003341
16.49762	6884765
16.50573	6382540
16.51385	4792883
16.52198	3064538
16.53010	1742715
16.53822	998916
16.54635	648094
16.55447	468728
16.56260	396662
16.57072	357125
16.57883	328376
16.58697	323550
16.59508	303062
16.60322	307089
16.61133	300186
16.61945	302685
16.62758	281190
16.63570	249562
16.64382	235944
16.65195	214906
16.66007	205909
16.66820	188711
16.67632	181615
16.68443	167804
16.69257	166169
16.70068	156331
16.70882	154880
16.71693	146513
16.72505	144135
16.73318	135235
16.74130	130090
16.74943	136942
16.75755	154056
16.76567	186978
16.77380	213170
16.78192	227970
16.79003	209716
16.79817	177279
16.80628	143070
16.81442	120482
16.82253	111147
16.83065	99979
16.83878	95923
16.84690	91459
16.85503	94510
16.86315	93665
16.87127	91497
16.87940	90085
16.88752	89465
16.89563	92164
16.90377	84034
16.91188	84610
16.92002	92115
16.92813	90448
16.93625	92879
16.94438	93587
16.95250	91340
16.96063	93273
16.96875	91978
16.97687	89066
16.98500	91574
16.99312	102906
17.00125	107448
17.00937	118657
17.01748	118736
17.02562	125191
17.03373	127649
17.04185	146492
17.04998	169966
17.05810	200430
17.06623	208898
17.07435	211354
17.08247	191996
17.09060	168843
17.09872	137526
17.10685	129013
17.11497	120550
17.12308	132209
17.13122	147092
17.13933	172972
17.14747	177817
17.15558	182421
17.16370	183738
17.17183	180154
17.17995	163374
17.18807	143733
17.19620	145583
17.20432	126846
17.21245	115612
17.22057	105895
17.22868	99058
17.23682	90338
17.24493	96713
17.25307	109208
17.26118	113935
17.26930	114963
17.27743	109686
17.28555	107954
17.29367	104938
17.30180	102473
17.30992	106255
17.31805	127664
17.32617	182841
17.33428	253099
17.34242	345146
17.35053	443473
17.35867	473009
17.36678	480777
17.37490	452895
17.38303	394964
17.39115	356263
17.39928	340744
17.40740	338295
17.41552	334706
17.42365	350246
17.43177	358285
17.43988	367623
17.44802	346442
17.45613	323804
17.46427	282142
17.47238	240489
17.48050	200783
17.48863	173439
17.49675	146313
17.50488	138030
17.51300	133384
17.52112	134076
17.52925	132482
17.53737	131130
17.54550	131038
17.55362	140369
17.56173	169989
17.56987	268237
17.57798	554866
17.58610	1201577
17.59423	2319740
17.60235	3870377
17.61048	5426735
17.61860	6208098
17.62672	6047238
17.63485	5036678
17.64297	3561650
17.65110	2221908
17.65922	1367590
17.66733	809125
17.67547	543644
17.68358	412656
17.69170	347012
17.69983	326680
17.70795	320745
17.71608	329585
17.72420	348435
17.73232	373255
17.74045	384373
17.74857	408542
17.75670	424823
17.76482	390008
17.77293	363801
17.78107	313337
17.78918	264856
17.79732	222319
17.80543	187313
17.81355	173910
17.82168	170378
17.82980	177667
17.83792	195437
17.84605	236204
17.85417	311979
17.86230	421841
17.87042	510789
17.87853	581238
17.88667	560420
17.89478	477559
17.90292	360051
17.91103	265476
17.91915	197685
17.92728	164958
17.93540	149579
17.94352	133555
17.95165	124032
17.95977	126440
17.96790	117286
17.97602	115536
17.98413	109630
17.99227	106594
18.00038	105449
18.00852	119307
18.01663	147821
18.02475	209298
18.03288	344047
18.04100	496108
18.04913	644700
18.05725	793581
18.06537	1052056
18.07350	1726269
18.08162	3269767
18.08973	5573529
18.09787	8187658
18.10598	9835873
18.11412	9952371
18.12223	8579851
18.13035	6538389
18.13848	4691039
18.14660	3342925
18.15473	2534229
18.16285	2095864
18.17097	1769537
18.17910	1539413
18.18722	1335347
18.19535	1127798
18.20347	1019357
18.21158	938856
18.21972	826708
18.22783	768159
18.23595	705522
18.24408	649862
18.25220	612727
18.26033	576591
18.26845	533309
18.27657	491775
18.28470	421270
18.29282	350004
18.30095	280224
18.30907	224964
18.31718	190324
18.32532	166692
18.33343	151008
18.34155	144691
18.34968	138819
18.35780	135824
18.36593	134396
18.37405	129698
18.38217	127928
18.39030	129041
18.39842	139319
18.40655	162556
18.41467	205446
18.42278	291498
18.43092	450540
18.43903	668272
18.44717	926233
18.45528	1130967
18.46340	1358681
18.47153	1620868
18.47965	2013276
18.48777	2321517
18.49590	2424623
18.50402	2191138
18.51215	1851635
18.52027	1337089
18.52838	879996
18.53652	560550
18.54463	382566
18.55277	282712
18.56088	237622
18.56900	211215
18.57713	184213
18.58525	176290
18.59338	191128
18.60150	220332
18.60962	268174
18.61775	336494
18.62587	399089
18.63398	444649
18.64212	457395
18.65023	432255
18.65837	377651
18.66648	311613
18.67460	265966
18.68273	214349
18.69085	184219
18.69898	166413
18.70710	178701
18.71522	185072
18.72335	193497
18.73147	189112
18.73958	193006
18.74772	177707
18.75583	167039
18.76397	152078
18.77208	138598
18.78020	129270
18.78833	122280
18.79645	130622
18.80458	125524
18.81270	124467
18.82082	132180
18.82895	125130
18.83707	116599
18.84520	128068
18.85332	139856
18.86143	166412
18.86957	227814
18.87768	295017
18.88580	379088
18.89393	418052
18.90205	424513
18.91018	377377
18.91830	322589
18.92642	282764
18.93455	253499
18.94267	279453
18.95080	323590
18.95892	387932
18.96703	445906
18.97517	496331
18.98328	496533
18.99142	433037
18.99953	368782
19.00765	292709
19.01578	237676
19.02390	200591
19.03202	185938
19.04015	165442
19.04827	153303
19.05640	151466
19.06452	135003
19.07263	130324
19.08077	139910
19.08888	162673
19.09702	190944
19.10513	238707
19.11325	286344
19.12138	319036
19.12950	317403
19.13762	284473
19.14575	226089
19.15387	174703
19.16200	148741
19.17012	135487
19.17823	119036
19.18637	112085
19.19448	110870
19.20262	105908
19.21073	104523
19.21885	103617
19.22698	102532
19.23510	105188
19.24323	106694
19.25135	104808
19.25947	100668
19.26760	102640
19.27572	113558
19.28383	125178
19.29197	130853
19.30008	156746
19.30822	177167
19.31633	184538
19.32445	184991
19.33258	172107
19.34070	154955
19.34883	146685
19.35695	168998
19.36507	215309
19.37320	294175
19.38132	388191
19.38943	450514
19.39757	460308
19.40568	401791
19.41382	320380
19.42193	269721
19.43005	212343
19.43818	183810
19.44630	158602
19.45443	153104
19.46255	145457
19.47067	145723
19.47880	145889
19.48692	177461
19.49505	223905
19.50317	258727
19.51128	308594
19.51942	382613
19.52753	442746
19.53565	522133
19.54378	557557
19.55190	584709
19.56003	554234
19.56815	512445
19.57627	445373
19.58440	376738
19.59252	317303
19.60065	285433
19.60877	253998
19.61688	229627
19.62502	233041
19.63313	252612
19.64127	285697
19.64938	387832
19.65750	600495
19.66563	956605
19.67375	1427254
19.68187	1821548
19.69000	2058294
19.69812	2006816
19.70625	1760727
19.71437	1438415
19.72248	1162239
19.73062	930186
19.73873	778333
19.74687	672078
19.75498	587367
19.76310	501874
19.77123	489998
19.77935	509293
19.78747	629046
19.79560	811895
19.80372	1035803
19.81185	1218247
19.81997	1262345
19.82808	1207487
19.83622	1008240
19.84433	777461
19.85247	600995
19.86058	470701
19.86870	418782
19.87683	425321
19.88495	490135
19.89308	632690
19.90120	801264
19.90932	924824
19.91745	953987
19.92557	910873
19.93368	772831
19.94182	635127
19.94993	513928
19.95807	442143
19.96618	391059
19.97430	351835
19.98243	322827
19.99055	315577
19.99868	304195
20.00680	299909
20.01492	317648
20.02305	338870
20.03117	355146
20.03930	365132
20.04742	382874
20.05553	424042
20.06367	562277
20.07178	795609
20.07990	1146485
20.08803	1537132
20.09615	1815861
20.10428	1949564
20.11240	1831141
20.12052	1571519
20.12865	1206295
20.13677	957423
20.14490	980426
20.15302	1384341
20.16113	2516131
20.16927	4619401
20.17738	7798855
20.18550	1.209253E+07
20.19363	1.666499E+07
20.20175	2.032782E+07
20.20988	2.173263E+07
20.21800	2.075118E+07
20.22612	1.815698E+07
20.23425	1.393295E+07
20.24237	1.052021E+07
20.25050	8441741
20.25862	8531644
20.26673	9936667
20.27487	1.219011E+07
20.28298	1.381296E+07
20.29112	1.456685E+07
20.29923	1.379275E+07
20.30735	1.177114E+07
20.31548	9071269
20.32360	6361275
20.33172	4271579
20.33985	2743233
20.34797	1814629
20.35610	1300357
20.36422	991380
20.37233	756988
20.38047	647402
20.38858	544715
20.39672	478042
20.40483	433846
20.41295	397831
20.42108	367063
20.42920	356191
20.43732	356357
20.44545	403471
20.45357	431956
20.46170	476283
20.46982	503310
20.47793	486579
20.48607	448360
20.49418	388645
20.50232	337522
20.51043	285472
20.51855	257103
20.52668	249342
20.53480	234310
20.54293	234153
20.55105	242818
20.55917	243340
20.56730	242730
20.57542	235940
20.58353	237756
20.59167	219851
20.59978	211499
20.60792	201436
20.61603	198677
20.62415	211891
20.63228	226997
20.64040	246705
20.64853	293049
20.65665	333822
20.66477	364774
20.67290	353855
20.68102	338947
20.68915	296795
20.69727	257054
20.70538	219075
20.71352	194299
20.72163	190102
20.72975	177651
20.73788	184057
20.74600	183557
20.75413	215901
20.76225	250102
20.77037	288513
20.77850	328864
20.78662	440055
20.79475	690229
20.80287	1219543
20.81098	2232833
20.81912	3454516
20.82723	4630347
20.83537	5106348
20.84348	4615781
20.85160	3413137
20.85973	2205116
20.86785	1293983
20.87597	727602
20.88410	445934
20.89222	362184
20.90035	347762
20.90847	392584
20.91658	522942
20.92472	688077
20.93283	849613
20.94097	981638
20.94908	1093836
20.95720	1044871
20.96533	947069
20.97345	774787
20.98157	606442
20.98970	474527
20.99782	382269
21.00595	315456
21.01407	277084
21.02218	261303
21.03032	266169
21.03843	278551
21.04657	279003
21.05468	273901
21.06280	263004
21.07093	240706
21.07905	231939
21.08718	210052
21.09530	193805
21.10342	191840
21.11155	184137
21.11967	169353
21.12778	196115
21.13592	235991
21.14403	355225
21.15217	600388
21.16028	944777
21.16840	1298337
21.17653	1542590
21.18465	1507781
21.19278	1300403
21.20090	959601
21.20902	667205
21.21715	471609
21.22527	352398
21.23338	292813
21.24152	257581
21.24963	235810
21.25777	223147
21.26588	200917
21.27400	189157
21.28213	191464
21.29025	183064
21.29838	175191
21.30650	172620
21.31462	165908
21.32275	172810
21.33087	164769
21.33900	166473
21.34712	175555
21.35523	186172
21.36337	196438
21.37148	225757
21.37960	238111
21.38773	266347
21.39585	301169
21.40398	345479
21.41210	425862
21.42022	527222
21.42835	630719
21.43647	754419
21.44460	804162
21.45272	808078
21.46083	741532
21.46897	592079
21.47708	476550
21.48522	380884
21.49333	314525
21.50145	273157
21.50958	249117
21.51770	220885
21.52582	205337
21.53395	202361
21.54207	204042
21.55020	198317
21.55832	193144
21.56643	181960
21.57457	187589
21.58268	197506
21.59082	211303
21.59893	239511
21.60705	259423
21.61518	270705
21.62330	254844
21.63142	251237
21.63955	263668
21.64767	292106
21.65580	333051
21.66392	388962
21.67203	443297
21.68017	476710
21.68828	517827
21.69642	523324
21.70453	477511
21.71265	423318
21.72078	341295
21.72890	285639
21.73703	227385
21.74515	199487
21.75327	188122
21.76140	178753
21.76952	168932
21.77763	165092
21.78577	170723
21.79388	178243
21.80202	185309
21.81013	207339
21.81825	220540
21.82638	222201
21.83450	238319
21.84263	260223
21.85075	293464
21.85887	326955
21.86700	351262
21.87512	326823
21.88325	305409
21.89137	275939
21.89948	237280
21.90762	214049
21.91573	207518
21.92385	199759
21.93198	191853
21.94010	174834
21.94823	167105
21.95635	150738
21.96447	143696
21.97260	130365
21.98072	128876
21.98885	123369
21.99697	126819
22.00508	125107
22.01322	126880
22.02133	142452
22.02945	158992
22.03758	177754
22.04570	186447
22.05383	182966
22.06195	200760
22.07007	193070
22.07820	188574
22.08632	184433
22.09445	181622
22.10257	180254
22.11068	170296
22.11882	160279
22.12693	155105
22.13507	137740
22.14318	134894
22.15130	125650
22.15943	124820
22.16755	122657
22.17567	122978
22.18380	119061
22.19192	122307
22.20005	117598
22.20817	126716
22.21628	125376
22.22442	134087
22.23253	135658
22.24067	144869
22.24878	161566
22.25690	173613
22.26503	180347
22.27315	191881
22.28127	207135
22.28940	234578
22.29752	254334
22.30565	273660
22.31377	272586
22.32188	262091
22.33002	235489
22.33813	208145
22.34627	186498
22.35438	165816
22.36250	157949
22.37063	145903
22.37875	145165
22.38688	161994
22.39500	226132
22.40312	334168
22.41125	526619
22.41937	767338
22.42748	997562
22.43562	1097016
22.44373	1086888
22.45187	947236
22.45998	699695
22.46810	491990
22.47623	348504
22.48435	289980
22.49248	298468
22.50060	362373
22.50872	454102
22.51685	574204
22.52497	671829
22.53310	742701
22.54122	742066
22.54933	655360
22.55747	551121
22.56558	437566
22.57370	358782
22.58183	286036
22.58995	247496
22.59808	227927
22.60620	199461
22.61432	186004
22.62245	164535
22.63057	150543
22.63870	153194
22.64682	148830
22.65493	161330
22.66307	170315
22.67118	179890
22.67930	184690
22.68743	203362
22.69555	231751
22.70368	276943
22.71180	371520
22.71992	448344
22.72805	506172
22.73617	532336
22.74430	477299
22.75242	419335
22.76053	319847
22.76867	268895
22.77678	247278
22.78492	244589
22.79303	289474
22.80115	374443
22.80928	484802
22.81740	567022
22.82552	616528
22.83365	594730
22.84177	534923
22.84990	442025
22.85802	388780
22.86613	362077
22.87427	410629
22.88238	529118
22.89052	694382
22.89863	895257
22.90675	985555
22.91488	1010299
22.92300	951828
22.93113	877078
22.93925	790129
22.94737	704114
22.95550	595251
22.96362	477958
22.97173	387792
22.97987	316128
22.98798	249123
22.99612	212240
23.00423	182749
23.01235	165947
23.02048	154358
23.02860	151383
23.03673	139876
23.04485	140441
23.05297	148811
23.06110	154467
23.06922	168183
23.07733	194375
23.08547	213105
23.09358	218941
23.10172	204610
23.10983	202623
23.11795	185755
23.12608	172530
23.13420	181508
23.14233	184844
23.15045	209550
23.15857	204312
23.16670	211535
23.17482	192948
23.18295	172942
23.19107	146015
23.19918	136642
23.20732	126135
23.21543	130419
23.22355	119923
23.23168	111444
23.23980	116411
23.24793	130846
23.25605	150470
23.26417	195019
23.27230	242265
23.28042	286697
23.28855	270981
23.29667	252844
23.30478	220150
23.31292	184693
23.32103	169109
23.32917	159279
23.33728	190814
23.34540	259304
23.35353	361016
23.36165	513917
23.36977	666455
23.37790	790538
23.38602	829077
23.39415	742433
23.40227	604856
23.41038	448272
23.41852	316501
23.42663	235553
23.43477	182335
23.44288	148931
23.45100	138521
23.45913	120756
23.46725	114575
23.47537	114024
23.48350	107489
23.49162	113026
23.49975	106841
23.50787	111489
23.51598	113720
23.52412	116029
23.53223	127509
23.54037	127715
23.54848	140085
23.55660	170946
23.56473	218350
23.57285	304994
23.58098	459960
23.58910	710312
23.59722	1057728
23.60535	1433856
23.61347	1658183
23.62158	1664457
23.62972	1453004
23.63783	1118829
23.64597	769220
23.65408	501652
23.66220	352009
23.67033	272453
23.67845	219191
23.68658	193713
23.69470	169949
23.70282	155155
23.71095	142254
23.71907	134652
23.72718	134152
23.73532	133473
23.74343	144193
23.75157	185957
23.75968	386588
23.76780	1001552
23.77593	2395847
23.78405	4744843
23.79218	7210302
23.80030	9335724
23.80842	9748981
23.81655	8812265
23.82467	6996291
23.83280	5035314
23.84092	3513913
23.84903	2376035
23.85717	1679657
23.86528	1273693
23.87340	1083679
23.88153	890977
23.88965	791047
23.89778	750066
23.90590	764593
23.91402	824513
23.92215	892895
23.93027	942622
23.93840	967242
23.94652	895108
23.95463	742590
23.96277	617708
23.97088	511252
23.97902	449016
23.98713	424387
23.99525	385831
24.00338	382113
24.01150	365846
24.01962	383362
24.02775	377711
24.03587	364275
24.04400	364284
24.05212	355430
24.06023	348653
24.06837	321670
24.07648	308832
24.08462	293723
24.09273	282466
24.10085	276639
24.10898	257809
24.11710	254399
24.12522	270892
24.13335	279606
24.14147	339099
24.14960	423130
24.15772	527895
24.16583	607218
24.17397	671796
24.18208	664322
24.19022	642363
24.19833	619182
24.20645	588420
24.21458	566151
24.22270	530420
24.23083	485788
24.23895	414702
24.24707	358799
24.25520	328410
24.26332	297092
24.27143	281106
24.27957	248392
24.28768	236632
24.29582	229795
24.30393	235589
24.31205	225939
24.32018	245351
24.32830	256880
24.33643	266164
24.34455	274589
24.35267	266787
24.36080	252610
24.36892	241474
24.37705	228674
24.38517	224970
24.39328	224967
24.40142	243428
24.40953	266658
24.41765	295589
24.42578	303296
24.43390	326265
24.44203	316718
24.45015	294439
24.45827	276688
24.46640	253405
24.47452	244528
24.48265	246764
24.49077	246939
24.49888	246698
24.50702	246374
24.51513	237396
24.52325	256745
24.53138	281253
24.53950	324334
24.54763	401995
24.55575	489208
24.56387	588840
24.57200	649905
24.58012	646149
24.58825	591601
24.59637	495623
24.60448	426538
24.61262	352897
24.62073	310680
24.62887	279601
24.63698	241752
24.64510	230441
24.65323	229332
24.66135	238117
24.66947	241131
24.67760	246620
24.68572	238899
24.69385	231838
24.70197	238645
24.71008	234044
24.71822	224815
24.72633	218673
24.73447	218615
24.74258	215729
24.75070	197165
24.75883	193024
24.76695	196430
24.77507	208302
24.78320	218607
24.79132	255563
24.79945	276595
24.80757	286381
24.81568	292712
24.82382	307717
24.83193	328089
24.84007	391781
24.84818	473537
24.85630	627670
24.86443	847143
24.87255	1155994
24.88068	1642299
24.88880	2342551
24.89692	3071316
24.90505	3620945
24.91317	3781022
24.92128	3283961
24.92942	2484323
24.93753	1678878
24.94567	1062196
24.95378	646612
24.96190	429254
24.97003	311070
24.97815	260777
24.98628	231515
24.99440	223230
25.00252	203521
25.01065	212380
25.01877	209050
25.02690	221562
25.03502	224006
25.04313	219097
25.05127	216988
25.05938	213185
25.06750	208343
25.07563	207184
25.08375	198482
25.09188	207495
25.10000	251694
25.10812	371571
25.11625	798187
25.12437	1846530
25.13250	4073168
25.14062	8090865
25.14873	1.294697E+07
25.15687	1.707855E+07
25.16498	1.94096E+07
25.17310	1.854696E+07
25.18123	1.481682E+07
25.18935	1.02263E+07
25.19748	6231752
25.20560	3365365
25.21372	1791142
25.22185	984115
25.22997	619628
25.23810	453874
25.24622	424885
25.25433	499741
25.26247	665901
25.27058	874823
25.27872	1049646
25.28683	1139337
25.29495	1118496
25.30308	955613
25.31120	723481
25.31932	551824
25.32745	395873
25.33557	308808
25.34370	244577
25.35182	229649
25.35993	218475
25.36807	205274
25.37618	196540
25.38432	194374
25.39243	180511
25.40055	174308
25.40868	169798
25.41680	168217
25.42493	167355
25.43305	159150
25.44117	171750
25.44930	182383
25.45742	189423
25.46553	197218
25.47367	192228
25.48178	201167
25.48992	197985
25.49803	198807
25.50615	193691
25.51428	186562
25.52240	180834
25.53053	174292
25.53865	163554
25.54677	150540
25.55490	143045
25.56302	144843
25.57113	143429
25.57927	146057
25.58738	149503
25.59552	149352
25.60363	146334
25.61175	150648
25.61988	143118
25.62800	131123
25.63613	131947
25.64425	131971
25.65237	133255
25.66050	129196
25.66862	146973
25.67675	157885
25.68487	171043
25.69298	208926
25.70112	235003
25.70923	259103
25.71735	263460
25.72548	247394
25.73360	227101
25.74173	194116
25.74985	172301
25.75797	167314
25.76610	151309
25.77422	141044
25.78235	129715
25.79047	128172
25.79858	123423
25.80672	127949
25.81483	122394
25.82295	127534
25.83108	130157
25.83920	140375
25.84733	139994
25.85545	140142
25.86357	153286
25.87170	150136
25.87982	164143
25.88795	177160
25.89607	188615
25.90418	188109
25.91232	192039
25.92043	191241
25.92857	179876
25.93668	174817
25.94480	168051
25.95293	173984
25.96105	179368
25.96917	181543
25.97730	190651
25.98542	186765
25.99355	190384
26.00167	174666
26.00978	168079
26.01792	157575
26.02603	146229
26.03417	145587
26.04228	141074
26.05040	154829
26.05853	155911
26.06665	159406
26.07478	175603
26.08290	185182
26.09102	205939
26.09915	210038
26.10727	205674
26.11538	208787
26.12352	191179
26.13163	179360
26.13977	180986
26.14788	190367
26.15600	204643
26.16413	231739
26.17225	259673
26.18038	271234
26.18850	279528
26.19662	273399
26.20475	276206
26.21287	250703
26.22100	239081
26.22912	216249
26.23723	203807
26.24537	190055
26.25348	180670
26.26160	178974
26.26973	162026
26.27785	151252
26.28598	148648
26.29410	140066
26.30222	136927
26.31035	124263
26.31847	123718
26.32660	124506
26.33472	131888
26.34283	154744
26.35097	255605
26.35908	502048
26.36720	1091030
26.37533	2241741
26.38345	4116270
26.39158	6672528
26.39970	9416349
26.40782	1.132244E+07
26.41595	1.162052E+07
26.42407	1.06137E+07
26.43220	8299874
26.44032	5958264
26.44843	3675666
26.45657	2222066
26.46468	1296871
26.47282	780473
26.48093	524707
26.48905	375703
26.49718	302164
26.50530	257620
26.51342	214559
26.52155	192157
26.52967	182046
26.53780	174652
26.54592	213170
26.55403	245361
26.56217	266211
26.57028	283006
26.57842	298088
26.58653	300004
26.59465	308069
26.60278	320196
26.61090	317971
26.61902	320488
26.62715	310586
26.63527	327189
26.64340	326128
26.65152	318384
26.65963	322625
26.66777	320935
26.67588	314704
26.68402	306514
26.69213	308991
26.70025	293433
26.70838	300712
26.71650	311258
26.72463	308930
26.73275	313115
26.74087	320903
26.74900	318230
26.75712	322879
26.76523	332567
26.77337	336143
26.78148	331105
26.78962	332176
26.79773	349104
26.80585	342446
26.81398	335818
26.82210	349707
26.83023	344396
26.83835	346883
26.84647	332266
26.85460	324827
26.86272	323171
26.87085	325946
26.87897	324128
26.88708	332176
26.89522	338213
26.90333	334764
26.91145	324616
26.91958	316352
26.92770	326942
26.93583	304659
26.94395	302093
26.95207	302141
26.96020	333535
26.96832	348898
26.97645	433369
26.98457	641897
26.99268	1072340
27.00082	1887014
27.00893	3154329
27.01705	4434764
27.02518	5645914
27.03330	6112466
27.04143	5690599
27.04955	4724372
27.05767	3495000
27.06580	2520414
27.07392	1827427
27.08205	1375727
27.09017	1098877
27.09828	931581
27.10642	784084
27.11453	715344
27.12267	669514
27.13078	624089
27.13890	578387
27.14703	559042
27.15515	532081
27.16327	516567
27.17140	528809
27.17952	591632
27.18765	690912
27.19577	786790
27.20388	861254
27.21202	874696
27.22013	819055
27.22827	736007
27.23638	651724
27.24450	565151
27.25263	510833
27.26075	452936
27.26888	420792
27.27700	381267
27.28512	362663
27.29325	338617
27.30137	347319
27.30948	352191
27.31762	360584
27.32573	360683
27.33387	355079
27.34198	363985
27.35010	366701
27.35823	365847
27.36635	365563
27.37448	370196
27.38260	349617
27.39072	343790
27.39885	334106
27.40697	335870
27.41508	320315
27.42322	316921
27.43133	322968
27.43947	317649
27.44758	326561
27.45570	324323
27.46383	313715
27.47195	298514
27.48008	273000
27.48820	276093
27.49632	268054
27.50445	259494
27.51257	255850
27.52070	255987
27.52882	249224
27.53693	244832
27.54507	247836
27.55318	251557
27.56130	250115
27.56943	255865
27.57755	260562
27.58568	295607
27.59380	341439
27.60192	414710
27.61005	467323
27.61817	474455
27.62630	470567
27.63442	430799
27.64253	392348
27.65067	357027
27.65878	318128
27.66690	297591
27.67503	292343
27.68315	301836
27.69128	317604
27.69940	336343
27.70752	343711
27.71565	334632
27.72377	327677
27.73190	295249
27.74002	263747
27.74813	241724
27.75627	221270
27.76438	205299
27.77252	209934
27.78063	219005
27.78875	218961
27.79688	228533
27.80500	241505
27.81312	245410
27.82125	235929
27.82937	237947
27.83750	216459
27.84562	203413
27.85373	197551
27.86187	187749
27.86998	187045
27.87812	191852
27.88623	188970
27.89435	178187
27.90248	178530
27.91060	181106
27.91873	189513
27.92685	189028
27.93497	187404
27.94310	183749
27.95122	178889
27.95933	185005
27.96747	183832
27.97558	169571
27.98372	179703
27.99183	176751
27.99995	185881
28.00808	196615
28.01620	221304
28.02433	257475
28.03245	315037
28.04057	406334
28.04870	536821
28.05682	663529
28.06493	739963
28.07307	705729
28.08118	598987
28.08932	471056
28.09743	361387
28.10555	273732
28.11368	216811
28.12180	194722
28.12993	179862
28.13805	172776
28.14617	168621
28.15430	162535
28.16242	165825
28.17055	174944
28.17867	171817
28.18678	180402
28.19492	188593
28.20303	218062
28.21115	254490
28.21928	316664
28.22740	369605
28.23553	405409
28.24365	414445
28.25177	387625
28.25990	349888
28.26802	277758
28.27615	234877
28.28427	200898
28.29238	181697
28.30052	189434
28.30863	200681
28.31677	250568
28.32488	323389
28.33300	391260
28.34113	452728
28.34925	493365
28.35737	513572
28.36550	562801
28.37362	611257
28.38175	662002
28.38987	667806
28.39798	656126
28.40612	637836
28.41423	604311
28.42237	540978
28.43048	512649
28.43860	440300
28.44673	395192
28.45485	363330
28.46297	319089
28.47110	310247
28.47922	301794
28.48735	316843
28.49547	326422
28.50358	367177
28.51172	419143
28.51983	440732
28.52797	456622
28.53608	432453
28.54420	372914
28.55233	314788
28.56045	245165
28.56858	207801
28.57670	192751
28.58482	181327
28.59295	168788
28.60107	166497
28.60918	161409
28.61732	182258
28.62543	199442
28.63357	234359
28.64168	254180
28.64980	274184
28.65793	274129
28.66605	266257
28.67418	237235
28.68230	224799
28.69042	204205
28.69855	178607
28.70667	167270
28.71478	162295
28.72292	142173
28.73103	147175
28.73917	148318
28.74728	146995
28.75540	148339
28.76353	147193
28.77165	161414
28.77978	159680
28.78790	173501
28.79602	194800
28.80415	209834
28.81227	232688
28.82040	243488
28.82852	246508
28.83663	231040
28.84477	212488
28.85288	205735
28.86100	187928
28.86913	174703
28.87725	174141
28.88538	184818
28.89350	196101
28.90162	223280
28.90975	270407
28.91787	277999
28.92600	286768
28.93412	273997
28.94223	256045
28.95037	242120
28.95848	221101
28.96662	199241
28.97473	190502
28.98285	174455
28.99098	162562
28.99910	152701
29.00722	151456
29.01535	148874
29.02347	152553
29.03160	154040
29.03972	155084
29.04783	148445
29.05597	141299
29.06408	143009
29.07222	140261
29.08033	148121
29.08845	147314
29.09658	147342
29.10470	153413
29.11282	152051
29.12095	146809
29.12907	137069
29.13720	130270
29.14532	127563
29.15343	116234
29.16157	119913
29.16968	123443
29.17782	118871
29.18593	128075
29.19405	144832
29.20218	175971
29.21030	231681
29.21843	291944
29.22655	363850
29.23467	387146
29.24280	407910
29.25092	369898
29.25903	333880
29.26717	333516
29.27528	323316
29.28342	292339
29.29153	256948
29.29965	212559
29.30778	180323
29.31590	163487
29.32403	140423
29.33215	128436
29.34027	123129
29.34840	118629
29.35652	114791
29.36465	110105
29.37277	116241
29.38088	123981
29.38902	117367
29.39713	125528
29.40525	131267
29.41338	139409
29.42150	138299
29.42963	147917
29.43775	164213
29.44587	143695
29.45400	142015
29.46212	139536
29.47025	135344
29.47837	124517
29.48648	119981
29.49462	124451
29.50273	129881
29.51085	134324
29.51898	134388
29.52710	133510
29.53523	137077
29.54335	130179
29.55147	125221
29.55960	122649
29.56772	120708
29.57585	120958
29.58397	115981
29.59208	107525
29.60022	112098
29.60833	108005
29.61647	109377
29.62458	109989
29.63270	111989
29.64083	114810
29.64895	116273
29.65707	114080
29.66520	110425
29.67332	109554
29.68145	117528
29.68957	125057
29.69768	142748
29.70582	157939
29.71393	167624
29.72207	159758
29.73018	163838
29.73830	140174
29.74643	139709
29.75455	121354
29.76268	119522
29.77080	117012
29.77892	109616
29.78705	108457
29.79517	103872
29.80328	103969
29.81142	103178
29.81953	102972
29.82767	101409
29.83578	98968
29.84390	98703
29.85203	100847
29.86015	107724
29.86828	105920
29.87640	111134
29.88452	121894
29.89265	142243
29.90077	178797
29.90888	218383
29.91702	256400
29.92513	246923
29.93327	222966
29.94138	193650
29.94950	164879
29.95763	131749
29.96575	127765
29.97388	130645
29.98200	138999
29.99012	154655
29.99825	167553
30.00637	193996
30.01450	217841
30.02262	233590
30.03073	251913
30.03887	255147
30.04698	277127
30.05510	266202
30.06323	273764
30.07135	276705
30.07948	270334
30.08760	257502
30.09572	240340
30.10385	238869
30.11197	225795
30.12010	203487
30.12822	196623
30.13633	186655
30.14447	177021
30.15258	176258
30.16070	167659
30.16883	165887
30.17695	164987
30.18508	172621
30.19320	185073
30.20132	210987
30.20945	230863
30.21757	250353
30.22570	243586
30.23382	230752
30.24193	206471
30.25007	178319
30.25818	157962
30.26632	133085
30.27443	135977
30.28255	126477
30.29068	122668
30.29880	118326
30.30692	116318
30.31505	119824
30.32317	116436
30.33130	111897
30.33942	124482
30.34753	115613
30.35567	119305
30.36378	123455
30.37192	127202
30.38003	121829
30.38815	121833
30.39628	112000
30.40440	111693
30.41253	117605
30.42065	104315
30.42877	103447
30.43690	111064
30.44502	106927
30.45313	101820
30.46127	106625
30.46938	105842
30.47752	106030
30.48563	109598
30.49375	114480
30.50188	117819
30.51000	116929
30.51813	123430
30.52625	123176
30.53437	113393
30.54250	126673
30.55062	127780
30.55873	121025
30.56687	130377
30.57498	130026
30.58312	135827
30.59123	138689
30.59935	138175
30.60748	138820
30.61560	145428
30.62373	143112
30.63185	149348
30.63997	146307
30.64810	141959
30.65622	144987
30.66435	133596
30.67247	126163
30.68058	119510
30.68872	106210
30.69683	99536
30.70495	100095
30.71308	95504
30.72120	102281
30.72933	105727
30.73745	106563
30.74557	111623
30.75370	109379
30.76182	108422
30.76995	115438
30.77807	112053
30.78618	122010
30.79432	143955
30.80243	182167
30.81057	241603
30.81868	309505
30.82680	340507
30.83493	328692
30.84305	304677
30.85117	251009
30.85930	212679
30.86742	202488
30.87555	211741
30.88367	236974
30.89178	281558
30.89992	304788
30.90803	305190
30.91617	289298
30.92428	246329
30.93240	203671
30.94053	183830
30.94865	182525
30.95677	186599
30.96490	215074
30.97302	251128
30.98115	263883
30.98927	262968
30.99738	226038
31.00552	190877
31.01363	165900
31.02177	143082
31.02988	120267
31.03800	119952
31.04613	116701
31.05425	119684
31.06238	116365
31.07050	121838
31.07862	119729
31.08675	120922
31.09487	138485
31.10298	148156
31.11112	178797
31.11923	191326
31.12737	209327
31.13548	197824
31.14360	191360
31.15173	165134
31.15985	165777
31.16798	160048
31.17610	165887
31.18422	165166
31.19235	160613
31.20047	161297
31.20858	168295
31.21672	183953
31.22483	203985
31.23297	221184
31.24108	237363
31.24920	221969
31.25733	200701
31.26545	170512
31.27358	144783
31.28170	123656
31.28982	119161
31.29795	105149
31.30607	103807
31.31420	118220
31.32232	119233
31.33043	125023
31.33857	134231
31.34668	137982
31.35480	139046
31.36293	142941
31.37105	136451
31.37918	123891
31.38730	124555
31.39542	110980
31.40355	108728
31.41167	112263
31.41980	103736
31.42792	104154
31.43603	105857
31.44417	102568
31.45228	104873
31.46042	105117
31.46853	101956
31.47665	110359
31.48478	106498
31.49290	113442
31.50102	118880
31.50915	135563
31.51727	143309
31.52540	172138
31.53352	185465
31.54163	204276
31.54977	202177
31.55788	197108
31.56602	198028
31.57413	166750
31.58225	148693
31.59038	139666
31.59850	126470
31.60663	119267
31.61475	112796
31.62287	106632
31.63100	112204
31.63912	118275
31.64723	112845
31.65537	115808
31.66348	126596
31.67162	136744
31.67973	156875
31.68785	163679
31.69598	159520
31.70410	154821
31.71223	152104
31.72035	128610
31.72847	121451
31.73660	106387
31.74472	100948
31.75283	100134
31.76097	93692
31.76908	97947
31.77722	97993
31.78533	98349
31.79345	98732
31.80158	97403
31.80970	104644
31.81783	104712
31.82595	107382
31.83407	103012
31.84220	100315
31.85032	102909
31.85845	108103
31.86657	106427
31.87468	105860
31.88282	110448
31.89093	111326
31.89905	106658
31.90718	100911
31.91530	108740
31.92343	106092
31.93155	111407
31.93967	125890
31.94780	129262
31.95592	151755
31.96405	164218
31.97217	167032
31.98028	187242
31.98842	192626
31.99653	215872
32.00465	231380
32.01278	250229
32.02090	265059
32.02903	267956
32.03715	259416
32.04527	247815
32.05340	219047
32.06152	186044
32.06965	158005
32.07777	153218
32.08588	143885
32.09402	141954
32.10213	141958
32.11027	145011
32.11838	136672
32.12650	127560
32.13463	127442
32.14275	123978
32.15087	119728
32.15900	111306
32.16712	118834
32.17525	114244
32.18337	115945
32.19148	114893
32.19962	111924
32.20773	114360
32.21587	110864
32.22398	108662
32.23210	119081
32.24023	110997
32.24835	106455
32.25648	106809
32.26460	109904
32.27272	109940
32.28085	113977
32.28897	110160
32.29708	116853
32.30522	119124
32.31333	114521
32.32147	113429
32.32958	111867
32.33770	116109
32.34583	115065
32.35395	110649
32.36208	116854
32.37020	117455
32.37832	117409
32.38645	113701
32.39457	116171
32.40268	109920
32.41082	113661
32.41893	107391
32.42707	106343
32.43518	108198
32.44330	112918
32.45143	113185
32.45955	116179
32.46768	113811
32.47580	120186
32.48392	124245
32.49205	121797
32.50017	126698
32.50830	121064
32.51642	121745
32.52453	129516
32.53267	127111
32.54078	134066
32.54890	133791
32.55703	127274
32.56515	126751
32.57328	129590
32.58140	125551
32.58952	129404
32.59765	118274
32.60577	119033
32.61390	111408
32.62202	120065
32.63013	110233
32.63827	114984
32.64638	117082
32.65452	117113
32.66263	114238
32.67075	115912
32.67888	111248
32.68700	122542
32.69512	127825
32.70325	130422
32.71137	129709
32.71950	118538
32.72762	126405
32.73573	118941
32.74387	124325
32.75198	116240
32.76012	113908
32.76823	111164
32.77635	108674
32.78448	107914
32.79260	102475
32.80072	117399
32.80885	112705
32.81697	112135
32.82510	115199
32.83322	124704
32.84133	125360
32.84947	118870
32.85758	120817
32.86572	131831
32.87383	114413
32.88195	117503
32.89008	130631
32.89820	136792
32.90633	140569
32.91445	151072
32.92257	148546
32.93070	158692
32.93882	140572
32.94693	133501
32.95507	124436
32.96318	110326
32.97132	113653
32.97943	118593
32.98755	145012
32.99568	164852
33.00380	218504
33.01193	265834
33.02005	309810
33.02817	295339
33.03630	268797
33.04442	227582
33.05253	190518
33.06067	170603
33.06878	168474
33.07692	190337
33.08503	232228
33.09315	289620
33.10128	367566
33.10940	443472
33.11753	501630
33.12565	516531
33.13377	485260
33.14190	404716
33.15002	329361
33.15815	269430
33.16627	229517
33.17438	201352
33.18252	187238
33.19063	162402
33.19875	142419
33.20688	130863
33.21500	131488
33.22313	133042
33.23125	146680
33.23937	153234
33.24750	164501
33.25562	166946
33.26375	160589
33.27187	151071
33.27998	143674
33.28812	137013
33.29623	130051
33.30437	131146
33.31248	131766
33.32060	132579
33.32873	132898
33.33685	138901
33.34497	136332
33.35310	141782
33.36122	152836
33.36935	165865
33.37747	175907
33.38558	179328
33.39372	165026
33.40183	152733
33.40997	130157
33.41808	116215
33.42620	107410
33.43433	103515
33.44245	100673
33.45057	94547
33.45870	98075
33.46682	97498
33.47495	98241
33.48307	103523
33.49118	103551
33.49932	109606
33.50743	103834
33.51557	113844
33.52368	122626
33.53180	116204
33.53993	123632
33.54805	125289
33.55618	134420
33.56430	148226
33.57242	147106
33.58055	163107
33.58867	156673
33.59678	136889
33.60492	121534
33.61303	116171
33.62117	108115
33.62928	117869
33.63740	118910
33.64553	122201
33.65365	142277
33.66178	146941
33.66990	157595
33.67802	157373
33.68615	144167
33.69427	127816
33.70240	123867
33.71052	111646
33.71863	98473
33.72677	102437
33.73488	94195
33.74300	100244
33.75113	98092
33.75925	97255
33.76738	95030
33.77550	95536
33.78362	90487
33.79175	91417
33.79987	89558
33.80800	88873
33.81612	92064
33.82423	92007
33.83237	95262
33.84048	93718
33.84860	94090
33.85673	98676
33.86485	99385
33.87298	103380
33.88110	100604
33.88922	110300
33.89735	115309
33.90547	112645
33.91360	110783
33.92172	112368
33.92983	110695
33.93797	103517
33.94608	103417
33.95422	98097
33.96233	92331
33.97045	95541
33.97858	90203
33.98670	89822
33.99482	94923
34.00295	92783
34.01107	93642
34.01920	93743
34.02732	93856
34.03543	91941
34.04357	93687
34.05168	96292
34.05982	97347
34.06793	103240
34.07605	97794
34.08418	100909
34.09230	98325
34.10043	94971
34.10855	100398
34.11667	96427
34.12480	97671
34.13292	97000
34.14103	97936
34.14917	92381
34.15728	97273
34.16542	100800
34.17353	101865
34.18165	103557
34.18978	96440
34.19790	102650
34.20603	101171
34.21415	104407
34.22227	111618
34.23040	116384
34.23852	115553
34.24663	109591
34.25477	108495
34.26288	100433
34.27102	95314
34.27913	99440
34.28725	100640
34.29538	99810
34.30350	101518
34.31163	108850
34.31975	118381
34.32787	119356
34.33600	125875
34.34412	126863
34.35225	126305
34.36037	135452
34.36848	141675
34.37662	146005
34.38473	140846
34.39285	142502
34.40098	141538
34.40910	142677
34.41723	144498
34.42535	144322
34.43347	139281
34.44160	147129
34.44972	147803
34.45785	145283
34.46597	149580
34.47408	143030
34.48222	159409
34.49033	151225
34.49845	149830
34.50658	144561
34.51470	145336
34.52283	146749
34.53095	152593
34.53907	165290
34.54720	187859
34.55532	217601
34.56345	267553
34.57157	302318
34.57968	323985
34.58782	331624
34.59593	320185
34.60407	274295
34.61218	234584
34.62030	198583
34.62843	175980
34.63655	157097
34.64467	149881
34.65280	140355
34.66092	131135
34.66905	137287
34.67717	128893
34.68528	130788
34.69342	130704
34.70153	130306
34.70967	128204
34.71778	125012
34.72590	118923
34.73403	117216
34.74215	120363
34.75028	125339
34.75840	126419
34.76652	131573
34.77465	127670
34.78277	136712
34.79088	140500
34.79902	142225
34.80713	142095
34.81527	127529
34.82338	127091
34.83150	121676
34.83963	120730
34.84775	118075
34.85588	114572
34.86400	114684
34.87212	115556
34.88025	113688
34.88837	111980
34.89648	116264
34.90462	110644
34.91273	106975
34.92087	103835
34.92898	109665
34.93710	108019
34.94523	119198
34.95335	108605
34.96148	119215
34.96960	123335
34.97772	131120
34.98585	131093
34.99397	143447
35.00210	138680
35.01022	131797
35.01833	128102
35.02647	124918
35.03458	117866
35.04270	120588
35.05083	120916
35.05895	117243
35.06708	116287
35.07520	123706
35.08332	118360
35.09145	115453
35.09957	115645
35.10770	119259
35.11582	115700
35.12393	119448
35.13207	114074
35.14018	123492
35.14832	120447
35.15643	119178
35.16455	122265
35.17268	129572
35.18080	127674
35.18892	131737
35.19705	136635
35.20517	125771
35.21330	120444
35.22142	121983
35.22953	119522
35.23767	125295
35.24578	112743
35.25392	113332
35.26203	106676
35.27015	112827
35.27828	115479
35.28640	116261
35.29452	118977
35.30265	115392
35.31077	116586
35.31890	113656
35.32702	111534
35.33513	108645
35.34327	116266
35.35138	115910
35.35952	125007
35.36763	109434
35.37575	107397
35.38388	110909
35.39200	110702
35.40013	120837
35.40825	127477
35.41637	142068
35.42450	165832
35.43262	192058
35.44073	213807
35.44887	222597
35.45698	212909
35.46512	195721
35.47323	169904
35.48135	142885
35.48948	140516
35.49760	133250
35.50573	123343
35.51385	124220
35.52197	120089
35.53010	124093
35.53822	120939
35.54633	120690
35.55447	118397
35.56258	115417
35.57072	104558
35.57883	109540
35.58695	109609
35.59508	105147
35.60320	99786
35.61133	108753
35.61945	105939
35.62757	103078
35.63570	100170
35.64382	98357
35.65195	101545
35.66007	103680
35.66818	111406
35.67632	99827
35.68443	96411
35.69255	113887
35.70068	105277
35.70880	108636
35.71693	113143
35.72505	118969
35.73317	128559
35.74130	122692
35.74942	132369
35.75755	139340
35.76567	160257
35.77378	177994
35.78192	206082
35.79003	201055
35.79817	203108
35.80628	187454
35.81440	157240
35.82253	130369
35.83065	132524
35.83877	120133
35.84690	112934
35.85502	109500
35.86315	116301
35.87127	112703
35.87938	117764
35.88752	110533
35.89563	116981
35.90377	115050
35.91188	114701
35.92000	113466
35.92813	105125
35.93625	110300
35.94437	107028
35.95250	109316
35.96062	106668
35.96875	101979
35.97687	108790
35.98498	106036
35.99312	107533
36.00123	108975
36.00937	115017
36.01748	109301
36.02560	115803
36.03373	115546
36.04185	116317
36.04998	115775
36.05810	109570
36.06622	107428
36.07435	105492
36.08247	111986
36.09058	105199
36.09872	105836
36.10683	108276
36.11497	108632
36.12308	108371
36.13120	113035
36.13933	120574
36.14745	134192
36.15558	129991
36.16370	148923
36.17182	142021
36.17995	140448
36.18807	132306
36.19620	122443
36.20432	116684
36.21243	117538
36.22057	107814
36.22868	110959
36.23680	105032
36.24493	104105
36.25305	105891
36.26118	109393
36.26930	108696
36.27742	101892
36.28555	114646
36.29367	108430
36.30180	108388
36.30992	111558
36.31803	110505
36.32617	115080
36.33428	111773
36.34240	118528
36.35053	127594
36.35865	126147
36.36678	122576
36.37490	120753
36.38302	112761
36.39115	111895
36.39927	110912
36.40740	112015
36.41552	114100
36.42363	126913
36.43177	117854
36.43988	117629
36.44802	116013
36.45613	113445
36.46425	116057
36.47238	108389
36.48050	111228
36.48862	106930
36.49675	103697
36.50487	105748
36.51300	103208
36.52112	104079
36.52923	100602
36.53737	105545
36.54548	104449
36.55362	108135
36.56173	116399
36.56985	104903
36.57798	105589
36.58610	105199
36.59422	100685
36.60235	105541
36.61047	100940
36.61860	107294
36.62672	108243
36.63483	113101
36.64297	106556
36.65108	106475
36.65922	108474
36.66733	108289
36.67545	107726
36.68358	102736
36.69170	104611
36.69983	105010
36.70795	109722
36.71607	105395
36.72420	110748
36.73232	105638
36.74043	106874
36.74857	104713
36.75668	112658
36.76482	116765
36.77293	102568
36.78105	107500
36.78918	109047
36.79730	104366
36.80543	111181
36.81355	109932
36.82167	111580
36.82980	107524
36.83792	108344
36.84605	110422
36.85417	102861
36.86228	103990
36.87042	103752
36.87853	100975
36.88665	105097
36.89478	105270
36.90290	105129
36.91103	102632
36.91915	108815
36.92727	107293
36.93540	107741
36.94352	111308
36.95165	129875
36.95977	147006
36.96788	183606
36.97602	225962
36.98413	265649
36.99227	281262
37.00038	275636
37.00850	235330
37.01663	195066
37.02475	161321
37.03287	138382
37.04100	127496
37.04912	130012
37.05725	123829
37.06537	122551
37.07348	122050
37.08162	130603
37.08973	137937
37.09787	150701
37.10598	149506
37.11410	148226
37.12223	147489
37.13035	134559
37.13847	129456
37.14660	121775
37.15472	122319
37.16285	113490
37.17097	115112
37.17908	109599
37.18722	115796
37.19533	111213
37.20347	118187
37.21158	113371
37.21970	118662
37.22783	116209
37.23595	122227
37.24408	117575
37.25220	113561
37.26032	116908
37.26845	114712
37.27657	118898
37.28468	113326
37.29282	111812
37.30093	113962
37.30907	112291
37.31718	108246
37.32530	114479
37.33343	118417
37.34155	118819
37.34968	119013
37.35780	117982
37.36592	119730
37.37405	124742
37.38217	127669
37.39028	133648
37.39842	135037
37.40653	141909
37.41467	136126
37.42278	144171
37.43090	142544
37.43903	144483
37.44715	164184
37.45528	154335
37.46340	157453
37.47152	149622
37.47965	143460
37.48777	143109
