C:\MassHunter\GCMS\1\data\JTB-E02\BACandBLUE\JTB-E18-017-04.D Wed Jul 03 08:23:41 2019
Start of data points
2.09527	55497
2.10338	58053
2.11152	60861
2.11963	65047
2.12777	65747
2.13588	70573
2.14400	74901
2.15213	78388
2.16025	88552
2.16838	90675
2.17650	89858
2.18462	87721
2.19275	92258
2.20087	87973
2.20898	88179
2.21712	81270
2.22523	76803
2.23337	77761
2.24148	72774
2.24960	74560
2.25773	87256
2.26585	603116
2.27398	3518850
2.28210	3859536
2.29022	1670883
2.29835	847238
2.30647	623281
2.31460	541643
2.32272	493787
2.33083	753245
2.33897	1077196
2.34708	727660
2.35520	557273
2.36333	468481
2.37145	419453
2.37958	396531
2.38770	355160
2.39582	309079
2.40395	306371
2.41207	285814
2.42020	319301
2.42832	285481
2.43643	261217
2.44457	264937
2.45268	260238
2.46082	228446
2.46893	212974
2.47705	201552
2.48518	269757
2.49330	418543
2.50142	353223
2.50955	283886
2.51767	259029
2.52580	241645
2.53392	225514
2.54203	219217
2.55017	216075
2.55828	213310
2.56642	206387
2.57453	187340
2.58265	174866
2.59078	163975
2.59890	162713
2.60703	176881
2.61515	189588
2.62327	175129
2.63140	162350
2.63952	153762
2.64763	159062
2.65577	140717
2.66388	143287
2.67202	138183
2.68013	137292
2.68825	129573
2.69638	130208
2.70450	136126
2.71263	128040
2.72075	125667
2.72887	122557
2.73700	119199
2.74512	120466
2.75323	116814
2.76137	109530
2.76948	115862
2.77762	111834
2.78573	112732
2.79385	113070
2.80198	112933
2.81010	119317
2.81823	117334
2.82635	116778
2.83447	112605
2.84260	109894
2.85072	105630
2.85885	112855
2.86697	113185
2.87508	108825
2.88322	113357
2.89133	109983
2.89945	106386
2.90758	103551
2.91570	104812
2.92383	100342
2.93195	96722
2.94007	101373
2.94820	97133
2.95632	100195
2.96445	99805
2.97257	104341
2.98068	100724
2.98882	98033
2.99693	96670
3.00505	99332
3.01318	97462
3.02130	98289
3.02943	92867
3.03755	95347
3.04567	91585
3.05380	88847
3.06192	88801
3.07005	92266
3.07817	89358
3.08628	95975
3.09442	108496
3.10253	153610
3.11067	214259
3.11878	196497
3.12690	179461
3.13503	159033
3.14315	136209
3.15127	131076
3.15940	117688
3.16752	114832
3.17565	109588
3.18377	105904
3.19188	105676
3.20002	106870
3.20813	102963
3.21627	94464
3.22438	94254
3.23250	95551
3.24063	91913
3.24875	87514
3.25688	90641
3.26500	94711
3.27312	142242
3.28125	899767
3.28937	7143513
3.29748	2.652161E+07
3.30562	4.540877E+07
3.31373	5.138962E+07
3.32187	4.492286E+07
3.32998	3.395502E+07
3.33810	2.509127E+07
3.34623	1.890588E+07
3.35435	1.46902E+07
3.36248	1.165477E+07
3.37060	9533631
3.37872	7911718
3.38685	6787273
3.39497	5872973
3.40308	5180027
3.41122	4643715
3.41933	4215710
3.42747	3845779
3.43558	3540948
3.44370	3323541
3.45183	3125572
3.45995	2900588
3.46808	2743198
3.47620	2565459
3.48432	2436992
3.49245	2308259
3.50057	2195196
3.50870	2100682
3.51682	1991687
3.52493	1902111
3.53307	1823278
3.54118	1768980
3.54930	1700195
3.55743	1664667
3.56555	1600301
3.57368	1557658
3.58180	1511299
3.58992	1465794
3.59805	1419374
3.60617	1385607
3.61430	1354459
3.62242	1334598
3.63053	1310336
3.63867	1258105
3.64678	1241805
3.65492	1178129
3.66303	1153209
3.67115	1135791
3.67928	1121768
3.68740	1087096
3.69552	1067146
3.70365	1057647
3.71177	1045675
3.71990	1006024
3.72802	981696
3.73613	977876
3.74427	957966
3.75238	930507
3.76052	912121
3.76863	919662
3.77675	905055
3.78488	886407
3.79300	880378
3.80112	873702
3.80925	871178
3.81737	867643
3.82550	847910
3.83362	848209
3.84173	813715
3.84987	805234
3.85798	780333
3.86612	789141
3.87423	767923
3.88235	764091
3.89048	741936
3.89860	750770
3.90673	733463
3.91485	714873
3.92297	711880
3.93110	705176
3.93922	696321
3.94733	673410
3.95547	678637
3.96358	669883
3.97172	679120
3.97983	678232
3.98795	651877
3.99608	663111
4.00420	645415
4.01233	645218
4.02045	660712
4.02857	649932
4.03670	633879
4.04482	627439
4.05293	620748
4.06107	600240
4.06918	610702
4.07732	591172
4.08543	579962
4.09355	591069
4.10168	577714
4.10980	556035
4.11793	557454
4.12605	561244
4.13417	657723
4.14230	845760
4.15042	972104
4.15855	953473
4.16667	816050
4.17478	729803
4.18292	660419
4.19103	632163
4.19915	586866
4.20728	572147
4.21540	564860
4.22353	568154
4.23165	567372
4.23977	548620
4.24790	540953
4.25602	520380
4.26415	511045
4.27227	514302
4.28038	503460
4.28852	495486
4.29663	499761
4.30477	486555
4.31288	482361
4.32100	491892
4.32913	501249
4.33725	496711
4.34537	483348
4.35350	492872
4.36162	491335
4.36975	498962
4.37787	500110
4.38598	492053
4.39412	483407
4.40223	467776
4.41037	471354
4.41848	441243
4.42660	448096
4.43473	441763
4.44285	431392
4.45097	420153
4.45910	422296
4.46722	420816
4.47535	423329
4.48347	420321
4.49158	406275
4.49972	411001
4.50783	415447
4.51597	404905
4.52408	410907
4.53220	391724
4.54033	399299
4.54845	384114
4.55658	394728
4.56470	377399
4.57282	387037
4.58095	377807
4.58907	383764
4.59718	385863
4.60532	382645
4.61343	384631
4.62157	371895
4.62968	365995
4.63780	365095
4.64593	369272
4.65405	368034
4.66218	352917
4.67030	353713
4.67842	350191
4.68655	353122
4.69467	357561
4.70280	341621
4.71092	335029
4.71903	339147
4.72717	337715
4.73528	340738
4.74340	340336
4.75153	339616
4.75965	328587
4.76778	330249
4.77590	337098
4.78402	317553
4.79215	318357
4.80027	330425
4.80840	316645
4.81652	317708
4.82463	324678
4.83277	324855
4.84088	324568
4.84900	320288
4.85713	307752
4.86525	315386
4.87338	321661
4.88150	321471
4.88962	311997
4.89775	305732
4.90587	305984
4.91400	328702
4.92212	514593
4.93023	1697294
4.93837	6194372
4.94648	1.630076E+07
4.95462	2.872127E+07
4.96273	3.539625E+07
4.97085	3.487864E+07
4.97898	2.881448E+07
4.98710	2.09607E+07
4.99522	1.444379E+07
5.00335	1.007126E+07
5.01147	7395976
5.01960	5803374
5.02772	4729662
5.03583	3990251
5.04397	3435696
5.05208	3020493
5.06022	2728707
5.06833	2494389
5.07645	2274983
5.08458	2076094
5.09270	1966508
5.10083	1824677
5.10895	1717202
5.11707	1623304
5.12520	1553817
5.13332	1457675
5.14143	1401084
5.14957	1357503
5.15768	1294825
5.16582	1256612
5.17393	1214609
5.18205	1177695
5.19018	1147092
5.19830	1119932
5.20643	1096060
5.21455	1061159
5.22267	1050512
5.23080	1055465
5.23892	1087972
5.24703	1078295
5.25517	1056778
5.26328	967446
5.27142	932332
5.27953	905214
5.28765	860206
5.29578	834395
5.30390	832100
5.31203	806969
5.32015	778486
5.32827	784601
5.33640	774183
5.34452	747683
5.35265	749364
5.36077	733766
5.36888	713929
5.37702	707135
5.38513	710637
5.39325	692835
5.40138	680804
5.40950	662364
5.41763	649671
5.42575	649651
5.43387	646139
5.44200	627552
5.45012	621958
5.45825	611121
5.46637	603571
5.47448	605052
5.48262	599143
5.49073	578812
5.49885	577080
5.50698	565991
5.51510	556652
5.52323	565949
5.53135	540459
5.53947	550391
5.54760	545530
5.55572	542683
5.56385	532465
5.57197	534131
5.58008	521895
5.58822	512002
5.59633	510930
5.60447	515738
5.61258	519251
5.62070	529946
5.62883	559638
5.63695	573953
5.64507	553252
5.65320	550669
5.66132	555310
5.66945	559099
5.67757	606158
5.68568	674157
5.69382	696798
5.70193	655727
5.71007	600814
5.71818	539248
5.72630	510907
5.73443	473676
5.74255	471943
5.75068	463354
5.75880	449214
5.76692	454814
5.77505	449207
5.78317	435729
5.79128	433075
5.79942	430566
5.80753	431566
5.81567	418528
5.82378	414046
5.83190	417264
5.84003	410872
5.84815	410596
5.85628	401011
5.86440	397428
5.87252	399449
5.88065	389439
5.88877	384590
5.89688	384277
5.90502	370902
5.91313	341156
5.92127	291246
5.92938	267182
5.93750	272708
5.94563	269930
5.95375	260379
5.96188	260363
5.97000	279790
5.97812	279628
5.98625	293446
5.99437	294134
6.00250	286966
6.01062	273994
6.01873	275028
6.02687	263209
6.03498	251628
6.04310	246015
6.05123	253113
6.05935	245775
6.06748	246474
6.07560	244800
6.08372	231904
6.09185	233567
6.09997	226126
6.10810	228882
6.11622	233264
6.12433	227966
6.13247	231569
6.14058	232511
6.14872	232854
6.15683	236493
6.16495	231030
6.17308	233417
6.18120	243272
6.18932	235099
6.19745	231910
6.20557	234851
6.21370	234241
6.22182	232463
6.22993	242930
6.23807	245630
6.24618	237750
6.25432	237694
6.26243	238943
6.27055	238657
6.27868	226097
6.28680	240602
6.29492	235471
6.30305	238570
6.31117	248840
6.31930	236055
6.32742	242060
6.33553	236735
6.34367	239032
6.35178	233137
6.35992	232319
6.36803	241363
6.37615	238910
6.38428	234498
6.39240	236907
6.40053	240258
6.40865	233104
6.41677	233680
6.42490	240993
6.43302	242319
6.44113	263835
6.44927	258267
6.45738	253823
6.46552	253585
6.47363	247864
6.48175	253739
6.48988	249647
6.49800	252353
6.50613	244817
6.51425	245837
6.52237	238632
6.53050	223749
6.53862	216170
6.54673	210442
6.55487	213178
6.56298	199450
6.57112	202611
6.57923	207222
6.58735	198913
6.59548	192949
6.60360	200985
6.61173	189174
6.61985	187270
6.62797	191859
6.63610	192123
6.64422	189098
6.65235	188284
6.66047	188409
6.66858	173685
6.67672	177072
6.68483	179396
6.69295	174217
6.70108	179591
6.70920	177436
6.71733	169255
6.72545	176397
6.73357	170223
6.74170	172271
6.74982	171222
6.75795	172097
6.76607	170783
6.77418	177909
6.78232	167183
6.79043	167623
6.79857	165486
6.80668	176439
6.81480	166795
6.82293	170668
6.83105	166117
6.83917	168242
6.84730	162287
6.85542	158715
6.86355	135020
6.87167	113617
6.87978	110062
6.88792	96743
6.89603	101900
6.90417	98502
6.91228	98497
6.92040	92874
6.92853	92170
6.93665	90291
6.94478	83992
6.95290	87737
6.96102	85545
6.96915	84373
6.97727	85553
6.98538	84334
6.99352	84954
7.00163	84282
7.00977	87972
7.01788	86253
7.02600	82071
7.03413	83222
7.04225	83504
7.05038	79392
7.05850	84762
7.06662	84470
7.07475	83769
7.08287	80262
7.09098	84170
7.09912	85931
7.10723	79528
7.11537	78306
7.12348	79994
7.13160	78443
7.13973	79272
7.14785	79299
7.15598	80736
7.16410	82335
7.17222	80022
7.18035	83705
7.18847	83933
7.19660	79042
7.20472	80227
7.21283	85506
7.22097	79900
7.22908	84164
7.23720	80584
7.24533	80676
7.25345	81820
7.26158	79609
7.26970	79027
7.27782	77965
7.28595	77829
7.29407	75553
7.30220	81613
7.31032	82512
7.31843	78718
7.32657	79000
7.33468	79508
7.34280	76339
7.35093	75933
7.35905	80133
7.36718	76069
7.37530	76020
7.38342	83798
7.39155	76153
7.39967	81536
7.40780	79819
7.41592	81871
7.42403	89612
7.43217	96076
7.44028	105056
7.44842	118950
7.45653	125097
7.46465	117663
7.47278	106776
7.48090	98017
7.48902	89488
7.49715	85912
7.50527	78315
7.51340	79629
7.52152	77933
7.52963	80259
7.53777	78034
7.54588	72125
7.55402	76137
7.56213	75997
7.57025	74753
7.57838	77605
7.58650	78871
7.59463	79562
7.60275	78059
7.61087	80163
7.61900	72115
7.62712	75565
7.63523	77247
7.64337	77789
7.65148	70819
7.65962	72342
7.66773	72476
7.67585	74494
7.68398	74755
7.69210	73233
7.70023	76694
7.70835	72325
7.71647	72937
7.72460	75492
7.73272	73352
7.74083	73101
7.74897	70287
7.75708	67501
7.76522	70872
7.77333	75522
7.78145	73328
7.78958	73011
7.79770	75280
7.80583	81008
7.81395	78234
7.82207	79104
7.83020	77091
7.83832	73242
7.84645	73243
7.85457	68540
7.86268	69284
7.87082	66911
7.87893	61913
7.88705	72398
7.89518	64627
7.90330	68227
7.91143	70326
7.91955	65943
7.92767	70317
7.93580	67282
7.94392	66918
7.95205	65960
7.96017	69531
7.96828	67255
7.97642	70750
7.98453	75907
7.99267	76773
8.00078	72598
8.00890	70965
8.01703	69480
8.02515	68078
8.03327	67456
8.04140	66715
8.04952	66746
8.05765	70310
8.06577	68613
8.07388	68329
8.08202	67273
8.09013	66810
8.09827	73174
8.10638	71081
8.11450	69191
8.12263	69430
8.13075	67742
8.13887	64422
8.14700	69934
8.15512	68985
8.16325	69513
8.17137	78576
8.17948	75891
8.18762	77356
8.19573	80367
8.20387	73026
8.21198	74480
8.22010	73953
8.22823	68720
8.23635	69232
8.24448	69129
8.25260	68372
8.26072	69169
8.26885	62718
8.27697	69065
8.28508	68847
8.29322	65735
8.30133	69559
8.30947	70712
8.31758	69391
8.32570	72327
8.33383	71813
8.34195	74153
8.35008	81402
8.35820	80864
8.36632	76628
8.37445	78264
8.38257	72270
8.39068	67924
8.39882	71862
8.40693	68007
8.41507	71952
8.42318	68158
8.43130	68397
8.43943	64417
8.44755	68456
8.45568	64203
8.46380	72667
8.47192	67137
8.48005	67349
8.48817	68248
8.49630	73554
8.50442	73820
8.51253	84067
8.52067	85521
8.52878	88483
8.53690	77066
8.54503	73965
8.55315	74437
8.56128	70816
8.56940	73417
8.57752	69269
8.58565	90157
8.59377	363838
8.60190	829140
8.61002	534633
8.61813	231817
8.62627	153409
8.63438	166649
8.64252	187262
8.65063	156451
8.65875	130274
8.66688	127156
8.67500	116163
8.68312	121735
8.69125	112691
8.69937	108559
8.70750	101237
8.71562	114420
8.72373	124071
8.73187	107857
8.73998	128567
8.74812	224899
8.75623	635630
8.76435	1847946
8.77248	4471651
8.78060	8179427
8.78872	1.087205E+07
8.79685	1.100848E+07
8.80497	8990505
8.81310	6249305
8.82122	4169606
8.82933	2880579
8.83747	2121653
8.84558	1648779
8.85372	1308872
8.86183	1080950
8.86995	945174
8.87808	825276
8.88620	755308
8.89433	668734
8.90245	627053
8.91057	569269
8.91870	553878
8.92682	513028
8.93493	476373
8.94307	461953
8.95118	438389
8.95932	404809
8.96743	404344
8.97555	382672
8.98368	426798
8.99180	2669514
8.99993	1.624645E+07
9.00805	2.198761E+07
9.01617	1.210734E+07
9.02430	5758129
9.03242	3492933
9.04055	2382042
9.04867	1817295
9.05678	1428332
9.06492	1199597
9.07303	1013150
9.08115	902457
9.08928	808519
9.09740	728405
9.10553	669708
9.11365	618910
9.12177	588100
9.12990	547628
9.13802	515921
9.14615	497619
9.15427	476798
9.16238	463725
9.17052	441699
9.17863	441710
9.18675	418665
9.19488	404738
9.20300	399283
9.21113	387378
9.21925	359643
9.22737	348246
9.23550	337621
9.24362	323890
9.25175	320473
9.25987	297492
9.26798	304855
9.27612	292772
9.28423	286228
9.29237	279449
9.30048	272128
9.30860	260713
9.31673	256927
9.32485	245051
9.33297	243939
9.34110	238868
9.34922	235630
9.35735	227673
9.36547	259103
9.37358	292018
9.38172	305762
9.38983	273472
9.39797	249799
9.40608	244225
9.41420	254013
9.42233	233323
9.43045	225082
9.43857	210124
9.44670	208931
9.45482	203267
9.46295	198899
9.47107	217257
9.47918	709419
9.48732	4581932
9.49543	1.243053E+07
9.50357	1.321932E+07
9.51168	7672074
9.51980	4032760
9.52793	2472624
9.53605	1755746
9.54418	1326073
9.55230	1048508
9.56042	856220
9.56855	711049
9.57667	614554
9.58478	530091
9.59292	470331
9.60103	425434
9.60917	396419
9.61728	364097
9.62540	334141
9.63353	315847
9.64165	285045
9.64978	275084
9.65790	256578
9.66602	252788
9.67415	242654
9.68227	229397
9.69040	220503
9.69852	207559
9.70663	202619
9.71477	199532
9.72288	196902
9.73100	180519
9.73913	184669
9.74725	174473
9.75538	174615
9.76350	169248
9.77162	165929
9.77975	165433
9.78787	158012
9.79600	151024
9.80412	148435
9.81223	153180
9.82037	150444
9.82848	154450
9.83660	147068
9.84473	151007
9.85285	150357
9.86098	145954
9.86910	141939
9.87722	139093
9.88535	135216
9.89347	136648
9.90160	133140
9.90972	131764
9.91783	135104
9.92597	146277
9.93408	152091
9.94222	153002
9.95033	139403
9.95845	134194
9.96658	136524
9.97470	144080
9.98282	153855
9.99095	170958
9.99907	211028
10.00720	223048
10.01532	240757
10.02343	231598
10.03157	233995
10.03968	217620
10.04782	197835
10.05593	186316
10.06405	167779
10.07218	154439
10.08030	154616
10.08843	145867
10.09655	133946
10.10467	131839
10.11280	132596
10.12092	131630
10.12903	125854
10.13717	124999
10.14528	125453
10.15342	132539
10.16153	139395
10.16965	133166
10.17778	144976
10.18590	137940
10.19403	150342
10.20215	154650
10.21027	165881
10.21840	186739
10.22652	217893
10.23463	235855
10.24277	248429
10.25088	243247
10.25902	196722
10.26713	177172
10.27525	160980
10.28338	151709
10.29150	139578
10.29963	147171
10.30775	152031
10.31587	147113
10.32400	143078
10.33212	148633
10.34025	138422
10.34837	132345
10.35648	134785
10.36462	129291
10.37273	130408
10.38085	130125
10.38898	126497
10.39710	115066
10.40523	116755
10.41335	116003
10.42147	114516
10.42960	114316
10.43772	117977
10.44585	112201
10.45397	111827
10.46208	115382
10.47022	114309
10.47833	113724
10.48647	111464
10.49458	109480
10.50270	111264
10.51083	108469
10.51895	110874
10.52707	111197
10.53520	110816
10.54332	108771
10.55145	113590
10.55957	111698
10.56768	105109
10.57582	112152
10.58393	112552
10.59207	105069
10.60018	105991
10.60830	106279
10.61643	103234
10.62455	101486
10.63267	103917
10.64080	102845
10.64892	106992
10.65705	105525
10.66517	92513
10.67328	99071
10.68142	104649
10.68953	98437
10.69767	103085
10.70578	101932
10.71390	104059
10.72203	103054
10.73015	103911
10.73828	99313
10.74640	107276
10.75452	98304
10.76265	100332
10.77077	102975
10.77888	103817
10.78702	100750
10.79513	111043
10.80327	101582
10.81138	98349
10.81950	96217
10.82763	93632
10.83575	100822
10.84388	98885
10.85200	91971
10.86012	89545
10.86825	96001
10.87637	94125
10.88448	94981
10.89262	96148
10.90073	96627
10.90887	94513
10.91698	94259
10.92510	100121
10.93323	96460
10.94135	99149
10.94948	103595
10.95760	97520
10.96572	100476
10.97385	101580
10.98197	93505
10.99010	96134
10.99822	87962
11.00633	93417
11.01447	92165
11.02258	89424
11.03070	89584
11.03883	88686
11.04695	105403
11.05508	190711
11.06320	563777
11.07132	1600051
11.07945	2956932
11.08757	3349008
11.09570	2636125
11.10382	1660150
11.11193	1020227
11.12007	673727
11.12818	485677
11.13632	381163
11.14443	310552
11.15255	282300
11.16068	273081
11.16880	274913
11.17692	300618
11.18505	321511
11.19317	326923
11.20130	317951
11.20942	309929
11.21753	261207
11.22567	227913
11.23378	191542
11.24192	168951
11.25003	151253
11.25815	143209
11.26628	138789
11.27440	136583
11.28252	128369
11.29065	127166
11.29877	117187
11.30690	117959
11.31502	120914
11.32313	119820
11.33127	114983
11.33938	109988
11.34752	109192
11.35563	110592
11.36375	115159
11.37188	108383
11.38000	108681
11.38813	104203
11.39625	110818
11.40437	101481
11.41250	106233
11.42062	102899
11.42873	102985
11.43687	102331
11.44498	97265
11.45312	101177
11.46123	103682
11.46935	101086
11.47748	102656
11.48560	104335
11.49373	102649
11.50185	98213
11.50997	98035
11.51810	101184
11.52622	101078
11.53435	96795
11.54247	101309
11.55058	95541
11.55872	97078
11.56683	99509
11.57495	95591
11.58308	97490
11.59120	101137
11.59933	95528
11.60745	100112
11.61557	97875
11.62370	93746
11.63182	94512
11.63995	92457
11.64807	91756
11.65618	92289
11.66432	93806
11.67243	92677
11.68055	92075
11.68868	97704
11.69680	102081
11.70493	104284
11.71305	106164
11.72117	111301
11.72930	111598
11.73742	114645
11.74555	118354
11.75367	122885
11.76178	124295
11.76992	126612
11.77803	122448
11.78617	115362
11.79428	106220
11.80240	100670
11.81053	97641
11.81865	102368
11.82677	100945
11.83490	96603
11.84302	98875
11.85115	98217
11.85927	102449
11.86738	100568
11.87552	95373
11.88363	98539
11.89177	101046
11.89988	100146
11.90800	99116
11.91613	94768
11.92425	98305
11.93237	99865
11.94050	96850
11.94862	101562
11.95675	96044
11.96487	101063
11.97298	95270
11.98112	101417
11.98923	101559
11.99737	111619
12.00548	108172
12.01360	106177
12.02173	103134
12.02985	101180
12.03798	94224
12.04610	94531
12.05422	96858
12.06235	99640
12.07047	104510
12.07858	96776
12.08672	100884
12.09483	95840
12.10297	97918
12.11108	98461
12.11920	99813
12.12733	98139
12.13545	97295
12.14358	96728
12.15170	101885
12.15982	101086
12.16795	95713
12.17607	106277
12.18420	102973
12.19232	97746
12.20043	92913
12.20857	92760
12.21668	96582
12.22480	97909
12.23293	95101
12.24105	93565
12.24918	98897
12.25730	104380
12.26542	96615
12.27355	101311
12.28167	104622
12.28980	104092
12.29792	100538
12.30603	100788
12.31417	105838
12.32228	97325
12.33042	102294
12.33853	96320
12.34665	100551
12.35478	95906
12.36290	97589
12.37102	103777
12.37915	100873
12.38727	97751
12.39540	97501
12.40352	99731
12.41163	97153
12.41977	99930
12.42788	101348
12.43602	102867
12.44413	103921
12.45225	106882
12.46038	102961
12.46850	113584
12.47662	103658
12.48475	95709
12.49287	105064
12.50100	96029
12.50912	99077
12.51723	99274
12.52537	99509
12.53348	96989
12.54162	92494
12.54973	100888
12.55785	101738
12.56598	104640
12.57410	103370
12.58223	96487
12.59035	95919
12.59847	98601
12.60660	96018
12.61472	97627
12.62283	97358
12.63097	96074
12.63908	94119
12.64722	98362
12.65533	94161
12.66345	99104
12.67158	94359
12.67970	103246
12.68783	96058
12.69595	97536
12.70407	104121
12.71220	98970
12.72032	102097
12.72843	105996
12.73657	110471
12.74468	115503
12.75282	117251
12.76093	118147
12.76905	123521
12.77718	121743
12.78530	123087
12.79343	128388
12.80155	125918
12.80967	113731
12.81780	114962
12.82592	105837
12.83405	102899
12.84217	98512
12.85028	104180
12.85842	100591
12.86653	100763
12.87465	97780
12.88278	96653
12.89090	100248
12.89903	100482
12.90715	93426
12.91527	103076
12.92340	94535
12.93152	97423
12.93965	96860
12.94777	98090
12.95588	99925
12.96402	101976
12.97213	101109
12.98027	103974
12.98838	102769
12.99650	97859
13.00463	94045
13.01275	98040
13.02087	100391
13.02900	101708
13.03712	97574
13.04525	98589
13.05337	98928
13.06148	96735
13.06962	101002
13.07773	98232
13.08587	98381
13.09398	104223
13.10210	105640
13.11023	105887
13.11835	104179
13.12647	101928
13.13460	104444
13.14272	98119
13.15085	108027
13.15897	104247
13.16708	118509
13.17522	121394
13.18333	138277
13.19147	153190
13.19958	168542
13.20770	161921
13.21583	152132
13.22395	141874
13.23208	127904
13.24020	113866
13.24832	109664
13.25645	105533
13.26457	111688
13.27268	108827
13.28082	102290
13.28893	103002
13.29707	106916
13.30518	103122
13.31330	107096
13.32143	106947
13.32955	103154
13.33768	103846
13.34580	97284
13.35392	105335
13.36205	104930
13.37017	109254
13.37830	105013
13.38642	102453
13.39453	106589
13.40267	104621
13.41078	102711
13.41890	103099
13.42703	105155
13.43515	104125
13.44328	106172
13.45140	105863
13.45952	104465
13.46765	108700
13.47577	104247
13.48390	100082
13.49202	108904
13.50013	106491
13.50827	101186
13.51638	109143
13.52450	109222
13.53263	106665
13.54075	113913
13.54888	104974
13.55700	105827
13.56512	111317
13.57325	111549
13.58137	115246
13.58950	106348
13.59762	102912
13.60573	112922
13.61387	111572
13.62198	111806
13.63012	109741
13.63823	112223
13.64635	111384
13.65448	104979
13.66260	110605
13.67072	114383
13.67885	106391
13.68697	107917
13.69510	109119
13.70322	105757
13.71133	111468
13.71947	109482
13.72758	115435
13.73572	104676
13.74383	111391
13.75195	116148
13.76008	122243
13.76820	117488
13.77632	121304
13.78445	131884
13.79257	137312
13.80070	133481
13.80882	132738
13.81693	136866
13.82507	133702
13.83318	129224
13.84132	134521
13.84943	129104
13.85755	132302
13.86568	131445
13.87380	134929
13.88193	134811
13.89005	131124
13.89817	137275
13.90630	148153
13.91442	145254
13.92253	152639
13.93067	159990
13.93878	150555
13.94692	144423
13.95503	139018
13.96315	134407
13.97128	135340
13.97940	136324
13.98753	133432
13.99565	131838
14.00377	133614
14.01190	129861
14.02002	131720
14.02815	142164
14.03627	140132
14.04438	154372
14.05252	154870
14.06063	165548
14.06875	155423
14.07688	152561
14.08500	147956
14.09313	145202
14.10125	139443
14.10937	138093
14.11750	135838
14.12562	140440
14.13375	133542
14.14187	138198
14.14998	146865
14.15812	180040
14.16623	316527
14.17435	685133
14.18248	1451106
14.19060	2521894
14.19873	3311925
14.20685	3419685
14.21497	2807986
14.22310	1987163
14.23122	1279472
14.23935	844255
14.24747	618799
14.25558	511735
14.26372	437504
14.27183	390152
14.27997	364957
14.28808	325673
14.29620	313187
14.30433	279836
14.31245	267930
14.32057	252004
14.32870	241194
14.33682	233973
14.34495	214500
14.35307	196591
14.36118	174026
14.36932	161287
14.37743	149239
14.38557	148168
14.39368	144301
14.40180	136480
14.40993	141135
14.41805	139315
14.42618	136379
14.43430	133937
14.44242	135129
14.45055	142246
14.45867	139160
14.46678	135563
14.47492	133880
14.48303	132273
14.49117	131922
14.49928	131893
14.50740	131009
14.51553	138163
14.52365	148983
14.53178	139399
14.53990	131515
14.54802	131991
14.55615	129496
14.56427	127450
14.57238	128118
14.58052	133633
14.58863	126672
14.59677	125379
14.60488	125293
14.61300	125830
14.62113	121797
14.62925	124249
14.63738	117270
14.64550	120502
14.65362	123710
14.66175	120846
14.66987	121526
14.67800	121148
14.68612	119923
14.69423	117974
14.70237	116220
14.71048	120277
14.71860	116681
14.72673	115276
14.73485	119039
14.74298	119900
14.75110	122284
14.75922	121027
14.76735	147096
14.77547	214513
14.78360	391733
14.79172	666576
14.79983	928740
14.80797	1014182
14.81608	863268
14.82422	683480
14.83233	1005045
14.84045	936694
14.84858	458567
14.85670	333498
14.86482	317560
14.87295	263611
14.88107	241278
14.88920	225812
14.89732	209414
14.90543	224681
14.91357	220950
14.92168	191858
14.92982	176442
14.93793	179592
14.94605	173315
14.95418	166262
14.96230	157792
14.97042	152188
14.97855	150729
14.98667	151062
14.99480	146198
15.00292	152619
15.01103	1523400
15.01917	1.866318E+07
15.02728	2.072091E+07
15.03542	8878710
15.04353	4682465
15.05165	3052696
15.05978	2189666
15.06790	1682884
15.07603	1353169
15.08415	1100201
15.09227	952073
15.10040	839954
15.10852	723712
15.11663	659298
15.12477	605500
15.13288	565353
15.14102	522036
15.14913	492665
15.15725	494918
15.16538	2670576
15.17350	1.546499E+07
15.18163	1.501053E+07
15.18975	6728905
15.19787	3783194
15.20600	2516863
15.21412	1829627
15.22223	1424413
15.23037	1170701
15.23848	1002277
15.24662	850953
15.25473	748574
15.26285	678535
15.27098	631396
15.27910	569980
15.28723	545883
15.29535	492456
15.30347	476780
15.31160	452539
15.31972	434527
15.32785	408061
15.33597	396512
15.34408	374074
15.35222	359723
15.36033	352113
15.36845	337870
15.37658	324208
15.38470	316398
15.39283	309530
15.40095	305232
15.40907	292428
15.41720	277462
15.42532	276897
15.43345	297654
15.44157	330155
15.44968	310171
15.45782	270517
15.46593	262367
15.47407	267691
15.48218	297031
15.49030	284406
15.49843	276631
15.50655	282639
15.51467	299204
15.52280	299258
15.53092	280064
15.53905	282340
15.54717	294143
15.55528	272026
15.56342	258815
15.57153	252719
15.57967	245893
15.58778	241602
15.59590	241521
15.60403	243736
15.61215	245148
15.62027	241616
15.62840	230795
15.63652	223570
15.64465	221441
15.65277	390847
15.66088	1714155
15.66902	4474501
15.67713	4500677
15.68527	2671380
15.69338	1538849
15.70150	1025896
15.70963	780692
15.71775	594820
15.72588	502897
15.73400	428612
15.74212	389909
15.75025	346683
15.75837	314508
15.76648	297782
15.77462	290419
15.78273	265582
15.79087	257120
15.79898	261573
15.80710	242293
15.81523	240697
15.82335	234207
15.83148	234002
15.83960	226525
15.84772	228444
15.85585	220013
15.86397	225890
15.87210	216533
15.88022	209184
15.88833	209610
15.89647	195023
15.90458	199336
15.91270	205215
15.92083	199797
15.92895	195827
15.93708	187649
15.94520	192338
15.95332	193413
15.96145	191751
15.96957	189390
15.97770	193660
15.98582	195837
15.99393	194198
16.00207	195535
16.01018	209024
16.01830	233964
16.02643	241499
16.03455	260415
16.04268	273214
16.05080	255125
16.05892	231047
16.06705	223627
16.07517	211674
16.08330	212196
16.09142	205945
16.09953	208256
16.10767	198582
16.11578	189420
16.12392	184439
16.13203	189475
16.14015	200673
16.14828	201467
16.15640	193151
16.16452	185472
16.17265	182185
16.18077	179882
16.18890	177973
16.19702	180201
16.20513	176005
16.21327	178286
16.22138	178631
16.22952	175386
16.23763	177515
16.24575	180670
16.25388	178062
16.26200	174241
16.27012	171521
16.27825	172439
16.28637	175782
16.29450	171096
16.30262	166776
16.31073	164335
16.31887	174511
16.32698	170244
16.33512	168465
16.34323	174593
16.35135	184463
16.35948	177558
16.36760	169462
16.37573	170666
16.38385	162693
16.39197	164097
16.40010	163559
16.40822	165205
16.41633	166376
16.42447	166842
16.43258	160767
16.44072	165692
16.44883	162550
16.45695	163163
16.46508	159845
16.47320	165009
16.48133	157391
16.48945	164803
16.49757	167189
16.50570	179513
16.51382	180541
16.52195	178696
16.53007	174982
16.53818	170948
16.54632	165140
16.55443	155222
16.56255	162029
16.57068	160838
16.57880	160176
16.58693	159484
16.59505	153073
16.60317	155087
16.61130	151307
16.61942	154231
16.62755	151293
16.63567	157329
16.64378	149112
16.65192	146481
16.66003	147576
16.66815	152861
16.67628	148781
16.68440	148945
16.69253	150851
16.70065	146494
16.70877	152336
16.71690	144018
16.72502	144702
16.73315	143498
16.74127	145051
16.74938	135932
16.75752	146965
16.76563	144059
16.77377	138249
16.78188	137587
16.79000	140957
16.79813	147789
16.80625	141338
16.81437	144554
16.82250	138288
16.83062	136391
16.83875	136497
16.84687	136164
16.85498	144022
16.86312	138328
16.87123	140754
16.87937	133678
16.88748	140440
16.89560	142272
16.90373	139538
16.91185	147233
16.91998	152072
16.92810	156795
16.93622	161689
16.94435	154685
16.95247	147847
16.96058	141247
16.96872	142238
16.97683	144859
16.98497	140438
16.99308	145038
17.00120	143725
17.00933	138008
17.01745	141598
17.02558	139330
17.03370	142465
17.04182	144549
17.04995	137455
17.05807	140842
17.06618	133779
17.07432	131398
17.08243	136779
17.09057	137168
17.09868	136580
17.10680	139206
17.11493	140123
17.12305	137728
17.13118	140209
17.13930	138503
17.14742	132048
17.15555	129737
17.16367	136484
17.17180	137264
17.17992	129742
17.18803	124147
17.19617	130112
17.20428	131984
17.21240	208251
17.22053	438733
17.22865	917075
17.23678	1230446
17.24490	1044678
17.25302	686706
17.26115	441241
17.26927	324752
17.27740	262684
17.28552	225599
17.29363	199932
17.30177	183441
17.30988	171889
17.31800	164498
17.32613	155952
17.33425	155853
17.34238	164218
17.35050	176563
17.35862	192189
17.36675	195785
17.37487	194124
17.38300	181334
17.39112	178462
17.39923	166639
17.40737	159549
17.41548	147825
17.42362	147370
17.43173	143817
17.43985	136143
17.44798	144683
17.45610	129536
17.46422	133169
17.47235	137464
17.48047	131514
17.48860	132902
17.49672	125228
17.50483	127658
17.51297	130211
17.52108	127959
17.52922	134740
17.53733	131841
17.54545	129254
17.55358	127610
17.56170	126996
17.56983	122025
17.57795	133514
17.58607	117705
17.59420	125003
17.60232	122626
17.61043	122480
17.61857	116867
17.62668	112818
17.63482	115989
17.64293	117973
17.65105	123179
17.65918	132953
17.66730	129156
17.67543	127025
17.68355	134974
17.69167	142339
17.69980	142676
17.70792	142682
17.71605	134713
17.72417	136908
17.73228	127361
17.74042	124710
17.74853	119696
17.75665	117612
17.76478	118606
17.77290	117928
17.78103	112640
17.78915	116489
17.79727	111539
17.80540	111505
17.81352	110006
17.82165	115731
17.82977	113497
17.83788	121160
17.84602	125413
17.85413	121015
17.86225	122751
17.87038	123758
17.87850	122003
17.88663	119435
17.89475	108848
17.90287	110403
17.91100	105152
17.91912	107687
17.92725	106607
17.93537	109605
17.94348	110044
17.95162	102427
17.95973	107502
17.96787	103159
17.97598	110404
17.98410	98908
17.99223	103954
18.00035	102242
18.00847	108874
18.01660	105606
18.02472	106346
18.03285	106305
18.04097	101141
18.04908	111143
18.05722	111985
18.06533	118910
18.07347	121388
18.08158	134014
18.08970	136660
18.09783	138427
18.10595	141383
18.11407	150831
18.12220	144132
18.13032	143141
18.13845	148069
18.14657	140170
18.15468	134460
18.16282	132444
18.17093	127319
18.17907	130541
18.18718	123471
18.19530	123145
18.20343	122108
18.21155	120389
18.21968	126736
18.22780	119984
18.23592	122357
18.24405	120242
18.25217	126412
18.26028	130921
18.26842	130064
18.27653	129803
18.28467	119320
18.29278	120575
18.30090	115032
18.30903	115055
18.31715	116841
18.32528	114786
18.33340	115386
18.34152	107220
18.34965	110360
18.35777	106840
18.36590	108105
18.37402	110643
18.38213	106236
18.39027	105099
18.39838	107686
18.40650	105705
18.41463	107976
18.42275	111629
18.43088	101432
18.43900	104108
18.44712	98606
18.45525	104379
18.46337	107612
18.47150	104891
18.47962	105672
18.48773	108812
18.49587	108939
18.50398	106895
18.51210	100867
18.52023	108689
18.52835	105413
18.53648	103268
18.54460	106266
18.55272	104753
18.56085	102579
18.56897	101766
18.57710	103027
18.58522	101962
18.59333	106690
18.60147	107003
18.60958	112338
18.61772	113946
18.62583	112720
18.63395	116718
18.64208	132569
18.65020	149069
18.65832	163202
18.66645	181967
18.67457	189193
18.68270	186882
18.69082	196346
18.69893	193916
18.70707	207611
18.71518	205854
18.72332	210255
18.73143	211444
18.73955	204429
18.74768	217840
18.75580	204023
18.76393	217169
18.77205	209272
18.78017	212314
18.78830	214845
18.79642	213970
18.80453	214578
18.81267	212195
18.82078	213518
18.82892	216267
18.83703	209913
18.84515	210453
18.85328	198617
18.86140	208139
18.86953	201861
18.87765	203326
18.88577	211876
18.89390	209897
18.90202	210161
18.91013	203654
18.91827	200486
18.92638	206065
18.93452	201953
18.94263	195670
18.95075	198527
18.95888	199579
18.96700	200812
18.97513	194318
18.98325	200088
18.99137	196730
18.99950	193908
19.00762	188633
19.01575	185223
19.02387	186562
19.03198	183796
19.04012	186887
19.04823	179406
19.05635	182705
19.06448	177938
19.07260	185018
19.08073	192016
19.08885	190744
19.09697	204683
19.10510	205934
19.11322	214555
19.12135	198737
19.12947	201620
19.13758	194138
19.14572	195170
19.15383	187068
19.16195	187553
19.17008	178025
19.17820	172792
19.18633	177829
19.19445	171482
19.20257	171963
19.21070	175604
19.21882	171440
19.22695	172049
19.23507	175258
19.24318	174695
19.25132	173197
19.25943	171507
19.26757	179785
19.27568	197509
19.28380	224844
19.29193	259362
19.30005	282814
19.30817	292265
19.31630	271287
19.32442	256157
19.33255	234347
19.34067	216052
19.34878	209652
19.35692	196938
19.36503	184152
19.37317	183149
19.38128	178054
19.38940	172951
19.39753	161569
19.40565	163109
19.41378	162755
19.42190	157015
19.43002	159883
19.43815	158883
19.44627	158012
19.45438	165137
19.46252	205643
19.47063	291832
19.47877	507524
19.48688	897339
19.49500	1376279
19.50313	1681113
19.51125	1597478
19.51938	1241994
19.52750	828335
19.53562	495365
19.54375	310412
19.55187	226825
19.55998	187249
19.56812	173873
19.57623	180651
19.58437	193039
19.59248	244108
19.60060	342445
19.60873	461872
19.61685	545662
19.62498	572462
19.63310	593014
19.64122	664310
19.64935	879960
19.65747	1263939
19.66560	1687413
19.67372	1946078
19.68183	1914256
19.68997	1624457
19.69808	1258693
19.70620	882025
19.71433	626234
19.72245	478243
19.73058	390762
19.73870	336370
19.74682	299436
19.75495	261477
19.76307	241526
19.77120	226275
19.77932	216878
19.78743	209563
19.79557	198972
19.80368	190573
19.81182	186219
19.81993	176507
19.82805	179923
19.83618	167766
19.84430	171954
19.85242	172512
19.86055	171149
19.86867	178873
19.87680	193105
19.88492	228459
19.89303	286951
19.90117	325344
19.90928	398121
19.91742	448928
19.92553	500823
19.93365	537777
19.94178	557510
19.94990	549711
19.95802	540787
19.96615	480735
19.97427	433592
19.98240	378076
19.99052	367363
19.99863	342942
20.00677	327007
20.01488	316797
20.02302	302688
20.03113	286085
20.03925	269354
20.04738	248304
20.05550	222893
20.06363	215064
20.07175	197180
20.07987	179924
20.08800	174494
20.09612	186774
20.10423	170001
20.11237	172380
20.12048	173176
20.12862	167082
20.13673	168051
20.14485	168091
20.15298	162392
20.16110	159061
20.16923	156083
20.17735	149034
20.18547	149377
20.19360	155248
20.20172	151421
20.20985	152648
20.21797	151508
20.22608	164577
20.23422	197191
20.24233	284859
20.25045	439025
20.25858	685974
20.26670	1028123
20.27483	1371040
20.28295	1563893
20.29107	1542651
20.29920	1298216
20.30732	968414
20.31545	709862
20.32357	505468
20.33168	391974
20.33982	311914
20.34793	264366
20.35605	242099
20.36418	225531
20.37230	213848
20.38043	216047
20.38855	249663
20.39667	342279
20.40480	462511
20.41292	576886
20.42105	670941
20.42917	666849
20.43728	661821
20.44542	669440
20.45353	651579
20.46167	589471
20.46978	518319
20.47790	435216
20.48603	366717
20.49415	296211
20.50227	256483
20.51040	225886
20.51852	217589
20.52665	196668
20.53477	192719
20.54288	184858
20.55102	174233
20.55913	178841
20.56727	166986
20.57538	168618
20.58350	169040
20.59163	169413
20.59975	168232
20.60787	177011
20.61600	170149
20.62412	173693
20.63225	168648
20.64037	170660
20.64848	160655
20.65662	155798
20.66473	154404
20.67287	151504
20.68098	150656
20.68910	148727
20.69723	142846
20.70535	146541
20.71348	140426
20.72160	136783
20.72972	139112
20.73785	131947
20.74597	139583
20.75408	132473
20.76222	132961
20.77033	132882
20.77847	132063
20.78658	128764
20.79470	126852
20.80283	132358
20.81095	128479
20.81908	137843
20.82720	126811
20.83532	125943
20.84345	127796
20.85157	127768
20.85970	121691
20.86782	123351
20.87593	122296
20.88407	125302
20.89218	121796
20.90030	121377
20.90843	118973
20.91655	120021
20.92468	122116
20.93280	124363
20.94092	123975
20.94905	123456
20.95717	128882
20.96530	119648
20.97342	124601
20.98153	122443
20.98967	118414
20.99778	121653
21.00590	121412
21.01403	112399
21.02215	112934
21.03028	116338
21.03840	113405
21.04652	115369
21.05465	124415
21.06277	135638
21.07090	167374
21.07902	194854
21.08713	207745
21.09527	210427
21.10338	199151
21.11152	175131
21.11963	160729
21.12775	151110
21.13588	147324
21.14400	136922
21.15212	136242
21.16025	129552
21.16837	132686
21.17650	124246
21.18462	124236
21.19273	125936
21.20087	115638
21.20898	120083
21.21712	118869
21.22523	126229
21.23335	132505
21.24148	130641
21.24960	130993
21.25773	129457
21.26585	132445
21.27397	127955
21.28210	129697
21.29022	124961
21.29833	120749
21.30647	121826
21.31458	121426
21.32272	118811
21.33083	115210
21.33895	129590
21.34708	153077
21.35520	164447
21.36333	183535
21.37145	203308
21.37957	187347
21.38770	186629
21.39582	168694
21.40393	163190
21.41207	155562
21.42018	147618
21.42832	150624
21.43643	148663
21.44455	145972
21.45268	152150
21.46080	141540
21.46893	143059
21.47705	142783
21.48517	143187
21.49330	153293
21.50142	152187
21.50955	145927
21.51767	157691
21.52578	154463
21.53392	152119
21.54203	149126
21.55015	154335
21.55828	143348
21.56640	139396
21.57453	136060
21.58265	144694
21.59077	150858
21.59890	185425
21.60702	247269
21.61515	320062
21.62327	442198
21.63138	516313
21.63952	572399
21.64763	550713
21.65575	470377
21.66388	382852
21.67200	301552
21.68013	256844
21.68825	213498
21.69637	201912
21.70450	186711
21.71262	200157
21.72075	204307
21.72887	213005
21.73698	201861
21.74512	183510
21.75323	184710
21.76137	172960
21.76948	157579
21.77760	163093
21.78573	158999
21.79385	175502
21.80197	200793
21.81010	258114
21.81822	308334
21.82635	392393
21.83447	421270
21.84258	406400
21.85072	355979
21.85883	298139
21.86697	244170
21.87508	205389
21.88320	179770
21.89133	173758
21.89945	152474
21.90758	172600
21.91570	165806
21.92382	179874
21.93195	177747
21.94007	170715
21.94818	163061
21.95632	153145
21.96443	141279
21.97257	129220
21.98068	129055
21.98880	128462
21.99693	130485
22.00505	121848
22.01318	119395
22.02130	120934
22.02942	118276
22.03755	123974
22.04567	118301
22.05378	113011
22.06192	116069
22.07003	116123
22.07817	118203
22.08628	120581
22.09440	117187
22.10253	115693
22.11065	117268
22.11878	120088
22.12690	125224
22.13502	128718
22.14315	131492
22.15127	134338
22.15940	125282
22.16752	129398
22.17563	114227
22.18377	120836
22.19188	123597
22.20000	134903
22.20813	145785
22.21625	154929
22.22438	164069
22.23250	156199
22.24062	150538
22.24875	133923
22.25687	131470
22.26500	124788
22.27312	121853
22.28123	120819
22.28937	123274
22.29748	127545
22.30562	143668
22.31373	150103
22.32185	151503
22.32998	147709
22.33810	141310
22.34622	144099
22.35435	136180
22.36247	126130
22.37060	125322
22.37872	123005
22.38683	114257
22.39497	112151
22.40308	107508
22.41122	111168
22.41933	113592
22.42745	108721
22.43558	113012
22.44370	113903
22.45182	113168
22.45995	114794
22.46807	113901
22.47620	121617
22.48432	116934
22.49243	120395
22.50057	127220
22.50868	119097
22.51682	115091
22.52493	113126
22.53305	111667
22.54118	106569
22.54930	105905
22.55743	101620
22.56555	100272
22.57367	104327
22.58180	97570
22.58992	100991
22.59803	98199
22.60617	96354
22.61428	94414
22.62242	95804
22.63053	99397
22.63865	98872
22.64678	97421
22.65490	94376
22.66303	100067
22.67115	94518
22.67927	93490
22.68740	89649
22.69552	94287
22.70363	97240
22.71177	97290
22.71988	95458
22.72802	98936
22.73613	96608
22.74425	90989
22.75238	95218
22.76050	97360
22.76863	90560
22.77675	91790
22.78487	90021
22.79300	93961
22.80112	88276
22.80925	92552
22.81737	87341
22.82548	95887
22.83362	96287
22.84173	103301
22.84985	104858
22.85798	105883
22.86610	107095
22.87423	101399
22.88235	109127
22.89047	108636
22.89860	109646
22.90672	119359
22.91485	134550
22.92297	147687
22.93108	155538
22.93922	166319
22.94733	162291
22.95547	160639
22.96358	156566
22.97170	146490
22.97983	137088
22.98795	132050
22.99607	127259
23.00420	120735
23.01232	118809
23.02045	110977
23.02857	105950
23.03668	103155
23.04482	95837
23.05293	101838
23.06107	105545
23.06918	104604
23.07730	106244
23.08543	105660
23.09355	102655
23.10168	99892
23.10980	101275
23.11792	105199
23.12605	101121
23.13417	103142
23.14228	95237
23.15042	99488
23.15853	102502
23.16667	107580
23.17478	108876
23.18290	109848
23.19103	115210
23.19915	110800
23.20728	105566
23.21540	104082
23.22352	102485
23.23165	102435
23.23977	101880
23.24788	95502
23.25602	96861
23.26413	98444
23.27227	94831
23.28038	97107
23.28850	92435
23.29663	96427
23.30475	96216
23.31288	98319
23.32100	92922
23.32912	93821
23.33725	101915
23.34537	98458
23.35350	99266
23.36162	104931
23.36973	101277
23.37787	103273
23.38598	101924
23.39410	102081
23.40223	107713
23.41035	101834
23.41848	106190
23.42660	105092
23.43472	104404
23.44285	102926
23.45097	106078
23.45910	103101
23.46722	108759
23.47533	103661
23.48347	104806
23.49158	100115
23.49970	104226
23.50783	103767
23.51595	102998
23.52408	102461
23.53220	100336
23.54032	98354
23.54845	107982
23.55657	107386
23.56470	108493
23.57282	107833
23.58093	106058
23.58907	112989
23.59718	112948
23.60532	104488
23.61343	108604
23.62155	111558
23.62968	109397
23.63780	114291
23.64592	118805
23.65405	116011
23.66217	123797
23.67030	128254
23.67842	132187
23.68653	116967
23.69467	116375
23.70278	112825
23.71092	109176
23.71903	115923
23.72715	140403
23.73528	245733
23.74340	571093
23.75153	1562349
23.75965	3662607
23.76777	6442804
23.77590	8738754
23.78402	1.019664E+07
23.79213	1.01472E+07
23.80027	8716364
23.80838	6779968
23.81652	4876631
23.82463	3534546
23.83275	2446867
23.84088	1871634
23.84900	1463300
23.85713	1249656
23.86525	1192006
23.87337	1354523
23.88150	1665276
23.88962	1991120
23.89773	2151217
23.90587	2047958
23.91398	1832120
23.92212	1608310
23.93023	1287881
23.93835	1028769
23.94648	851937
23.95460	704824
23.96273	618381
23.97085	541245
23.97897	488321
23.98710	455635
23.99522	420224
24.00335	404090
24.01147	380882
24.01958	359236
24.02772	345085
24.03583	326427
24.04395	309903
24.05208	313211
24.06020	297470
24.06833	285809
24.07645	277338
24.08457	274973
24.09270	279707
24.10082	280399
24.10895	299144
24.11707	321553
24.12518	338907
24.13332	349319
24.14143	337691
24.14957	321117
24.15768	309764
24.16580	283540
24.17393	268321
24.18205	279197
24.19017	292851
24.19830	307475
24.20642	307873
24.21455	323182
24.22267	314594
24.23078	298465
24.23892	273019
24.24703	247270
24.25517	235569
24.26328	228855
24.27140	214019
24.27953	210791
24.28765	202886
24.29577	201434
24.30390	205096
24.31202	201387
24.32015	200754
24.32827	193834
24.33638	186822
24.34452	193005
24.35263	216102
24.36077	257324
24.36888	352740
24.37700	553031
24.38513	832690
24.39325	1124467
24.40138	1363436
24.40950	1538624
24.41762	1792343
24.42575	2143116
24.43387	2332201
24.44198	2306038
24.45012	2009307
24.45823	1675078
24.46637	1351339
24.47448	1059101
24.48260	901219
24.49073	820247
24.49885	767890
24.50698	712058
24.51510	652635
24.52322	581669
24.53135	495003
24.53947	443894
24.54758	382437
24.55572	356039
24.56383	316056
24.57197	306977
24.58008	303531
24.58820	333417
24.59633	369230
24.60445	406965
24.61258	422226
24.62070	391860
24.62882	355130
24.63695	295809
24.64507	268226
24.65320	254366
24.66132	235621
24.66943	236709
24.67757	223418
24.68568	218233
24.69380	213630
24.70193	199061
24.71005	191905
24.71818	195148
24.72630	192162
24.73442	177388
24.74255	180812
24.75067	184252
24.75880	183929
24.76692	182491
24.77503	191197
24.78317	186895
24.79128	187133
24.79942	187940
24.80753	183728
24.81565	178574
24.82378	182069
24.83190	169213
24.84002	179867
24.84815	169170
24.85627	173422
24.86440	174373
24.87252	175068
24.88063	170698
24.88877	169388
24.89688	182458
24.90502	166579
24.91313	167191
24.92125	173615
24.92938	163763
24.93750	156816
24.94562	159512
24.95375	156600
24.96187	155117
24.97000	155549
24.97812	151628
24.98623	150059
24.99437	147989
25.00248	145998
25.01062	148993
25.01873	147993
25.02685	150367
25.03498	145644
25.04310	147479
25.05123	145082
25.05935	145667
25.06747	142724
25.07560	143817
25.08372	145957
25.09183	143952
25.09997	143994
25.10808	147439
25.11622	147509
25.12433	158102
25.13245	171522
25.14058	183750
25.14870	196524
25.15683	193830
25.16495	202308
25.17307	198910
25.18120	182543
25.18932	165549
25.19745	161029
25.20557	156768
25.21368	153547
25.22182	143883
25.22993	145113
25.23805	146246
25.24618	144649
25.25430	139567
25.26243	142821
25.27055	145743
25.27867	146633
25.28680	149345
25.29492	160615
25.30305	167865
25.31117	175857
25.31928	172824
25.32742	165759
25.33553	155954
25.34365	149692
25.35178	139876
25.35990	136946
25.36803	126159
25.37615	129868
25.38427	125283
25.39240	124818
25.40052	124042
25.40865	123192
25.41677	126668
25.42488	118864
25.43302	123829
25.44113	129409
25.44927	139595
25.45738	145446
25.46550	154113
25.47363	163211
25.48175	157239
25.48987	169478
25.49800	157162
25.50612	141482
25.51425	146360
25.52237	138651
25.53048	133553
25.53862	127047
25.54673	124439
25.55487	120100
25.56298	122307
25.57110	115211
25.57923	110583
25.58735	116135
25.59548	113123
25.60360	116612
25.61172	113127
25.61985	111558
25.62797	109797
25.63608	111994
25.64422	109514
25.65233	104905
25.66047	102959
25.66858	109084
25.67670	107691
25.68483	108630
25.69295	105770
25.70108	107387
25.70920	116350
25.71732	110028
25.72545	112473
25.73357	114215
25.74168	106235
25.74982	105934
25.75793	104872
25.76607	107727
25.77418	115164
25.78230	109723
25.79043	119683
25.79855	117505
25.80668	119347
25.81480	114734
25.82292	118217
25.83105	116533
25.83917	118198
25.84730	115761
25.85542	113377
25.86353	116847
25.87167	107633
25.87978	105454
25.88790	104874
25.89603	106618
25.90415	111232
25.91228	106775
25.92040	109315
25.92852	102947
25.93665	108063
25.94477	103854
25.95290	105667
25.96102	101838
25.96913	110895
25.97727	106017
25.98538	110466
25.99350	110212
26.00163	104695
26.00975	101208
26.01788	107049
26.02600	108974
26.03412	102901
26.04225	108490
26.05037	110657
26.05850	115635
26.06662	114787
26.07473	118432
26.08287	115720
26.09098	112790
26.09912	121906
26.10723	124723
26.11535	133108
26.12348	138005
26.13160	152636
26.13972	141584
26.14785	145603
26.15597	140444
26.16410	135810
26.17222	124068
26.18033	119118
26.18847	120499
26.19658	116652
26.20472	110739
26.21283	110753
26.22095	107433
26.22908	109665
26.23720	115282
26.24533	122145
26.25345	124838
26.26157	132515
26.26970	124407
26.27782	117743
26.28593	111687
26.29407	114762
26.30218	107848
26.31032	108794
26.31843	112744
26.32655	109777
26.33468	101033
26.34280	105360
26.35093	102952
26.35905	100882
26.36717	101241
26.37530	107006
26.38342	109510
26.39153	105937
26.39967	102948
26.40778	108682
26.41592	106297
26.42403	103444
26.43215	103220
26.44028	98146
26.44840	97495
26.45653	104000
26.46465	96039
26.47277	102273
26.48090	97934
26.48902	92878
26.49715	97401
26.50527	96459
26.51338	95973
26.52152	96777
26.52963	93085
26.53775	90877
26.54588	95693
26.55400	93480
26.56213	98307
26.57025	99237
26.57837	100681
26.58650	97848
26.59462	95154
26.60275	99924
26.61087	95508
26.61898	99800
26.62712	97382
26.63523	95534
26.64337	94094
26.65148	91451
26.65960	103347
26.66773	99817
26.67585	102407
26.68397	102812
26.69210	98093
26.70022	100979
26.70835	105407
26.71647	114325
26.72458	102881
26.73272	107652
26.74083	104002
26.74897	107924
26.75708	105698
26.76520	105691
26.77333	100211
26.78145	102904
26.78957	106719
26.79770	105092
26.80582	108992
26.81395	109799
26.82207	117532
26.83018	121409
26.83832	121252
26.84643	132509
26.85457	132104
26.86268	136706
26.87080	131905
26.87893	132223
26.88705	128479
26.89518	134339
26.90330	141527
26.91142	167578
26.91955	208536
26.92767	324916
26.93578	614111
26.94392	1510391
26.95203	4242746
26.96017	1.18797E+07
26.96828	2.419816E+07
26.97640	3.769517E+07
26.98453	4.623824E+07
26.99265	5.059824E+07
27.00078	4.917781E+07
27.00890	4.468856E+07
27.01702	3.963873E+07
27.02515	3.461526E+07
27.03327	2.903955E+07
27.04138	2.440013E+07
27.04952	1.98557E+07
27.05763	1.569162E+07
27.06577	1.189851E+07
27.07388	8907631
27.08200	6570606
27.09013	5020835
27.09825	4037349
27.10638	3329563
27.11450	2768325
27.12262	2383413
27.13075	2074113
27.13887	1905085
27.14700	1699761
27.15512	1582369
27.16323	1461812
27.17137	1361592
27.17948	1272706
27.18760	1224317
27.19573	1159136
27.20385	1129309
27.21198	1251032
27.22010	1550037
27.22822	2140133
27.23635	3222100
27.24447	4697934
27.25260	6027348
27.26072	6965673
27.26883	7514180
27.27697	7308112
27.28508	6566944
27.29322	5703292
27.30133	4689686
27.30945	3768247
27.31758	2960765
27.32570	2422586
27.33382	2028495
27.34195	1722259
27.35007	1454636
27.35820	1287683
27.36632	1135818
27.37443	1023462
27.38257	956382
27.39068	893275
27.39882	828836
27.40693	783787
27.41505	751317
27.42318	712304
27.43130	671051
27.43942	650410
27.44755	627621
27.45567	604167
27.46380	585538
27.47192	567224
27.48003	554931
27.48817	548624
27.49628	548026
27.50442	546639
27.51253	539868
27.52065	539641
27.52878	548070
27.53690	516168
27.54503	504522
27.55315	488426
27.56127	459640
27.56940	450667
27.57752	461093
27.58563	447481
27.59377	474015
27.60188	469708
27.61002	456440
27.61813	436506
27.62625	416427
27.63438	414848
27.64250	392806
27.65063	386501
27.65875	378800
27.66687	360734
27.67500	364830
27.68312	353216
27.69125	347188
27.69937	347017
27.70748	335056
27.71562	323736
27.72373	335023
27.73185	323788
27.73998	328473
27.74810	325091
27.75623	316837
27.76435	312561
27.77247	316493
27.78060	303326
27.78872	305790
27.79685	298075
27.80497	302613
27.81308	296465
27.82122	295759
27.82933	297400
27.83745	287461
27.84558	285229
27.85370	282194
27.86183	282111
27.86995	272645
27.87807	271854
27.88620	265427
27.89432	264016
27.90245	258776
27.91057	252252
27.91868	244888
27.92682	248506
27.93493	242746
27.94307	246387
27.95118	236090
27.95930	236448
27.96743	242494
27.97555	241735
27.98367	238279
27.99180	230389
27.99992	231315
28.00805	233058
28.01617	231605
28.02428	221090
28.03242	217560
28.04053	222841
28.04867	228484
28.05678	217794
28.06490	223273
28.07303	219219
28.08115	207159
28.08927	212820
28.09740	207909
28.10552	205932
28.11365	215295
28.12177	201056
28.12988	204907
28.13802	199241
28.14613	202355
28.15427	201813
28.16238	214020
28.17050	220426
28.17863	246534
28.18675	271292
28.19488	302463
28.20300	322597
28.21112	302828
28.21925	284725
28.22737	267524
28.23548	266961
28.24362	284905
28.25173	359399
28.25987	577281
28.26798	1096105
28.27610	2222779
28.28423	4278741
28.29235	7863867
28.30048	1.266982E+07
28.30860	1.708454E+07
28.31672	2.104592E+07
28.32485	2.331077E+07
28.33297	2.407619E+07
28.34110	2.417303E+07
28.34922	2.296709E+07
28.35733	2.10892E+07
28.36547	1.952987E+07
28.37358	1.74416E+07
28.38170	1.529609E+07
28.38983	1.350909E+07
28.39795	1.180961E+07
28.40608	9867498
28.41420	8624551
28.42232	7251622
28.43045	6045221
28.43857	5060736
28.44670	4325727
28.45482	3748615
28.46293	3368225
28.47107	3274565
28.47918	3149700
28.48732	3211103
28.49543	3361404
28.50355	3450358
28.51168	3433741
28.51980	3445766
28.52792	3507493
28.53605	3464599
28.54417	3338657
28.55230	3139520
28.56042	2981481
28.56853	2792542
28.57667	2527030
28.58478	2330055
28.59292	2160978
28.60103	1977694
28.60915	1855396
28.61728	1672057
28.62540	1556809
28.63352	1424497
28.64165	1297576
28.64977	1203211
28.65790	1119641
28.66602	1092612
28.67413	1016788
28.68227	945229
28.69038	898141
28.69852	817821
28.70663	781254
28.71475	771132
28.72288	728719
28.73100	735268
28.73913	796195
28.74725	915908
28.75537	1060883
28.76350	1197336
28.77162	1214711
28.77973	1122388
28.78787	969587
28.79598	845637
28.80412	761447
28.81223	712526
28.82035	657901
28.82848	614544
28.83660	578567
28.84473	543752
28.85285	514093
28.86097	493720
28.86910	472821
28.87722	454198
28.88533	443082
28.89347	452473
28.90158	433345
28.90972	432900
28.91783	423085
28.92595	418262
28.93408	404699
28.94220	405487
28.95033	407207
28.95845	400896
28.96657	389185
28.97470	393043
28.98282	376871
28.99095	382267
28.99907	373269
29.00718	365695
29.01532	361107
29.02343	358133
29.03155	351907
29.03968	344848
29.04780	343594
29.05593	340945
29.06405	346470
29.07217	353338
29.08030	341281
29.08842	342077
29.09655	334262
29.10467	337055
29.11278	324338
29.12092	322415
29.12903	332411
29.13717	326502
29.14528	325235
29.15340	318416
29.16153	324304
29.16965	314253
29.17777	320507
29.18590	320022
29.19402	315081
29.20215	306526
29.21027	314516
29.21838	306617
29.22652	305231
29.23463	294453
29.24277	308507
29.25088	314834
29.25900	312009
29.26713	313312
29.27525	309027
29.28337	307046
29.29150	300495
29.29962	290467
29.30775	297858
29.31587	284306
29.32398	285762
29.33212	290585
29.34023	284395
29.34837	297542
29.35648	284956
29.36460	280352
29.37273	285542
29.38085	286565
29.38898	283123
29.39710	273132
29.40522	266451
29.41335	275985
29.42147	268850
29.42958	266058
29.43772	268923
29.44583	262046
29.45397	265088
29.46208	266607
29.47020	266418
29.47833	277514
29.48645	278050
29.49458	272251
29.50270	273793
29.51082	271423
29.51895	265563
29.52707	255387
29.53520	247738
29.54332	237032
29.55143	231459
29.55957	215826
29.56768	222831
29.57580	213297
29.58393	214627
29.59205	219835
29.60018	218766
29.60830	201764
29.61642	205128
29.62455	210482
29.63267	212754
29.64080	213555
29.64892	205984
29.65703	191971
29.66517	193564
29.67328	198611
29.68140	190435
29.68953	194200
29.69765	191966
29.70578	186085
29.71390	194047
29.72202	189849
29.73015	189822
29.73827	187340
29.74640	186953
29.75452	185544
29.76263	191402
29.77077	179173
29.77888	188493
29.78702	177120
29.79513	177560
29.80325	178582
29.81138	183429
29.81950	179912
29.82762	172983
29.83575	176351
29.84387	186544
29.85200	180875
29.86012	180356
29.86823	182575
29.87637	191531
29.88448	208043
29.89262	237155
29.90073	281577
29.90885	359487
29.91698	507832
29.92510	730405
29.93322	1092806
29.94135	1618909
29.94947	2344874
29.95760	3327156
29.96572	4332181
29.97383	5367848
29.98197	6319238
29.99008	7215508
29.99822	8042159
30.00633	8434486
30.01445	8607530
30.02258	8498909
30.03070	8521194
30.03883	8167045
30.04695	7768584
30.05507	7092825
30.06320	6501505
30.07132	6206278
30.07943	5929910
30.08757	5571892
30.09568	4963286
30.10382	4426420
30.11193	4021440
30.12005	3721794
30.12818	3446394
30.13630	3094806
30.14443	2889311
30.15255	2598135
30.16067	2291352
30.16880	2083735
30.17692	1923174
30.18505	1776735
30.19317	1618737
30.20128	1479524
30.20942	1372087
30.21753	1253745
30.22565	1147502
30.23378	1082863
30.24190	976316
30.25003	889421
30.25815	860239
30.26627	800141
30.27440	751569
30.28252	697370
30.29065	664533
30.29877	632074
30.30688	593469
30.31502	569707
30.32313	562734
30.33125	532158
30.33938	506113
30.34750	478100
30.35563	459628
30.36375	437795
30.37187	429335
30.38000	423582
30.38812	416413
30.39625	398782
30.40437	385799
30.41248	368769
30.42062	371804
30.42873	358455
30.43687	345266
30.44498	343469
30.45310	337507
30.46123	320623
30.46935	322593
30.47747	327148
30.48560	317008
30.49372	311680
30.50185	307004
30.50997	300680
30.51808	302189
30.52622	287688
30.53433	287414
30.54247	272239
30.55058	275578
30.55870	276721
30.56683	270724
30.57495	270601
30.58308	257606
30.59120	268777
30.59932	267197
30.60745	263523
30.61557	252378
30.62368	247017
30.63182	254597
30.63993	255188
30.64807	235562
30.65618	237240
30.66430	237690
30.67243	237299
30.68055	230090
30.68868	235629
30.69680	224299
30.70492	228019
30.71305	218883
30.72117	219884
30.72928	219621
30.73742	220288
30.74553	215214
30.75367	218875
30.76178	217077
30.76990	222308
30.77803	217497
30.78615	218347
30.79428	230447
30.80240	237982
30.81052	234953
30.81865	221932
30.82677	221565
30.83490	217435
30.84302	212249
30.85113	215239
30.85927	204441
30.86738	206069
30.87550	196222
30.88363	197054
30.89175	195866
30.89988	192837
30.90800	188482
30.91612	187045
30.92425	188433
30.93237	198210
30.94050	191892
30.94862	184116
30.95673	191734
30.96487	184402
30.97298	188302
30.98110	185771
30.98923	193507
30.99735	184977
31.00548	181331
31.01360	188371
31.02172	185162
31.02985	194936
31.03797	179441
31.04610	179287
31.05422	185113
31.06233	186984
31.07047	188917
31.07858	198480
31.08672	210090
31.09483	226759
31.10295	222490
31.11108	226496
31.11920	217553
31.12732	215633
31.13545	218218
31.14357	219211
31.15170	212951
31.15982	221616
31.16793	226348
31.17607	230961
31.18418	242633
31.19232	259027
31.20043	285562
31.20855	312010
31.21668	326106
31.22480	348733
31.23293	340229
31.24105	315032
31.24917	300742
31.25730	269214
31.26542	239736
31.27353	222069
31.28167	207094
31.28978	194984
31.29792	183303
31.30603	178101
31.31415	182913
31.32228	175409
31.33040	171314
31.33853	164149
31.34665	173930
31.35477	167323
31.36290	177202
31.37102	184663
31.37913	190299
31.38727	191129
31.39538	187850
31.40352	197929
31.41163	201929
31.41975	202320
31.42788	185533
31.43600	186947
31.44413	175714
31.45225	167880
31.46037	165452
31.46850	156326
31.47662	163427
31.48475	154216
31.49287	156750
31.50098	152994
31.50912	144149
31.51723	148165
31.52535	143692
31.53348	146455
31.54160	159582
31.54973	145212
31.55785	143707
31.56597	141415
31.57410	143771
31.58222	141285
31.59035	139041
31.59847	143199
31.60658	144866
31.61472	142361
31.62283	142979
31.63097	136871
31.63908	140446
31.64720	144821
31.65533	139085
31.66345	140892
31.67157	136034
31.67970	144143
31.68782	135000
31.69595	138444
31.70407	128494
31.71218	139095
31.72032	129277
31.72843	129301
31.73657	130651
31.74468	129260
31.75280	127901
31.76093	129097
31.76905	135615
31.77717	130975
31.78530	132346
31.79342	134340
31.80155	137909
31.80967	136400
31.81778	137683
31.82592	139781
31.83403	142636
31.84217	139554
31.85028	154470
31.85840	178161
31.86653	213871
31.87465	301694
31.88278	419669
31.89090	604695
31.89902	850303
31.90715	1156501
31.91527	1549776
31.92338	1945273
31.93152	2439538
31.93963	2879971
31.94777	3334307
31.95588	3684025
31.96400	3888715
31.97213	4038269
31.98025	4147278
31.98838	4143501
31.99650	3923024
32.00462	3722412
32.01275	3404274
32.02087	3129622
32.02900	2943133
32.03712	2678488
32.04523	2427527
32.05337	2191418
32.06148	1977885
32.06960	1825561
32.07773	1644866
32.08585	1465995
32.09398	1308374
32.10210	1153862
32.11022	1045861
32.11835	925945
32.12647	841737
32.13460	757522
32.14272	707046
32.15083	642050
32.15897	611950
32.16708	568140
32.17520	532446
32.18333	500106
32.19145	463428
32.19958	443490
32.20770	416769
32.21582	412735
32.22395	386693
32.23207	368494
32.24020	366363
32.24832	339103
32.25643	332318
32.26457	326904
32.27268	322279
32.28082	299735
32.28893	298755
32.29705	290854
32.30518	292573
32.31330	280536
32.32142	272582
32.32955	282052
32.33767	281177
32.34580	281121
32.35392	287580
32.36203	283236
32.37017	270495
32.37828	257067
32.38642	253354
32.39453	236544
32.40265	233484
32.41078	230198
32.41890	217262
32.42702	230458
32.43515	222433
32.44327	220057
32.45140	216961
32.45952	210950
32.46763	205242
32.47577	203493
32.48388	200002
32.49202	199700
32.50013	198896
32.50825	195662
32.51638	199993
32.52450	190672
32.53263	189623
32.54075	181824
32.54887	184263
32.55700	195307
32.56512	185493
32.57323	179626
32.58137	181581
32.58948	183080
32.59762	183860
32.60573	179983
32.61385	189188
32.62198	214979
32.63010	256961
32.63823	310717
32.64635	409480
32.65447	495261
32.66260	546216
32.67072	519493
32.67885	452187
32.68697	376207
32.69508	305987
32.70322	254129
32.71133	232625
32.71945	218871
32.72758	205328
32.73570	196246
32.74383	186674
32.75195	185864
32.76007	177733
32.76820	174131
32.77632	167773
32.78445	174493
32.79257	167958
32.80068	163322
32.80882	165341
32.81693	159972
32.82505	161738
32.83318	154754
32.84130	156819
32.84943	154873
32.85755	156476
32.86567	152585
32.87380	156159
32.88192	155272
32.89005	152982
32.89817	153777
32.90628	155804
32.91442	155302
32.92253	153067
32.93067	154491
32.93878	149433
32.94690	147823
32.95503	144856
32.96315	148133
32.97127	150363
32.97940	144215
32.98752	140832
32.99565	144259
33.00377	146719
33.01188	148679
33.02002	142893
33.02813	151248
33.03627	141216
33.04438	139304
33.05250	133396
33.06063	136570
33.06875	143931
33.07688	143637
33.08500	139520
33.09312	148341
33.10125	148920
33.10937	162904
33.11748	164723
33.12562	165588
33.13373	165608
33.14187	169655
33.14998	156849
33.15810	154280
33.16623	143551
33.17435	157985
33.18248	159305
33.19060	163467
33.19872	161211
33.20685	161707
33.21497	157247
33.22308	153682
33.23122	150775
33.23933	146552
33.24747	143231
33.25558	140731
33.26370	145068
33.27183	137920
33.27995	138724
33.28808	140058
33.29620	130506
33.30432	130457
33.31245	136473
33.32057	133370
33.32870	136982
33.33682	123515
33.34493	126551
33.35307	129462
33.36118	132599
33.36930	129324
33.37743	130354
33.38555	118217
33.39368	126224
33.40180	130789
33.40992	128548
33.41805	124541
33.42617	124048
33.43430	126254
33.44242	119728
33.45053	127665
33.45867	125981
33.46678	127265
33.47490	123385
33.48303	126225
33.49115	121254
33.49928	123079
33.50740	129477
33.51552	126650
33.52365	121940
33.53177	117054
33.53990	124466
33.54802	123529
33.55613	122375
33.56427	119600
33.57238	124118
33.58052	126652
33.58863	125126
33.59675	129782
33.60488	122836
33.61300	124684
33.62112	117190
33.62925	124866
33.63737	127778
33.64550	117674
33.65362	119161
33.66173	119376
33.66987	117420
33.67798	124633
33.68612	114165
33.69423	115369
33.70235	114836
33.71048	114815
33.71860	114073
33.72673	108193
33.73485	111675
33.74297	116677
33.75110	113411
33.75922	115913
33.76733	107937
33.77547	121101
33.78358	121803
33.79172	117895
33.79983	117315
33.80795	127647
33.81608	124916
33.82420	130808
33.83233	134235
33.84045	125622
33.84857	129281
33.85670	127856
33.86482	124671
33.87293	118892
33.88107	120108
33.88918	122052
33.89732	126660
33.90543	131910
33.91355	131125
33.92168	132540
33.92980	142805
33.93793	131199
33.94605	124905
33.95417	123371
33.96230	122673
33.97042	122372
33.97855	119390
33.98667	114154
33.99478	114286
34.00292	120880
34.01103	118838
34.01915	112852
34.02728	116929
34.03540	113778
34.04353	118583
34.05165	117462
34.05977	112253
34.06790	113874
34.07602	115106
34.08415	111832
34.09227	111680
34.10038	111428
34.10852	110700
34.11663	109790
34.12477	109876
34.13288	108319
34.14100	106065
34.14913	108130
34.15725	110053
34.16537	106715
34.17350	112112
34.18162	111730
34.18975	104378
34.19787	108961
34.20598	104990
34.21412	110989
34.22223	104541
34.23037	104594
34.23848	108044
34.24660	107724
34.25473	110185
34.26285	107596
34.27097	110345
34.27910	104254
34.28722	105597
34.29535	107092
34.30347	104356
34.31158	104461
34.31972	107108
34.32783	107841
34.33597	105144
34.34408	108368
34.35220	105067
34.36033	111281
34.36845	107861
34.37658	102468
34.38470	109307
34.39282	103697
34.40095	101975
34.40907	104919
34.41718	99271
34.42532	103010
34.43343	98259
34.44157	107759
34.44968	97861
34.45780	112509
34.46593	121582
34.47405	142844
34.48218	210461
34.49030	328678
34.49842	546395
34.50655	869588
34.51467	1274777
34.52280	1757256
34.53092	2248510
34.53903	2569743
34.54717	2835544
34.55528	2878970
34.56340	2847862
34.57153	2633199
34.57965	2370351
34.58778	2073005
34.59590	1731976
34.60402	1492776
34.61215	1260069
34.62027	1053248
34.62840	914471
34.63652	812829
34.64463	711919
34.65277	637105
34.66088	578187
34.66900	538357
34.67713	495688
34.68525	474168
34.69338	442700
34.70150	429647
34.70962	404732
34.71775	390763
34.72587	370582
34.73400	349221
34.74212	344378
34.75023	323744
34.75837	312627
34.76648	294526
34.77462	306397
34.78273	281205
34.79085	287369
34.79898	268943
34.80710	265546
34.81522	257857
34.82335	263493
34.83147	243696
34.83960	240210
34.84772	237935
34.85583	241662
34.86397	226002
34.87208	228935
34.88022	219954
34.88833	221772
34.89645	221220
34.90458	214521
34.91270	219674
34.92083	205460
34.92895	211548
34.93707	209157
34.94520	219023
34.95332	201921
34.96143	205582
34.96957	206021
34.97768	201119
34.98582	199770
34.99393	196621
35.00205	191047
35.01018	190210
35.01830	177679
35.02643	178449
35.03455	177186
35.04267	181638
35.05080	183103
35.05892	181780
35.06703	175073
35.07517	172180
35.08328	172288
35.09142	169570
35.09953	167186
35.10765	168320
35.11578	175367
35.12390	178791
35.13203	191452
35.14015	203616
35.14827	212463
35.15640	218919
35.16452	199100
35.17265	201081
35.18077	197519
35.18888	185482
35.19702	171286
35.20513	164547
35.21325	162018
35.22138	157277
35.22950	164547
35.23763	158172
35.24575	162786
35.25387	159629
35.26200	157044
35.27012	158259
35.27825	158557
35.28637	161658
35.29448	157566
35.30262	153871
35.31073	156274
35.31885	153625
35.32698	151595
35.33510	150694
35.34323	151417
35.35135	152660
35.35947	148499
35.36760	151340
35.37572	142917
35.38385	138956
35.39197	139754
35.40008	141349
35.40822	147183
35.41633	140051
35.42447	147879
35.43258	141486
35.44070	149880
35.44883	152826
35.45695	151452
35.46507	155906
35.47320	151268
35.48132	156636
35.48945	158164
35.49757	143210
35.50568	147051
35.51382	148227
35.52193	149749
35.53007	144259
35.53818	146136
35.54630	150292
35.55443	143243
35.56255	144877
35.57068	151666
35.57880	144333
35.58692	148234
35.59505	145568
35.60317	147415
35.61128	146936
35.61942	145084
35.62753	149203
35.63567	159313
35.64378	160255
35.65190	176504
35.66003	196857
35.66815	206634
35.67628	198900
35.68440	191354
35.69252	179232
35.70065	164954
35.70877	157067
35.71688	150654
35.72502	147024
35.73313	149290
35.74127	141476
35.74938	140338
35.75750	141021
35.76563	141040
35.77375	141756
35.78188	144177
35.79000	140127
35.79812	138243
35.80625	138332
35.81437	145714
35.82250	151125
35.83062	146862
35.83873	148187
35.84687	147822
35.85498	155572
35.86310	149975
35.87123	137355
35.87935	132410
35.88748	135137
35.89560	128898
35.90372	128681
35.91185	127817
35.91997	135179
35.92810	130831
35.93622	134929
35.94433	128988
35.95247	129627
35.96058	123621
35.96872	123814
35.97683	127527
35.98495	129440
35.99308	134096
36.00120	138851
36.00932	139228
36.01745	136552
36.02557	144921
36.03370	142262
36.04182	139909
36.04993	139270
36.05807	137007
36.06618	135726
36.07432	132898
36.08243	128453
36.09055	129379
36.09868	135350
36.10680	135915
36.11492	129734
36.12305	138788
36.13117	135905
36.13930	133409
36.14742	136208
36.15553	138561
36.16367	133122
36.17178	129071
36.17992	130326
36.18803	127276
36.19615	133059
36.20428	129572
36.21240	132419
36.22053	129212
36.22865	126747
36.23677	127904
36.24490	131098
36.25302	132443
36.26113	137381
36.26927	155353
36.27738	193173
36.28552	253421
36.29363	314848
36.30175	396975
36.30988	410219
36.31800	387745
36.32613	347271
36.33425	297357
36.34237	250351
36.35050	218723
36.35862	199433
36.36673	181351
36.37487	177294
36.38298	173245
36.39112	172652
36.39923	163606
36.40735	157285
36.41548	149484
36.42360	147530
36.43173	135248
36.43985	139043
36.44797	134388
36.45610	127045
36.46422	129798
36.47235	128652
36.48047	121830
36.48858	128950
36.49672	129193
36.50483	124150
36.51295	123274
36.52108	119547
36.52920	121259
36.53733	121851
36.54545	127067
36.55357	124791
36.56170	127623
36.56982	122025
36.57795	123126
36.58607	113454
36.59418	117963
36.60232	116667
36.61043	124111
36.61857	130761
36.62668	124324
36.63480	134830
36.64293	144893
36.65105	139833
36.65917	139897
36.66730	136582
36.67542	127512
36.68355	135819
36.69167	127619
36.69978	123872
36.70792	125654
36.71603	124085
36.72417	121389
36.73228	119387
36.74040	118247
36.74853	117337
36.75665	120144
36.76477	121050
36.77290	111529
36.78102	115620
36.78915	122289
36.79727	119358
36.80538	113100
36.81352	114341
36.82163	116218
36.82977	115933
36.83788	120195
36.84600	116602
36.85413	108831
36.86225	110860
36.87038	120325
36.87850	114281
36.88662	118408
36.89475	112854
36.90287	113689
36.91098	113848
36.91912	115008
36.92723	114162
36.93537	115581
36.94348	106235
36.95160	115288
36.95973	114993
36.96785	111976
36.97598	112652
36.98410	108248
36.99222	114248
37.00035	109072
37.00847	115927
37.01660	114086
37.02472	113641
37.03283	114105
37.04097	116778
37.04908	109889
37.05720	117473
37.06533	118885
37.07345	112975
37.08158	105745
37.08970	110668
37.09782	116369
37.10595	115776
37.11407	110959
37.12220	115153
37.13032	109645
37.13843	108963
37.14657	119803
37.15468	123431
37.16280	128459
37.17093	121137
37.17905	121451
37.18718	127986
37.19530	130332
37.20342	119821
37.21155	123066
37.21967	112008
37.22780	117470
37.23592	125336
37.24403	113426
37.25217	123582
37.26028	115262
37.26842	123363
37.27653	142820
37.28465	171889
37.29278	272264
37.30090	453157
37.30902	735154
37.31715	1059747
37.32527	1388836
37.33340	1642029
37.34152	1762361
37.34963	1718454
37.35777	1549656
37.36588	1390284
37.37402	1205174
37.38213	1027377
37.39025	870272
37.39838	736959
37.40650	653894
37.41463	584407
37.42275	539057
37.43087	489585
37.43900	451460
37.44712	432729
37.45523	416561
37.46337	396100
37.47148	366394
37.47962	358768
37.48773	332594
