C:\MassHunter\GCMS\1\data\JTB-E18\JTB-E18-025-09.D Thu Sep 12 14:18:00 2019
Start of data points
2.09535,95938
2.10347,95366
2.11158,99021
2.11972,96219
2.12783,96793
2.13597,97876
2.14408,92115
2.15220,96752
2.16033,89676
2.16845,92418
2.17657,87474
2.18470,82500
2.19282,82928
2.20095,78971
2.20907,80843
2.21718,81255
2.22532,81756
2.23343,77372
2.24157,78510
2.24968,80060
2.25780,76410
2.26593,102277
2.27405,502912
2.28217,1508518
2.29030,1188641
2.29842,552629
2.30655,378444
2.31467,321946
2.32278,295884
2.33092,265881
2.33903,239767
2.34717,222337
2.35528,198739
2.36340,192968
2.37153,179517
2.37965,200648
2.38778,301785
2.39590,259701
2.40402,201357
2.41215,184775
2.42027,178585
2.42838,190292
2.43652,179823
2.44463,174667
2.45277,175859
2.46088,157411
2.46900,152667
2.47713,155555
2.48525,146602
2.49338,163867
2.50150,186716
2.50962,158498
2.51775,150926
2.52587,140436
2.53400,141669
2.54212,136802
2.55023,142285
2.55837,157828
2.56648,170015
2.57460,156907
2.58273,138465
2.59085,144059
2.59898,146252
2.60710,273095
2.61522,752875
2.62335,791030
2.63147,473659
2.63960,327635
2.64772,265671
2.65583,225323
2.66397,213366
2.67208,197037
2.68020,205767
2.68833,198996
2.69645,163796
2.70458,150255
2.71270,142879
2.72082,140393
2.72895,147637
2.73707,138650
2.74520,135497
2.75332,132870
2.76143,130890
2.76957,126266
2.77768,139134
2.78582,174075
2.79393,200963
2.80205,174777
2.81018,155171
2.81830,165560
2.82642,275135
2.83455,550715
2.84267,589186
2.85080,341833
2.85892,235554
2.86703,232055
2.87517,206372
2.88328,173440
2.89142,158077
2.89953,149360
2.90765,136142
2.91578,132538
2.92390,134884
2.93203,126015
2.94015,124234
2.94827,121953
2.95640,126039
2.96452,130492
2.97263,134214
2.98077,133885
2.98888,120681
2.99702,137011
3.00513,147682
3.01325,153511
3.02138,173481
3.02950,296106
3.03763,574507
3.04575,789717
3.05387,1973159
3.06200,5320171
3.07012,6544412
3.07823,4071125
3.08637,2216285
3.09448,2123809
3.10262,2670449
3.11073,3921918
3.11885,4404727
3.12698,3064247
3.13510,2036934
3.14323,1583433
3.15135,1295854
3.15947,1087091
3.16760,948633
3.17572,861294
3.18385,840493
3.19197,1043120
3.20008,1346274
3.20822,1202381
3.21633,906486
3.22445,757785
3.23258,683521
3.24070,612492
3.24883,555238
3.25695,505936
3.26507,452259
3.27320,432882
3.28132,444107
3.28945,677254
3.29757,1536406
3.30568,3008734
3.31382,3950109
3.32193,3539947
3.33005,2603037
3.33818,1920231
3.34630,1525407
3.35443,1268495
3.36255,1096275
3.37067,1040478
3.37880,1151425
3.38692,1231783
3.39505,1084660
3.40317,1120216
3.41128,1995405
3.41942,3165000
3.42753,2965026
3.43567,1870909
3.44378,1145151
3.45190,834394
3.46003,695533
3.46815,655274
3.47627,601922
3.48440,553181
3.49252,519900
3.50065,494434
3.50877,457404
3.51688,431386
3.52502,421566
3.53313,413392
3.54127,405725
3.54938,399211
3.55750,387655
3.56563,376965
3.57375,405183
3.58188,437266
3.59000,417401
3.59812,384041
3.60625,360598
3.61437,395550
3.62248,625328
3.63062,1247454
3.63873,1850986
3.64687,1742856
3.65498,1152272
3.66310,853053
3.67123,1364227
3.67935,2875939
3.68748,3713263
3.69560,2778282
3.70372,1754517
3.71185,1273547
3.71997,1052757
3.72810,907110
3.73622,818090
3.74433,752901
3.75247,700408
3.76058,658849
3.76870,628561
3.77683,601311
3.78495,570476
3.79308,539917
3.80120,600002
3.80932,913217
3.81745,1532729
3.82557,1752681
3.83370,1380815
3.84182,995153
3.84993,817842
3.85807,700649
3.86618,634663
3.87430,585468
3.88243,554187
3.89055,538779
3.89868,516757
3.90680,505250
3.91492,502714
3.92305,566855
3.93117,629910
3.93930,645610
3.94742,678471
3.95553,1115272
3.96367,2112771
3.97178,2787753
3.97992,2355079
3.98803,1583859
3.99615,1908253
4.00428,5446697
4.01240,1.229161E+07
4.02052,1.64756E+07
4.02865,1.351633E+07
4.03677,7575083
4.04490,4062610
4.05302,2628367
4.06113,1969083
4.06927,1596309
4.07738,1331918
4.08552,1144861
4.09363,980497
4.10175,876135
4.10988,803283
4.11800,728033
4.12612,678049
4.13425,654176
4.14237,669275
4.15050,712549
4.15862,729556
4.16673,681117
4.17487,597142
4.18298,556188
4.19112,517328
4.19923,474374
4.20735,521798
4.21548,1130539
4.22360,3730957
4.23173,8769237
4.23985,1.346398E+07
4.24797,1.407182E+07
4.25610,1.037257E+07
4.26422,6523040
4.27233,4614173
4.28047,3482567
4.28858,2685275
4.29672,2136629
4.30483,1754187
4.31295,1468803
4.32108,1265873
4.32920,1132698
4.33733,1021326
4.34545,935710
4.35357,895054
4.36170,870280
4.36982,806670
4.37795,744679
4.38607,700361
4.39418,646652
4.40232,600581
4.41043,574105
4.41855,552918
4.42668,529895
4.43480,506164
4.44293,487134
4.45105,482395
4.45917,493378
4.46730,463499
4.47542,451850
4.48355,442690
4.49167,420617
4.49978,399961
4.50792,388656
4.51603,384848
4.52415,366526
4.53228,373173
4.54040,365956
4.54853,355332
4.55665,344781
4.56477,336920
4.57290,326768
4.58102,329293
4.58915,328835
4.59727,315811
4.60538,319792
4.61352,313744
4.62163,339494
4.62977,405207
4.63788,500263
4.64600,574489
4.65413,539654
4.66225,439083
4.67037,364050
4.67850,336369
4.68662,325677
4.69475,302515
4.70287,299502
4.71098,289809
4.71912,271110
4.72723,272513
4.73537,279271
4.74348,263260
4.75160,267764
4.75973,258438
4.76785,255516
4.77598,253595
4.78410,255376
4.79222,268893
4.80035,288476
4.80847,329685
4.81658,336191
4.82472,322060
4.83283,300853
4.84097,291974
4.84908,303987
4.85720,295041
4.86533,286237
4.87345,286178
4.88158,271781
4.88970,266430
4.89782,252738
4.90595,249087
4.91407,254167
4.92218,286153
4.93032,413934
4.93843,693888
4.94657,1152004
4.95468,1485336
4.96280,1534884
4.97093,1336760
4.97905,1052919
4.98718,826684
4.99530,678765
5.00342,593651
5.01155,532007
5.01967,503017
5.02780,567872
5.03592,729604
5.04403,911853
5.05217,935927
5.06028,811884
5.06840,667761
5.07653,592047
5.08465,548015
5.09278,508677
5.10090,504107
5.10902,535382
5.11715,563854
5.12527,551335
5.13340,510474
5.14152,457032
5.14963,429862
5.15777,440620
5.16588,457829
5.17400,493403
5.18213,532882
5.19025,545386
5.19838,532662
5.20650,499343
5.21462,452433
5.22275,427148
5.23087,395278
5.23900,395323
5.24712,385633
5.25523,374335
5.26337,348788
5.27148,319690
5.27962,309233
5.28773,315539
5.29585,302705
5.30398,297616
5.31210,291236
5.32022,288118
5.32835,288245
5.33647,310953
5.34460,310409
5.35272,292082
5.36083,292277
5.36897,276839
5.37708,255785
5.38522,259095
5.39333,261113
5.40145,268091
5.40958,255194
5.41770,248634
5.42583,252061
5.43395,243373
5.44207,248743
5.45020,242331
5.45832,249429
5.46643,241415
5.47457,242442
5.48268,236415
5.49082,234288
5.49893,231496
5.50705,228778
5.51518,228799
5.52330,242222
5.53143,237708
5.53955,226859
5.54767,231130
5.55580,231551
5.56392,240898
5.57203,259771
5.58017,258892
5.58828,244450
5.59642,241688
5.60453,235057
5.61265,236957
5.62078,245090
5.62890,251047
5.63703,262695
5.64515,260245
5.65327,250918
5.66140,244331
5.66952,242263
5.67765,251633
5.68577,270616
5.69388,312698
5.70202,331585
5.71013,330889
5.71825,310353
5.72638,300594
5.73450,302967
5.74263,294686
5.75075,278844
5.75887,273899
5.76700,293336
5.77512,296249
5.78325,285066
5.79137,277916
5.79948,281191
5.80762,349121
5.81573,553976
5.82387,854009
5.83198,1160412
5.84010,1257871
5.84823,1067922
5.85635,799738
5.86447,559394
5.87260,411794
5.88072,332922
5.88885,288015
5.89697,283242
5.90508,278963
5.91322,330901
5.92133,440504
5.92947,561418
5.93758,621771
5.94570,580344
5.95383,476771
5.96195,394711
5.97007,339914
5.97820,313498
5.98632,332019
5.99445,341526
6.00257,317795
6.01068,277954
6.01882,260691
6.02693,229415
6.03507,206038
6.04318,198104
6.05130,192554
6.05943,185806
6.06755,181965
6.07568,172399
6.08380,159567
6.09192,167649
6.10005,162220
6.10817,165614
6.11628,172344
6.12442,186970
6.13253,241160
6.14067,308907
6.14878,371441
6.15690,370653
6.16503,313564
6.17315,262561
6.18128,239257
6.18940,237244
6.19752,234902
6.20565,238302
6.21377,236384
6.22188,213302
6.23002,208566
6.23813,192014
6.24627,198346
6.25438,193984
6.26250,192598
6.27063,200932
6.27875,193884
6.28688,203592
6.29500,198904
6.30312,200213
6.31125,198061
6.31937,203712
6.32750,208250
6.33562,210551
6.34373,215283
6.35187,222809
6.35998,219772
6.36810,227313
6.37623,221781
6.38435,220292
6.39248,218321
6.40060,220419
6.40872,225537
6.41685,215800
6.42497,222582
6.43310,222420
6.44122,227907
6.44933,222487
6.45747,230982
6.46558,233373
6.47372,245648
6.48183,240046
6.48995,234411
6.49808,247142
6.50620,238683
6.51432,243277
6.52245,244297
6.53057,242736
6.53870,249549
6.54682,249728
6.55493,250807
6.56307,250924
6.57118,257128
6.57932,264015
6.58743,267630
6.59555,275112
6.60368,263355
6.61180,261124
6.61992,264874
6.62805,254415
6.63617,249162
6.64430,253730
6.65242,272302
6.66053,276899
6.66867,290844
6.67678,314118
6.68492,320600
6.69303,367236
6.70115,390243
6.70928,379118
6.71740,340854
6.72553,265769
6.73365,215785
6.74177,188259
6.74990,174681
6.75802,163601
6.76613,162594
6.77427,170992
6.78238,187341
6.79052,260312
6.79863,397363
6.80675,618742
6.81488,812081
6.82300,896154
6.83113,774184
6.83925,588798
6.84737,415384
6.85550,316263
6.86362,282520
6.87175,256082
6.87987,227428
6.88798,183878
6.89612,155699
6.90423,136233
6.91235,129474
6.92048,123635
6.92860,130857
6.93673,156988
6.94485,205062
6.95297,281526
6.96110,354751
6.96922,409688
6.97735,386718
6.98547,335915
6.99358,262597
7.00172,194063
7.00983,157630
7.01795,134603
7.02608,125450
7.03420,116938
7.04233,120830
7.05045,118209
7.05857,118262
7.06670,110643
7.07482,106801
7.08295,108070
7.09107,104283
7.09918,99909
7.10732,94282
7.11543,97003
7.12357,103138
7.13168,97486
7.13980,105589
7.14793,123040
7.15605,144801
7.16417,173572
7.17230,187261
7.18042,181540
7.18855,183167
7.19667,203421
7.20478,275576
7.21292,468208
7.22103,808550
7.22917,1160503
7.23728,1219878
7.24540,980128
7.25353,646710
7.26165,450473
7.26978,326827
7.27790,246449
7.28602,185273
7.29415,159825
7.30227,149758
7.31038,178377
7.31852,212821
7.32663,264402
7.33477,310890
7.34288,310860
7.35100,277999
7.35913,233281
7.36725,187585
7.37538,155458
7.38350,144328
7.39162,134543
7.39975,132558
7.40787,138534
7.41598,152056
7.42412,170273
7.43223,195996
7.44037,207108
7.44848,210775
7.45660,203204
7.46473,176671
7.47285,142862
7.48098,125725
7.48910,112530
7.49722,105490
7.50535,101948
7.51347,96685
7.52160,105771
7.52972,124232
7.53783,148887
7.54597,178558
7.55408,207413
7.56220,221609
7.57033,206611
7.57845,183868
7.58658,155689
7.59470,134988
7.60282,117690
7.61095,109318
7.61907,107378
7.62720,97356
7.63532,103544
7.64343,98350
7.65157,91199
7.65968,94902
7.66780,90477
7.67593,86969
7.68405,97019
7.69218,90982
7.70030,92259
7.70842,90347
7.71655,87480
7.72467,92199
7.73280,92167
7.74092,92039
7.74903,89664
7.75717,87024
7.76528,89929
7.77342,88576
7.78153,83715
7.78965,92183
7.79778,89589
7.80590,89585
7.81402,99384
7.82215,94591
7.83027,91998
7.83840,86064
7.84652,82563
7.85463,82579
7.86277,90240
7.87088,89826
7.87902,86947
7.88713,93978
7.89525,91773
7.90338,86867
7.91150,87218
7.91963,94170
7.92775,103897
7.93587,119763
7.94400,133784
7.95212,143849
7.96023,137851
7.96837,115737
7.97648,104294
7.98462,93221
7.99273,87411
8.00085,79738
8.00898,79244
8.01710,79690
8.02523,77548
8.03335,82979
8.04147,76417
8.04960,73766
8.05772,75056
8.06583,75776
8.07397,76272
8.08208,75448
8.09022,71844
8.09833,72497
8.10645,75038
8.11458,72683
8.12270,78106
8.13083,79479
8.13895,80742
8.14707,95943
8.15520,94272
8.16332,93722
8.17145,82970
8.17957,75404
8.18768,74433
8.19582,74120
8.20393,69850
8.21205,73284
8.22018,77299
8.22830,72238
8.23643,74670
8.24455,72016
8.25267,72690
8.26080,67397
8.26892,71521
8.27705,68762
8.28517,66332
8.29328,72528
8.30142,72890
8.30953,74644
8.31767,83432
8.32578,86632
8.33390,82401
8.34203,79119
8.35015,74458
8.35827,72955
8.36640,71027
8.37452,73013
8.38265,72220
8.39077,69755
8.39888,71217
8.40702,65546
8.41513,63481
8.42327,62772
8.43138,64253
8.43950,63207
8.44763,69560
8.45575,64874
8.46387,65309
8.47200,65411
8.48012,64493
8.48825,66817
8.49637,73440
8.50448,74381
8.51262,76404
8.52073,87476
8.52887,121833
8.53698,166283
8.54510,214880
8.55323,232672
8.56135,201638
8.56948,152398
8.57760,107537
8.58572,86456
8.59385,85641
8.60197,77046
8.61008,76873
8.61822,78889
8.62633,73592
8.63447,73837
8.64258,73547
8.65070,68152
8.65883,70122
8.66695,65072
8.67508,73901
8.68320,71707
8.69132,74036
8.69945,79682
8.70757,78016
8.71568,84049
8.72382,78872
8.73193,87159
8.74007,130849
8.74818,219567
8.75630,319862
8.76443,412094
8.77255,435331
8.78068,388577
8.78880,303721
8.79692,212609
8.80505,172771
8.81317,148863
8.82130,142480
8.82942,144154
8.83753,144590
8.84567,145838
8.85378,139823
8.86190,133093
8.87003,127423
8.87815,125410
8.88628,118373
8.89440,125816
8.90252,118265
8.91065,115198
8.91877,112775
8.92690,120477
8.93502,124156
8.94313,130660
8.95127,129921
8.95938,125811
8.96752,121687
8.97563,115686
8.98375,116894
8.99188,113685
9.00000,111344
9.00812,110284
9.01625,112164
9.02437,104122
9.03250,107888
9.04062,98449
9.04873,100982
9.05687,102221
9.06498,102180
9.07312,100568
9.08123,96102
9.08935,99639
9.09748,106498
9.10560,107926
9.11373,118325
9.12185,118514
9.12997,114975
9.13810,106429
9.14622,105038
9.15433,101548
9.16247,105752
9.17058,99147
9.17872,94626
9.18683,88210
9.19495,90773
9.20308,92242
9.21120,94829
9.21933,87642
9.22745,84131
9.23557,92748
9.24370,95939
9.25182,97381
9.25993,95040
9.26807,112365
9.27618,121856
9.28432,120982
9.29243,117518
9.30055,103441
9.30868,98496
9.31680,94592
9.32493,92164
9.33305,88642
9.34117,93693
9.34930,92009
9.35742,87521
9.36555,88290
9.37367,85276
9.38178,90147
9.38992,88699
9.39803,84434
9.40615,92013
9.41428,92818
9.42240,99678
9.43053,102145
9.43865,105343
9.44677,99380
9.45490,96048
9.46302,88227
9.47115,88951
9.47927,81888
9.48738,85373
9.49552,79678
9.50363,81361
9.51175,85448
9.51988,90079
9.52800,93307
9.53613,88971
9.54425,86762
9.55237,73514
9.56050,69371
9.56862,67510
9.57675,73880
9.58487,79948
9.59298,81354
9.60112,74892
9.60923,71275
9.61737,71010
9.62548,73633
9.63360,75313
9.64173,79160
9.64985,79654
9.65797,76347
9.66610,74955
9.67422,68912
9.68235,62692
9.69047,59600
9.69858,61525
9.70672,60136
9.71483,55950
9.72297,57438
9.73108,55933
9.73920,60211
9.74733,55241
9.75545,60445
9.76357,56672
9.77170,56824
9.77982,52462
9.78795,56679
9.79607,54971
9.80418,58079
9.81232,58638
9.82043,55781
9.82857,58583
9.83668,58496
9.84480,59246
9.85293,60167
9.86105,59381
9.86918,61280
9.87730,59779
9.88542,58761
9.89355,59137
9.90167,59133
9.90978,58619
9.91792,62708
9.92603,73122
9.93417,85301
9.94228,102612
9.95040,116657
9.95853,123554
9.96665,122280
9.97478,109476
9.98290,93563
9.99102,89605
9.99915,73339
10.00727,68151
10.01540,67433
10.02352,65094
10.03163,59557
10.03977,61298
10.04788,61109
10.05600,63343
10.06413,67250
10.07225,60751
10.08038,59660
10.08850,61301
10.09662,63248
10.10475,60155
10.11287,56988
10.12100,53805
10.12912,52151
10.13723,59914
10.14537,59814
10.15348,57818
10.16162,57424
10.16973,54642
10.17785,52650
10.18598,52283
10.19410,56462
10.20222,51774
10.21035,53637
10.21847,53958
10.22660,57436
10.23472,58810
10.24283,66341
10.25097,71572
10.25908,95272
10.26722,167768
10.27533,333590
10.28345,621369
10.29158,970453
10.29970,1371491
10.30782,1951302
10.31595,2834082
10.32407,3949202
10.33220,4701291
10.34032,4562242
10.34843,3464676
10.35657,2181960
10.36468,1273106
10.37282,791427
10.38093,534247
10.38905,389888
10.39718,298213
10.40530,248297
10.41343,205740
10.42155,170843
10.42967,165285
10.43780,147606
10.44592,146117
10.45403,130075
10.46217,125155
10.47028,119354
10.47842,116091
10.48653,111214
10.49465,106223
10.50278,107971
10.51090,110252
10.51903,110512
10.52715,101409
10.53527,100953
10.54340,97860
10.55152,93040
10.55963,90824
10.56777,87733
10.57588,92355
10.58402,87777
10.59213,84433
10.60025,83879
10.60838,79878
10.61650,77303
10.62463,77686
10.63275,73818
10.64087,75964
10.64900,74161
10.65712,68980
10.66525,69889
10.67337,69306
10.68148,69815
10.68962,74812
10.69773,75541
10.70585,70480
10.71398,72470
10.72210,69613
10.73023,71218
10.73835,68149
10.74647,70746
10.75460,69610
10.76272,67058
10.77085,70805
10.77897,64577
10.78708,63097
10.79522,64169
10.80333,59442
10.81147,58800
10.81958,61640
10.82770,60208
10.83583,63706
10.84395,60161
10.85207,56477
10.86020,55223
10.86832,57774
10.87645,53435
10.88457,54820
10.89268,51373
10.90082,58841
10.90893,56412
10.91707,56606
10.92518,54263
10.93330,54066
10.94143,55199
10.94955,57679
10.95767,57672
10.96580,58878
10.97392,63411
10.98205,63839
10.99017,61782
10.99828,53885
11.00642,54384
11.01453,52715
11.02267,49215
11.03078,50287
11.03890,53029
11.04703,50984
11.05515,57996
11.06328,60342
11.07140,71012
11.07952,77814
11.08765,81829
11.09577,79854
11.10388,76659
11.11202,78945
11.12013,75782
11.12827,84096
11.13638,82529
11.14450,93770
11.15263,88936
11.16075,98501
11.16888,90022
11.17700,97497
11.18512,91893
11.19325,91511
11.20137,92150
11.20950,96995
11.21762,91457
11.22573,90019
11.23387,84095
11.24198,84546
11.25010,88033
11.25823,92466
11.26635,107592
11.27448,124337
11.28260,149181
11.29072,168512
11.29885,183212
11.30697,193740
11.31510,196851
11.32322,226007
11.33133,251091
11.33947,266373
11.34758,265815
11.35570,243166
11.36383,199381
11.37195,167431
11.38008,146652
11.38820,129023
11.39632,123634
11.40445,114939
11.41257,106891
11.42070,107447
11.42882,95181
11.43693,100916
11.44507,100414
11.45318,98729
11.46132,88806
11.46943,92699
11.47755,104932
11.48568,117009
11.49380,134235
11.50192,137617
11.51005,133105
11.51817,131197
11.52630,124278
11.53442,119573
11.54253,113252
11.55067,118633
11.55878,112254
11.56692,97858
11.57503,96674
11.58315,89785
11.59128,92348
11.59940,103818
11.60752,111904
11.61565,127818
11.62377,128041
11.63190,121493
11.64002,112055
11.64813,98309
11.65627,91811
11.66438,89546
11.67252,89456
11.68063,91561
11.68875,105018
11.69688,109110
11.70500,119334
11.71313,122028
11.72125,118581
11.72937,117404
11.73750,111974
11.74562,105079
11.75373,103723
11.76187,102406
11.76998,99797
11.77812,95775
11.78623,92458
11.79435,92599
11.80248,95515
11.81060,90298
11.81873,86732
11.82685,90733
11.83497,81760
11.84310,81469
11.85122,80584
11.85935,83606
11.86747,83399
11.87558,76678
11.88372,77483
11.89183,72047
11.89995,67020
11.90808,71751
11.91620,78123
11.92433,82091
11.93245,87275
11.94057,92417
11.94870,91775
11.95682,81808
11.96495,72560
11.97307,71827
11.98118,69454
11.98932,75419
11.99743,91993
12.00555,114826
12.01368,110937
12.02180,115064
12.02993,98179
12.03805,91398
12.04617,77957
12.05430,70775
12.06242,70108
12.07055,71521
12.07867,71185
12.08678,66716
12.09492,68459
12.10303,69360
12.11117,63430
12.11928,58672
12.12740,66674
12.13553,65642
12.14365,70179
12.15177,69134
12.15990,65546
12.16802,61890
12.17615,61504
12.18427,59412
12.19238,60441
12.20052,61817
12.20863,61882
12.21677,60668
12.22488,56277
12.23300,59988
12.24113,54150
12.24925,64335
12.25738,62598
12.26550,59183
12.27362,61348
12.28175,62833
12.28987,66061
12.29798,64459
12.30612,66859
12.31423,66298
12.32237,63458
12.33048,64134
12.33860,65226
12.34673,68093
12.35485,61986
12.36298,64996
12.37110,66123
12.37922,64027
12.38735,66936
12.39547,68215
12.40358,86760
12.41172,103619
12.41983,112279
12.42797,119748
12.43608,116900
12.44420,99991
12.45233,96546
12.46045,75750
12.46858,73328
12.47670,68422
12.48482,63099
12.49295,59383
12.50107,61940
12.50920,59492
12.51732,63689
12.52543,60364
12.53357,65746
12.54168,66606
12.54980,82706
12.55793,93778
12.56605,104023
12.57418,106732
12.58230,96484
12.59042,88797
12.59855,77057
12.60667,67629
12.61480,63046
12.62292,62339
12.63103,56967
12.63917,64424
12.64728,59486
12.65542,61156
12.66353,61524
12.67165,56452
12.67978,59060
12.68790,58259
12.69602,58614
12.70415,55666
12.71227,59545
12.72040,66200
12.72852,72555
12.73663,76250
12.74477,70897
12.75288,66970
12.76102,62621
12.76913,62515
12.77725,61941
12.78538,63138
12.79350,65832
12.80162,63126
12.80975,63109
12.81787,61190
12.82600,56668
12.83412,56895
12.84223,56158
12.85037,54861
12.85848,52239
12.86662,57468
12.87473,53056
12.88285,48952
12.89098,46583
12.89910,48199
12.90723,49509
12.91535,47148
12.92347,48985
12.93160,58761
12.93972,62737
12.94783,85547
12.95597,98579
12.96408,106774
12.97222,125023
12.98033,118844
12.98845,113375
12.99658,97830
13.00470,84493
13.01283,75023
13.02095,74189
13.02907,73820
13.03720,74755
13.04532,68992
13.05343,65969
13.06157,61792
13.06968,58191
13.07782,58660
13.08593,57586
13.09405,58830
13.10218,57634
13.11030,54884
13.11843,50438
13.12655,56604
13.13467,55764
13.14280,54191
13.15092,52900
13.15905,48787
13.16717,52027
13.17528,51096
13.18342,55563
13.19153,49866
13.19965,51521
13.20778,50597
13.21590,57223
13.22403,53719
13.23215,52715
13.24027,51532
13.24840,57728
13.25652,63271
13.26465,66877
13.27277,64453
13.28088,61985
13.28902,54987
13.29713,57012
13.30527,58803
13.31338,57062
13.32150,63608
13.32963,62038
13.33775,61458
13.34587,63393
13.35400,54697
13.36212,50028
13.37025,47852
13.37837,49880
13.38648,48945
13.39462,50411
13.40273,46659
13.41087,47905
13.41898,46595
13.42710,45262
13.43523,45456
13.44335,43640
13.45147,44785
13.45960,48089
13.46772,47765
13.47585,45388
13.48397,40723
13.49208,43245
13.50022,46076
13.50833,43003
13.51647,45577
13.52458,45008
13.53270,46840
13.54083,50700
13.54895,48458
13.55708,58826
13.56520,55561
13.57332,52874
13.58145,57429
13.58957,60495
13.59768,72459
13.60582,91858
13.61393,102043
13.62207,117436
13.63018,125939
13.63830,115288
13.64643,98820
13.65455,85983
13.66268,75515
13.67080,64762
13.67892,58068
13.68705,59483
13.69517,59588
13.70330,54837
13.71142,58870
13.71953,59740
13.72767,57223
13.73578,68801
13.74390,100188
13.75203,167510
13.76015,297725
13.76828,446598
13.77640,553377
13.78452,606138
13.79265,525095
13.80077,421679
13.80890,329490
13.81702,259663
13.82513,230103
13.83327,215543
13.84138,201222
13.84950,174870
13.85763,149076
13.86575,140178
13.87388,118656
13.88200,109945
13.89012,103326
13.89825,104744
13.90637,96948
13.91450,89387
13.92262,86813
13.93073,89011
13.93887,84157
13.94698,81929
13.95512,77824
13.96323,75084
13.97135,79399
13.97948,81814
13.98760,77500
13.99572,80970
14.00385,80358
14.01197,76242
14.02010,77618
14.02822,69003
14.03633,66610
14.04447,69918
14.05258,69015
14.06072,63973
14.06883,62767
14.07695,64336
14.08508,59783
14.09320,57059
14.10132,56561
14.10945,56380
14.11757,56390
14.12570,55140
14.13382,58475
14.14193,67873
14.15007,88837
14.15818,111342
14.16632,138307
14.17443,177784
14.18255,188370
14.19068,185903
14.19880,168243
14.20693,149070
14.21505,135815
14.22317,127477
14.23130,117574
14.23942,116371
14.24753,118105
14.25567,110420
14.26378,108286
14.27192,98448
14.28003,91768
14.28815,82819
14.29628,82332
14.30440,81657
14.31253,77041
14.32065,79338
14.32877,67835
14.33690,58881
14.34502,57591
14.35315,50531
14.36127,50473
14.36938,48858
14.37752,53521
14.38563,56574
14.39375,69234
14.40188,91384
14.41000,126383
14.41813,162771
14.42625,181785
14.43437,172409
14.44250,140819
14.45062,113624
14.45875,91893
14.46687,72870
14.47498,67819
14.48312,65354
14.49123,61533
14.49935,57524
14.50748,56703
14.51560,60323
14.52373,57258
14.53185,57646
14.53997,51517
14.54810,56986
14.55622,55393
14.56435,53874
14.57247,51934
14.58058,50439
14.58872,53527
14.59683,51424
14.60497,43028
14.61308,44694
14.62120,45537
14.62933,51756
14.63745,42716
14.64557,45805
14.65370,43752
14.66182,47002
14.66995,46516
14.67807,47462
14.68618,48494
14.69432,48457
14.70243,47863
14.71057,45649
14.71868,45114
14.72680,41967
14.73493,46176
14.74305,51045
14.75118,49850
14.75930,49882
14.76742,48442
14.77555,49923
14.78367,59274
14.79178,88163
14.79992,173009
14.80803,337683
14.81617,619020
14.82428,873013
14.83240,1028728
14.84053,939277
14.84865,745757
14.85678,497860
14.86490,327460
14.87302,219493
14.88115,156608
14.88927,134308
14.89738,115852
14.90552,105350
14.91363,98156
14.92177,90874
14.92988,86067
14.93800,79835
14.94613,80319
14.95425,74082
14.96238,73504
14.97050,74950
14.97862,68397
14.98675,66710
14.99487,64096
15.00300,62007
15.01112,64208
15.01923,63652
15.02737,67234
15.03548,62607
15.04360,56849
15.05173,54353
15.05985,55249
15.06798,54267
15.07610,54898
15.08422,53664
15.09235,53629
15.10047,52487
15.10860,52250
15.11672,49225
15.12483,51675
15.13297,56849
15.14108,57761
15.14922,53782
15.15733,52983
15.16545,55365
15.17358,49127
15.18170,48661
15.18982,50169
15.19795,45746
15.20607,45793
15.21420,45616
15.22232,42418
15.23043,43858
15.23857,42918
15.24668,39569
15.25482,39439
15.26293,40021
15.27105,41818
15.27918,42703
15.28730,41274
15.29542,42715
15.30355,39414
15.31167,38996
15.31980,41246
15.32792,42290
15.33603,37958
15.34417,39159
15.35228,40066
15.36042,39756
15.36853,40804
15.37665,42387
15.38478,36216
15.39290,39649
15.40103,40265
15.40915,37210
15.41727,41920
15.42540,41952
15.43352,40555
15.44163,40113
15.44977,41272
15.45788,43434
15.46602,46143
15.47413,48482
15.48225,58967
15.49038,63677
15.49850,65784
15.50663,69658
15.51475,65315
15.52287,62393
15.53100,56528
15.53912,48967
15.54725,49723
15.55537,47804
15.56348,46862
15.57162,42447
15.57973,41807
15.58785,41422
15.59598,44130
15.60410,41992
15.61223,41085
15.62035,40396
15.62847,40053
15.63660,39855
15.64472,41278
15.65285,38164
15.66097,40135
15.66908,38661
15.67722,40582
15.68533,40321
15.69345,37419
15.70158,38271
15.70970,39899
15.71783,42525
15.72595,40781
15.73407,44923
15.74220,45647
15.75032,54199
15.75845,69307
15.76657,89542
15.77468,111754
15.78282,123020
15.79093,134784
15.79907,124908
15.80718,107400
15.81530,81345
15.82343,68351
15.83155,59023
15.83967,54688
15.84780,53487
15.85592,49913
15.86405,48918
15.87217,46099
15.88028,47795
15.88842,45774
15.89653,51221
15.90467,42790
15.91278,44639
15.92090,42001
15.92903,44419
15.93715,45920
15.94527,49636
15.95340,53361
15.96152,58050
15.96965,62174
15.97777,65876
15.98588,64541
15.99402,69151
16.00213,72717
16.01027,78041
16.01838,76629
16.02650,82707
16.03463,76777
16.04275,74561
16.05088,68701
16.05900,57151
16.06712,57039
16.07525,52227
16.08337,47829
16.09148,49156
16.09962,51549
16.10773,48774
16.11587,49908
16.12398,51054
16.13210,49553
16.14023,50024
16.14835,52856
16.15648,49224
16.16460,48228
16.17272,50923
16.18085,50314
16.18897,46874
16.19710,45337
16.20522,46545
16.21333,48968
16.22147,46567
16.22958,46316
16.23770,48204
16.24583,46452
16.25395,49397
16.26208,46461
16.27020,44704
16.27832,46202
16.28645,47190
16.29457,46676
16.30270,48024
16.31082,49919
16.31893,49570
16.32707,46459
16.33518,46833
16.34330,42880
16.35143,49677
16.35955,50809
16.36768,51934
16.37580,56113
16.38392,52370
16.39205,58990
16.40017,45615
16.40830,46942
16.41642,44486
16.42453,42628
16.43267,49893
16.44078,46101
16.44892,62978
16.45703,81435
16.46515,116546
16.47328,150627
16.48140,165773
16.48952,159738
16.49765,131838
16.50577,109868
16.51390,87486
16.52202,68394
16.53013,62971
16.53827,55642
16.54638,51082
16.55452,50680
16.56263,51372
16.57075,47386
16.57888,53047
16.58700,54358
16.59513,57909
16.60325,57776
16.61137,58638
16.61950,56833
16.62762,56067
16.63573,54108
16.64387,52613
16.65198,49330
16.66012,50070
16.66823,50144
16.67635,43827
16.68448,44718
16.69260,45246
16.70073,45281
16.70885,43832
16.71697,44717
16.72510,45187
16.73322,48341
16.74133,48801
16.74947,46807
16.75758,45242
16.76572,47664
16.77383,47471
16.78195,46611
16.79008,46170
16.79820,43135
16.80633,41751
16.81445,43070
16.82257,45525
16.83070,44356
16.83882,45868
16.84695,45012
16.85507,47411
16.86318,42009
16.87132,42030
16.87943,43309
16.88755,43298
16.89568,42436
16.90380,40606
16.91193,40393
16.92005,41819
16.92817,45454
16.93630,43899
16.94442,40672
16.95255,39847
16.96067,40024
16.96878,41307
16.97692,41641
16.98503,43751
16.99315,42666
17.00128,39479
17.00940,41253
17.01753,42739
17.02565,43570
17.03377,43298
17.04190,44364
17.05002,45283
17.05815,46062
17.06627,45038
17.07438,46110
17.08252,41011
17.09063,42544
17.09877,44289
17.10688,41722
17.11500,42220
17.12313,46554
17.13125,44490
17.13937,44801
17.14750,46615
17.15562,42821
17.16375,43410
17.17187,44107
17.17998,45289
17.18812,44928
17.19623,42985
17.20437,42163
17.21248,42435
17.22060,45337
17.22873,48893
17.23685,39497
17.24498,38965
17.25310,43958
17.26122,42465
17.26935,40457
17.27747,44109
17.28558,40439
17.29372,44874
17.30183,44325
17.30997,42355
17.31808,41300
17.32620,45381
17.33433,46430
17.34245,50677
17.35058,46313
17.35870,49176
17.36682,49921
17.37495,49439
17.38307,49542
17.39118,51995
17.39932,47398
17.40743,53817
17.41557,54873
17.42368,53172
17.43180,49772
17.43993,52900
17.44805,48288
17.45618,49299
17.46430,47267
17.47242,47184
17.48055,45711
17.48867,43263
17.49680,47905
17.50492,46810
17.51303,48525
17.52117,49300
17.52928,53493
17.53740,56249
17.54553,64928
17.55365,72170
17.56178,73535
17.56990,93088
17.57802,117440
17.58615,148638
17.59427,179994
17.60240,208072
17.61052,211967
17.61863,184204
17.62677,160621
17.63488,128172
17.64302,107927
17.65113,98591
17.65925,87582
17.66738,82869
17.67550,81002
17.68362,73708
17.69175,72651
17.69987,67519
17.70800,64926
17.71612,63165
17.72423,60122
17.73237,59313
17.74048,58420
17.74862,57537
17.75673,53832
17.76485,52560
17.77298,51371
17.78110,56124
17.78922,56455
17.79735,58344
17.80547,66600
17.81360,71786
17.82172,80799
17.82983,81114
17.83797,81073
17.84608,81590
17.85422,72837
17.86233,74144
17.87045,69319
17.87858,61691
17.88670,59025
17.89483,55789
17.90295,48923
17.91107,51643
17.91920,47386
17.92732,49944
17.93543,48962
17.94357,44947
17.95168,50130
17.95982,53376
17.96793,75163
17.97605,144403
17.98418,234158
17.99230,343084
18.00043,410970
18.00855,432585
18.01667,461001
18.02480,474325
18.03292,468402
18.04105,463345
18.04917,475169
18.05728,496475
18.06542,558062
18.07353,715986
18.08165,946211
18.08978,1130712
18.09790,1223910
18.10603,1162246
18.11415,967668
18.12227,777817
18.13040,630827
18.13852,530653
18.14665,482095
18.15477,444856
18.16288,405281
18.17102,379066
18.17913,362001
18.18725,354977
18.19538,330152
18.20350,311114
18.21163,309702
18.21975,296483
18.22787,287087
18.23600,272720
18.24412,272600
18.25225,252498
18.26037,252716
18.26848,238701
18.27662,221680
18.28473,218432
18.29287,200460
18.30098,190772
18.30910,184431
18.31723,180469
18.32535,173220
18.33347,168872
18.34160,163348
18.34972,165658
18.35785,161655
18.36597,158436
18.37408,154636
18.38222,154501
18.39033,147647
18.39847,142479
18.40658,139918
18.41470,139971
18.42283,137077
18.43095,134021
18.43907,147296
18.44720,149291
18.45532,146694
18.46345,159405
18.47157,171300
18.47968,173761
18.48782,169911
18.49593,157947
18.50407,152161
18.51218,138335
18.52030,124972
18.52843,123483
18.53655,114089
18.54468,108305
18.55280,108931
18.56092,102041
18.56905,104209
18.57717,105279
18.58528,102016
18.59342,97629
18.60153,96923
18.60967,95069
18.61778,101182
18.62590,100288
18.63403,95290
18.64215,95810
18.65028,89891
18.65840,86426
18.66652,87657
18.67465,86319
18.68277,84959
18.69090,79916
18.69902,78988
18.70713,79461
18.71527,80914
18.72338,81338
18.73150,74472
18.73963,72125
18.74775,72055
18.75588,70593
18.76400,71946
18.77212,70477
18.78025,70176
18.78837,64485
18.79650,68687
18.80462,67100
18.81273,65741
18.82087,66858
18.82898,64975
18.83710,59718
18.84523,61360
18.85335,66957
18.86148,68503
18.86960,70005
18.87772,62482
18.88585,66772
18.89397,69890
18.90210,63528
18.91022,71227
18.91833,65563
18.92647,66561
18.93458,67445
18.94272,66113
18.95083,64505
18.95895,67726
18.96708,66724
18.97520,61945
18.98332,59278
18.99145,61403
18.99957,62353
19.00770,58622
19.01582,59241
19.02393,58557
19.03207,60892
19.04018,60564
19.04832,58377
19.05643,60375
19.06455,68544
19.07268,79815
19.08080,97231
19.08893,128933
19.09705,140912
19.10517,151621
19.11330,147637
19.12142,129127
19.12953,118613
19.13767,106375
19.14578,93969
19.15392,93750
19.16203,94339
19.17015,84805
19.17828,81930
19.18640,79731
19.19453,70825
19.20265,68392
19.21077,71585
19.21890,67281
19.22702,61308
19.23513,60278
19.24327,59088
19.25138,61768
19.25952,60872
19.26763,61469
19.27575,64276
19.28388,66710
19.29200,67227
19.30013,67277
19.30825,65119
19.31637,66707
19.32450,61952
19.33262,59407
19.34075,61302
19.34887,60833
19.35698,68545
19.36512,80595
19.37323,80098
19.38135,78995
19.38948,80614
19.39760,71272
19.40573,63167
19.41385,63180
19.42197,60369
19.43010,60957
19.43822,62258
19.44635,73006
19.45447,85242
19.46258,102994
19.47072,131730
19.47883,144908
19.48695,150136
19.49508,136644
19.50320,115696
19.51133,93080
19.51945,74486
19.52757,65898
19.53570,63575
19.54382,63019
19.55195,60731
19.56007,60253
19.56818,56391
19.57632,57481
19.58443,55856
19.59257,53914
19.60068,51555
19.60880,50371
19.61693,52768
19.62505,58091
19.63317,69072
19.64130,89672
19.64942,125761
19.65755,147548
19.66567,154497
19.67378,164973
19.68192,151333
19.69003,127860
19.69817,113115
19.70628,104170
19.71440,94475
19.72253,84701
19.73065,74803
19.73878,74957
19.74690,71878
19.75502,65959
19.76315,62892
19.77127,65404
19.77938,69264
19.78752,67495
19.79563,71375
19.80377,65312
19.81188,68133
19.82000,64544
19.82813,60637
19.83625,66927
19.84438,94649
19.85250,182769
19.86062,424629
19.86875,971922
19.87687,2029340
19.88500,3470542
19.89312,5056500
19.90123,5930495
19.90937,5813468
19.91748,4762311
19.92560,3349488
19.93373,2183833
19.94185,1438114
19.94998,1002492
19.95810,800079
19.96622,674330
19.97435,606830
19.98247,552893
19.99060,518693
19.99872,466676
20.00683,434094
20.01497,410410
20.02308,374245
20.03120,344730
20.03933,307391
20.04745,264139
20.05558,224539
20.06370,183909
20.07182,152698
20.07995,136189
20.08807,117464
20.09620,117707
20.10432,109737
20.11243,100518
20.12057,96755
20.12868,92256
20.13682,93737
20.14493,94837
20.15305,98454
20.16118,97305
20.16930,102527
20.17742,105318
20.18555,105360
20.19367,111915
20.20180,106030
20.20992,101586
20.21803,91250
20.22617,95947
20.23428,106322
20.24242,113502
20.25053,131574
20.25865,152313
20.26678,167421
20.27490,167757
20.28302,160349
20.29115,146188
20.29927,127579
20.30740,112899
20.31552,99903
20.32363,94302
20.33177,83954
20.33988,80145
20.34802,75628
20.35613,71934
20.36425,71139
20.37238,72545
20.38050,70775
20.38863,70083
20.39675,69812
20.40487,71383
20.41300,70138
20.42112,75232
20.42923,71618
20.43737,71483
20.44548,74943
20.45362,68177
20.46173,66972
20.46985,63734
20.47798,59534
20.48610,59205
20.49423,58284
20.50235,58658
20.51047,58085
20.51860,54703
20.52672,52354
20.53485,60173
20.54297,52403
20.55108,51721
20.55922,51324
20.56733,49470
20.57545,52184
20.58358,48701
20.59170,53724
20.59983,49088
20.60795,51292
20.61607,48893
20.62420,51195
20.63232,51958
20.64045,49347
20.64857,54627
20.65668,53258
20.66482,52572
20.67293,51599
20.68105,50649
20.68918,48924
20.69730,48503
20.70543,47483
20.71355,49416
20.72167,48484
20.72980,47904
20.73792,49213
20.74605,53237
20.75417,53380
20.76228,51812
20.77042,58411
20.77853,59129
20.78667,73266
20.79478,79843
20.80290,111446
20.81103,119900
20.81915,130837
20.82727,121303
20.83540,108651
20.84352,85278
20.85165,71645
20.85977,66918
20.86788,59101
20.87602,58885
20.88413,60748
20.89227,55718
20.90038,53971
20.90850,57365
20.91663,53373
20.92475,58255
20.93288,61571
20.94100,61507
20.94912,65747
20.95725,71204
20.96537,74680
20.97348,69881
20.98162,73200
20.98973,75838
20.99787,72639
21.00598,70864
21.01410,73628
21.02223,69980
21.03035,74278
21.03848,70962
21.04660,69597
21.05472,73409
21.06285,72996
21.07097,71644
21.07908,71975
21.08722,72224
21.09533,65952
21.10347,62766
21.11158,64086
21.11970,68246
21.12783,65317
21.13595,70302
21.14408,78431
21.15220,81315
21.16032,81400
21.16845,80770
21.17657,77195
21.18470,70850
21.19282,62930
21.20093,69525
21.20907,62869
21.21718,61924
21.22530,62615
21.23343,59482
21.24155,61382
21.24968,64630
21.25780,60250
21.26592,62111
21.27405,60758
21.28217,60072
21.29030,63593
21.29842,56932
21.30653,56449
21.31467,54166
21.32278,53346
21.33090,53898
21.33903,56811
21.34715,54415
21.35528,58176
21.36340,59553
21.37152,52649
21.37965,57876
21.38777,59447
21.39590,62212
21.40402,65954
21.41213,72049
21.42027,69119
21.42838,68315
21.43652,59204
21.44463,59281
21.45275,58433
21.46088,54720
21.46900,60437
21.47712,53213
21.48525,53497
21.49337,54458
21.50150,54640
21.50962,54056
21.51773,52386
21.52587,57532
21.53398,51138
21.54212,54014
21.55023,49055
21.55835,48448
21.56648,48826
21.57460,51955
21.58273,59099
21.59085,65949
21.59897,73768
21.60710,74660
21.61522,86532
21.62333,81056
21.63147,80796
21.63958,77556
21.64772,73249
21.65583,68131
21.66395,65503
21.67208,63137
21.68020,63766
21.68833,63070
21.69645,60585
21.70457,67005
21.71270,77581
21.72082,95185
21.72893,133168
21.73707,154238
21.74518,176182
21.75332,185677
21.76143,196758
21.76955,202831
21.77768,206407
21.78580,209028
21.79393,204074
21.80205,209388
21.81017,217878
21.81830,222282
21.82642,204723
21.83455,201736
21.84267,181822
21.85078,178663
21.85892,165627
21.86703,153149
21.87515,151173
21.88328,145926
21.89140,152042
21.89953,137648
21.90765,129833
21.91577,127694
21.92390,116633
21.93202,111000
21.94015,117137
21.94827,106125
21.95638,101956
21.96452,97431
21.97263,95504
21.98077,95556
21.98888,94284
21.99700,90594
22.00513,84558
22.01325,85532
22.02137,84197
22.02950,80019
22.03762,78574
22.04575,78669
22.05387,76931
22.06198,78021
22.07012,72638
22.07823,73192
22.08637,72113
22.09448,68232
22.10260,71673
22.11073,72426
22.11885,64993
22.12697,67969
22.13510,66742
22.14322,64372
22.15135,62861
22.15947,59318
22.16758,61894
22.17572,61586
22.18383,61829
22.19197,62678
22.20008,66235
22.20820,68525
22.21633,64241
22.22445,62572
22.23258,60696
22.24070,57494
22.24882,51784
22.25695,58312
22.26507,56680
22.27318,55899
22.28132,56787
22.28943,60576
22.29757,65356
22.30568,62333
22.31380,63003
22.32193,66262
22.33005,62257
22.33818,60200
22.34630,57616
22.35442,63497
22.36255,58603
22.37067,58815
22.37878,57473
22.38692,60485
22.39503,66332
22.40317,69705
22.41128,80894
22.41940,79470
22.42753,82821
22.43565,72887
22.44378,71782
22.45190,61322
22.46002,58758
22.46815,62858
22.47627,63390
22.48440,67971
22.49252,77469
22.50063,71599
22.50877,75474
22.51688,70421
22.52500,61820
22.53313,62610
22.54125,61538
22.54938,59232
22.55750,58772
22.56562,59433
22.57375,52790
22.58187,55734
22.59000,51772
22.59812,48764
22.60623,47356
22.61437,47978
22.62248,47955
22.63062,49468
22.63873,48143
22.64685,51568
22.65498,50446
22.66310,53932
22.67122,47651
22.67935,54227
22.68747,54824
22.69560,59899
22.70372,53154
22.71183,59054
22.71997,56748
22.72808,52849
22.73622,54189
22.74433,48249
22.75245,50478
22.76058,52211
22.76870,54349
22.77682,54451
22.78495,54740
22.79307,56459
22.80120,63009
22.80932,65238
22.81743,66464
22.82557,59876
22.83368,56164
22.84182,57045
22.84993,53561
22.85805,53676
22.86618,53991
22.87430,61169
22.88243,61954
22.89055,64104
22.89867,72542
22.90680,84067
22.91492,100457
22.92303,111517
22.93117,119866
22.93928,120732
22.94742,111168
22.95553,97827
22.96365,83991
22.97178,85255
22.97990,72796
22.98803,66667
22.99615,60409
23.00427,68133
23.01240,65996
23.02052,59176
23.02865,57654
23.03677,57115
23.04488,51510
23.05302,51364
23.06113,52683
23.06925,54365
23.07738,54373
23.08550,50741
23.09363,47874
23.10175,51983
23.10987,48717
23.11800,50101
23.12612,50922
23.13425,46696
23.14237,47009
23.15048,47991
23.15862,52295
23.16673,46154
23.17485,47825
23.18298,54413
23.19110,50769
23.19923,47353
23.20735,47815
23.21547,50906
23.22360,50516
23.23172,52947
23.23985,51536
23.24797,52586
23.25608,56688
23.26422,51316
23.27233,57023
23.28047,56132
23.28858,50254
23.29670,52347
23.30483,52873
23.31295,51261
23.32107,56737
23.32920,59084
23.33732,69410
23.34545,80858
23.35357,91985
23.36168,112612
23.36982,138548
23.37793,149047
23.38607,170819
23.39418,176494
23.40230,177821
23.41043,177149
23.41855,178236
23.42668,172218
23.43480,162506
23.44292,157163
23.45105,146545
23.45917,133113
23.46728,122889
23.47542,136215
23.48353,161755
23.49167,172161
23.49978,195814
23.50790,215335
23.51603,232167
23.52415,242312
23.53228,237834
23.54040,235922
23.54852,233283
23.55665,240922
23.56477,236752
23.57288,250769
23.58102,262377
23.58913,262235
23.59727,262722
23.60538,257075
23.61350,253572
23.62163,239200
23.62975,223561
23.63788,209206
23.64600,208162
23.65412,204204
23.66225,200583
23.67037,201634
23.67850,194765
23.68662,180343
23.69473,176381
23.70287,166227
23.71098,154540
23.71910,152518
23.72723,155164
23.73535,171194
23.74348,252800
23.75160,447903
23.75972,864588
23.76785,1583902
23.77597,2391210
23.78410,2938394
23.79222,3045000
23.80033,2766781
23.80847,2299838
23.81658,1711084
23.82470,1246269
23.83283,936911
23.84095,733826
23.84908,591375
23.85720,470035
23.86532,416857
23.87345,369533
23.88157,324890
23.88970,295061
23.89782,276585
23.90593,258279
23.91407,242292
23.92218,229954
23.93032,213417
23.93843,203305
23.94655,184673
23.95468,178859
23.96280,169938
23.97092,160672
23.97905,156910
23.98717,155557
23.99530,150963
24.00342,147201
24.01153,141665
24.01967,140140
24.02778,136633
24.03592,133070
24.04403,131223
24.05215,131124
24.06028,122058
24.06840,117875
24.07653,119648
24.08465,113699
24.09277,116416
24.10090,118151
24.10902,116525
24.11713,116491
24.12527,109257
24.13338,106571
24.14152,103070
24.14963,105845
24.15775,101744
24.16588,106480
24.17400,110813
24.18213,120903
24.19025,115583
24.19837,121038
24.20650,118489
24.21462,123299
24.22273,112470
24.23087,110974
24.23898,102307
24.24712,97837
24.25523,89064
24.26335,88406
24.27148,86961
24.27960,84121
24.28773,85284
24.29585,81715
24.30397,81663
24.31210,78963
24.32022,82473
24.32835,83190
24.33647,92962
24.34458,97439
24.35272,116554
24.36083,138111
24.36895,142493
24.37708,128415
24.38520,112119
24.39333,98358
24.40145,89959
24.40957,88195
24.41770,90394
24.42582,92108
24.43395,87458
24.44207,97735
24.45018,92841
24.45832,96229
24.46643,103282
24.47457,100384
24.48268,98596
24.49080,100547
24.49893,94239
24.50705,94174
24.51517,89179
24.52330,90158
24.53142,83296
24.53955,84750
24.54767,89081
24.55578,90859
24.56392,84550
24.57203,86301
24.58017,77464
24.58828,76815
24.59640,70154
24.60453,70864
24.61265,69216
24.62077,66907
24.62890,63463
24.63702,65201
24.64515,59723
24.65327,60150
24.66138,64384
24.66952,69139
24.67763,63658
24.68577,68229
24.69388,77740
24.70200,111828
24.71013,141603
24.71825,187577
24.72638,227509
24.73450,258949
24.74262,261176
24.75075,282567
24.75887,282945
24.76698,277937
24.77512,286214
24.78323,291025
24.79137,284128
24.79948,276166
24.80760,270974
24.81573,260067
24.82385,264223
24.83198,251442
24.84010,257420
24.84822,258553
24.85635,269644
24.86447,300466
24.87258,317094
24.88072,353775
24.88883,354656
24.89697,324762
24.90508,306890
24.91320,258473
24.92133,213151
24.92945,189103
24.93758,168178
24.94570,155597
24.95382,142349
24.96195,135663
24.97007,131595
24.97820,121041
24.98632,115142
24.99443,119777
25.00257,111220
25.01068,115461
25.01880,104819
25.02693,101061
25.03505,100524
25.04318,98377
25.05130,91348
25.05942,93627
25.06755,96041
25.07567,96176
25.08380,93300
25.09192,106848
25.10003,126984
25.10817,185805
25.11628,285830
25.12442,452537
25.13253,643539
25.14065,774119
25.14878,818003
25.15690,708509
25.16502,531278
25.17315,371852
25.18127,261992
25.18940,179605
25.19752,141738
25.20563,111113
25.21377,99713
25.22188,100989
25.23002,97166
25.23813,103964
25.24625,114189
25.25438,126049
25.26250,138283
25.27063,146489
25.27875,145884
25.28687,128907
25.29500,116005
25.30312,104401
25.31123,93340
25.31937,90402
25.32748,84424
25.33562,84914
25.34373,76793
25.35185,74517
25.35998,72543
25.36810,65590
25.37623,67927
25.38435,68680
25.39247,63246
25.40060,64458
25.40872,65020
25.41683,63085
25.42497,64711
25.43308,68204
25.44122,62138
25.44933,64432
25.45745,65958
25.46558,68034
25.47370,62688
25.48183,59652
25.48995,59133
25.49807,57846
25.50620,62319
25.51432,58590
25.52245,62625
25.53057,56706
25.53868,58057
25.54682,59482
25.55493,58740
25.56305,55119
25.57118,54660
25.57930,60862
25.58743,55589
25.59555,55950
25.60367,54074
25.61180,52229
25.61992,58030
25.62805,53717
25.63617,53253
25.64428,53596
25.65242,50711
25.66053,52729
25.66865,51738
25.67678,51023
25.68490,51523
25.69303,51437
25.70115,56612
25.70927,52838
25.71740,51665
25.72552,48068
25.73365,48740
25.74177,53069
25.74988,52403
25.75802,48983
25.76613,50803
25.77427,48942
25.78238,50853
25.79050,55790
25.79863,50432
25.80675,53854
25.81487,55073
25.82300,57762
25.83112,55375
25.83925,58773
25.84737,53528
25.85548,53833
25.86362,54131
25.87173,54261
25.87987,51860
25.88798,52109
25.89610,53057
25.90423,51025
25.91235,48123
25.92048,45805
25.92860,46481
25.93672,48132
25.94485,50574
25.95297,56230
25.96108,52465
25.96922,48211
25.97733,45723
25.98547,47845
25.99358,48031
26.00170,44095
26.00983,47138
26.01795,46462
26.02608,48116
26.03420,46788
26.04232,46666
26.05045,49092
26.05857,46388
26.06668,46942
26.07482,50210
26.08293,49157
26.09107,52788
26.09918,47825
26.10730,50660
26.11543,52488
26.12355,52947
26.13168,55464
26.13980,56250
26.14792,56905
26.15605,55847
26.16417,59084
26.17230,56592
26.18042,59097
26.18853,57919
26.19667,53367
26.20478,52359
26.21290,51444
26.22103,51691
26.22915,48752
26.23728,49032
26.24540,43601
26.25352,46317
26.26165,44825
26.26977,46620
26.27790,46902
26.28602,44367
26.29413,46692
26.30227,44360
26.31038,40708
26.31852,43308
26.32663,43562
26.33475,45452
26.34288,45569
26.35100,45376
26.35912,46211
26.36725,45685
26.37537,47829
26.38350,50019
26.39162,48388
26.39973,46920
26.40787,47718
26.41598,47096
26.42412,46007
26.43223,45048
26.44035,49667
26.44848,44415
26.45660,45293
26.46472,45585
26.47285,46104
26.48097,48403
26.48910,41515
26.49722,42595
26.50533,47872
26.51347,45620
26.52158,45827
26.52972,40702
26.53783,43365
26.54595,43922
26.55408,40115
26.56220,43444
26.57033,43249
26.57845,40933
26.58657,43046
26.59470,45392
26.60282,47230
26.61093,42788
26.61907,44393
26.62718,42937
26.63532,43951
26.64343,43767
26.65155,40083
26.65968,39795
26.66780,46593
26.67593,44737
26.68405,45451
26.69217,47674
26.70030,45361
26.70842,42976
26.71653,47652
26.72467,45240
26.73278,44080
26.74092,47977
26.74903,42532
26.75715,44099
26.76528,46494
26.77340,45869
26.78153,47266
26.78965,45925
26.79777,44890
26.80590,49045
26.81402,47183
26.82215,47560
26.83027,52029
26.83838,43128
26.84652,49251
26.85463,43187
26.86275,47008
26.87088,48150
26.87900,46719
26.88713,46467
26.89525,44435
26.90337,44234
26.91150,46479
26.91962,46336
26.92775,48522
26.93587,45869
26.94398,55221
26.95212,70046
26.96023,106047
26.96837,162042
26.97648,258027
26.98460,379600
26.99273,516202
27.00085,675494
27.00897,755619
27.01710,750734
27.02522,664551
27.03335,559317
27.04147,448161
27.04958,352338
27.05772,280607
27.06583,229055
27.07397,186813
27.08208,161930
27.09020,146602
27.09833,127561
27.10645,116407
27.11457,116836
27.12270,110787
27.13082,103417
27.13895,90725
27.14707,96943
27.15518,90922
27.16332,93375
27.17143,90892
27.17957,94371
27.18768,87148
27.19580,82957
27.20393,85499
27.21205,79107
27.22018,74097
27.22830,73131
27.23642,72005
27.24455,75051
27.25267,69266
27.26078,64117
27.26892,63594
27.27703,63065
27.28517,60873
27.29328,60161
27.30140,60856
27.30953,63279
27.31765,53994
27.32578,59559
27.33390,59662
27.34202,56344
27.35015,57806
27.35827,56412
27.36640,58998
27.37452,57150
27.38263,56849
27.39077,54686
27.39888,53143
27.40700,52059
27.41513,54530
27.42325,48803
27.43138,53536
27.43950,49575
27.44762,50899
27.45575,50950
27.46387,51464
27.47200,57119
27.48012,54443
27.48823,55843
27.49637,52452
27.50448,54662
27.51260,53813
27.52073,53037
27.52885,52088
27.53698,49804
27.54510,55400
27.55322,57208
27.56135,56320
27.56947,52784
27.57760,60095
27.58572,58666
27.59383,57451
27.60197,54681
27.61008,54456
27.61822,52531
27.62633,54354
27.63445,48900
27.64258,46693
27.65070,45567
27.65882,49565
27.66695,50049
27.67507,52263
27.68320,52345
27.69132,49408
27.69943,48811
27.70757,50688
27.71568,51667
27.72382,51077
27.73193,52522
27.74005,50064
27.74818,49726
27.75630,55764
27.76443,52128
27.77255,52344
27.78067,49512
27.78880,51182
27.79692,45379
27.80503,49024
27.81317,50628
27.82128,47090
27.82942,46136
27.83753,49645
27.84565,42022
27.85378,47192
27.86190,42837
27.87003,46656
27.87815,44551
27.88627,39788
27.89440,43669
27.90252,46358
27.91063,40365
27.91877,41800
27.92688,41410
27.93502,45988
27.94313,45593
27.95125,43467
27.95938,42794
27.96750,45742
27.97563,47389
27.98375,47856
27.99187,47055
28.00000,44796
28.00812,49647
28.01625,48919
28.02437,50173
28.03248,49457
28.04062,52780
28.04873,55097
28.05685,55057
28.06498,55556
28.07310,49528
28.08123,56543
28.08935,62633
28.09747,74789
28.10560,73746
28.11372,73850
28.12185,71592
28.12997,68542
28.13808,66067
28.14622,55370
28.15433,54642
28.16245,53917
28.17058,52737
28.17870,51607
28.18683,49733
28.19495,56039
28.20307,55267
28.21120,56045
28.21932,56242
28.22745,53343
28.23557,54774
28.24368,50898
28.25182,57000
28.25993,59887
28.26807,69694
28.27618,93705
28.28430,125539
28.29243,153857
28.30055,201420
28.30867,240316
28.31680,268769
28.32492,284228
28.33305,292189
28.34117,295351
28.34928,276929
28.35742,271866
28.36553,237097
28.37367,220563
28.38178,197147
28.38990,172532
28.39803,160778
28.40615,140731
28.41428,125685
28.42240,116313
28.43052,102679
28.43865,98777
28.44677,96027
28.45488,88502
28.46302,90188
28.47113,83227
28.47927,81711
28.48738,77290
28.49550,69826
28.50363,71694
28.51175,70133
28.51988,65837
28.52800,68710
28.53612,67097
28.54425,64214
28.55237,65160
28.56048,64406
28.56862,65556
28.57673,62717
28.58487,61132
28.59298,60996
28.60110,60240
28.60923,55679
28.61735,57994
28.62548,59357
28.63360,63818
28.64172,61722
28.64985,65843
28.65797,69067
28.66610,66134
28.67422,61691
28.68233,67280
28.69047,61609
28.69858,64262
28.70670,62866
28.71483,72710
28.72295,81513
28.73108,79102
28.73920,80931
28.74732,80771
28.75545,68959
28.76357,63931
28.77170,60453
28.77982,56526
28.78793,58132
28.79607,55567
28.80418,52453
28.81232,50471
28.82043,57228
28.82855,53461
28.83668,56041
28.84480,54267
28.85292,49599
28.86105,52556
28.86917,51061
28.87730,52807
28.88542,59362
28.89353,52777
28.90167,53649
28.90978,54485
28.91792,51600
28.92603,49251
28.93415,54173
28.94228,50790
28.95040,48470
28.95852,52029
28.96665,54338
28.97477,48955
28.98290,50501
28.99102,46799
28.99913,44259
29.00727,46987
29.01538,43595
29.02352,46956
29.03163,47766
29.03975,46808
29.04788,46896
29.05600,48809
29.06413,46476
29.07225,50845
29.08037,51265
29.08850,46071
29.09662,45417
29.10473,46426
29.11287,44879
29.12098,45426
29.12912,47207
29.13723,47773
29.14535,52230
29.15348,49440
29.16160,49280
29.16973,48022
29.17785,48468
29.18597,55239
29.19410,58775
29.20222,62272
29.21033,59230
29.21847,58907
29.22658,56092
29.23472,57285
29.24283,55965
29.25095,50245
29.25908,51064
29.26720,46220
29.27533,49953
29.28345,46549
29.29157,47651
29.29970,47356
29.30782,45881
29.31595,45224
29.32407,44935
29.33218,45556
29.34032,40332
29.34843,41795
29.35655,44049
29.36468,43852
29.37280,43036
29.38093,44256
29.38905,40993
29.39717,45553
29.40530,44155
29.41342,44352
29.42155,45088
29.42967,43554
29.43778,49093
29.44592,48174
29.45403,46924
29.46217,43142
29.47028,53312
29.47840,49315
29.48653,46017
29.49465,47453
29.50277,50913
29.51090,48801
29.51902,46189
29.52715,47310
29.53527,47582
29.54338,44206
29.55152,45940
29.55963,48442
29.56777,49459
29.57588,49314
29.58400,52762
29.59213,54831
29.60025,55752
29.60838,52333
29.61650,53982
29.62462,51144
29.63275,47765
29.64087,47815
29.64898,52056
29.65712,43750
29.66523,46016
29.67337,45711
29.68148,44234
29.68960,46033
29.69773,52595
29.70585,53777
29.71398,56867
29.72210,61494
29.73022,61467
29.73835,61470
29.74647,62735
29.75458,65331
29.76272,60337
29.77083,62775
29.77897,58810
29.78708,62188
29.79520,58981
29.80333,58674
29.81145,55093
29.81958,55530
29.82770,55775
29.83582,55675
29.84395,57370
29.85207,56404
29.86020,52077
29.86832,58879
29.87643,62500
29.88457,66660
29.89268,79744
29.90080,90503
29.90893,98677
29.91705,111042
29.92518,124633
29.93330,129570
29.94142,143772
29.94955,150143
29.95767,156653
29.96580,158325
29.97392,159384
29.98203,159259
29.99017,153411
29.99828,150214
30.00640,141111
30.01453,135810
30.02265,127025
30.03078,116975
30.03890,104918
30.04702,102049
30.05515,101579
30.06327,94654
30.07140,87168
30.07952,89577
30.08763,85203
30.09577,79924
30.10388,76582
30.11202,70601
30.12013,73463
30.12825,69920
30.13638,64829
30.14450,65930
30.15262,65523
30.16075,65336
30.16887,62321
30.17700,63949
30.18512,65420
30.19323,55964
30.20137,61658
30.20948,59150
30.21762,63102
30.22573,54981
30.23385,52283
30.24198,53777
30.25010,53529
30.25823,58749
30.26635,53978
30.27447,56846
30.28260,54222
30.29072,56611
30.29883,54988
30.30697,50378
30.31508,50211
30.32322,53118
30.33133,52219
30.33945,55924
30.34758,53047
30.35570,55328
30.36383,53212
30.37195,49921
30.38007,50087
30.38820,52455
30.39632,47491
30.40443,48898
30.41257,48721
30.42068,49522
30.42882,46661
30.43693,51782
30.44505,46257
30.45318,46962
30.46130,48356
30.46943,45730
30.47755,51278
30.48567,53242
30.49380,49119
30.50192,49383
30.51005,50602
30.51817,51305
30.52628,51011
30.53442,45599
30.54253,46113
30.55065,49491
30.55878,45716
30.56690,50765
30.57503,47218
30.58315,46518
30.59127,47517
30.59940,45743
30.60752,50453
30.61565,47273
30.62377,48909
30.63188,46907
30.64002,44570
30.64813,45077
30.65627,44990
30.66438,45636
30.67250,45617
30.68063,43078
30.68875,47821
30.69687,43683
30.70500,48241
30.71312,45443
30.72125,47498
30.72937,45548
30.73748,48578
30.74562,47589
30.75373,45527
30.76187,48735
30.76998,47668
30.77810,50586
30.78623,57522
30.79435,64608
30.80247,66594
30.81060,70896
30.81872,60163
30.82685,60826
30.83497,54319
30.84308,48853
30.85122,53164
30.85933,51586
30.86747,46407
30.87558,48564
30.88370,42602
30.89183,47574
30.89995,44762
30.90808,47342
30.91620,45050
30.92432,44161
30.93245,46238
30.94057,42806
30.94868,46729
30.95682,45168
30.96493,40312
30.97307,46644
30.98118,47462
30.98930,42748
30.99743,46119
31.00555,45073
31.01368,45156
31.02180,49275
31.02992,45278
31.03805,47572
31.04617,47117
31.05428,45789
31.06242,44148
31.07053,51626
31.07867,46789
31.08678,55194
31.09490,55635
31.10303,60632
31.11115,57807
31.11928,58906
31.12740,53913
31.13552,49644
31.14365,52263
31.15177,53801
31.15990,50671
31.16802,55372
31.17613,67928
31.18427,77356
31.19238,104369
31.20050,124799
31.20863,146589
31.21675,146283
31.22488,142753
31.23300,115228
31.24112,101497
31.24925,78521
31.25737,63419
31.26550,56323
31.27362,48732
31.28173,47097
31.28987,44984
31.29798,48300
31.30612,49116
31.31423,46581
31.32235,49647
31.33048,50034
31.33860,52061
31.34672,44703
31.35485,46574
31.36297,45921
31.37110,49726
31.37922,47116
31.38733,50952
31.39547,48382
31.40358,49425
31.41172,50593
31.41983,49038
31.42795,46424
31.43608,44734
31.44420,49334
31.45232,42879
31.46045,44533
31.46857,42637
31.47670,43933
31.48482,43461
31.49293,42429
31.50107,45910
31.50918,46896
31.51732,47600
31.52543,43753
31.53355,42714
31.54168,48793
31.54980,43446
31.55793,45178
31.56605,43824
31.57417,46775
31.58230,46329
31.59042,49786
31.59853,44441
31.60667,46998
31.61478,47890
31.62292,43640
31.63103,40823
31.63915,45768
31.64728,48974
31.65540,53528
31.66353,49350
31.67165,50396
31.67977,54361
31.68790,51875
31.69602,58361
31.70415,49150
31.71227,54290
31.72038,50056
31.72852,46453
31.73663,51794
31.74475,42459
31.75288,47646
31.76100,40886
31.76913,41094
31.77725,44143
31.78537,46561
31.79350,49035
31.80162,48343
31.80975,51099
31.81787,49401
31.82598,53054
31.83412,53821
31.84223,55912
31.85035,71104
31.85848,69363
31.86660,81813
31.87473,94884
31.88285,103093
31.89097,110596
31.89910,109098
31.90722,112182
31.91535,116422
31.92347,108990
31.93158,106554
31.93972,103214
31.94783,99259
31.95597,93787
31.96408,88819
31.97220,86657
31.98033,81111
31.98845,77066
31.99657,76570
32.00470,76263
32.01282,75146
32.02095,73605
32.02907,77020
32.03718,76051
32.04532,68765
32.05343,66475
32.06157,59940
32.06968,61043
32.07780,58551
32.08593,59155
32.09405,61374
32.10217,54286
32.11030,55139
32.11842,53781
32.12655,56534
32.13467,54416
32.14278,58022
32.15092,56019
32.15903,48248
32.16717,51422
32.17528,49854
32.18340,53247
32.19153,52418
32.19965,51614
32.20778,55023
32.21590,48809
32.22402,49936
32.23215,48236
32.24027,50937
32.24838,55605
32.25652,54468
32.26463,50416
32.27277,50838
32.28088,48521
32.28900,51487
32.29713,53770
32.30525,51844
32.31338,49073
32.32150,48153
32.32962,48164
32.33775,50204
32.34587,50825
32.35400,49357
32.36212,51922
32.37023,54194
32.37837,48924
32.38648,50617
32.39460,47270
32.40273,49810
32.41085,50942
32.41898,47673
32.42710,47411
32.43522,51081
32.44335,46112
32.45147,49155
32.45960,49876
32.46772,49184
32.47583,49202
32.48397,49126
32.49208,46266
32.50020,48713
32.50833,47642
32.51645,44842
32.52458,48387
32.53270,50035
32.54082,44019
32.54895,48529
32.55707,49458
32.56520,53036
32.57332,49747
32.58143,46433
32.58957,52601
32.59768,53094
32.60582,54476
32.61393,57483
32.62205,65990
32.63018,67997
32.63830,63035
32.64642,59719
32.65455,55215
32.66267,56194
32.67080,53565
32.67892,52178
32.68703,52283
32.69517,50432
32.70328,52895
32.71142,51256
32.71953,56649
32.72765,52893
32.73578,51864
32.74390,48232
32.75203,47570
32.76015,50327
32.76827,44901
32.77640,49693
32.78452,48875
32.79263,47449
32.80077,44818
32.80888,43966
32.81702,48877
32.82513,45259
32.83325,43252
32.84138,45070
32.84950,45754
32.85763,44352
32.86575,43508
32.87387,48202
32.88200,52297
32.89012,47135
32.89823,50030
32.90637,49432
32.91448,49070
32.92262,53184
32.93073,48402
32.93885,48042
32.94698,47591
32.95510,48548
32.96323,49391
32.97135,49687
32.97947,52300
32.98760,53071
32.99572,53397
33.00385,55602
33.01197,50753
33.02008,51504
33.02822,54828
33.03633,50335
33.04445,55154
33.05258,45378
33.06070,49259
33.06883,48620
33.07695,46648
33.08507,49295
33.09320,53969
33.10132,58625
33.10945,62705
33.11757,65257
33.12568,64790
33.13382,59742
33.14193,60854
33.15007,55300
33.15818,55864
33.16630,50511
33.17443,49092
33.18255,46305
33.19067,50476
33.19880,50119
33.20692,49134
33.21505,48810
33.22317,46040
33.23128,47645
33.23942,52601
33.24753,44633
33.25567,53685
33.26378,48248
33.27190,50547
33.28003,47451
33.28815,45546
33.29627,56207
33.30440,50641
33.31252,49943
33.32065,47060
33.32877,46893
33.33688,48776
33.34502,48663
33.35313,52583
33.36127,45945
33.36938,46803
33.37750,51595
33.38563,50193
33.39375,46251
33.40188,46656
33.41000,49594
33.41812,47081
33.42625,49785
33.43437,48557
33.44248,48053
33.45062,43869
33.45873,47338
33.46687,45132
33.47498,47931
33.48310,50130
33.49123,48400
33.49935,48696
33.50748,47620
33.51560,50358
33.52372,47832
33.53185,52579
33.53997,53242
33.54808,54020
33.55622,54938
33.56433,50912
33.57247,50393
33.58058,53802
33.58870,49172
33.59683,47693
33.60495,47849
33.61308,48258
33.62120,49429
33.62932,48079
33.63745,44204
33.64557,47950
33.65370,49040
33.66182,48425
33.66993,48126
33.67807,50112
33.68618,48891
33.69430,48093
33.70243,48631
33.71055,54979
33.71868,45612
33.72680,46679
33.73492,47448
33.74305,51346
33.75117,46526
33.75930,48243
33.76742,46267
33.77553,49691
33.78367,52501
33.79178,52315
33.79992,51919
33.80803,51777
33.81615,55004
33.82428,55680
33.83240,52356
33.84052,52942
33.84865,51902
33.85677,56912
33.86490,56857
33.87302,56170
33.88113,55352
33.88927,58921
33.89738,57009
33.90552,55027
33.91363,56005
33.92175,55165
33.92988,54051
33.93800,57802
33.94612,55814
33.95425,58597
33.96237,59770
33.97050,57849
33.97862,57215
33.98673,56402
33.99487,55267
34.00298,52114
34.01112,59716
34.01923,55880
34.02735,54902
34.03548,56969
34.04360,55619
34.05173,57353
34.05985,53543
34.06797,60164
34.07610,52701
34.08422,59776
34.09233,55569
34.10047,56295
34.10858,54051
34.11672,55253
34.12483,55420
34.13295,55375
34.14108,53840
34.14920,50432
34.15733,54787
34.16545,51580
34.17357,52114
34.18170,52682
34.18982,51453
34.19795,53217
34.20607,53540
34.21418,50664
34.22232,53943
34.23043,51539
34.23855,51603
34.24668,54346
34.25480,53261
34.26293,51964
34.27105,52711
34.27917,49653
34.28730,49248
34.29542,52049
34.30355,50183
34.31167,50968
34.31978,51875
34.32792,53215
34.33603,54495
34.34415,54831
34.35228,51384
34.36040,50146
34.36853,53832
34.37665,56688
34.38477,53955
34.39290,58216
34.40102,55520
34.40915,53881
34.41727,50449
34.42538,51005
34.43352,55521
34.44163,54981
34.44977,60171
34.45788,59714
34.46600,67085
34.47413,77403
34.48225,86465
34.49037,93893
34.49850,102793
34.50662,103842
34.51475,105366
34.52287,105337
34.53098,96865
34.53912,90988
34.54723,86335
34.55537,83870
34.56348,78046
34.57160,78684
34.57973,76938
34.58785,71064
34.59597,70478
34.60410,63401
34.61222,66464
34.62035,65056
34.62847,70401
34.63658,66254
34.64472,67454
34.65283,66201
34.66097,67533
34.66908,63418
34.67720,61593
34.68533,62814
34.69345,68470
34.70158,64790
34.70970,59365
34.71782,64712
34.72595,60250
34.73407,63276
34.74218,63980
34.75032,65404
34.75843,65750
34.76657,63045
34.77468,62332
34.78280,63475
34.79093,63257
34.79905,60059
34.80718,62886
34.81530,62118
34.82342,62796
34.83155,62851
34.83967,61265
34.84780,59077
34.85592,63394
34.86403,61388
34.87217,61656
34.88028,60893
34.88840,59462
34.89653,56966
34.90465,63091
34.91278,65887
34.92090,60597
34.92902,59465
34.93715,60150
34.94527,65793
34.95340,57788
34.96152,61518
34.96963,61800
34.97777,60681
34.98588,65729
34.99402,57496
35.00213,63170
35.01025,63960
35.01838,60032
35.02650,57447
35.03462,58428
35.04275,57162
35.05087,61673
35.05900,57754
35.06712,57769
35.07523,56628
35.08337,62102
35.09148,58454
35.09962,60511
35.10773,62335
35.11585,64349
35.12398,60241
35.13210,68135
35.14022,65898
35.14835,63633
35.15647,66624
35.16460,61727
35.17272,64914
35.18083,64625
35.18897,63594
35.19708,62785
35.20522,61067
35.21333,68793
35.22145,69590
35.22958,62109
35.23770,69178
35.24583,71036
35.25395,68326
35.26207,68378
35.27020,72118
35.27832,70299
35.28643,70144
35.29457,68974
35.30268,65902
35.31082,59298
35.31893,62884
35.32705,59836
35.33518,60758
35.34330,62060
35.35143,61213
35.35955,62994
35.36767,61169
35.37580,58190
35.38392,64323
35.39203,62591
35.40017,68634
35.40828,66162
35.41642,61122
35.42453,68916
35.43265,62909
35.44078,65811
35.44890,66495
35.45703,65257
35.46515,71376
35.47327,69827
35.48140,74803
35.48952,64667
35.49765,66142
35.50577,65051
35.51388,65883
35.52202,61210
35.53013,60207
35.53825,65265
35.54638,63171
35.55450,66466
35.56263,67937
35.57075,69692
35.57887,67179
35.58700,69819
35.59512,71066
35.60325,66315
35.61137,67990
35.61948,69280
35.62762,72134
35.63573,70308
35.64387,65060
35.65198,66694
35.66010,65153
35.66823,66822
35.67635,66301
35.68447,65738
35.69260,64161
35.70072,63299
35.70885,62319
35.71697,64661
35.72508,65981
35.73322,64420
35.74133,65326
35.74947,61147
35.75758,66640
35.76570,63677
35.77383,63871
35.78195,67218
35.79007,68561
35.79820,66603
35.80632,65665
35.81445,67743
35.82257,65239
35.83068,66909
35.83882,61162
35.84693,63891
35.85507,65331
35.86318,66784
35.87130,60340
35.87943,65664
35.88755,65228
35.89568,66124
35.90380,62554
35.91192,65893
35.92005,63090
35.92817,63970
35.93628,65581
35.94442,70217
35.95253,66615
35.96067,64281
35.96878,58313
35.97690,65175
35.98503,68613
35.99315,62362
36.00128,68270
36.00940,70475
36.01752,71326
36.02565,75855
36.03377,68692
36.04190,69331
36.05002,67532
36.05813,70145
36.06627,65832
36.07438,69326
36.08250,66187
36.09063,73718
36.09875,68013
36.10688,67254
36.11500,70710
36.12312,68172
36.13125,70221
36.13937,71506
36.14750,68837
36.15562,65374
36.16373,65261
36.17187,65427
36.17998,66557
36.18810,68366
36.19623,66670
36.20435,69543
36.21248,60219
36.22060,64666
36.22872,67243
36.23685,69370
36.24497,68264
36.25310,76362
36.26122,94096
36.26933,88131
36.27747,88390
36.28558,90695
36.29372,81847
36.30183,72715
36.30995,71497
36.31808,72429
36.32620,71050
36.33432,73097
36.34245,68244
36.35057,69619
36.35870,69598
36.36682,69038
36.37493,69517
36.38307,72076
36.39118,76096
36.39932,75733
36.40743,73166
36.41555,69971
36.42368,72344
36.43180,71955
36.43992,69561
36.44805,67450
36.45617,68270
36.46430,69469
36.47242,68812
36.48053,66433
36.48867,68297
36.49678,70409
36.50492,68040
36.51303,68688
36.52115,70596
36.52928,68736
36.53740,71321
36.54553,71342
36.55365,69148
36.56177,70001
36.56990,68018
36.57802,62531
36.58613,70371
36.59427,73407
36.60238,72334
36.61052,72986
36.61863,74294
36.62675,75257
36.63488,73157
36.64300,71813
36.65113,70024
36.65925,76114
36.66737,67798
36.67550,70397
36.68362,71056
36.69175,68219
36.69987,67000
36.70798,71707
36.71612,67049
36.72423,69679
36.73235,74618
36.74048,70641
36.74860,73544
36.75673,71443
36.76485,68230
36.77297,71662
36.78110,73578
36.78922,69401
36.79735,74631
36.80547,72250
36.81358,75482
36.82172,76889
36.82983,72963
36.83795,72344
36.84608,69895
36.85420,74857
36.86233,74780
36.87045,76805
36.87857,69407
36.88670,76252
36.89482,74213
36.90295,75879
36.91107,75906
36.91918,72370
36.92732,71632
36.93543,77290
36.94357,78333
36.95168,79719
36.95980,79508
36.96793,81550
36.97605,81273
36.98417,82097
36.99230,89973
37.00042,95087
37.00855,107669
37.01667,115141
37.02478,127273
37.03292,132737
37.04103,121610
37.04917,109950
37.05728,102713
37.06540,91384
37.07353,88041
37.08165,82684
37.08978,79645
37.09790,80954
37.10602,82352
37.11415,77600
37.12227,78350
37.13038,83923
37.13852,79321
37.14663,81468
37.15477,82535
37.16288,78439
37.17100,75742
37.17913,78726
37.18725,79128
37.19538,79556
37.20350,77604
37.21162,84898
37.21975,81576
37.22787,78072
37.23598,80022
37.24412,77045
37.25223,78753
37.26037,80510
37.26848,85394
37.27660,92387
37.28473,99642
37.29285,109883
37.30098,117229
37.30910,122201
37.31722,118072
37.32535,118225
37.33347,113441
37.34160,100452
37.34972,108862
37.35783,95947
37.36597,99364
37.37408,92309
37.38220,92607
37.39033,93577
37.39845,91670
37.40658,87871
37.41470,89662
37.42282,92642
37.43095,88782
37.43907,86984
37.44720,90237
37.45532,90624
37.46343,92834
37.47157,87563
37.47968,85584
37.48780,89979
