C:\MassHunter\GCMS\1\data\JTB-E18\JTB-E18-028-06.D Thu Sep 19 10:40:57 2019
Start of data points
2.09515	106141
2.10327	113426
2.11140	104883
2.11952	99530
2.12765	104263
2.13577	99759
2.14388	99380
2.15202	100834
2.16013	93797
2.16827	88818
2.17638	88658
2.18450	90331
2.19263	93465
2.20075	85180
2.20887	86649
2.21700	84275
2.22512	85935
2.23325	84041
2.24137	89558
2.24948	85091
2.25762	86634
2.26573	187080
2.27387	984586
2.28198	1590913
2.29010	909488
2.29823	475245
2.30635	360459
2.31447	307333
2.32260	282619
2.33072	253076
2.33885	244382
2.34697	219143
2.35508	194792
2.36322	196994
2.37133	188358
2.37947	205101
2.38758	231640
2.39570	192143
2.40383	176799
2.41195	174833
2.42008	168049
2.42820	162947
2.43632	154156
2.44445	168575
2.45257	163950
2.46068	148294
2.46882	144795
2.47693	137124
2.48507	140284
2.49318	139120
2.50130	144174
2.50943	133985
2.51755	132803
2.52568	138364
2.53380	134319
2.54192	138337
2.55005	148955
2.55817	177850
2.56630	174489
2.57442	143470
2.58253	138000
2.59067	140116
2.59878	152348
2.60690	358930
2.61503	746351
2.62315	627741
2.63128	379718
2.63940	277657
2.64752	231119
2.65565	209511
2.66377	181689
2.67190	177392
2.68002	187988
2.68813	176458
2.69627	149952
2.70438	144266
2.71250	135024
2.72063	128882
2.72875	136392
2.73688	133600
2.74500	131106
2.75312	126901
2.76125	130997
2.76937	126459
2.77750	136875
2.78562	169819
2.79373	177266
2.80187	153999
2.80998	140732
2.81812	154798
2.82623	258854
2.83435	456947
2.84248	408480
2.85060	257138
2.85872	189590
2.86685	192923
2.87497	172527
2.88310	150081
2.89122	142834
2.89933	134077
2.90747	130572
2.91558	127628
2.92372	128021
2.93183	119447
2.93995	117209
2.94808	116735
2.95620	114260
2.96432	118085
2.97245	126535
2.98057	119805
2.98870	122262
2.99682	126977
3.00493	130617
3.01307	151985
3.02118	165612
3.02932	273889
3.03743	483160
3.04555	693128
3.05368	1857064
3.06180	4632781
3.06993	5108281
3.07805	2989585
3.08617	1643137
3.09430	1584518
3.10242	2206981
3.11053	3585299
3.11867	3766495
3.12678	2531707
3.13492	1723086
3.14303	1355281
3.15115	1098794
3.15928	932276
3.16740	818170
3.17553	732463
3.18365	721153
3.19177	919324
3.19990	1118172
3.20802	949615
3.21615	740822
3.22427	635327
3.23238	561849
3.24052	501913
3.24863	452381
3.25675	411943
3.26488	387057
3.27300	355115
3.28113	372441
3.28925	536339
3.29737	1036139
3.30550	1836532
3.31362	2366857
3.32175	2146156
3.32987	1674455
3.33798	1296410
3.34612	1082956
3.35423	920913
3.36235	814672
3.37048	789064
3.37860	897000
3.38673	960549
3.39485	862423
3.40297	913285
3.41110	1611629
3.41922	2549363
3.42735	2414350
3.43547	1522254
3.44358	912651
3.45172	671014
3.45983	571501
3.46797	528283
3.47608	482252
3.48420	447414
3.49233	400428
3.50045	394927
3.50857	368690
3.51670	348612
3.52482	337522
3.53295	344443
3.54107	340522
3.54918	327118
3.55732	315868
3.56543	300056
3.57357	306328
3.58168	320814
3.58980	305499
3.59793	281686
3.60605	282910
3.61418	303209
3.62230	478758
3.63042	944558
3.63855	1454930
3.64667	1399659
3.65478	944076
3.66292	697791
3.67103	1120980
3.67917	2401226
3.68728	3039539
3.69540	2297986
3.70353	1414577
3.71165	1010382
3.71978	825621
3.72790	720241
3.73602	640305
3.74415	584914
3.75227	541993
3.76038	521356
3.76852	498771
3.77663	497811
3.78477	486103
3.79288	462420
3.80100	515361
3.80913	852024
3.81725	1506319
3.82538	1725375
3.83350	1342170
3.84162	925276
3.84975	750433
3.85787	636556
3.86600	562518
3.87412	503652
3.88223	488450
3.89037	462894
3.89848	439523
3.90660	414323
3.91473	422134
3.92285	469106
3.93098	531774
3.93910	546011
3.94722	529594
3.95535	682799
3.96347	1100073
3.97160	1441739
3.97972	1237452
3.98783	846140
3.99597	685729
4.00408	975201
4.01220	1731315
4.02033	2214752
4.02845	1838163
4.03658	1148725
4.04470	736322
4.05282	570279
4.06095	485599
4.06907	444688
4.07720	408011
4.08532	370404
4.09343	363287
4.10157	331658
4.10968	321201
4.11782	307325
4.12593	297046
4.13405	297572
4.14218	318782
4.15030	383676
4.15842	421695
4.16655	399158
4.17467	366705
4.18280	328044
4.19092	308058
4.19903	281698
4.20717	317157
4.21528	754716
4.22342	2767088
4.23153	7204740
4.23965	1.171169E+07
4.24778	1.283215E+07
4.25590	9967228
4.26403	6440689
4.27215	4365136
4.28027	3176134
4.28840	2376926
4.29652	1881563
4.30463	1530006
4.31277	1270022
4.32088	1075704
4.32902	970110
4.33713	856274
4.34525	769237
4.35338	740344
4.36150	690617
4.36963	651741
4.37775	600305
4.38587	545517
4.39400	502658
4.40212	478099
4.41025	456134
4.41837	431619
4.42648	412059
4.43462	407437
4.44273	382376
4.45085	392529
4.45898	389777
4.46710	373706
4.47523	367712
4.48335	350719
4.49147	344981
4.49960	325012
4.50772	320723
4.51585	305818
4.52397	307548
4.53208	298052
4.54022	288278
4.54833	280296
4.55645	280582
4.56458	278754
4.57270	266319
4.58083	272456
4.58895	259515
4.59707	254111
4.60520	250869
4.61332	245544
4.62145	262935
4.62957	291451
4.63768	386547
4.64582	457580
4.65393	446540
4.66207	362109
4.67018	310375
4.67830	275184
4.68643	259114
4.69455	243288
4.70267	244166
4.71080	233769
4.71892	229193
4.72705	224325
4.73517	221023
4.74328	225696
4.75142	220747
4.75953	221955
4.76767	215062
4.77578	202628
4.78390	213490
4.79203	221783
4.80015	254808
4.80827	314818
4.81640	349571
4.82452	321992
4.83265	287057
4.84077	273489
4.84888	272752
4.85702	255953
4.86513	243146
4.87327	232463
4.88138	225626
4.88950	209822
4.89763	219355
4.90575	209103
4.91388	213293
4.92200	217529
4.93012	265144
4.93825	381311
4.94637	584930
4.95448	824141
4.96262	937636
4.97073	874537
4.97887	737777
4.98698	606282
4.99510	504265
5.00323	439777
5.01135	406900
5.01948	379307
5.02760	418051
5.03572	534007
5.04385	703592
5.05197	787509
5.06010	717022
5.06822	592949
5.07633	508114
5.08447	439596
5.09258	405601
5.10070	401399
5.10883	422910
5.11695	434759
5.12508	450432
5.13320	432020
5.14132	391585
5.14945	354858
5.15757	347868
5.16570	365970
5.17382	388442
5.18193	421402
5.19007	438009
5.19818	435100
5.20630	418412
5.21443	388981
5.22255	350327
5.23068	339478
5.23880	335694
5.24692	344210
5.25505	337895
5.26317	311833
5.27130	284185
5.27942	269283
5.28753	254969
5.29567	255587
5.30378	245061
5.31192	247131
5.32003	238453
5.32815	244038
5.33628	244296
5.34440	249795
5.35252	249457
5.36065	236888
5.36877	232235
5.37690	225075
5.38502	220085
5.39313	223285
5.40127	222265
5.40938	220056
5.41752	216054
5.42563	203517
5.43375	197117
5.44188	199210
5.45000	207125
5.45813	201485
5.46625	207458
5.47437	204705
5.48250	198916
5.49062	197634
5.49873	193049
5.50687	194635
5.51498	198280
5.52312	194707
5.53123	201594
5.53935	193665
5.54748	196621
5.55560	191246
5.56373	199340
5.57185	210888
5.57997	201669
5.58810	211585
5.59622	203592
5.60433	196044
5.61247	192150
5.62058	202585
5.62872	198652
5.63683	211199
5.64495	216056
5.65308	210080
5.66120	198217
5.66933	194970
5.67745	194679
5.68557	228016
5.69370	263578
5.70182	291946
5.70995	288662
5.71807	272239
5.72618	271253
5.73432	268937
5.74243	259543
5.75055	247569
5.75868	230053
5.76680	243271
5.77493	252589
5.78305	244212
5.79117	236278
5.79930	225308
5.80742	261774
5.81555	355467
5.82367	585448
5.83178	856396
5.83992	1045839
5.84803	1011018
5.85615	805504
5.86428	569512
5.87240	402134
5.88053	310241
5.88865	264646
5.89677	246304
5.90490	233684
5.91302	239185
5.92115	304425
5.92927	418793
5.93738	484818
5.94552	511563
5.95363	446307
5.96177	358591
5.96988	298373
5.97800	269774
5.98613	262894
5.99425	270465
6.00237	273932
6.01050	243287
6.01862	216156
6.02675	197953
6.03487	182573
6.04298	164933
6.05112	159163
6.05923	158475
6.06737	153004
6.07548	150030
6.08360	143723
6.09173	144416
6.09985	138422
6.10798	134426
6.11610	140403
6.12422	142190
6.13235	167078
6.14047	219515
6.14858	286316
6.15672	314515
6.16483	284603
6.17297	246203
6.18108	210941
6.18920	195337
6.19733	197974
6.20545	203806
6.21358	208102
6.22170	195351
6.22982	182263
6.23795	180445
6.24607	172844
6.25418	168136
6.26232	181762
6.27043	174244
6.27857	181261
6.28668	176391
6.29480	180250
6.30293	170127
6.31105	172866
6.31918	182824
6.32730	203708
6.33542	227308
6.34355	262375
6.35167	275148
6.35980	268123
6.36792	253337
6.37603	222811
6.38417	210867
6.39228	204491
6.40040	203467
6.40853	197870
6.41665	207331
6.42478	202230
6.43290	207888
6.44102	207866
6.44915	213957
6.45727	217660
6.46540	219197
6.47352	220770
6.48163	221780
6.48977	219594
6.49788	223514
6.50602	228986
6.51413	229066
6.52225	228470
6.53038	230467
6.53850	242775
6.54662	234751
6.55475	241434
6.56287	245154
6.57100	243519
6.57912	239282
6.58723	255795
6.59537	256496
6.60348	242266
6.61162	243041
6.61973	242240
6.62785	240810
6.63598	241906
6.64410	239698
6.65222	247985
6.66035	249274
6.66847	254599
6.67660	268609
6.68472	286985
6.69283	309302
6.70097	350052
6.70908	364328
6.71722	342776
6.72533	305531
6.73345	271607
6.74158	201940
6.74970	181427
6.75783	161037
6.76595	160550
6.77407	156306
6.78220	159523
6.79032	194540
6.79843	287295
6.80657	429513
6.81468	626704
6.82282	747269
6.83093	720319
6.83905	566320
6.84718	397927
6.85530	271917
6.86343	198852
6.87155	167029
6.87967	149607
6.88780	135582
6.89592	125216
6.90405	106263
6.91217	105521
6.92028	100509
6.92842	104340
6.93653	126625
6.94465	157473
6.95278	215881
6.96090	272522
6.96903	315482
6.97715	334225
6.98527	298293
6.99340	230434
7.00152	185477
7.00965	148885
7.01777	122512
7.02588	111311
7.03402	101523
7.04213	106517
7.05025	100211
7.05838	99763
7.06650	97904
7.07463	93801
7.08275	94712
7.09087	89210
7.09900	85975
7.10712	89051
7.11525	92093
7.12337	95458
7.13148	90349
7.13962	91911
7.14773	95248
7.15587	108116
7.16398	123131
7.17210	152265
7.18023	153025
7.18835	152727
7.19647	158972
7.20460	173327
7.21272	223179
7.22085	378910
7.22897	680475
7.23708	1006992
7.24522	1111559
7.25333	900253
7.26147	627931
7.26958	410531
7.27770	279068
7.28583	223590
7.29395	164832
7.30207	147662
7.31020	142744
7.31832	171590
7.32645	207301
7.33457	246513
7.34268	263936
7.35082	238811
7.35893	193733
7.36707	165172
7.37518	137876
7.38330	122552
7.39143	120293
7.39955	116869
7.40768	115708
7.41580	126771
7.42392	136259
7.43205	154252
7.44017	171496
7.44828	180756
7.45642	162800
7.46453	150853
7.47267	131400
7.48078	114545
7.48890	103146
7.49703	95812
7.50515	93843
7.51328	90976
7.52140	90571
7.52952	99031
7.53765	112982
7.54577	125829
7.55390	146334
7.56202	164918
7.57013	165245
7.57827	152831
7.58638	135118
7.59450	116986
7.60263	103864
7.61075	96633
7.61888	91771
7.62700	89932
7.63512	84781
7.64325	83696
7.65137	89857
7.65950	79581
7.66762	82627
7.67573	82599
7.68387	78204
7.69198	79348
7.70010	80188
7.70823	79534
7.71635	80996
7.72448	79077
7.73260	78701
7.74072	77596
7.74885	71897
7.75697	73785
7.76510	75695
7.77322	75944
7.78133	75281
7.78947	76431
7.79758	78244
7.80572	79419
7.81383	72105
7.82195	80147
7.83008	79986
7.83820	73354
7.84632	74343
7.85445	74130
7.86257	74391
7.87070	78063
7.87882	73501
7.88693	75854
7.89507	74129
7.90318	75237
7.91132	76382
7.91943	76928
7.92755	82032
7.93568	90477
7.94380	108333
7.95193	119779
7.96005	129735
7.96817	112364
7.97630	98205
7.98442	84665
7.99253	75418
8.00067	74352
8.00878	67741
8.01692	69493
8.02503	75138
8.03315	70754
8.04128	70518
8.04940	68926
8.05753	68412
8.06565	65400
8.07377	63130
8.08190	65116
8.09002	65207
8.09813	63443
8.10627	65860
8.11438	60856
8.12252	62393
8.13063	66755
8.13875	68896
8.14688	70313
8.15500	75274
8.16313	79217
8.17125	74150
8.17937	68510
8.18750	68372
8.19562	64707
8.20375	65081
8.21187	66934
8.21998	63381
8.22812	67121
8.23623	64259
8.24435	65271
8.25248	64663
8.26060	62772
8.26873	64614
8.27685	59758
8.28497	58923
8.29310	61307
8.30122	63536
8.30935	63989
8.31747	62854
8.32558	74690
8.33372	70140
8.34183	70240
8.34995	67269
8.35808	64666
8.36620	66509
8.37433	60945
8.38245	59068
8.39057	58366
8.39870	60448
8.40682	63585
8.41495	59262
8.42307	60125
8.43118	58499
8.43932	58547
8.44743	57035
8.45557	57431
8.46368	58980
8.47180	60314
8.47993	63975
8.48805	61987
8.49617	62497
8.50430	63855
8.51242	66165
8.52055	73678
8.52867	92851
8.53678	143783
8.54492	230303
8.55303	317808
8.56117	352628
8.56928	304875
8.57740	223173
8.58553	145321
8.59365	105611
8.60178	87992
8.60990	81439
8.61802	78251
8.62615	79311
8.63427	75890
8.64238	72147
8.65052	71449
8.65863	67548
8.66677	71959
8.67488	70576
8.68300	71343
8.69113	76885
8.69925	78006
8.70738	75872
8.71550	73070
8.72362	71360
8.73175	75518
8.73987	88596
8.74798	132433
8.75612	197247
8.76423	272372
8.77237	291454
8.78048	274719
8.78860	227935
8.79673	179655
8.80485	136818
8.81298	113581
8.82110	107767
8.82922	106609
8.83735	114705
8.84547	111206
8.85360	106027
8.86172	107947
8.86983	97435
8.87797	101697
8.88608	93525
8.89420	97225
8.90233	95828
8.91045	93125
8.91858	91232
8.92670	91772
8.93482	98168
8.94295	103445
8.95107	110008
8.95920	108460
8.96732	101697
8.97543	102514
8.98357	99407
8.99168	96249
8.99982	92923
9.00793	95273
9.01605	85027
9.02418	88393
9.03230	89845
9.04042	80759
9.04855	82798
9.05667	84934
9.06480	81610
9.07292	79375
9.08103	82789
9.08917	83173
9.09728	81700
9.10542	84893
9.11353	85659
9.12165	90842
9.12978	90113
9.13790	88439
9.14602	87451
9.15415	82185
9.16227	79561
9.17040	82987
9.17852	78892
9.18663	78076
9.19477	74965
9.20288	73669
9.21102	70936
9.21913	75446
9.22725	74642
9.23538	70542
9.24350	69793
9.25163	73091
9.25975	73682
9.26787	83354
9.27600	89990
9.28412	98085
9.29223	103137
9.30037	98733
9.30848	85766
9.31662	85561
9.32473	76446
9.33285	71786
9.34098	76056
9.34910	83397
9.35723	79189
9.36535	69653
9.37347	72818
9.38160	70480
9.38972	74511
9.39783	71787
9.40597	69639
9.41408	76356
9.42222	74584
9.43033	78885
9.43845	85199
9.44658	90691
9.45470	81700
9.46283	81781
9.47095	72058
9.47907	70795
9.48720	65896
9.49532	68050
9.50345	68511
9.51157	70338
9.51968	82639
9.52782	87721
9.53593	77119
9.54405	77276
9.55218	68347
9.56030	58813
9.56843	58859
9.57655	58362
9.58467	58607
9.59280	57161
9.60092	53928
9.60905	57822
9.61717	54938
9.62528	54067
9.63342	60831
9.64153	62383
9.64967	66748
9.65778	67380
9.66590	58640
9.67403	54035
9.68215	54208
9.69027	51362
9.69840	53036
9.70652	51418
9.71465	48842
9.72277	48854
9.73088	47839
9.73902	47243
9.74713	46917
9.75527	43813
9.76338	52734
9.77150	47390
9.77963	46198
9.78775	50351
9.79588	46994
9.80400	43828
9.81212	44615
9.82025	46746
9.82837	49700
9.83648	47626
9.84462	47357
9.85273	49697
9.86087	45483
9.86898	48906
9.87710	48818
9.88523	52849
9.89335	48835
9.90148	49854
9.90960	49659
9.91772	50155
9.92585	51937
9.93397	61483
9.94208	73965
9.95022	85812
9.95833	99772
9.96647	100777
9.97458	97927
9.98270	82629
9.99083	74018
9.99895	64905
10.00708	58360
10.01520	61296
10.02332	50709
10.03145	53978
10.03957	54404
10.04770	52242
10.05582	49483
10.06393	54048
10.07207	51092
10.08018	51688
10.08830	51865
10.09643	51449
10.10455	48445
10.11268	53794
10.12080	50446
10.12892	47963
10.13705	44728
10.14517	49300
10.15330	50616
10.16142	48012
10.16953	49280
10.17767	43493
10.18578	47871
10.19390	46882
10.20203	45768
10.21015	44488
10.21828	45358
10.22640	43771
10.23452	48793
10.24265	47838
10.25077	60824
10.25890	59350
10.26702	82946
10.27513	153225
10.28327	309320
10.29138	591983
10.29952	988839
10.30763	1532389
10.31575	2406716
10.32388	3884822
10.33200	5792708
10.34012	7059754
10.34825	6886948
10.35637	5298132
10.36450	3201863
10.37262	1733516
10.38073	947459
10.38887	605007
10.39698	423234
10.40512	345657
10.41323	270076
10.42135	233488
10.42948	206743
10.43760	178201
10.44573	158893
10.45385	161732
10.46197	147417
10.47010	135370
10.47822	130651
10.48633	127038
10.49447	116533
10.50258	111093
10.51072	118968
10.51883	111891
10.52695	109717
10.53508	102963
10.54320	101292
10.55133	94911
10.55945	88566
10.56757	96320
10.57570	87978
10.58382	85539
10.59193	83736
10.60007	82387
10.60818	84447
10.61632	76952
10.62443	74755
10.63255	75455
10.64068	72064
10.64880	70507
10.65693	71901
10.66505	71936
10.67317	67791
10.68130	68371
10.68942	70101
10.69755	74932
10.70567	72001
10.71378	71630
10.72192	68079
10.73003	68302
10.73815	69191
10.74628	64006
10.75440	63889
10.76253	69404
10.77065	62655
10.77877	63067
10.78690	59845
10.79502	59001
10.80315	54834
10.81127	57295
10.81938	60996
10.82752	57898
10.83563	55837
10.84377	50991
10.85188	54342
10.86000	54344
10.86813	56583
10.87625	55729
10.88437	48515
10.89250	47871
10.90062	51261
10.90875	49919
10.91687	48336
10.92498	45356
10.93312	50521
10.94123	48978
10.94937	49049
10.95748	50577
10.96560	54265
10.97373	51427
10.98185	52753
10.98997	50611
10.99810	51263
11.00622	51255
11.01435	46517
11.02247	44740
11.03058	48524
11.03872	45384
11.04683	45542
11.05497	46825
11.06308	50731
11.07120	51656
11.07933	58287
11.08745	59963
11.09558	61848
11.10370	60936
11.11182	60659
11.11995	61748
11.12807	59447
11.13618	59121
11.14432	59657
11.15243	64056
11.16057	64244
11.16868	64722
11.17680	64319
11.18493	66335
11.19305	64596
11.20118	61733
11.20930	69738
11.21742	68594
11.22555	61273
11.23367	60515
11.24178	61504
11.24992	58917
11.25803	64131
11.26617	70786
11.27428	82616
11.28240	103125
11.29053	118195
11.29865	130820
11.30678	131520
11.31490	144463
11.32302	140340
11.33115	155179
11.33927	177599
11.34740	178642
11.35552	172453
11.36363	155844
11.37177	144279
11.37988	115697
11.38800	105173
11.39613	88943
11.40425	83246
11.41238	80515
11.42050	77537
11.42862	76405
11.43675	76449
11.44487	75205
11.45300	67880
11.46112	65822
11.46923	64058
11.47737	70827
11.48548	74736
11.49362	93473
11.50173	101433
11.50985	112118
11.51798	103582
11.52610	103896
11.53422	91997
11.54235	89204
11.55047	89477
11.55860	89578
11.56672	86030
11.57483	78827
11.58297	76334
11.59108	67772
11.59922	73567
11.60733	84116
11.61545	89728
11.62358	101344
11.63170	103525
11.63982	94581
11.64795	82784
11.65607	81421
11.66420	76803
11.67232	75102
11.68043	74909
11.68857	80178
11.69668	84766
11.70482	83712
11.71293	90597
11.72105	92920
11.72918	89950
11.73730	89240
11.74543	84258
11.75355	76104
11.76167	71731
11.76980	71968
11.77792	69741
11.78603	66367
11.79417	64802
11.80228	63367
11.81042	66870
11.81853	64002
11.82665	65970
11.83478	62622
11.84290	56571
11.85103	61086
11.85915	54713
11.86727	54042
11.87540	56147
11.88352	54257
11.89165	52561
11.89977	54835
11.90788	51851
11.91602	53596
11.92413	60722
11.93225	63410
11.94038	70344
11.94850	67371
11.95663	71036
11.96475	56275
11.97287	59426
11.98100	51314
11.98912	55164
11.99725	66183
12.00537	75871
12.01348	86005
12.02162	90765
12.02973	87441
12.03785	74954
12.04598	65805
12.05410	61258
12.06223	56017
12.07035	53360
12.07847	51074
12.08660	50001
12.09472	56648
12.10285	47612
12.11097	49916
12.11908	48829
12.12722	48914
12.13533	52156
12.14347	50647
12.15158	47392
12.15970	51153
12.16783	50797
12.17595	47422
12.18407	51262
12.19220	47131
12.20032	42490
12.20845	44888
12.21657	46626
12.22468	46569
12.23282	45257
12.24093	48342
12.24907	46475
12.25718	44877
12.26530	45833
12.27343	47146
12.28155	46010
12.28968	51710
12.29780	48746
12.30592	49096
12.31405	47064
12.32217	47745
12.33028	48854
12.33842	50684
12.34653	46997
12.35467	49060
12.36278	52257
12.37090	50858
12.37903	52562
12.38715	48247
12.39528	49132
12.40340	52467
12.41152	62697
12.41965	73673
12.42777	76893
12.43588	83545
12.44402	75575
12.45213	70435
12.46027	66111
12.46838	57826
12.47650	53683
12.48463	53500
12.49275	52909
12.50088	52066
12.50900	46850
12.51712	47096
12.52525	44846
12.53337	45979
12.54150	53638
12.54962	57423
12.55773	73476
12.56587	79085
12.57398	86830
12.58210	91880
12.59023	80839
12.59835	71704
12.60648	62913
12.61460	56613
12.62272	53477
12.63085	53055
12.63897	51536
12.64710	49003
12.65522	48463
12.66333	41290
12.67147	45748
12.67958	44335
12.68770	44811
12.69583	43622
12.70395	41774
12.71208	46006
12.72020	44811
12.72832	47877
12.73645	49469
12.74457	51323
12.75270	48965
12.76082	50318
12.76893	46909
12.77707	46393
12.78518	48579
12.79332	47720
12.80143	51026
12.80955	50365
12.81768	44985
12.82580	45741
12.83392	44484
12.84205	46279
12.85017	49942
12.85830	43786
12.86642	41103
12.87453	37533
12.88267	39678
12.89078	39230
12.89892	34811
12.90703	35933
12.91515	40744
12.92328	38933
12.93140	38224
12.93953	44517
12.94765	55873
12.95577	67777
12.96390	79581
12.97202	92227
12.98013	93252
12.98827	91252
12.99638	83333
13.00452	69396
13.01263	67844
13.02075	62512
13.02888	56800
13.03700	53632
13.04513	53438
13.05325	54697
13.06137	50404
13.06950	46973
13.07762	46094
13.08573	43911
13.09387	41341
13.10198	38291
13.11012	40827
13.11823	42873
13.12635	43728
13.13448	39714
13.14260	41234
13.15073	38765
13.15885	40915
13.16697	39276
13.17510	42119
13.18322	41648
13.19135	39977
13.19947	42482
13.20758	39020
13.21572	41241
13.22383	42316
13.23195	39694
13.24008	41957
13.24820	47274
13.25633	45902
13.26445	48270
13.27257	53111
13.28070	48182
13.28882	46764
13.29695	40421
13.30507	46154
13.31318	49058
13.32132	50547
13.32943	47898
13.33757	48694
13.34568	52791
13.35380	46105
13.36193	43213
13.37005	41000
13.37817	38725
13.38630	41983
13.39442	40522
13.40255	37940
13.41067	41489
13.41878	39534
13.42692	37872
13.43503	39598
13.44317	39104
13.45128	38832
13.45940	39116
13.46753	38534
13.47565	34327
13.48377	35961
13.49190	34655
13.50002	35830
13.50815	35253
13.51627	35040
13.52438	35318
13.53252	36883
13.54063	46345
13.54877	43278
13.55688	47795
13.56500	45978
13.57313	45642
13.58125	43941
13.58938	45792
13.59750	47774
13.60562	59270
13.61375	71422
13.62187	89408
13.62998	99218
13.63812	104017
13.64623	94333
13.65437	77281
13.66248	65611
13.67060	56101
13.67873	49469
13.68685	48552
13.69498	47139
13.70310	47296
13.71122	47847
13.71935	42835
13.72747	45657
13.73558	48430
13.74372	59603
13.75183	87248
13.75997	143295
13.76808	235460
13.77620	365796
13.78433	453944
13.79245	489716
13.80058	450444
13.80870	343164
13.81682	262341
13.82495	211824
13.83307	188982
13.84120	170387
13.84932	158302
13.85743	128847
13.86557	113587
13.87368	101565
13.88180	93328
13.88993	92420
13.89805	80269
13.90618	81696
13.91430	79554
13.92242	74990
13.93055	72761
13.93867	67809
13.94680	66708
13.95492	60529
13.96303	56690
13.97117	64714
13.97928	58280
13.98742	66414
13.99553	62246
14.00365	58971
14.01178	56110
14.01990	56398
14.02802	58558
14.03615	54011
14.04427	57687
14.05240	53542
14.06052	58563
14.06863	51477
14.07677	50298
14.08488	44333
14.09302	49925
14.10113	45978
14.10925	44569
14.11738	46481
14.12550	45684
14.13362	49242
14.14175	52862
14.14987	62603
14.15800	81333
14.16612	104233
14.17423	121415
14.18237	126381
14.19048	127373
14.19862	121689
14.20673	110150
14.21485	99537
14.22298	92878
14.23110	91971
14.23923	90220
14.24735	81973
14.25547	83490
14.26360	82377
14.27172	72504
14.27983	70488
14.28797	63885
14.29608	61537
14.30422	59379
14.31233	60562
14.32045	56184
14.32858	49909
14.33670	44806
14.34483	45019
14.35295	41715
14.36107	43594
14.36920	39236
14.37732	40022
14.38545	42783
14.39357	44589
14.40168	59239
14.40982	82477
14.41793	109000
14.42605	123805
14.43418	130665
14.44230	122383
14.45043	99993
14.45855	84688
14.46667	67441
14.47480	55400
14.48292	52074
14.49105	50849
14.49917	45793
14.50728	48711
14.51542	46441
14.52353	48088
14.53165	44648
14.53978	46780
14.54790	43657
14.55603	41096
14.56415	43670
14.57227	44285
14.58040	38856
14.58852	43014
14.59665	37911
14.60477	35083
14.61288	38917
14.62102	36862
14.62913	38005
14.63727	39707
14.64538	38037
14.65350	34616
14.66163	35891
14.66975	41582
14.67787	39608
14.68600	39457
14.69412	36599
14.70225	40606
14.71037	35144
14.71848	34381
14.72662	35960
14.73473	37335
14.74287	37265
14.75098	34799
14.75910	40166
14.76723	41527
14.77535	42071
14.78347	39486
14.79160	53595
14.79972	94610
14.80785	184911
14.81597	381326
14.82408	689695
14.83222	960984
14.84033	1038870
14.84847	906160
14.85658	666710
14.86470	447242
14.87283	278432
14.88095	199791
14.88908	149885
14.89720	129005
14.90532	109656
14.91345	96652
14.92157	90808
14.92968	82500
14.93782	80427
14.94593	73475
14.95407	78170
14.96218	71485
14.97030	68586
14.97843	64877
14.98655	60362
14.99468	60176
15.00280	57674
15.01092	58338
15.01905	57232
15.02717	56346
15.03530	53341
15.04342	50891
15.05153	50991
15.05967	50043
15.06778	48650
15.07590	49685
15.08403	47486
15.09215	47216
15.10028	46334
15.10840	41803
15.11652	44928
15.12465	47689
15.13277	47822
15.14090	48765
15.14902	54126
15.15713	52603
15.16527	48158
15.17338	48412
15.18152	41352
15.18963	40751
15.19775	41756
15.20588	40138
15.21400	39225
15.22212	39618
15.23025	40590
15.23837	34572
15.24650	37879
15.25462	35618
15.26273	35719
15.27087	36106
15.27898	34864
15.28712	37292
15.29523	35204
15.30335	34318
15.31148	34338
15.31960	38584
15.32772	34101
15.33585	35095
15.34397	37043
15.35210	32153
15.36022	30583
15.36833	34664
15.37647	36828
15.38458	35546
15.39272	36532
15.40083	35286
15.40895	34434
15.41708	35976
15.42520	34423
15.43333	30932
15.44145	33265
15.44957	35580
15.45770	31197
15.46582	36997
15.47393	41249
15.48207	43782
15.49018	49472
15.49832	56142
15.50643	54112
15.51455	50702
15.52268	49875
15.53080	45701
15.53893	43146
15.54705	39003
15.55517	37402
15.56330	35773
15.57142	37426
15.57953	33868
15.58767	34343
15.59578	38059
15.60392	35657
15.61203	33752
15.62015	34496
15.62828	34904
15.63640	34895
15.64453	33433
15.65265	32434
15.66077	33681
15.66890	34091
15.67702	33461
15.68515	34422
15.69327	32630
15.70138	32165
15.70952	32670
15.71763	35347
15.72575	33558
15.73388	40646
15.74200	40426
15.75013	49058
15.75825	63208
15.76637	81702
15.77450	111363
15.78262	141683
15.79075	177989
15.79887	175015
15.80698	149407
15.81512	113632
15.82323	89883
15.83137	72951
15.83948	60522
15.84760	56259
15.85573	51240
15.86385	51556
15.87197	51397
15.88010	49470
15.88822	48928
15.89635	52703
15.90447	47091
15.91258	46560
15.92072	46884
15.92883	44413
15.93697	45202
15.94508	44074
15.95320	45786
15.96133	46666
15.96945	50114
15.97757	52396
15.98570	53755
15.99382	53826
16.00195	55699
16.01007	62108
16.01818	62170
16.02632	64062
16.03443	60839
16.04257	60497
16.05068	57583
16.05880	47853
16.06693	48193
16.07505	47345
16.08318	44820
16.09130	39601
16.09942	45088
16.10755	40623
16.11567	40956
16.12378	42061
16.13192	41877
16.14003	42248
16.14817	41098
16.15628	45716
16.16440	38407
16.17253	41303
16.18065	37474
16.18878	34693
16.19690	34362
16.20502	35669
16.21315	37856
16.22127	39155
16.22940	39106
16.23752	36402
16.24563	35074
16.25377	36646
16.26188	33856
16.27000	35179
16.27813	35481
16.28625	40709
16.29438	35023
16.30250	38491
16.31062	40807
16.31875	39133
16.32687	39024
16.33500	37417
16.34312	40001
16.35123	37830
16.35937	40053
16.36748	42144
16.37560	45363
16.38373	43284
16.39185	45377
16.39998	40219
16.40810	44032
16.41622	37169
16.42435	34854
16.43247	38639
16.44060	40415
16.44872	45658
16.45683	57500
16.46497	79031
16.47308	107519
16.48122	123828
16.48933	143798
16.49745	132922
16.50558	108995
16.51370	86515
16.52182	67318
16.52995	54095
16.53807	50480
16.54620	46891
16.55432	47740
16.56243	46312
16.57057	48323
16.57868	43616
16.58682	44091
16.59493	43399
16.60305	51178
16.61118	48763
16.61930	47563
16.62742	48474
16.63555	49946
16.64367	45446
16.65180	39571
16.65992	42636
16.66803	39681
16.67617	38566
16.68428	38333
16.69242	40479
16.70053	38717
16.70865	35197
16.71678	33990
16.72490	37211
16.73303	36730
16.74115	36566
16.74927	38788
16.75740	37181
16.76552	37377
16.77363	39053
16.78177	38912
16.78988	39474
16.79802	39131
16.80613	40287
16.81425	36487
16.82238	34697
16.83050	37441
16.83863	35177
16.84675	36789
16.85487	36528
16.86300	36130
16.87112	37975
16.87925	34066
16.88737	32269
16.89548	35248
16.90362	33147
16.91173	34070
16.91985	35543
16.92798	36252
16.93610	36103
16.94423	33164
16.95235	34691
16.96047	35398
16.96860	32756
16.97672	34933
16.98485	36635
16.99297	34686
17.00108	31770
17.00922	33459
17.01733	31665
17.02545	35836
17.03358	33970
17.04170	38732
17.04983	37340
17.05795	35174
17.06607	37181
17.07420	38286
17.08232	36477
17.09045	37237
17.09857	33900
17.10668	34894
17.11482	37687
17.12293	38685
17.13107	39077
17.13918	38738
17.14730	37347
17.15543	38917
17.16355	35710
17.17167	32775
17.17980	35595
17.18792	35259
17.19605	35978
17.20417	33967
17.21228	32279
17.22042	32387
17.22853	33343
17.23667	32819
17.24478	36646
17.25290	34735
17.26103	34561
17.26915	35117
17.27728	33247
17.28540	33960
17.29352	32601
17.30165	33183
17.30977	36467
17.31788	38437
17.32602	35570
17.33413	35350
17.34227	42986
17.35038	42225
17.35850	36519
17.36663	41954
17.37475	40044
17.38288	38385
17.39100	41183
17.39912	38889
17.40725	41504
17.41537	42904
17.42348	42587
17.43162	38580
17.43973	39987
17.44787	38057
17.45598	36587
17.46410	36505
17.47223	36865
17.48035	36724
17.48848	35263
17.49660	33766
17.50472	39068
17.51285	39538
17.52097	40819
17.52910	43632
17.53722	45790
17.54533	50212
17.55347	53526
17.56158	57952
17.56970	64837
17.57783	81755
17.58595	102311
17.59408	134134
17.60220	157037
17.61032	172964
17.61845	158775
17.62657	140956
17.63470	113448
17.64282	95740
17.65093	80482
17.65907	72047
17.66718	69238
17.67532	65905
17.68343	62681
17.69155	58218
17.69968	55769
17.70780	57806
17.71592	52648
17.72405	48415
17.73217	47762
17.74030	48571
17.74842	44428
17.75653	44375
17.76467	45707
17.77278	43724
17.78092	44779
17.78903	46776
17.79715	41744
17.80528	42428
17.81340	48493
17.82152	45725
17.82965	43008
17.83777	45432
17.84590	49871
17.85402	48862
17.86213	53417
17.87027	50840
17.87838	49177
17.88652	51427
17.89463	44774
17.90275	43524
17.91088	41533
17.91900	41161
17.92713	38182
17.93525	38094
17.94337	38974
17.95150	39032
17.95962	38297
17.96773	36873
17.97587	38316
17.98398	37493
17.99212	36384
18.00023	39100
18.00835	42811
18.01648	45473
18.02460	48454
18.03273	55886
18.04085	61348
18.04897	74291
18.05710	101220
18.06522	157549
18.07333	255626
18.08147	390265
18.08958	524253
18.09772	610959
18.10583	641540
18.11395	598479
18.12208	540813
18.13020	460469
18.13833	411290
18.14645	374627
18.15457	360925
18.16270	345700
18.17082	326802
18.17895	318905
18.18707	301986
18.19518	296678
18.20332	295120
18.21143	285213
18.21955	274486
18.22768	262027
18.23580	263616
18.24393	253854
18.25205	246707
18.26017	241186
18.26830	240661
18.27642	226893
18.28455	221859
18.29267	214199
18.30078	211659
18.30892	203905
18.31703	191199
18.32517	190038
18.33328	193284
18.34140	177956
18.34953	175052
18.35765	175873
18.36577	173533
18.37390	168778
18.38202	163872
18.39015	167202
18.39827	162117
18.40638	157693
18.41452	148229
18.42263	153877
18.43077	154365
18.43888	146474
18.44700	151660
18.45513	161757
18.46325	163784
18.47137	172279
18.47950	175672
18.48762	185312
18.49575	177150
18.50387	164623
18.51198	152834
18.52012	136933
18.52823	125636
18.53637	125297
18.54448	121954
18.55260	112633
18.56073	113696
18.56885	109466
18.57698	105890
18.58510	109717
18.59322	108895
18.60135	106850
18.60947	109323
18.61758	104001
18.62572	102365
18.63383	99355
18.64197	99041
18.65008	95242
18.65820	91058
18.66633	88507
18.67445	90553
18.68258	90402
18.69070	90883
18.69882	80756
18.70695	82521
18.71507	81337
18.72320	84244
18.73132	77245
18.73943	81097
18.74757	76319
18.75568	75398
18.76380	78623
18.77193	76827
18.78005	71661
18.78818	71392
18.79630	70573
18.80442	73184
18.81255	71613
18.82067	68662
18.82880	64930
18.83692	69417
18.84503	67602
18.85317	66821
18.86128	65347
18.86940	63290
18.87753	62320
18.88565	63025
18.89378	65756
18.90190	62997
18.91002	65968
18.91815	63892
18.92627	63088
18.93440	60168
18.94252	65499
18.95063	61028
18.95877	65125
18.96688	63065
18.97502	58095
18.98313	60556
18.99125	62774
18.99938	61199
19.00750	58846
19.01562	57016
19.02375	57761
19.03187	54820
19.04000	55178
19.04812	56886
19.05623	59351
19.06437	66527
19.07248	77362
19.08062	104227
19.08873	133208
19.09685	176061
19.10498	192961
19.11310	203580
19.12122	179099
19.12935	150071
19.13747	123103
19.14560	109255
19.15372	99471
19.16183	87161
19.16997	87947
19.17808	85235
19.18622	77224
19.19433	74123
19.20245	67957
19.21058	62465
19.21870	59494
19.22683	57379
19.23495	59689
19.24307	58023
19.25120	53390
19.25932	55906
19.26743	55764
19.27557	57016
19.28368	57615
19.29182	61526
19.29993	58885
19.30805	60274
19.31618	58814
19.32430	53899
19.33243	51991
19.34055	53990
19.34867	56966
19.35680	56450
19.36492	58198
19.37305	62779
19.38117	62901
19.38928	66462
19.39742	63397
19.40553	60955
19.41365	52027
19.42178	51336
19.42990	49108
19.43803	54087
19.44615	67329
19.45427	75873
19.46240	92370
19.47052	110471
19.47865	113229
19.48677	116748
19.49488	99171
19.50302	84528
19.51113	72304
19.51925	56726
19.52738	55700
19.53550	55690
19.54363	52375
19.55175	51731
19.55987	52375
19.56800	50601
19.57612	49315
19.58425	45237
19.59237	44356
19.60048	45641
19.60862	43552
19.61673	44951
19.62487	47577
19.63298	55310
19.64110	63498
19.64923	85168
19.65735	104493
19.66547	109460
19.67360	118266
19.68172	122491
19.68985	119254
19.69797	102388
19.70608	92893
19.71422	83681
19.72233	75367
19.73047	70022
19.73858	62554
19.74670	60943
19.75483	58406
19.76295	55716
19.77108	55474
19.77920	59373
19.78732	56004
19.79545	55985
19.80357	56832
19.81168	55758
19.81982	54575
19.82793	54706
19.83607	51378
19.84418	52343
19.85230	71544
19.86043	119331
19.86855	251239
19.87668	495407
19.88480	923438
19.89292	1473263
19.90105	1942073
19.90917	2077340
19.91728	1776849
19.92542	1350422
19.93353	922955
19.94167	616612
19.94978	425308
19.95790	321209
19.96603	261599
19.97415	238665
19.98228	209241
19.99040	198683
19.99852	188627
20.00665	168906
20.01477	162834
20.02290	154105
20.03102	145511
20.03913	131591
20.04727	122787
20.05538	105930
20.06350	97057
20.07163	89737
20.07975	78660
20.08788	74335
20.09600	71989
20.10412	67748
20.11225	64658
20.12037	60732
20.12850	60589
20.13662	58876
20.14473	61983
20.15287	55908
20.16098	62307
20.16912	63006
20.17723	67596
20.18535	68722
20.19348	71364
20.20160	71482
20.20972	68577
20.21785	64624
20.22597	64242
20.23410	62581
20.24222	73655
20.25033	89448
20.25847	103213
20.26658	99354
20.27472	109441
20.28283	109535
20.29095	99671
20.29908	88787
20.30720	80317
20.31532	70787
20.32345	61442
20.33157	56898
20.33970	53468
20.34782	54749
20.35593	49565
20.36407	49165
20.37218	47503
20.38032	44039
20.38843	45085
20.39655	49880
20.40468	48635
20.41280	50653
20.42093	53950
20.42905	53579
20.43717	59183
20.44530	52546
20.45342	53160
20.46153	51849
20.46967	45828
20.47778	44201
20.48592	47732
20.49403	48529
20.50215	43802
20.51028	42223
20.51840	46536
20.52653	44502
20.53465	41762
20.54277	42956
20.55090	41452
20.55902	41444
20.56715	40402
20.57527	42406
20.58338	37786
20.59152	39025
20.59963	40973
20.60775	42435
20.61588	43898
20.62400	41059
20.63213	43198
20.64025	42105
20.64837	44254
20.65650	39999
20.66462	41810
20.67275	44024
20.68087	42578
20.68898	42493
20.69712	38574
20.70523	37710
20.71335	38493
20.72148	41645
20.72960	37970
20.73773	39728
20.74585	39535
20.75397	41339
20.76210	39430
20.77022	45355
20.77835	44865
20.78647	49555
20.79458	62278
20.80272	74905
20.81083	90742
20.81897	93405
20.82708	96454
20.83520	91003
20.84333	70980
20.85145	61256
20.85957	53671
20.86770	50686
20.87582	47486
20.88395	44554
20.89207	47763
20.90018	42190
20.90832	43816
20.91643	42356
20.92457	44103
20.93268	40375
20.94080	41375
20.94893	41772
20.95705	42709
20.96517	41015
20.97330	43479
20.98142	42461
20.98955	40076
20.99767	35125
21.00578	40130
21.01392	36685
21.02203	37742
21.03017	39432
21.03828	43414
21.04640	37910
21.05453	41332
21.06265	40180
21.07078	40606
21.07890	44865
21.08702	46208
21.09515	47749
21.10327	51916
21.11138	52613
21.11952	52744
21.12763	58010
21.13577	64517
21.14388	73118
21.15200	80807
21.16013	84107
21.16825	85652
21.17638	78491
21.18450	73272
21.19262	70531
21.20075	64620
21.20887	59453
21.21700	53541
21.22512	50589
21.23323	55996
21.24137	59473
21.24948	55469
21.25760	54550
21.26573	51412
21.27385	55158
21.28198	50204
21.29010	51436
21.29822	48916
21.30635	50470
21.31447	53894
21.32260	49238
21.33072	56427
21.33883	51361
21.34697	52640
21.35508	50492
21.36320	47762
21.37133	50535
21.37945	51916
21.38758	52098
21.39570	53618
21.40382	51657
21.41195	60106
21.42007	58352
21.42820	57299
21.43632	56148
21.44443	53356
21.45257	50542
21.46068	46583
21.46882	46948
21.47693	49066
21.48505	46282
21.49318	44644
21.50130	49068
21.50942	44795
21.51755	42260
21.52567	44115
21.53380	43712
21.54192	44631
21.55003	44224
21.55817	38307
21.56628	44000
21.57442	45312
21.58253	45318
21.59065	54564
21.59878	58123
21.60690	61067
21.61503	61272
21.62315	60065
21.63127	60769
21.63940	63303
21.64752	56217
21.65563	54741
21.66377	52093
21.67188	48622
21.68002	51962
21.68813	51205
21.69625	46715
21.70438	47742
21.71250	44059
21.72063	45253
21.72875	43380
21.73687	44216
21.74500	41616
21.75312	42484
21.76123	42252
21.76937	42254
21.77748	45649
21.78562	48304
21.79373	49064
21.80185	50093
21.80998	55472
21.81810	57598
21.82623	64313
21.83435	73088
21.84247	89803
21.85060	107571
21.85872	120131
21.86685	120507
21.87497	125939
21.88308	136800
21.89122	138831
21.89933	133951
21.90745	134479
21.91558	133157
21.92370	132973
21.93183	137530
21.93995	136341
21.94807	127340
21.95620	123945
21.96432	118660
21.97245	117277
21.98057	124816
21.98868	117595
21.99682	106240
22.00493	108795
22.01305	105892
22.02118	108516
22.02930	103201
22.03743	101555
22.04555	101215
22.05367	96932
22.06180	90206
22.06992	87919
22.07805	92538
22.08617	89393
22.09428	86754
22.10242	84649
22.11053	84487
22.11867	78795
22.12678	81551
22.13490	75010
22.14303	76454
22.15115	73806
22.15927	71286
22.16740	72334
22.17552	67690
22.18365	68177
22.19177	67133
22.19988	63585
22.20802	67140
22.21613	67328
22.22427	63408
22.23238	58010
22.24050	57867
22.24863	59486
22.25675	59694
22.26488	57769
22.27300	58105
22.28112	58449
22.28925	59912
22.29737	57626
22.30548	57516
22.31362	59582
22.32173	63538
22.32987	60367
22.33798	57981
22.34610	56941
22.35423	55872
22.36235	53668
22.37048	54712
22.37860	53192
22.38672	58920
22.39485	57783
22.40297	70974
22.41108	70542
22.41922	67885
22.42733	70216
22.43547	68812
22.44358	61540
22.45170	56063
22.45983	53850
22.46795	53175
22.47608	52115
22.48420	56346
22.49232	55367
22.50045	55869
22.50857	58341
22.51670	55956
22.52482	56296
22.53293	53632
22.54107	49960
22.54918	46727
22.55730	45420
22.56543	50998
22.57355	45137
22.58168	46081
22.58980	46143
22.59792	43030
22.60605	42473
22.61417	44756
22.62230	40265
22.63042	41106
22.63853	44143
22.64667	43394
22.65478	43475
22.66292	39823
22.67103	44641
22.67915	46884
22.68728	51453
22.69540	56202
22.70352	56067
22.71165	59822
22.71977	65907
22.72790	60544
22.73602	54238
22.74413	52312
22.75227	49940
22.76038	50829
22.76852	44999
22.77663	49098
22.78475	53248
22.79288	54858
22.80100	58615
22.80912	57988
22.81725	57713
22.82537	56056
22.83350	53789
22.84162	51566
22.84973	49984
22.85787	53787
22.86598	50604
22.87412	51851
22.88223	54129
22.89035	54076
22.89848	57764
22.90660	70177
22.91473	78857
22.92285	97318
22.93097	102037
22.93910	109757
22.94722	98369
22.95533	92251
22.96347	79915
22.97158	72511
22.97972	64981
22.98783	66572
22.99595	62018
23.00408	58978
23.01220	54867
23.02033	49542
23.02845	50699
23.03657	45957
23.04470	48762
23.05282	48883
23.06095	42747
23.06907	42936
23.07718	46015
23.08532	40477
23.09343	41065
23.10155	45867
23.10968	41146
23.11780	44100
23.12593	42091
23.13405	39887
23.14217	40288
23.15030	40286
23.15842	39605
23.16655	43065
23.17467	39024
23.18278	36232
23.19092	39828
23.19903	39375
23.20715	40843
23.21528	42394
23.22340	39175
23.23153	40935
23.23965	41676
23.24777	41386
23.25590	42129
23.26402	44105
23.27215	44113
23.28027	41532
23.28838	41889
23.29652	42624
23.30463	42467
23.31277	39504
23.32088	40178
23.32900	44411
23.33713	45488
23.34525	50903
23.35337	57034
23.36150	59286
23.36962	63602
23.37775	66065
23.38587	63844
23.39398	58577
23.40212	59297
23.41023	52466
23.41837	57489
23.42648	51164
23.43460	48846
23.44273	47018
23.45085	46874
23.45897	45649
23.46710	43810
23.47522	47285
23.48335	43219
23.49147	46133
23.49958	42371
23.50772	45312
23.51583	41341
23.52397	39433
23.53208	41490
23.54020	39945
23.54833	45081
23.55645	43843
23.56458	48862
23.57270	51324
23.58082	59939
23.58895	68334
23.59707	82743
23.60518	100882
23.61332	119028
23.62143	136001
23.62957	146059
23.63768	149950
23.64580	149575
23.65393	154768
23.66205	164187
23.67018	162595
23.67830	167893
23.68642	169508
23.69455	156157
23.70267	148666
23.71080	155413
23.71892	149751
23.72703	150101
23.73517	164737
23.74328	211441
23.75140	332038
23.75953	611962
23.76765	1113822
23.77578	1808600
23.78390	2385575
23.79202	2655718
23.80015	2506249
23.80827	2164621
23.81640	1694024
23.82452	1228200
23.83263	947915
23.84077	740684
23.84888	594731
23.85700	500872
23.86513	413885
23.87325	365292
23.88138	326192
23.88950	293741
23.89762	271379
23.90575	252486
23.91387	235958
23.92200	217446
23.93012	201444
23.93823	205868
23.94637	189275
23.95448	176713
23.96262	167346
23.97073	162384
23.97885	157208
23.98698	146914
23.99510	140444
24.00322	144687
24.01135	135960
24.01947	138091
24.02760	148940
24.03572	149773
24.04383	143552
24.05197	131996
24.06008	133308
24.06822	114301
24.07633	112375
24.08445	109738
24.09258	105340
24.10070	105138
24.10883	103014
24.11695	105417
24.12507	105375
24.13320	102840
24.14132	108201
24.14943	112172
24.15757	105826
24.16568	101332
24.17382	106618
24.18193	104155
24.19005	109958
24.19818	104617
24.20630	107434
24.21443	104487
24.22255	101826
24.23067	98478
24.23880	88406
24.24692	85980
24.25503	83356
24.26317	83674
24.27128	77422
24.27942	71873
24.28753	72464
24.29565	74255
24.30378	69667
24.31190	69391
24.32003	69841
24.32815	77712
24.33627	80510
24.34440	92601
24.35252	106403
24.36065	106916
24.36877	102940
24.37688	96177
24.38502	77909
24.39313	68879
24.40125	62859
24.40938	61064
24.41750	62607
24.42563	61983
24.43375	64447
24.44187	66640
24.45000	70908
24.45812	73642
24.46625	70530
24.47437	70797
24.48248	74899
24.49062	74817
24.49873	73051
24.50685	68401
24.51498	63971
24.52310	61617
24.53123	65391
24.53935	67023
24.54747	69469
24.55560	68200
24.56372	66625
24.57185	68853
24.57997	63077
24.58808	61969
24.59622	56758
24.60433	56825
24.61247	55917
24.62058	52356
24.62870	53509
24.63683	58812
24.64495	49271
24.65307	51109
24.66120	48913
24.66932	51411
24.67745	52869
24.68557	49979
24.69368	51757
24.70182	48140
24.70993	49796
24.71807	50131
24.72618	48788
24.73430	48339
24.74243	49259
24.75055	47507
24.75868	48642
24.76680	49787
24.77492	50821
24.78305	59794
24.79117	54392
24.79928	58847
24.80742	68590
24.81553	79330
24.82367	93139
24.83178	122498
24.83990	145066
24.84803	175137
24.85615	189176
24.86428	212591
24.87240	243106
24.88052	260119
24.88865	285126
24.89677	277421
24.90490	266483
24.91302	243926
24.92113	214535
24.92927	197871
24.93738	187027
24.94550	174508
24.95363	164189
24.96175	164476
24.96988	165403
24.97800	157002
24.98612	147484
24.99425	147914
25.00237	143547
25.01050	140273
25.01862	132968
25.02673	139583
25.03487	133545
25.04298	129347
25.05110	120584
25.05923	113041
25.06735	113000
25.07548	117908
25.08360	114952
25.09172	122311
25.09985	137836
25.10797	170184
25.11610	252567
25.12422	357950
25.13233	547175
25.14047	675994
25.14858	739466
25.15672	688746
25.16483	560628
25.17295	395429
25.18108	290463
25.18920	202184
25.19732	156762
25.20545	133294
25.21357	119463
25.22170	111859
25.22982	115824
25.23793	140191
25.24607	178247
25.25418	236137
25.26232	296054
25.27043	331935
25.27855	339019
25.28668	303572
25.29480	246371
25.30292	194584
25.31105	153152
25.31917	120944
25.32730	107281
25.33542	93137
25.34353	85968
25.35167	75812
25.35978	77296
25.36792	73726
25.37603	72305
25.38415	68058
25.39228	67707
25.40040	68344
25.40853	63695
25.41665	67396
25.42477	65752
25.43290	68506
25.44102	61828
25.44913	65842
25.45727	59482
25.46538	65047
25.47352	56539
25.48163	54579
25.48975	58795
25.49788	61459
25.50600	54982
25.51413	58531
25.52225	55151
25.53037	54431
25.53850	51857
25.54662	54779
25.55475	57454
25.56287	52111
25.57098	53765
25.57912	53801
25.58723	54854
25.59535	50874
25.60348	51705
25.61160	49954
25.61973	49772
25.62785	51918
25.63597	51849
25.64410	52099
25.65222	50534
25.66035	48741
25.66847	50258
25.67658	52414
25.68472	51659
25.69283	48335
25.70095	49873
25.70908	51076
25.71720	45561
25.72533	53514
25.73345	48873
25.74157	47061
25.74970	47975
25.75782	49932
25.76595	44317
25.77407	44947
25.78218	48662
25.79032	50701
25.79843	46426
25.80657	47673
25.81468	48757
25.82280	52519
25.83093	49739
25.83905	46227
25.84717	52040
25.85530	47726
25.86342	46837
25.87155	50606
25.87967	42637
25.88778	43850
25.89592	43698
25.90403	44789
25.91217	44033
25.92028	40934
25.92840	41664
25.93653	43302
25.94465	42795
25.95278	42811
25.96090	45744
25.96902	41905
25.97715	40978
25.98527	42731
25.99338	42074
26.00152	40550
26.00963	41193
26.01777	37988
26.02588	40976
26.03400	40574
26.04213	38680
26.05025	41700
26.05838	42965
26.06650	42763
26.07462	41119
26.08275	42257
26.09087	41253
26.09898	41574
26.10712	42444
26.11523	41770
26.12337	41992
26.13148	47768
26.13960	50401
26.14773	49237
26.15585	51314
26.16398	48585
26.17210	48514
26.18022	50935
26.18835	52136
26.19647	46382
26.20460	43764
26.21272	45467
26.22083	46522
26.22897	42837
26.23708	42414
26.24520	41950
26.25333	41733
26.26145	41263
26.26958	39652
26.27770	41044
26.28582	37795
26.29395	39476
26.30207	39204
26.31020	35378
26.31832	39417
26.32643	34588
26.33457	36652
26.34268	38047
26.35080	36520
26.35893	40263
26.36705	39493
26.37518	42873
26.38330	39683
26.39142	40274
26.39955	43692
26.40767	42398
26.41580	42699
26.42392	40948
26.43203	38675
26.44017	38693
26.44828	35874
26.45642	35398
26.46453	38384
26.47265	38646
26.48078	37561
26.48890	38254
26.49702	34160
26.50515	36507
26.51327	41667
26.52140	36274
26.52952	32887
26.53763	35583
26.54577	37078
26.55388	35644
26.56202	36626
26.57013	35882
26.57825	40711
26.58638	37897
26.59450	38189
26.60263	34768
26.61075	33262
26.61887	39309
26.62700	34992
26.63512	35124
26.64323	36242
26.65137	38793
26.65948	37106
26.66762	38769
26.67573	40010
26.68385	38107
26.69198	37606
26.70010	40147
26.70823	38753
26.71635	36481
26.72447	38286
26.73260	39623
26.74072	39268
26.74883	36586
26.75697	36937
26.76508	36879
26.77322	37580
26.78133	37097
26.78945	35983
26.79758	38471
26.80570	37482
26.81383	40905
26.82195	42942
26.83007	41743
26.83820	34500
26.84632	35131
26.85445	39043
26.86257	36663
26.87068	35088
26.87882	34248
26.88693	38851
26.89505	37407
26.90318	35791
26.91130	36071
26.91943	37746
26.92755	37871
26.93567	39591
26.94380	42373
26.95192	48987
26.96005	70421
26.96817	104592
26.97628	152487
26.98442	209797
26.99253	273778
27.00067	338462
27.00878	360265
27.01690	364499
27.02503	332637
27.03315	279983
27.04127	228246
27.04940	180139
27.05752	146826
27.06565	129913
27.07377	107317
27.08188	100132
27.09002	89026
27.09813	89662
27.10627	78263
27.11438	76411
27.12250	73644
27.13063	73000
27.13875	70678
27.14687	72738
27.15500	74320
27.16312	69059
27.17125	73977
27.17937	76336
27.18748	71158
27.19562	68000
27.20373	64126
27.21187	62140
27.21998	60228
27.22810	53945
27.23623	57800
27.24435	51552
27.25248	50427
27.26060	50335
27.26872	47908
27.27685	46254
27.28497	47907
27.29308	48986
27.30122	42698
27.30933	47307
27.31747	43763
27.32558	43797
27.33370	46973
27.34183	46568
27.34995	46505
27.35808	45216
27.36620	45265
27.37432	45687
27.38245	45161
27.39057	42698
27.39870	44270
27.40682	43678
27.41493	39346
27.42307	39560
27.43118	43262
27.43930	40176
27.44743	39805
27.45555	41176
27.46368	42824
27.47180	43118
27.47992	38714
27.48805	39667
27.49617	40901
27.50430	42554
27.51242	42393
27.52053	39936
27.52867	42948
27.53678	40189
27.54490	38451
27.55303	34938
27.56115	40057
27.56928	42564
27.57740	40802
27.58552	43823
27.59365	47383
27.60177	47515
27.60990	48327
27.61802	44488
27.62613	44699
27.63427	36254
27.64238	41373
27.65052	37425
27.65863	40167
27.66675	36224
27.67488	39079
27.68300	38894
27.69112	40434
27.69925	37461
27.70737	35988
27.71550	42977
27.72362	39063
27.73173	40662
27.73987	44625
27.74798	47064
27.75612	50864
27.76423	49188
27.77235	48744
27.78048	54538
27.78860	52637
27.79672	49960
27.80485	48466
27.81297	44944
27.82110	43937
27.82922	44133
27.83733	39413
27.84547	37699
27.85358	36507
27.86172	34617
27.86983	37756
27.87795	39340
27.88608	38569
27.89420	35524
27.90233	39004
27.91045	35174
27.91857	36478
27.92670	35087
27.93482	33965
27.94293	37557
27.95107	37273
27.95918	38204
27.96732	40286
27.97543	38979
27.98355	42204
27.99168	39377
27.99980	45640
28.00793	47014
28.01605	43155
28.02417	46597
28.03230	47812
28.04042	44286
28.04855	41569
28.05667	42538
28.06478	41650
28.07292	39284
28.08103	46978
28.08915	40187
28.09728	45950
28.10540	49712
28.11353	47633
28.12165	50750
28.12977	45759
28.13790	42834
28.14602	45631
28.15415	44220
28.16227	42960
28.17038	37743
28.17852	40625
28.18663	40684
28.19475	41088
28.20288	43781
28.21100	43513
28.21913	46108
28.22725	41861
28.23537	43603
28.24350	44154
28.25162	41470
28.25975	42809
28.26787	47274
28.27598	56202
28.28412	67974
28.29223	87561
28.30037	100858
28.30848	120151
28.31660	126732
28.32473	140855
28.33285	135287
28.34097	134967
28.34910	129867
28.35722	123749
28.36535	113299
28.37347	106120
28.38158	96774
28.38972	89940
28.39783	77424
28.40597	78073
28.41408	72041
28.42220	66631
28.43033	64835
28.43845	58271
28.44658	54597
28.45470	56018
28.46282	52557
28.47095	52845
28.47907	50532
28.48718	48472
28.49532	48534
28.50343	49230
28.51157	51824
28.51968	50289
28.52780	48935
28.53593	46808
28.54405	46955
28.55218	48351
28.56030	43106
28.56842	40582
28.57655	43207
28.58467	41164
28.59278	43760
28.60092	42629
28.60903	41587
28.61717	40356
28.62528	42332
28.63340	45686
28.64153	44608
28.64965	47105
28.65778	47507
28.66590	47111
28.67402	47368
28.68215	46649
28.69027	42411
28.69840	48808
28.70652	55263
28.71463	57261
28.72277	60455
28.73088	55959
28.73900	59937
28.74713	54089
28.75525	45801
28.76338	43390
28.77150	38307
28.77962	41961
28.78775	41473
28.79587	38390
28.80400	37772
28.81212	39750
28.82023	38977
28.82837	40736
28.83648	37745
28.84460	36053
28.85273	40723
28.86085	41919
28.86898	39814
28.87710	43051
28.88522	45575
28.89335	45253
28.90147	45696
28.90960	43761
28.91772	40568
28.92583	39914
28.93397	38729
28.94208	41227
28.95022	41380
28.95833	38578
28.96645	42897
28.97458	42529
28.98270	40378
28.99082	37472
28.99895	37663
29.00707	39154
29.01520	35896
29.02332	38069
29.03143	33765
29.03957	34633
29.04768	37750
29.05582	38667
29.06393	41854
29.07205	41587
29.08018	43209
29.08830	41544
29.09643	44532
29.10455	41307
29.11267	37746
29.12080	38446
29.12892	35848
29.13703	37157
29.14517	37582
29.15328	40824
29.16142	36332
29.16953	36401
29.17765	38538
29.18578	40430
29.19390	43619
29.20203	44792
29.21015	49548
29.21827	45538
29.22640	49561
29.23452	46724
29.24263	45871
29.25077	45032
29.25888	43727
29.26702	42700
29.27513	43575
29.28325	39654
29.29138	34344
29.29950	36849
29.30763	33629
29.31575	34343
29.32387	32576
29.33200	32690
29.34012	32643
29.34825	34332
29.35637	32679
29.36448	37398
29.37262	33798
29.38073	29987
29.38885	34879
29.39698	30970
29.40510	35585
29.41323	36845
29.42135	37787
29.42947	37812
29.43760	34576
29.44572	37933
29.45385	39429
29.46197	34115
29.47008	36437
29.47822	34881
29.48633	37378
29.49447	40177
29.50258	39676
29.51070	40963
29.51883	39661
29.52695	38647
29.53507	38538
29.54320	36431
29.55132	36369
29.55945	37240
29.56757	36605
29.57568	42694
29.58382	41979
29.59193	42535
29.60007	43848
29.60818	40818
29.61630	39191
29.62443	38593
29.63255	37998
29.64067	38842
29.64880	36120
29.65692	33635
29.66505	37328
29.67317	35292
29.68128	34350
29.68942	37847
29.69753	39168
29.70567	35699
29.71378	40303
29.72190	38605
29.73003	35089
29.73815	32564
29.74628	33260
29.75440	33103
29.76252	33690
29.77065	38141
29.77877	32815
29.78688	30807
29.79502	31464
29.80313	33560
29.81127	34559
29.81938	34339
29.82750	32725
29.83563	35722
29.84375	33366
29.85188	37669
29.86000	43746
29.86812	52516
29.87625	64295
29.88437	89460
29.89248	107401
29.90062	111347
29.90873	113912
29.91687	113161
29.92498	98157
29.93310	100421
29.94123	94355
29.94935	96258
29.95748	98594
29.96560	92334
29.97372	91526
29.98185	94223
29.98997	94656
29.99810	87482
30.00622	81095
30.01433	79835
30.02247	73586
30.03058	71608
30.03870	72850
30.04683	66614
30.05495	63145
30.06308	61791
30.07120	61653
30.07932	59849
30.08745	59327
30.09557	59035
30.10370	58279
30.11182	48786
30.11993	52728
30.12807	48502
30.13618	52367
30.14432	54670
30.15243	49334
30.16055	52369
30.16868	45721
30.17680	51651
30.18492	48419
30.19305	43657
30.20117	45058
30.20930	45448
30.21742	45113
30.22553	43947
30.23367	39373
30.24178	42340
30.24992	40410
30.25803	37916
30.26615	44061
30.27428	39794
30.28240	44725
30.29053	39916
30.29865	35943
30.30677	36453
30.31490	39554
30.32302	38209
30.33113	37149
30.33927	36339
30.34738	38654
30.35552	39577
30.36363	39869
30.37175	38875
30.37988	37225
30.38800	39898
30.39613	36724
30.40425	37502
30.41237	41007
30.42050	37868
30.42862	38056
30.43673	38610
30.44487	36021
30.45298	37382
30.46112	37718
30.46923	36026
30.47735	37642
30.48548	38410
30.49360	37086
30.50173	33988
30.50985	35017
30.51797	32906
30.52610	32962
30.53422	36958
30.54235	35899
30.55047	35610
30.55858	36727
30.56672	36212
30.57483	34664
30.58295	37871
30.59108	38496
30.59920	33417
30.60733	39821
30.61545	40197
30.62357	36525
30.63170	33251
30.63982	35237
30.64795	34489
30.65607	38297
30.66418	36768
30.67232	35148
30.68043	33809
30.68855	32735
30.69668	33977
30.70480	35606
30.71293	37855
30.72105	34715
30.72917	35329
30.73730	35848
30.74542	34787
30.75355	38953
30.76167	37809
30.76978	39089
30.77792	51504
30.78603	58377
30.79417	74884
30.80228	80248
30.81040	81128
30.81853	75908
30.82665	69054
30.83477	62751
30.84290	51791
30.85102	44185
30.85915	40955
30.86727	38659
30.87538	36477
30.88352	40270
30.89163	36768
30.89977	34033
30.90788	34864
30.91600	39516
30.92413	37811
30.93225	37455
30.94038	35530
30.94850	36412
30.95662	39061
30.96475	34152
30.97287	36277
30.98098	34827
30.98912	36135
30.99723	36676
31.00537	33839
31.01348	35289
31.02160	35420
31.02973	38805
31.03785	36070
31.04598	38696
31.05410	38390
31.06222	38191
31.07035	38197
31.07847	39052
31.08658	41030
31.09472	42811
31.10283	45025
31.11097	44036
31.11908	41008
31.12720	42574
31.13533	37963
31.14345	38615
31.15158	36522
31.15970	38501
31.16782	42431
31.17595	49320
31.18407	60428
31.19220	72105
31.20032	90790
31.20843	101004
31.21657	101326
31.22468	91791
31.23280	84333
31.24093	64280
31.24905	58193
31.25718	48010
31.26530	41194
31.27342	43169
31.28155	40342
31.28967	39528
31.29780	38318
31.30592	36262
31.31403	35716
31.32217	36867
31.33028	38639
31.33842	36632
31.34653	37981
31.35465	37886
31.36278	38050
31.37090	38496
31.37902	36880
31.38715	32771
31.39527	35289
31.40340	39246
31.41152	36236
31.41963	38851
31.42777	35815
31.43588	35522
31.44402	37324
31.45213	38679
31.46025	38249
31.46838	42415
31.47650	44221
31.48462	46231
31.49275	46577
31.50087	44560
31.50900	43733
31.51712	39459
31.52523	40029
31.53337	39612
31.54148	41645
31.54962	42166
31.55773	45545
31.56585	52044
31.57398	44903
31.58210	41171
31.59023	41848
31.59835	38355
31.60647	40543
31.61460	41211
31.62272	38330
31.63083	40756
31.63897	41611
31.64708	37583
31.65522	40469
31.66333	39532
31.67145	40253
31.67958	41032
31.68770	42660
31.69583	44540
31.70395	39084
31.71207	44527
31.72020	39736
31.72832	36347
31.73643	37657
31.74457	35602
31.75268	37769
31.76082	38268
31.76893	33915
31.77705	36347
31.78518	39891
31.79330	35754
31.80143	39750
31.80955	35851
31.81767	39219
31.82580	39128
31.83392	41356
31.84205	45120
31.85017	45497
31.85828	52569
31.86642	54357
31.87453	61653
31.88265	68155
31.89078	66610
31.89890	68649
31.90703	66226
31.91515	67339
31.92327	61384
31.93140	64653
31.93952	55813
31.94765	59799
31.95577	58385
31.96388	54930
31.97202	50226
31.98013	56053
31.98827	50819
31.99638	51604
32.00450	51390
32.01263	51813
32.02075	50178
32.02887	51052
32.03700	48958
32.04512	41041
32.05325	42218
32.06137	43485
32.06948	42564
32.07762	41584
32.08573	42670
32.09387	43663
32.10198	42272
32.11010	43280
32.11823	39440
32.12635	39112
32.13447	37161
32.14260	39471
32.15072	37104
32.15885	38085
32.16697	39315
32.17508	42689
32.18322	36018
32.19133	38506
32.19947	37409
32.20758	36701
32.21570	38053
32.22383	34834
32.23195	35720
32.24008	38094
32.24820	39532
32.25632	40643
32.26445	38088
32.27257	38414
32.28068	37570
32.28882	37322
32.29693	36570
32.30507	38042
32.31318	37303
32.32130	42621
32.32943	36579
32.33755	38438
32.34568	40024
32.35380	39260
32.36192	39104
32.37005	38105
32.37817	38340
32.38630	36463
32.39442	35890
32.40253	35856
32.41067	35538
32.41878	36960
32.42690	36252
32.43503	34916
32.44315	33650
32.45128	36691
32.45940	36417
32.46752	36940
32.47565	35405
32.48377	36892
32.49190	35021
32.50002	35855
32.50813	36827
32.51627	38648
32.52438	36398
32.53250	35265
32.54063	34867
32.54875	35355
32.55688	34954
32.56500	38431
32.57312	41034
32.58125	39174
32.58937	39649
32.59750	46421
32.60562	45602
32.61373	51250
32.62187	56322
32.62998	49949
32.63812	48312
32.64623	40695
32.65435	39420
32.66248	38876
32.67060	35736
32.67872	39200
32.68685	39478
32.69497	38090
32.70310	44390
32.71122	40459
32.71933	40977
32.72747	38675
32.73558	38850
32.74372	40166
32.75183	40989
32.75995	33433
32.76808	33759
32.77620	33943
32.78433	35955
32.79245	36668
32.80057	35572
32.80870	34761
32.81682	34378
32.82493	33480
32.83307	36410
32.84118	36782
32.84932	35910
32.85743	40577
32.86555	37995
32.87368	36524
32.88180	38069
32.88993	34723
32.89805	36651
32.90617	40838
32.91430	35701
32.92242	38067
32.93053	36869
32.93867	40739
32.94678	37231
32.95492	38809
32.96303	44212
32.97115	51926
32.97928	55208
32.98740	58933
32.99553	68402
33.00365	75676
33.01177	72542
33.01990	62939
33.02802	52861
33.03615	48263
33.04427	43818
33.05238	39592
33.06052	42430
33.06863	41540
33.07675	46655
33.08488	42287
33.09300	45191
33.10113	49471
33.10925	53075
33.11737	50973
33.12550	53107
33.13362	53643
33.14175	51264
33.14987	47143
33.15798	42433
33.16612	42709
33.17423	40896
33.18235	40694
33.19048	44212
33.19860	43286
33.20673	40658
33.21485	39347
33.22297	36163
33.23110	35191
33.23922	40453
33.24735	39686
33.25547	39272
33.26358	40081
33.27172	39907
33.27983	40341
33.28797	36653
33.29608	38194
33.30420	39952
33.31233	40613
33.32045	40652
33.32857	38362
33.33670	39994
33.34482	35163
33.35295	35692
33.36107	39118
33.36918	36970
33.37732	41128
33.38543	36199
33.39357	37245
33.40168	40063
33.40980	40920
33.41793	35430
33.42605	36800
33.43418	36429
33.44230	36368
33.45042	39807
33.45855	36600
33.46667	40025
33.47478	42064
33.48292	38679
33.49103	39930
33.49917	42307
33.50728	40787
33.51540	42530
33.52353	40600
33.53165	42635
33.53978	40743
33.54790	36521
33.55602	40656
33.56415	42273
33.57227	39963
33.58038	41948
33.58852	39883
33.59663	40294
33.60477	40704
33.61288	35813
33.62100	38538
33.62913	39837
33.63725	40217
33.64538	42919
33.65350	37442
33.66162	37658
33.66975	37550
33.67787	40598
33.68600	38389
33.69412	39319
33.70223	36456
33.71037	37416
33.71848	39721
33.72660	38487
33.73473	37879
33.74285	38146
33.75098	40974
33.75910	39066
33.76722	39266
33.77535	40583
33.78347	41245
33.79160	36946
33.79972	40904
33.80783	40677
33.81597	41336
33.82408	43334
33.83222	41353
33.84033	43300
33.84845	42608
33.85658	44138
33.86470	43578
33.87282	42802
33.88095	43767
33.88907	42090
33.89720	43309
33.90532	40987
33.91343	43970
33.92157	40119
33.92968	43650
33.93782	46481
33.94593	41042
33.95405	45044
33.96218	43212
33.97030	48458
33.97842	39157
33.98655	42880
33.99467	41497
34.00280	41029
34.01092	43308
34.01903	41845
34.02717	41568
34.03528	40581
34.04342	37823
34.05153	43112
34.05965	39136
34.06778	40826
34.07590	43908
34.08403	43146
34.09215	40460
34.10027	41434
34.10840	40437
34.11652	40789
34.12463	41241
34.13277	40849
34.14088	40601
34.14902	39844
34.15713	39521
34.16525	43550
34.17338	44791
34.18150	37761
34.18963	39222
34.19775	39448
34.20587	43128
34.21400	41612
34.22212	39031
34.23023	38030
34.23837	38804
34.24648	41392
34.25462	38402
34.26273	45080
34.27085	38219
34.27898	38777
34.28710	38167
34.29523	36983
34.30335	38538
34.31147	40926
34.31960	38904
34.32772	39281
34.33585	39555
34.34397	40534
34.35208	40458
34.36022	37325
34.36833	41406
34.37645	41769
34.38458	41607
34.39270	40300
34.40083	42656
34.40895	40336
34.41707	39466
34.42520	39887
34.43332	40686
34.44145	42429
34.44957	46825
34.45768	47087
34.46582	52982
34.47393	57187
34.48207	63649
34.49018	64007
34.49830	66776
34.50643	70080
34.51455	68793
34.52267	67281
34.53080	61784
34.53892	60900
34.54705	60430
34.55517	57941
34.56328	54232
34.57142	48830
34.57953	49223
34.58767	51900
34.59578	50711
34.60390	50425
34.61203	52909
34.62015	48760
34.62828	52783
34.63640	50272
34.64452	49395
34.65265	46673
34.66077	50667
34.66888	49930
34.67702	50581
34.68513	49691
34.69327	54813
34.70138	48065
34.70950	47370
34.71763	49011
34.72575	49089
34.73388	49073
34.74200	46657
34.75012	48498
34.75825	50326
34.76637	48626
34.77448	46021
34.78262	45728
34.79073	47947
34.79887	49131
34.80698	51215
34.81510	44505
34.82323	45502
34.83135	47616
34.83948	46485
34.84760	44404
34.85572	47450
34.86385	49075
34.87197	45534
34.88010	42666
34.88822	44602
34.89633	42522
34.90447	44715
34.91258	44213
34.92070	48276
34.92883	44998
34.93695	46957
34.94508	48186
34.95320	45116
34.96132	48195
34.96945	44470
34.97757	45992
34.98570	45535
34.99382	48508
35.00193	43710
35.01007	44064
35.01818	43261
35.02630	43601
35.03443	45135
35.04255	48297
35.05068	49799
35.05880	44221
35.06692	44744
35.07505	47277
35.08317	43927
35.09130	46678
35.09942	49294
35.10753	45604
35.11567	43089
35.12378	41720
35.13192	45469
35.14003	42846
35.14815	47359
35.15628	47556
35.16440	46989
35.17252	49709
35.18065	48553
35.18877	44165
35.19690	42444
35.20502	44469
35.21313	45894
35.22127	44277
35.22938	43256
35.23752	44908
35.24563	44864
35.25375	44143
35.26188	41199
35.27000	50168
35.27813	49202
35.28625	49982
35.29437	47334
35.30250	47610
35.31062	48342
35.31873	44211
35.32687	47208
35.33498	49090
35.34312	51383
35.35123	51102
35.35935	51695
35.36748	50006
35.37560	48311
35.38373	48031
35.39185	51194
35.39997	52092
35.40810	49635
35.41622	46382
35.42433	49812
35.43247	53499
35.44058	53025
35.44872	54055
35.45683	53787
35.46495	54495
35.47308	52044
35.48120	53075
35.48933	52421
35.49745	51889
35.50557	50928
35.51370	46837
35.52182	52473
35.52995	48813
35.53807	47716
35.54618	47662
35.55432	49788
35.56243	49907
35.57055	49178
35.57868	52636
35.58680	53109
35.59493	49358
35.60305	52234
35.61117	54240
35.61930	57604
35.62742	52861
35.63555	52454
35.64367	45823
35.65178	49974
35.65992	54144
35.66803	47449
35.67617	49998
35.68428	52219
35.69240	45760
35.70053	47796
35.70865	47996
35.71677	44571
35.72490	48181
35.73302	46843
35.74115	47342
35.74927	50637
35.75738	50284
35.76552	47104
35.77363	48612
35.78177	49825
35.78988	48433
35.79800	45616
35.80613	51820
35.81425	47564
35.82237	46271
35.83050	49045
35.83862	47383
35.84675	47736
35.85487	48860
35.86298	49280
35.87112	46891
35.87923	51147
35.88737	49178
35.89548	50845
35.90360	47369
35.91173	47951
35.91985	47147
35.92798	49075
35.93610	47997
35.94422	47331
35.95235	48729
35.96047	45497
35.96858	49518
35.97672	48297
35.98483	47494
35.99297	49036
36.00108	50007
36.00920	53724
36.01733	54723
36.02545	54588
36.03358	52628
36.04170	48600
36.04982	50603
36.05795	48258
36.06607	49120
36.07418	52362
36.08232	50878
36.09043	50062
36.09857	51205
36.10668	50316
36.11480	52198
36.12293	55179
36.13105	54850
36.13918	55690
36.14730	50966
36.15542	50659
36.16355	52165
36.17167	47414
36.17980	51612
36.18792	52602
36.19603	49523
36.20417	49663
36.21228	56418
36.22040	50179
36.22853	53412
36.23665	55845
36.24478	59646
36.25290	68649
36.26102	71684
36.26915	69887
36.27727	66777
36.28540	62785
36.29352	56919
36.30163	53944
36.30977	55408
36.31788	52625
36.32602	51319
36.33413	54279
36.34225	50217
36.35038	54538
36.35850	52102
36.36662	53704
36.37475	55064
36.38287	53540
36.39100	52876
36.39912	52155
36.40723	53774
36.41537	53711
36.42348	51904
36.43162	51522
36.43973	51126
36.44785	52573
36.45598	53717
36.46410	49209
36.47222	50396
36.48035	54461
36.48847	52680
36.49660	55631
36.50472	51674
36.51283	50699
36.52097	51975
36.52908	52229
36.53722	54966
36.54533	53814
36.55345	50523
36.56158	50991
36.56970	53375
36.57783	52765
36.58595	54096
36.59407	56228
36.60220	53969
36.61032	53615
36.61843	55333
36.62657	54810
36.63468	54011
36.64282	54386
36.65093	54086
36.65905	52701
36.66718	54163
36.67530	55832
36.68343	55682
36.69155	54326
36.69967	55602
36.70780	51253
36.71592	50331
36.72405	54032
36.73217	50346
36.74028	54989
36.74842	54037
36.75653	50850
36.76465	52451
36.77278	55688
36.78090	52103
36.78903	53507
36.79715	52138
36.80527	55499
36.81340	53224
36.82152	53810
36.82965	58619
36.83777	52242
36.84588	56654
36.85402	53703
36.86213	53840
36.87025	49467
36.87838	53298
36.88650	54897
36.89463	55126
36.90275	54374
36.91087	55009
36.91900	56002
36.92712	63452
36.93525	59644
36.94337	67098
36.95148	65990
36.95962	68775
36.96773	68621
36.97587	69949
36.98398	73977
36.99210	67255
37.00023	69970
37.00835	80960
37.01647	86480
37.02460	84942
37.03272	92186
37.04085	87124
37.04897	82986
37.05708	77185
37.06522	70449
37.07333	65623
37.08147	60275
37.08958	63240
37.09770	61127
37.10583	56515
37.11395	58444
37.12208	59476
37.13020	62917
37.13832	60212
37.14645	59990
37.15457	58117
37.16268	60467
37.17082	59230
37.17893	60346
37.18707	62537
37.19518	59912
37.20330	60350
37.21143	59611
37.21955	57196
37.22768	63960
37.23580	60573
37.24392	61227
37.25205	62962
37.26017	63034
37.26828	73854
37.27642	72509
37.28453	80722
37.29267	82539
37.30078	84228
37.30890	81660
37.31703	81463
37.32515	80464
37.33328	76137
37.34140	69183
37.34952	70611
37.35765	68939
37.36577	68683
37.37390	67388
37.38202	70050
37.39013	65653
37.39827	66375
37.40638	65475
37.41450	68179
37.42263	62854
37.43075	63303
37.43888	66447
37.44700	65418
37.45512	64136
37.46325	66410
37.47137	65670
37.47950	66129
37.48762	66141
