Z:\data\JTB-E02\BACandBLUE\JTB-E02-208-11.D Thu Mar 14 09:57:21 2019
Start of data points
2.09528	50777
2.10340	53397
2.11153	56205
2.11965	48811
2.12778	47824
2.13590	48554
2.14402	49941
2.15215	49236
2.16027	51399
2.16840	48145
2.17652	46340
2.18463	44710
2.19277	43299
2.20088	43758
2.20902	45632
2.21713	44511
2.22525	44404
2.23338	41724
2.24150	39866
2.24962	41920
2.25775	43691
2.26587	47777
2.27400	242519
2.28212	1170394
2.29023	1102285
2.29837	502501
2.30648	318209
2.31462	260546
2.32273	238846
2.33085	217960
2.33898	189966
2.34710	178539
2.35522	164810
2.36335	142771
2.37147	133699
2.37960	133229
2.38772	130931
2.39583	129801
2.40397	113832
2.41208	118302
2.42022	109065
2.42833	118723
2.43645	115828
2.44458	104539
2.45270	108142
2.46083	104242
2.46895	97006
2.47707	97283
2.48520	90065
2.49332	94234
2.50143	96112
2.50957	96068
2.51768	88441
2.52582	89157
2.53393	89361
2.54205	86827
2.55018	104929
2.55830	133045
2.56643	200498
2.57455	207455
2.58267	160933
2.59080	138656
2.59892	131667
2.60705	184172
2.61517	490371
2.62328	593785
2.63142	376074
2.63953	249500
2.64765	206156
2.65578	171953
2.66390	154303
2.67203	136780
2.68015	127658
2.68827	121221
2.69640	116322
2.70452	111542
2.71265	110324
2.72077	102437
2.72888	95389
2.73702	103437
2.74513	92653
2.75327	93289
2.76138	86427
2.76950	87563
2.77763	91772
2.78575	90397
2.79387	90310
2.80200	90724
2.81012	93976
2.81825	97121
2.82637	86454
2.83448	86774
2.84262	90704
2.85073	84282
2.85887	86984
2.86698	84833
2.87510	86400
2.88323	82039
2.89135	79954
2.89947	83182
2.90760	83635
2.91572	84111
2.92385	74182
2.93197	80847
2.94008	76918
2.94822	73579
2.95633	75638
2.96447	87683
2.97258	95999
2.98070	93531
2.98883	82949
2.99695	84007
3.00508	80998
3.01320	84143
3.02132	85045
3.02945	79208
3.03757	76029
3.04568	79745
3.05382	75726
3.06193	75144
3.07007	74767
3.07818	89181
3.08630	290879
3.09443	1214875
3.10255	2568067
3.11068	4175162
3.11880	5173629
3.12692	3815146
3.13505	2364706
3.14317	1781148
3.15128	1432646
3.15942	1167741
3.16753	967832
3.17567	840247
3.18378	721793
3.19190	641800
3.20003	564725
3.20815	484760
3.21628	448425
3.22440	404461
3.23252	374057
3.24065	352925
3.24877	312048
3.25690	294532
3.26502	276098
3.27313	259682
3.28127	256565
3.28938	324960
3.29750	947583
3.30563	3066895
3.31375	6155754
3.32188	7290367
3.33000	5583249
3.33812	3552377
3.34625	2356601
3.35437	1738942
3.36250	1397729
3.37062	1173587
3.37873	995650
3.38687	877101
3.39498	780530
3.40312	695396
3.41123	625250
3.41935	585972
3.42748	551555
3.43560	508412
3.44372	472352
3.45185	444187
3.45997	423346
3.46810	415852
3.47622	418353
3.48433	427559
3.49247	411387
3.50058	358300
3.50872	341863
3.51683	326856
3.52495	307809
3.53308	305696
3.54120	285318
3.54932	276947
3.55745	268720
3.56557	277502
3.57370	353682
3.58182	490245
3.58993	503181
3.59807	396288
3.60618	338149
3.61432	295524
3.62243	297924
3.63055	279507
3.63868	272776
3.64680	249816
3.65493	238161
3.66305	230064
3.67117	217574
3.67930	225719
3.68742	219835
3.69553	214545
3.70367	208303
3.71178	204446
3.71992	197133
3.72803	200558
3.73615	193098
3.74428	183754
3.75240	180712
3.76053	181545
3.76865	178512
3.77677	182824
3.78490	175976
3.79302	174937
3.80115	253413
3.80927	788324
3.81738	2248909
3.82552	3372490
3.83363	2816156
3.84175	1754651
3.84988	1212572
3.85800	973436
3.86613	810372
3.87425	717896
3.88237	630331
3.89050	570490
3.89862	522745
3.90675	487173
3.91487	441551
3.92298	420906
3.93112	402986
3.93923	370209
3.94735	425366
3.95548	857606
3.96360	2245810
3.97173	3910257
3.97985	4030313
3.98797	2793502
3.99610	2005831
4.00422	3720386
4.01235	9947929
4.02047	1.723106E+07
4.02858	1.748701E+07
4.03672	1.137307E+07
4.04483	6121936
4.05297	3684601
4.06108	2640042
4.06920	2044117
4.07733	1667437
4.08545	1395469
4.09357	1214409
4.10170	1067996
4.10982	932828
4.11795	848432
4.12607	791801
4.13418	692981
4.14232	673766
4.15043	662478
4.15857	655549
4.16668	612146
4.17480	589043
4.18293	573357
4.19105	545540
4.19917	495412
4.20730	445671
4.21542	431470
4.22355	428742
4.23167	475864
4.23978	528045
4.24792	500942
4.25603	447863
4.26417	393629
4.27228	366462
4.28040	354269
4.28853	327520
4.29665	311126
4.30478	302058
4.31290	296809
4.32102	292786
4.32915	271603
4.33727	285038
4.34538	282406
4.35352	264221
4.36163	252798
4.36977	254435
4.37788	244361
4.38600	242497
4.39413	241902
4.40225	232888
4.41038	231024
4.41850	221610
4.42662	227607
4.43475	220295
4.44287	217368
4.45100	211874
4.45912	206982
4.46723	208191
4.47537	205058
4.48348	202752
4.49160	197537
4.49973	198213
4.50785	187607
4.51598	192504
4.52410	189694
4.53222	186240
4.54035	180481
4.54847	176550
4.55660	186466
4.56472	176822
4.57283	172142
4.58097	175556
4.58908	169249
4.59720	166723
4.60533	163051
4.61345	167324
4.62158	164231
4.62970	164548
4.63782	159371
4.64595	164078
4.65407	159490
4.66220	160838
4.67032	165825
4.67843	155440
4.68657	164714
4.69468	165395
4.70282	158912
4.71093	154896
4.71905	151178
4.72718	150891
4.73530	154077
4.74342	145380
4.75155	140622
4.75967	140193
4.76780	150150
4.77592	133243
4.78403	144249
4.79217	142727
4.80028	149440
4.80842	176362
4.81653	178638
4.82465	175290
4.83278	170965
4.84090	183048
4.84903	186450
4.85715	186841
4.86527	177672
4.87340	170295
4.88152	159962
4.88963	155608
4.89777	143482
4.90588	144161
4.91402	138378
4.92213	142383
4.93025	141383
4.93838	161546
4.94650	260943
4.95463	523982
4.96275	1034392
4.97087	1540413
4.97900	1739508
4.98712	1543643
4.99523	1169673
5.00337	889883
5.01148	692998
5.01962	578098
5.02773	511647
5.03585	448540
5.04398	414414
5.05210	383405
5.06023	352640
5.06835	336544
5.07647	314572
5.08460	311991
5.09272	302129
5.10085	280162
5.10897	274417
5.11708	257765
5.12522	247746
5.13333	238717
5.14145	234039
5.14958	231189
5.15770	228636
5.16583	231646
5.17395	224547
5.18207	216036
5.19020	204364
5.19832	210151
5.20645	205965
5.21457	206485
5.22268	195276
5.23082	201116
5.23893	208359
5.24707	221633
5.25518	217661
5.26330	211436
5.27143	189771
5.27955	183145
5.28767	175861
5.29580	177701
5.30392	171091
5.31205	172856
5.32017	162380
5.32828	179744
5.33642	199675
5.34453	227958
5.35267	237984
5.36078	227359
5.36890	196150
5.37703	190324
5.38515	184157
5.39327	189661
5.40140	202215
5.40952	188348
5.41765	175208
5.42577	163721
5.43388	165327
5.44202	154640
5.45013	168853
5.45827	155482
5.46638	168115
5.47450	151364
5.48263	152760
5.49075	148262
5.49888	148551
5.50700	151646
5.51512	159352
5.52325	161153
5.53137	164253
5.53948	160612
5.54762	149178
5.55573	146264
5.56387	138696
5.57198	139428
5.58010	171734
5.58823	220390
5.59635	277256
5.60448	289904
5.61260	269908
5.62072	219811
5.62885	187756
5.63697	179774
5.64508	167896
5.65322	171317
5.66133	153786
5.66947	156179
5.67758	162530
5.68570	184761
5.69383	216882
5.70195	234390
5.71008	225089
5.71820	201099
5.72632	169396
5.73445	154138
5.74257	160775
5.75070	145925
5.75882	136512
5.76693	136138
5.77507	133097
5.78318	132483
5.79130	135085
5.79943	129091
5.80755	123291
5.81568	134610
5.82380	126535
5.83192	129560
5.84005	129502
5.84817	124567
5.85630	126573
5.86442	123763
5.87253	126888
5.88067	119445
5.88878	120031
5.89692	117702
5.90503	115300
5.91315	113960
5.92128	99352
5.92940	94017
5.93752	89775
5.94565	88044
5.95377	92517
5.96190	94762
5.97002	105998
5.97813	117403
5.98627	137725
5.99438	150043
6.00252	141645
6.01063	123873
6.01875	118286
6.02688	109466
6.03500	111343
6.04312	100860
6.05125	99955
6.05937	94669
6.06750	93414
6.07562	92942
6.08373	91856
6.09187	90893
6.09998	90633
6.10812	90209
6.11623	90577
6.12435	89542
6.13248	96893
6.14060	95400
6.14873	94452
6.15685	99905
6.16497	108445
6.17310	102511
6.18122	105986
6.18933	105993
6.19747	101449
6.20558	111445
6.21372	117891
6.22183	118154
6.22995	120840
6.23808	112978
6.24620	116613
6.25433	121182
6.26245	128040
6.27057	124680
6.27870	127136
6.28682	128905
6.29495	125599
6.30307	123568
6.31118	141318
6.31932	136528
6.32743	135466
6.33555	140257
6.34368	137019
6.35180	145759
6.35993	149511
6.36805	146588
6.37617	140685
6.38430	148295
6.39242	145904
6.40055	152477
6.40867	154773
6.41678	149168
6.42492	168524
6.43303	156052
6.44115	160311
6.44928	159454
6.45740	154208
6.46553	157357
6.47365	166016
6.48177	173187
6.48990	165163
6.49802	165427
6.50615	172633
6.51427	165129
6.52238	162659
6.53052	177143
6.53863	173048
6.54677	176345
6.55488	177874
6.56300	179307
6.57113	178135
6.57925	180713
6.58737	175728
6.59550	178998
6.60362	182866
6.61175	181937
6.61987	187991
6.62798	187285
6.63612	192635
6.64423	202006
6.65237	317147
6.66048	706818
6.66860	1559155
6.67673	2575955
6.68485	2933289
6.69297	2336637
6.70110	1530622
6.70922	957753
6.71735	689185
6.72547	556657
6.73358	482070
6.74172	429752
6.74983	392262
6.75797	374977
6.76608	359772
6.77420	338987
6.78233	321279
6.79045	317461
6.79858	301640
6.80670	255082
6.81482	224032
6.82295	206471
6.83107	191300
6.83918	185888
6.84732	192837
6.85543	208632
6.86357	222458
6.87168	214004
6.87980	200329
6.88793	168183
6.89605	145348
6.90418	130675
6.91230	125124
6.92042	118072
6.92855	114845
6.93667	111222
6.94480	104968
6.95292	106578
6.96103	109162
6.96917	130360
6.97728	151979
6.98540	177849
6.99353	189884
7.00165	171963
7.00978	139823
7.01790	112696
7.02602	97807
7.03415	88212
7.04227	91319
7.05040	82025
7.05852	82902
7.06663	88798
7.07477	94768
7.08288	95575
7.09100	99314
7.09913	101056
7.10725	100844
7.11538	98127
7.12350	100075
7.13162	97370
7.13975	98469
7.14787	107386
7.15600	139884
7.16412	176748
7.17223	210950
7.18037	214869
7.18848	173772
7.19662	152450
7.20473	123014
7.21285	110280
7.22098	106878
7.22910	100927
7.23722	102628
7.24535	104775
7.25347	111086
7.26160	118430
7.26972	116293
7.27783	105704
7.28597	98856
7.29408	95724
7.30222	89257
7.31033	87488
7.31845	84473
7.32658	88323
7.33470	81417
7.34283	79160
7.35095	78890
7.35907	81594
7.36720	80052
7.37532	87653
7.38343	83925
7.39157	82005
7.39968	78828
7.40782	81545
7.41593	81224
7.42405	74502
7.43218	77385
7.44030	76387
7.44843	76180
7.45655	74853
7.46467	73064
7.47280	69951
7.48092	68147
7.48903	72703
7.49717	72347
7.50528	70675
7.51342	70065
7.52153	66138
7.52965	66986
7.53778	66019
7.54590	61482
7.55403	66060
7.56215	64464
7.57027	65228
7.57840	64196
7.58652	58996
7.59465	64356
7.60277	63187
7.61088	62415
7.61902	58624
7.62713	65514
7.63525	61200
7.64338	60922
7.65150	57026
7.65963	65178
7.66775	63467
7.67587	67006
7.68400	62534
7.69212	60539
7.70025	59697
7.70837	64523
7.71648	59592
7.72462	64099
7.73273	62383
7.74085	57667
7.74898	57878
7.75710	56791
7.76523	62159
7.77335	60561
7.78147	64543
7.78960	63303
7.79772	62727
7.80585	63911
7.81397	60234
7.82208	61643
7.83022	59949
7.83833	58062
7.84647	58818
7.85458	52732
7.86270	56872
7.87083	50065
7.87895	53160
7.88707	51853
7.89520	53957
7.90332	52385
7.91145	60701
7.91957	62506
7.92768	95013
7.93582	156871
7.94393	240702
7.95207	334205
7.96018	371498
7.96830	337553
7.97643	252225
7.98455	166015
7.99268	121299
8.00080	87884
8.00892	83347
8.01705	75998
8.02517	72780
8.03328	70217
8.04142	61565
8.04953	62339
8.05767	68250
8.06578	58896
8.07390	59421
8.08203	60143
8.09015	58555
8.09828	55724
8.10640	57465
8.11452	56200
8.12265	59418
8.13077	58013
8.13890	56205
8.14702	62341
8.15513	57875
8.16327	55977
8.17138	57423
8.17950	54047
8.18763	53836
8.19575	50720
8.20388	50229
8.21200	52567
8.22012	51548
8.22825	48605
8.23637	50725
8.24450	49446
8.25262	48292
8.26073	52430
8.26887	49923
8.27698	51137
8.28510	49415
8.29323	47571
8.30135	52436
8.30948	55473
8.31760	55899
8.32572	56751
8.33385	55546
8.34197	52553
8.35010	54643
8.35822	48664
8.36633	50225
8.37447	56507
8.38258	58520
8.39072	57426
8.39883	61910
8.40695	53308
8.41508	52715
8.42320	47832
8.43132	49665
8.43945	45389
8.44757	46415
8.45570	53807
8.46382	46948
8.47193	46559
8.48007	48383
8.48818	47188
8.49632	45412
8.50443	48380
8.51255	55131
8.52068	46159
8.52880	49011
8.53692	63524
8.54505	105027
8.55317	201575
8.56130	322063
8.56942	412895
8.57753	418099
8.58567	333323
8.59378	243138
8.60192	153720
8.61003	107990
8.61815	88335
8.62628	78471
8.63440	75603
8.64253	70747
8.65065	67440
8.65877	63803
8.66690	56124
8.67502	61807
8.68313	63375
8.69127	61175
8.69938	55787
8.70752	58850
8.71563	54296
8.72375	57869
8.73188	52881
8.74000	50914
8.74813	52373
8.75625	58588
8.76437	85709
8.77250	147968
8.78062	272147
8.78875	437432
8.79687	558389
8.80498	552652
8.81312	469219
8.82123	342826
8.82935	237448
8.83748	175039
8.84560	136839
8.85373	130525
8.86185	135043
8.86997	134990
8.87810	133269
8.88622	137478
8.89435	130632
8.90247	121832
8.91058	117741
8.91872	111213
8.92683	109755
8.93495	98384
8.94308	102062
8.95120	93881
8.95933	97655
8.96745	91218
8.97557	95989
8.98370	91555
8.99182	86605
8.99995	92680
9.00807	91757
9.01618	91587
9.02432	83247
9.03243	92645
9.04057	87446
9.04868	76595
9.05680	77724
9.06493	74637
9.07305	77895
9.08117	73011
9.08930	73806
9.09742	73817
9.10555	73452
9.11367	72781
9.12178	70751
9.12992	70393
9.13803	76080
9.14617	68141
9.15428	69710
9.16240	69440
9.17053	73765
9.17865	63247
9.18678	64660
9.19490	68300
9.20302	67096
9.21115	68225
9.21927	63569
9.22738	71102
9.23552	65008
9.24363	63216
9.25177	63488
9.25988	64472
9.26800	68350
9.27613	63519
9.28425	64001
9.29238	63856
9.30050	59527
9.30862	59004
9.31675	59737
9.32487	64261
9.33298	59650
9.34112	66150
9.34923	60830
9.35737	57496
9.36548	61003
9.37360	57981
9.38173	62221
9.38985	55249
9.39798	55844
9.40610	57268
9.41422	58103
9.42235	60715
9.43047	63159
9.43860	59107
9.44672	58545
9.45483	60605
9.46297	56668
9.47108	59000
9.47920	56269
9.48733	51869
9.49545	53843
9.50358	56675
9.51170	58900
9.51982	64691
9.52795	70450
9.53607	74291
9.54420	78396
9.55232	76772
9.56043	84513
9.56857	89035
9.57668	85452
9.58480	91768
9.59293	79324
9.60105	85893
9.60918	70912
9.61730	58527
9.62542	54453
9.63355	49249
9.64167	50797
9.64980	47365
9.65792	45642
9.66603	45545
9.67417	43555
9.68228	44783
9.69042	41174
9.69853	41099
9.70665	40909
9.71478	41807
9.72290	43812
9.73102	41508
9.73915	40369
9.74727	42568
9.75540	38727
9.76352	38006
9.77163	39089
9.77977	39277
9.78788	37107
9.79602	38894
9.80413	36031
9.81225	45057
9.82038	45927
9.82850	38449
9.83663	39497
9.84475	39676
9.85287	36520
9.86100	45596
9.86912	41930
9.87723	41790
9.88537	42879
9.89348	42489
9.90162	37659
9.90973	37961
9.91785	41462
9.92598	41173
9.93410	46435
9.94223	45808
9.95035	50969
9.95847	62567
9.96660	61602
9.97472	64357
9.98283	57830
9.99097	55756
9.99908	56337
10.00722	49606
10.01533	57495
10.02345	53780
10.03158	53243
10.03970	47691
10.04783	44162
10.05595	41681
10.06407	43974
10.07220	39688
10.08032	43742
10.08845	50993
10.09657	46200
10.10468	54704
10.11282	50512
10.12093	53415
10.12905	51591
10.13718	44728
10.14530	38344
10.15343	41315
10.16155	37648
10.16967	36370
10.17780	40754
10.18592	37563
10.19405	38194
10.20217	40791
10.21028	36644
10.21842	39454
10.22653	34566
10.23467	40908
10.24278	46060
10.25090	54136
10.25903	50520
10.26715	53730
10.27527	50345
10.28340	46379
10.29152	45178
10.29965	42218
10.30777	46019
10.31588	45515
10.32402	45914
10.33213	46077
10.34027	51843
10.34838	56917
10.35650	59171
10.36463	54801
10.37275	57329
10.38087	50672
10.38900	49879
10.39712	48614
10.40525	49242
10.41337	45972
10.42148	44737
10.42962	44665
10.43773	41612
10.44587	46755
10.45398	38001
10.46210	42367
10.47023	43513
10.47835	37212
10.48648	37531
10.49460	38268
10.50272	42227
10.51085	38938
10.51897	41017
10.52708	38160
10.53522	38713
10.54333	37556
10.55147	41496
10.55958	39224
10.56770	37588
10.57583	37485
10.58395	39285
10.59208	40397
10.60020	40779
10.60832	50197
10.61645	43427
10.62457	43506
10.63270	39346
10.64082	40393
10.64893	37256
10.65707	34648
10.66518	38229
10.67330	37854
10.68143	36994
10.68955	36049
10.69768	38706
10.70580	36616
10.71392	34596
10.72205	39251
10.73017	38862
10.73830	40505
10.74642	36274
10.75453	36536
10.76267	39587
10.77078	39015
10.77890	44291
10.78703	36850
10.79515	36116
10.80328	37910
10.81140	34294
10.81952	36733
10.82765	34499
10.83577	34818
10.84390	34552
10.85202	29874
10.86013	31712
10.86827	31594
10.87638	34097
10.88452	31338
10.89263	31036
10.90075	31822
10.90888	33396
10.91700	30387
10.92512	32347
10.93325	28494
10.94137	32436
10.94950	32354
10.95762	32652
10.96573	31065
10.97387	37900
10.98198	32321
10.99012	32425
10.99823	34597
11.00635	32607
11.01448	32282
11.02260	32893
11.03072	32686
11.03885	30392
11.04697	28498
11.05510	31572
11.06322	28687
11.07133	32372
11.07947	26920
11.08758	31589
11.09572	28650
11.10383	27757
11.11195	31124
11.12008	32343
11.12820	30261
11.13633	28350
11.14445	30190
11.15257	32240
11.16070	26471
11.16882	29325
11.17693	31552
11.18507	31412
11.19318	37905
11.20132	36464
11.20943	35385
11.21755	33694
11.22568	35570
11.23380	38556
11.24193	32146
11.25005	31876
11.25817	34372
11.26630	35843
11.27442	32448
11.28255	31005
11.29067	31269
11.29878	34693
11.30692	33865
11.31503	33654
11.32315	31727
11.33128	28875
11.33940	34022
11.34753	30599
11.35565	31069
11.36377	32439
11.37190	30170
11.38002	32727
11.38815	32474
11.39627	28238
11.40438	27937
11.41252	29516
11.42063	29759
11.42875	30831
11.43688	30209
11.44500	29915
11.45313	33070
11.46125	30103
11.46937	31438
11.47750	36822
11.48562	44909
11.49375	76107
11.50187	92322
11.50998	109654
11.51812	107379
11.52623	92900
11.53437	73132
11.54248	65444
11.55060	53074
11.55873	49521
11.56685	42357
11.57497	41754
11.58310	41118
11.59122	37228
11.59935	43184
11.60747	37807
11.61558	35798
11.62372	36478
11.63183	34847
11.63997	37068
11.64808	36778
11.65620	35507
11.66433	36380
11.67245	34629
11.68058	34712
11.68870	33888
11.69682	42064
11.70495	41309
11.71307	38899
11.72118	38470
11.72932	35125
11.73743	35583
11.74557	34586
11.75368	36761
11.76180	34958
11.76993	35459
11.77805	37219
11.78618	38078
11.79430	36000
11.80242	37167
11.81055	34350
11.81867	33296
11.82678	34099
11.83492	38402
11.84303	39230
11.85117	42711
11.85928	46899
11.86740	55546
11.87553	58301
11.88365	59859
11.89178	55078
11.89990	51720
11.90802	40913
11.91615	35968
11.92427	36445
11.93240	38391
11.94052	39317
11.94863	42428
11.95677	37987
11.96488	36913
11.97300	36229
11.98113	33448
11.98925	34871
11.99738	39412
12.00550	49399
12.01362	57681
12.02175	67898
12.02987	69757
12.03800	64657
12.04612	63582
12.05423	49276
12.06237	44729
12.07048	41384
12.07860	37924
12.08673	36052
12.09485	37129
12.10298	36123
12.11110	35273
12.11922	37431
12.12735	37895
12.13547	36721
12.14360	38209
12.15172	35298
12.15983	34059
12.16797	35902
12.17608	34556
12.18422	33186
12.19233	32165
12.20045	36569
12.20858	30102
12.21670	31684
12.22482	38217
12.23295	33917
12.24107	36329
12.24920	31300
12.25732	32137
12.26543	31926
12.27357	32231
12.28168	32153
12.28982	33010
12.29793	27811
12.30605	29973
12.31418	29432
12.32230	29689
12.33043	27678
12.33855	30952
12.34667	32056
12.35480	30470
12.36292	28450
12.37103	35209
12.37917	32379
12.38728	30546
12.39542	29615
12.40353	32344
12.41165	29620
12.41978	33881
12.42790	32148
12.43603	37411
12.44415	35636
12.45227	35188
12.46040	38355
12.46852	34484
12.47663	34559
12.48477	29008
12.49288	30217
12.50102	26859
12.50913	29485
12.51725	28574
12.52538	31312
12.53350	28420
12.54163	31363
12.54975	32094
12.55787	34449
12.56600	34113
12.57412	36046
12.58225	38996
12.59037	38621
12.59848	37393
12.60662	35387
12.61473	33166
12.62285	35559
12.63098	34390
12.63910	30966
12.64723	30849
12.65535	31326
12.66347	29477
12.67160	31498
12.67972	29992
12.68785	32565
12.69597	27682
12.70408	28429
12.71222	33776
12.72033	37734
12.72847	34905
12.73658	39239
12.74470	42198
12.75283	42231
12.76095	38015
12.76907	35466
12.77720	37328
12.78532	35387
12.79345	32060
12.80157	34576
12.80968	31432
12.81782	29016
12.82593	29380
12.83407	29371
12.84218	29184
12.85030	32147
12.85843	30312
12.86655	29333
12.87467	29090
12.88280	29331
12.89092	30485
12.89905	31228
12.90717	30555
12.91528	29899
12.92342	28259
12.93153	29475
12.93967	29293
12.94778	28294
12.95590	28166
12.96403	28113
12.97215	33219
12.98028	27222
12.98840	29124
12.99652	36809
13.00465	31727
13.01277	31575
13.02088	29470
13.02902	28237
13.03713	30044
13.04527	30408
13.05338	32707
13.06150	35968
13.06963	33352
13.07775	34381
13.08588	31495
13.09400	31966
13.10212	28209
13.11025	32561
13.11837	30901
13.12648	27748
13.13462	29959
13.14273	28871
13.15087	28878
13.15898	28282
13.16710	28370
13.17523	28894
13.18335	27796
13.19148	30799
13.19960	29554
13.20772	34335
13.21585	32745
13.22397	30773
13.23210	34776
13.24022	29276
13.24833	32732
13.25647	30015
13.26458	29221
13.27270	27545
13.28083	28421
13.28895	27229
13.29708	32295
13.30520	28333
13.31332	34530
13.32145	27329
13.32957	32063
13.33770	27936
13.34582	27086
13.35393	27972
13.36207	26259
13.37018	28975
13.37832	29701
13.38643	25313
13.39455	26956
13.40268	26800
13.41080	28280
13.41892	25571
13.42705	27764
13.43517	28027
13.44330	24769
13.45142	26976
13.45953	26982
13.46767	23915
13.47578	28060
13.48392	28345
13.49203	30549
13.50015	27905
13.50828	24660
13.51640	22784
13.52453	25484
13.53265	23069
13.54077	26132
13.54890	34231
13.55702	28967
13.56513	31194
13.57327	29935
13.58138	32317
13.58952	32270
13.59763	27937
13.60575	30013
13.61388	26163
13.62200	26973
13.63013	23581
13.63825	26172
13.64637	25509
13.65450	26585
13.66262	28290
13.67073	26126
13.67887	27403
13.68698	27403
13.69512	28938
13.70323	24521
13.71135	30564
13.71948	31232
13.72760	30624
13.73573	30578
13.74385	31008
13.75197	34082
13.76010	48653
13.76822	58579
13.77635	81939
13.78447	101683
13.79258	117039
13.80072	110907
13.80883	95761
13.81695	76438
13.82508	58135
13.83320	49765
13.84133	43807
13.84945	42783
13.85757	40534
13.86570	36395
13.87382	40098
13.88195	34845
13.89007	33547
13.89818	33028
13.90632	36265
13.91443	35003
13.92255	36471
13.93068	32183
13.93880	34297
13.94693	41239
13.95505	40343
13.96317	47753
13.97130	63607
13.97942	95920
13.98755	123124
13.99567	151432
14.00378	153061
14.01192	125604
14.02003	101380
14.02817	77219
14.03628	65461
14.04440	60487
14.05253	59164
14.06065	51338
14.06877	54049
14.07690	49523
14.08502	47747
14.09315	43966
14.10127	45749
14.10938	46598
14.11752	40381
14.12563	42528
14.13377	40919
14.14188	35389
14.15000	37926
14.15813	42239
14.16625	45487
14.17438	44129
14.18250	42087
14.19062	48368
14.19875	50271
14.20687	64971
14.21498	91708
14.22312	105889
14.23123	117335
14.23937	126533
14.24748	119459
14.25560	104740
14.26373	97273
14.27185	92388
14.27998	86002
14.28810	72043
14.29622	71856
14.30435	64953
14.31247	63236
14.32058	65972
14.32872	59991
14.33683	62236
14.34497	55301
14.35308	61381
14.36120	53238
14.36933	51409
14.37745	45372
14.38558	42013
14.39370	38126
14.40182	39088
14.40995	37880
14.41807	36665
14.42620	37793
14.43432	38910
14.44243	38876
14.45057	34864
14.45868	31416
14.46680	32981
14.47493	30773
14.48305	32213
14.49118	30402
14.49930	35394
14.50742	32558
14.51555	32418
14.52367	33099
14.53180	37133
14.53992	36140
14.54803	35091
14.55617	33840
14.56428	29785
14.57242	31346
14.58053	33684
14.58865	36105
14.59678	27805
14.60490	31879
14.61302	29473
14.62115	30581
14.62927	31763
14.63740	29660
14.64552	28618
14.65363	31916
14.66177	29240
14.66988	29685
14.67802	27378
14.68613	28559
14.69425	29981
14.70238	30293
14.71050	31889
14.71862	27838
14.72675	27302
14.73487	29822
14.74300	31561
14.75112	31031
14.75923	29326
14.76737	32898
14.77548	29711
14.78362	31903
14.79173	32486
14.79985	31637
14.80798	31397
14.81610	28614
14.82423	29489
14.83235	31467
14.84047	35556
14.84860	36736
14.85672	36545
14.86483	38202
14.87297	32414
14.88108	35157
14.88922	36614
14.89733	34592
14.90545	32254
14.91358	32827
14.92170	37362
14.92983	31212
14.93795	34265
14.94607	30601
14.95420	33378
14.96232	33464
14.97043	31244
14.97857	30119
14.98668	29199
14.99482	30223
15.00293	30100
15.01105	30105
15.01918	32367
15.02730	30770
15.03543	29584
15.04355	28698
15.05167	28860
15.05980	30271
15.06792	30171
15.07605	31951
15.08417	29958
15.09228	33147
15.10042	30588
15.10853	26416
15.11665	27071
15.12478	29599
15.13290	28787
15.14103	26670
15.14915	25449
15.15727	30892
15.16540	30815
15.17352	31426
15.18165	30305
15.18977	29253
15.19788	31968
15.20602	28984
15.21413	33932
15.22227	30135
15.23038	30945
15.23850	29575
15.24663	27938
15.25475	29506
15.26287	29362
15.27100	24976
15.27912	25602
15.28725	26274
15.29537	29353
15.30348	28300
15.31162	27972
15.31973	28770
15.32787	24135
15.33598	25636
15.34410	24704
15.35223	25280
15.36035	28159
15.36847	28782
15.37660	26610
15.38472	25758
15.39285	25332
15.40097	25555
15.40908	26627
15.41722	27520
15.42533	27505
15.43347	26387
15.44158	27345
15.44970	23799
15.45783	26151
15.46595	27763
15.47408	28573
15.48220	27235
15.49032	25636
15.49845	30510
15.50657	27678
15.51468	31249
15.52282	33117
15.53093	40386
15.53907	43524
15.54718	47557
15.55530	50717
15.56343	46305
15.57155	44940
15.57968	37746
15.58780	34590
15.59592	29618
15.60405	31255
15.61217	30830
15.62030	27416
15.62842	29737
15.63653	31396
15.64467	27938
15.65278	30390
15.66090	24406
15.66903	25215
15.67715	25798
15.68528	24507
15.69340	29260
15.70152	25496
15.70965	29924
15.71777	25542
15.72590	33307
15.73402	27999
15.74213	29396
15.75027	25877
15.75838	26507
15.76650	28139
15.77463	36820
15.78275	35966
15.79088	37413
15.79900	41587
15.80712	42865
15.81525	42208
15.82337	40268
15.83150	37467
15.83962	37070
15.84773	33744
15.85587	32385
15.86398	31867
15.87212	28823
15.88023	29247
15.88835	26759
15.89648	32569
15.90460	33116
15.91272	32732
15.92085	28546
15.92897	28385
15.93710	30756
15.94522	30296
15.95333	30188
15.96147	35955
15.96958	40246
15.97772	43994
15.98583	51325
15.99395	52555
16.00208	51774
16.01020	52183
16.01833	56168
16.02645	61982
16.03457	55178
16.04270	60847
16.05082	51106
16.05893	47524
16.06707	41941
16.07518	39683
16.08332	37010
16.09143	39710
16.09955	35009
16.10768	28621
16.11580	31005
16.12393	34907
16.13205	32733
16.14017	28206
16.14830	35810
16.15642	31858
16.16453	30848
16.17267	32621
16.18078	33820
16.18892	29269
16.19703	31332
16.20515	30970
16.21328	31470
16.22140	30106
16.22953	30055
16.23765	34800
16.24577	30412
16.25390	30354
16.26202	30792
16.27015	30242
16.27827	27688
16.28638	29690
16.29452	29284
16.30263	31402
16.31075	29452
16.31888	28847
16.32700	33056
16.33513	29933
16.34325	31238
16.35137	31645
16.35950	38908
16.36762	47679
16.37575	55347
16.38387	73520
16.39198	78228
16.40012	76172
16.40823	74124
16.41635	55757
16.42448	48656
16.43260	42379
16.44073	38717
16.44885	37615
16.45697	34379
16.46510	34074
16.47322	34583
16.48135	39099
16.48947	34071
16.49758	32610
16.50572	30324
16.51383	32805
16.52197	35982
16.53008	33136
16.53820	30980
16.54633	33066
16.55445	33162
16.56257	29830
16.57070	33286
16.57882	30789
16.58695	36376
16.59507	30629
16.60318	37680
16.61132	39835
16.61943	42795
16.62757	47996
16.63568	43488
16.64380	41317
16.65193	40582
16.66005	34982
16.66818	33521
16.67630	32863
16.68442	34690
16.69255	29574
16.70067	27198
16.70878	28480
16.71692	29732
16.72503	32521
16.73317	30805
16.74128	27490
16.74940	24881
16.75753	28154
16.76565	29238
16.77378	27555
16.78190	29111
16.79002	34992
16.79815	28095
16.80627	28198
16.81438	27024
16.82252	30108
16.83063	27005
16.83877	26072
16.84688	25694
16.85500	30411
16.86313	24254
16.87125	32436
16.87938	28335
16.88750	27510
16.89562	24791
16.90375	24662
16.91187	23481
16.92000	23097
16.92812	27166
16.93623	26784
16.94437	32696
16.95248	28417
16.96060	26245
16.96873	27423
16.97685	28057
16.98498	29908
16.99310	28131
17.00122	27151
17.00935	25435
17.01747	25096
17.02560	25490
17.03372	22672
17.04183	26040
17.04997	25971
17.05808	27112
17.06622	24375
17.07433	28521
17.08245	29838
17.09058	28182
17.09870	27963
17.10682	24587
17.11495	27976
17.12307	23621
17.13120	26225
17.13932	27888
17.14743	26027
17.15557	27461
17.16368	24576
17.17182	26473
17.17993	28168
17.18805	29104
17.19618	26028
17.20430	26435
17.21242	26119
17.22055	28008
17.22867	31752
17.23680	27587
17.24492	26994
17.25303	25325
17.26117	28916
17.26928	26761
17.27742	26268
17.28553	27439
17.29365	25837
17.30178	27275
17.30990	28163
17.31803	27709
17.32615	31893
17.33427	29842
17.34240	27813
17.35052	29199
17.35863	28200
17.36677	29581
17.37488	32124
17.38302	31028
17.39113	33751
17.39925	28622
17.40738	32517
17.41550	33562
17.42363	28392
17.43175	30405
17.43987	28707
17.44800	27711
17.45612	28227
17.46423	26670
17.47237	28969
17.48048	29204
17.48862	30951
17.49673	28528
17.50485	29197
17.51298	28226
17.52110	26947
17.52923	27018
17.53735	27769
17.54547	29196
17.55360	29436
17.56172	26249
17.56985	25571
17.57797	26046
17.58608	28876
17.59422	26932
17.60233	27839
17.61045	27031
17.61858	28762
17.62670	30154
17.63483	35656
17.64295	46232
17.65107	72835
17.65920	98878
17.66732	128120
17.67545	166930
17.68357	178073
17.69168	167166
17.69982	138551
17.70793	108922
17.71607	88275
17.72418	66716
17.73230	58919
17.74043	55841
17.74855	48874
17.75667	47120
17.76480	43154
17.77292	44203
17.78105	46981
17.78917	45533
17.79728	39294
17.80542	42755
17.81353	43031
17.82167	44930
17.82978	47327
17.83790	48158
17.84603	51342
17.85415	48018
17.86227	41482
17.87040	41935
17.87852	39544
17.88665	40075
17.89477	35511
17.90288	33477
17.91102	38056
17.91913	37150
17.92727	29312
17.93538	35552
17.94350	32010
17.95163	31181
17.95975	32520
17.96788	33080
17.97600	32231
17.98412	31468
17.99225	28483
18.00037	29731
18.00848	30801
18.01662	28534
18.02473	29921
18.03287	31376
18.04098	28800
18.04910	29415
18.05723	27405
18.06535	30252
18.07348	33075
18.08160	35467
18.08972	42238
18.09785	48908
18.10597	58224
18.11410	62225
18.12222	47437
18.13033	45766
18.13847	43046
18.14658	38085
18.15470	38108
18.16283	38372
18.17095	38802
18.17908	40006
18.18720	43252
18.19532	47667
18.20345	46948
18.21157	37781
18.21970	40331
18.22782	41823
18.23593	36339
18.24407	34785
18.25218	34029
18.26030	33460
18.26843	35631
18.27655	35050
18.28468	32679
18.29280	30394
18.30092	32042
18.30905	29911
18.31717	33975
18.32530	31419
18.33342	28683
18.34153	31091
18.34967	29983
18.35778	33694
18.36592	29169
18.37403	27048
18.38215	30866
18.39028	30579
18.39840	26308
18.40652	32433
18.41465	27648
18.42277	27453
18.43090	25009
18.43902	27805
18.44713	25344
18.45527	26488
18.46338	29987
18.47152	27700
18.47963	30490
18.48775	28879
18.49588	31273
18.50400	27773
18.51212	27620
18.52025	28841
18.52837	26251
18.53650	29560
18.54462	31743
18.55273	31315
18.56087	29006
18.56898	30430
18.57712	30174
18.58523	28448
18.59335	30621
18.60148	30761
18.60960	31696
18.61773	33015
18.62585	31315
18.63397	34998
18.64210	31108
18.65022	30015
18.65833	29957
18.66647	32654
18.67458	29562
18.68272	31763
18.69083	27319
18.69895	27889
18.70708	30456
18.71520	28755
18.72333	27389
18.73145	27663
18.73957	24723
18.74770	26882
18.75582	25973
18.76395	26082
18.77207	26006
18.78018	25355
18.78832	25673
18.79643	27074
18.80455	25709
18.81268	26652
18.82080	27030
18.82893	25764
18.83705	23109
18.84517	30020
18.85330	26209
18.86142	25813
18.86955	26932
18.87767	25903
18.88578	27040
18.89392	27556
18.90203	25797
18.91017	26363
18.91828	29439
18.92640	27150
18.93453	32060
18.94265	27031
18.95077	28895
18.95890	27014
18.96702	30155
18.97515	28189
18.98327	27629
18.99138	30335
18.99952	31438
19.00763	28801
19.01577	28295
19.02388	29438
19.03200	35961
19.04013	32375
19.04825	34066
19.05637	27721
19.06450	29831
19.07262	30061
19.08075	31101
19.08887	34282
19.09698	37558
19.10512	43664
19.11323	44742
19.12137	49525
19.12948	49785
19.13760	48486
19.14573	53076
19.15385	49356
19.16198	51162
19.17010	54085
19.17822	56504
19.18635	59958
19.19447	58376
19.20258	61265
19.21072	60083
19.21883	56280
19.22697	50650
19.23508	45676
19.24320	39986
19.25133	38996
19.25945	40589
19.26758	36542
19.27570	35417
19.28382	35402
19.29195	44017
19.30007	41749
19.30818	39675
19.31632	42757
19.32443	48342
19.33257	50729
19.34068	52351
19.34880	53582
19.35693	52237
19.36505	49479
19.37318	50850
19.38130	48461
19.38942	42953
19.39755	38526
19.40567	33401
19.41380	37363
19.42192	35459
19.43003	33992
19.43817	34778
19.44628	36527
19.45440	36074
19.46253	32268
19.47065	31881
19.47878	38048
19.48690	34078
19.49502	34361
19.50315	42066
19.51127	49571
19.51940	59716
19.52752	72737
19.53563	86978
19.54377	80969
19.55188	71185
19.56002	55230
19.56813	49851
19.57625	41299
19.58438	36276
19.59250	35036
19.60062	35216
19.60875	30809
19.61687	36006
19.62500	31616
19.63312	33165
19.64123	36689
19.64937	46172
19.65748	66355
19.66562	87223
19.67373	115746
19.68185	143534
19.68998	148511
19.69810	141913
19.70622	119159
19.71435	102070
19.72247	79809
19.73060	69028
19.73872	66494
19.74683	58312
19.75497	55745
19.76308	51773
19.77122	48535
19.77933	43221
19.78745	39167
19.79558	43168
19.80370	46751
19.81183	45904
19.81995	46911
19.82807	41491
19.83620	43432
19.84432	57011
19.85243	117581
19.86057	362389
19.86868	1187718
19.87682	3464767
19.88493	8079079
19.89305	1.483322E+07
19.90118	2.217981E+07
19.90930	2.748707E+07
19.91743	2.942951E+07
19.92555	2.702654E+07
19.93367	2.180542E+07
19.94180	1.514155E+07
19.94992	9944318
19.95805	6810334
19.96617	5045485
19.97428	4093001
19.98242	3591495
19.99053	3146978
19.99865	2843398
20.00678	2583915
20.01490	2359195
20.02303	2176986
20.03115	2031802
20.03927	1828891
20.04740	1620967
20.05552	1423198
20.06365	1122065
20.07177	867150
20.07988	650548
20.08802	501528
20.09613	405332
20.10425	343694
20.11238	310202
20.12050	295914
20.12863	271307
20.13675	274644
20.14487	271376
20.15300	247816
20.16112	246376
20.16925	234777
20.17737	234531
20.18548	214066
20.19362	210610
20.20173	215681
20.20987	200157
20.21798	184907
20.22610	183813
20.23423	179971
20.24235	171200
20.25047	175235
20.25860	174327
20.26672	171882
20.27485	194506
20.28297	203576
20.29108	220453
20.29922	227822
20.30733	222141
20.31547	213516
20.32358	193506
20.33170	169337
20.33983	139441
20.34795	127344
20.35607	104964
20.36420	86048
20.37232	74249
20.38045	61601
20.38857	60803
20.39668	56427
20.40482	52202
20.41293	54118
20.42107	51402
20.42918	54320
20.43730	59380
20.44543	64884
20.45355	71541
20.46168	73449
20.46980	81836
20.47792	78870
20.48605	75013
20.49417	70809
20.50228	62999
20.51042	57848
20.51853	50734
20.52667	54054
20.53478	47308
20.54290	43060
20.55103	41510
20.55915	46617
20.56728	44232
20.57540	39067
20.58352	43616
20.59165	42820
20.59977	40389
20.60790	46228
20.61602	40728
20.62413	44625
20.63227	41118
20.64038	39103
20.64850	41243
20.65663	38387
20.66475	36004
20.67288	37125
20.68100	37758
20.68912	37296
20.69725	39449
20.70537	37603
20.71350	37988
20.72162	37220
20.72973	38049
20.73787	38134
20.74598	38171
20.75410	37630
20.76223	37320
20.77035	38150
20.77848	37831
20.78660	38101
20.79472	35760
20.80285	37338
20.81097	37340
20.81910	40098
20.82722	38001
20.83533	37716
20.84347	35858
20.85158	39545
20.85972	39854
20.86783	42752
20.87595	35742
20.88408	33938
20.89220	37976
20.90032	38503
20.90845	37338
20.91657	37384
20.92470	37576
20.93282	34776
20.94093	34340
20.94907	36055
20.95718	35694
20.96532	34346
20.97343	35525
20.98155	35444
20.98968	36652
20.99780	36106
21.00593	39567
21.01405	34548
21.02217	34577
21.03030	39343
21.03842	42935
21.04653	40068
21.05467	39098
21.06278	37837
21.07092	36906
21.07903	39887
21.08715	35374
21.09528	39817
21.10340	34360
21.11153	34738
21.11965	40390
21.12777	35501
21.13590	39441
21.14402	36886
21.15213	39139
21.16027	40697
21.16838	39196
21.17652	39262
21.18463	37405
21.19275	34156
21.20088	41508
21.20900	37753
21.21713	39220
21.22525	36865
21.23337	39091
21.24150	38499
21.24962	39469
21.25775	38553
21.26587	38732
21.27398	38926
21.28212	38965
21.29023	44103
21.29835	36390
21.30648	35083
21.31460	39640
21.32273	36935
21.33085	35778
21.33897	35612
21.34710	36467
21.35522	37139
21.36335	33793
21.37147	33119
21.37958	31398
21.38772	34172
21.39583	36452
21.40395	35315
21.41208	36909
21.42020	34556
21.42833	38230
21.43645	35503
21.44457	37317
21.45270	32521
21.46082	33133
21.46895	33033
21.47707	34842
21.48518	35149
21.49332	29701
21.50143	36624
21.50957	34720
21.51768	34737
21.52580	35404
21.53393	36263
21.54205	30842
21.55017	33795
21.55830	34710
21.56642	33064
21.57455	33208
21.58267	34947
21.59078	34032
21.59892	29753
21.60703	32930
21.61517	32407
21.62328	34712
21.63140	38223
21.63953	41823
21.64765	49683
21.65578	53396
21.66390	53327
21.67202	59126
21.68015	52298
21.68827	46053
21.69638	42664
21.70452	40519
21.71263	40152
21.72077	34120
21.72888	34837
21.73700	33614
21.74513	34338
21.75325	33803
21.76138	35109
21.76950	32725
21.77762	33289
21.78575	37314
21.79387	34404
21.80198	36193
21.81012	35374
21.81823	31987
21.82637	39300
21.83448	43105
21.84260	45788
21.85073	48024
21.85885	59369
21.86698	59492
21.87510	57379
21.88322	54667
21.89135	48454
21.89947	42733
21.90760	43165
21.91572	41272
21.92383	34890
21.93197	35023
21.94008	33290
21.94820	30019
21.95633	32082
21.96445	36655
21.97258	32825
21.98070	30528
21.98882	35061
21.99695	30628
22.00507	32517
22.01320	30980
22.02132	32963
22.02943	28668
22.03757	29732
22.04568	29374
22.05382	29712
22.06193	28371
22.07005	31176
22.07818	30880
22.08630	27584
22.09442	29987
22.10255	30943
22.11067	35618
22.11880	30013
22.12692	31632
22.13503	30161
22.14317	32059
22.15128	32423
22.15942	32194
22.16753	31509
22.17565	31067
22.18378	35358
22.19190	32261
22.20002	32291
22.20815	29032
22.21627	32356
22.22440	33859
22.23252	35176
22.24063	33911
22.24877	33512
22.25688	32576
22.26502	33847
22.27313	34272
22.28125	33101
22.28938	27242
22.29750	35185
22.30563	39335
22.31375	50558
22.32187	68669
22.33000	80021
22.33812	104487
22.34623	118340
22.35437	116482
22.36248	111622
22.37062	92946
22.37873	73714
22.38685	66111
22.39498	55596
22.40310	50714
22.41123	50470
22.41935	48084
22.42747	45381
22.43560	43348
22.44372	37705
22.45185	35438
22.45997	37197
22.46808	36045
22.47622	34998
22.48433	31155
22.49245	32457
22.50058	33493
22.50870	35830
22.51683	33383
22.52495	30710
22.53307	32990
22.54120	31032
22.54932	31276
22.55745	33477
22.56557	31380
22.57368	33370
22.58182	33890
22.58993	32596
22.59805	28265
22.60618	26220
22.61430	28532
22.62243	29106
22.63055	31454
22.63867	31759
22.64680	31225
22.65492	28004
22.66305	31040
22.67117	32963
22.67928	36549
22.68742	39966
22.69553	41260
22.70367	45831
22.71178	44684
22.71990	41725
22.72803	42633
22.73615	38883
22.74427	35883
22.75240	31935
22.76052	29846
22.76865	33336
22.77677	31139
22.78488	33167
22.79302	29432
22.80113	27955
22.80927	27797
22.81738	28981
22.82550	30216
22.83363	29671
22.84175	28688
22.84987	29222
22.85800	30777
22.86612	30491
22.87425	27835
22.88237	31016
22.89048	32410
22.89862	37148
22.90673	38859
22.91487	38038
22.92298	41427
22.93110	52690
22.93923	64098
22.94735	63543
22.95548	68726
22.96360	68519
22.97172	66411
22.97985	69524
22.98797	63492
22.99608	59376
23.00422	50352
23.01233	51590
23.02047	47372
23.02858	45032
23.03670	39623
23.04483	37045
23.05295	35905
23.06108	34694
23.06920	36159
23.07732	35786
23.08545	33393
23.09357	32033
23.10170	35261
23.10982	33052
23.11793	33793
23.12607	30633
23.13418	32084
23.14230	32640
23.15043	34086
23.15855	29755
23.16668	27752
23.17480	32132
23.18292	33213
23.19105	30250
23.19917	31424
23.20730	28379
23.21542	33248
23.22353	32172
23.23167	33976
23.23978	34710
23.24790	40956
23.25603	41255
23.26415	46417
23.27228	45508
23.28040	45904
23.28852	41600
23.29665	47259
23.30477	41577
23.31290	35342
23.32102	35190
23.32913	30666
23.33727	30734
23.34538	29866
23.35352	32220
23.36163	33635
23.36975	34780
23.37788	38611
23.38600	40877
23.39412	40203
23.40225	37958
23.41037	45601
23.41850	38033
23.42662	43482
23.43473	47415
23.44287	43516
23.45098	39935
23.45912	39932
23.46723	37811
23.47535	41007
23.48348	41233
23.49160	37058
23.49973	38577
23.50785	38971
23.51597	39321
23.52410	42347
23.53222	41413
23.54033	35884
23.54847	38970
23.55658	39806
23.56472	38989
23.57283	48919
23.58095	45993
23.58908	58150
23.59720	63970
23.60533	67996
23.61345	78692
23.62157	83417
23.62970	85017
23.63782	99998
23.64593	134866
23.65407	214325
23.66218	311691
23.67032	425043
23.67843	497119
23.68655	490759
23.69468	415345
23.70280	327738
23.71093	239380
23.71905	169731
23.72717	130813
23.73530	104810
23.74342	91277
23.75155	88914
23.75967	111819
23.76778	191227
23.77592	401734
23.78403	849792
23.79215	1560723
23.80028	2325116
23.80840	2733489
23.81653	2650613
23.82465	2258679
23.83277	1743198
23.84090	1292042
23.84902	928328
23.85715	691696
23.86527	544614
23.87338	445687
23.88152	361620
23.88963	313845
23.89775	274884
23.90588	239926
23.91400	223624
23.92213	203768
23.93025	192819
23.93837	174710
23.94650	151581
23.95462	150951
23.96275	141480
23.97087	138485
23.97898	133748
23.98712	124885
23.99523	118224
24.00337	119248
24.01148	110845
24.01960	112224
24.02773	114373
24.03585	119309
24.04397	121104
24.05210	126169
24.06022	123696
24.06835	119056
24.07647	112460
24.08458	110163
24.09272	97729
24.10083	94597
24.10897	90148
24.11708	83667
24.12520	81162
24.13333	79586
24.14145	81247
24.14958	76534
24.15770	81511
24.16582	77427
24.17395	77229
24.18207	72817
24.19018	74268
24.19832	69791
24.20643	66170
24.21457	71963
24.22268	66692
24.23080	70798
24.23893	70942
24.24705	71867
24.25518	70192
24.26330	68973
24.27142	62137
24.27955	62838
24.28767	60658
24.29580	52201
24.30392	55084
24.31203	59742
24.32017	56470
24.32828	53032
24.33640	54755
24.34453	57944
24.35265	54413
24.36078	53303
24.36890	55196
24.37702	53883
24.38515	56833
24.39327	59611
24.40140	63581
24.40952	73974
24.41763	78931
24.42577	84363
24.43388	77415
24.44200	75248
24.45013	62420
24.45825	54160
24.46638	59007
24.47450	60058
24.48262	63561
24.49075	67367
24.49887	71134
24.50700	72849
24.51512	68876
24.52323	71391
24.53137	78092
24.53948	79366
24.54762	82207
24.55573	90958
24.56385	94666
24.57198	98036
24.58010	90433
24.58822	94331
24.59635	86485
24.60447	77929
24.61260	70346
24.62072	70237
24.62883	62087
24.63697	59240
24.64508	55910
24.65322	58792
24.66133	59313
24.66945	55919
24.67758	49192
24.68570	57789
24.69382	47866
24.70195	52265
24.71007	47084
24.71820	45402
24.72632	45691
24.73443	41319
24.74257	43950
24.75068	48075
24.75882	45438
24.76693	43934
24.77505	42955
24.78318	44437
24.79130	45055
24.79943	43089
24.80755	39192
24.81567	41077
24.82380	35673
24.83192	40584
24.84003	41957
24.84817	39679
24.85628	43107
24.86442	42901
24.87253	44395
24.88065	47788
24.88878	54433
24.89690	48934
24.90503	52549
24.91315	47220
24.92127	45652
24.92940	45733
24.93752	40975
24.94565	41891
24.95377	38653
24.96188	36515
24.97002	43018
24.97813	41213
24.98625	34121
24.99438	35628
25.00250	36595
25.01063	37108
25.01875	37626
25.02687	36414
25.03500	38730
25.04312	38736
25.05125	34805
25.05937	37033
25.06748	39964
25.07562	35821
25.08373	35249
25.09185	39398
25.09998	36663
25.10810	38043
25.11623	39858
25.12435	37956
25.13247	38106
25.14060	35799
25.14872	39739
25.15685	46349
25.16497	47560
25.17308	44184
25.18122	48071
25.18933	47805
25.19747	44650
25.20558	40393
25.21370	40501
25.22183	38700
25.22995	40081
25.23807	38179
25.24620	39135
25.25432	41364
25.26245	36985
25.27057	38820
25.27868	39585
25.28682	36374
25.29493	40123
25.30307	41735
25.31118	43704
25.31930	44747
25.32743	44830
25.33555	40871
25.34368	48767
25.35180	38974
25.35992	42902
25.36805	40487
25.37617	37828
25.38428	40878
25.39242	36478
25.40053	34188
25.40867	34234
25.41678	36947
25.42490	37108
25.43303	33584
25.44115	37309
25.44928	33453
25.45740	34844
25.46552	32611
25.47365	34162
25.48177	34077
25.48988	36309
25.49802	43439
25.50613	38324
25.51427	38063
25.52238	36325
25.53050	32366
25.53863	32922
25.54675	36829
25.55488	34222
25.56300	32883
25.57112	32643
25.57925	34200
25.58737	32921
25.59550	32550
25.60362	33444
25.61173	35525
25.61987	29817
25.62798	31152
25.63610	31928
25.64423	32354
25.65235	34208
25.66048	41071
25.66860	36626
25.67672	39471
25.68485	39220
25.69297	36122
25.70110	34654
25.70922	36087
25.71733	34119
25.72547	37579
25.73358	35423
25.74170	40211
25.74983	37749
25.75795	39567
25.76608	40804
25.77420	38026
25.78232	37229
25.79045	33023
25.79857	35366
25.80670	33334
25.81482	39480
25.82293	40543
25.83107	41860
25.83918	44953
25.84732	46702
25.85543	43955
25.86355	40788
25.87168	39516
25.87980	38842
25.88792	35242
25.89605	32092
25.90417	33749
25.91230	33991
25.92042	30776
25.92853	34369
25.93667	32418
25.94478	31412
25.95292	31865
25.96103	30360
25.96915	32295
25.97728	32487
25.98540	27251
25.99353	29852
26.00165	31315
26.00977	30962
26.01790	30692
26.02602	29195
26.03413	29733
26.04227	32329
26.05038	30481
26.05852	29084
26.06663	28924
26.07475	31580
26.08288	31843
26.09100	31606
26.09913	29585
26.10725	29804
26.11537	31490
26.12350	31663
26.13162	33917
26.13973	35560
26.14787	38453
26.15598	37645
26.16412	43078
26.17223	41626
26.18035	41267
26.18848	44437
26.19660	38906
26.20473	36002
26.21285	34605
26.22097	36696
26.22910	33350
26.23722	32352
26.24535	37361
26.25347	33544
26.26158	39444
26.26972	32406
26.27783	31468
26.28595	30692
26.29408	32215
26.30220	30871
26.31033	32492
26.31845	30408
26.32657	31731
26.33470	29475
26.34282	29494
26.35095	30440
26.35907	33642
26.36718	33311
26.37532	31043
26.38343	31820
26.39157	29940
26.39968	32335
26.40780	29424
26.41593	29815
26.42405	33698
26.43217	32704
26.44030	26081
26.44842	30478
26.45655	30525
26.46467	28457
26.47278	33101
26.48092	33099
26.48903	28166
26.49717	27147
26.50528	29796
26.51340	28315
26.52153	33796
26.52965	28465
26.53777	28219
26.54590	30746
26.55402	27503
26.56215	29559
26.57027	29432
26.57838	31349
26.58652	28510
26.59463	29305
26.60277	29578
26.61088	31578
26.61900	29486
26.62713	30333
26.63525	27868
26.64338	30332
26.65150	29425
26.65962	28117
26.66775	28913
26.67587	34178
26.68398	39806
26.69212	37434
26.70023	34715
26.70837	34709
26.71648	39319
26.72460	32501
26.73273	28379
26.74085	29539
26.74898	31801
26.75710	33502
26.76522	32418
26.77335	33855
26.78147	29757
26.78960	28753
26.79772	35113
26.80583	34570
26.81397	34440
26.82208	35345
26.83020	37088
26.83833	34701
26.84645	34338
26.85458	31109
26.86270	34431
26.87082	32337
26.87895	35379
26.88707	36138
26.89520	37088
26.90332	34278
26.91143	33496
26.91957	33563
26.92768	31642
26.93580	34778
26.94393	32015
26.95205	33723
26.96018	34079
26.96830	31786
26.97642	32946
26.98455	41812
26.99267	62803
27.00080	95207
27.00892	142912
27.01703	210560
27.02517	282393
27.03328	340821
27.04142	369643
27.04953	363979
27.05765	330638
27.06578	284361
27.07390	233485
27.08202	191801
27.09015	156277
27.09827	130525
27.10640	119010
27.11452	102557
27.12263	93967
27.13077	89242
27.13888	80467
27.14702	80431
27.15513	75593
27.16325	68263
27.17138	70178
27.17950	60104
27.18762	63664
27.19575	61799
27.20387	67194
27.21200	62391
27.22012	57116
27.22823	57676
27.23637	52416
27.24448	52150
27.25262	55121
27.26073	51150
27.26885	48823
27.27698	52666
27.28510	50090
27.29323	48813
27.30135	49701
27.30947	43533
27.31760	44316
27.32572	42773
27.33383	43122
27.34197	44224
27.35008	46254
27.35822	42782
27.36633	41865
27.37445	39955
27.38258	41560
27.39070	43072
27.39883	42923
27.40695	43991
27.41507	43684
27.42320	41461
27.43132	38228
27.43945	44300
27.44757	42648
27.45568	36947
27.46382	37436
27.47193	43550
27.48005	43677
27.48818	42408
27.49630	38461
27.50443	44689
27.51255	40418
27.52067	42002
27.52880	41793
27.53692	40467
27.54505	41047
27.55317	36348
27.56128	42097
27.56942	35787
27.57753	37077
27.58565	32071
27.59378	36551
27.60190	36362
27.61003	37716
27.61815	35344
27.62627	35410
27.63440	36490
27.64252	38408
27.65065	35034
27.65877	38375
27.66688	35214
27.67502	34855
27.68313	33388
27.69127	34276
27.69938	37637
27.70750	37638
27.71563	33601
27.72375	33315
27.73187	35323
27.74000	32149
27.74812	37777
27.75625	31587
27.76437	30914
27.77248	33269
27.78062	32474
27.78873	32031
27.79687	35061
27.80498	32079
27.81310	32998
27.82123	34244
27.82935	35375
27.83748	37459
27.84560	35617
27.85372	35400
27.86185	36847
27.86997	37875
27.87808	36562
27.88622	37028
27.89433	35053
27.90247	33107
27.91058	33550
27.91870	31883
27.92683	31041
27.93495	31476
27.94308	33332
27.95120	28918
27.95932	35827
27.96745	36245
27.97557	34997
27.98368	30962
27.99182	32543
27.99993	31713
28.00807	30700
28.01618	31374
28.02430	28363
28.03243	31136
28.04055	29053
28.04868	30428
28.05680	33230
28.06492	35706
28.07305	32145
28.08117	32631
28.08930	33007
28.09742	35959
28.10553	39443
28.11367	37354
28.12178	37358
28.12990	35054
28.13803	30250
28.14615	33165
28.15428	37017
28.16240	30850
28.17052	28359
28.17865	31110
28.18677	29869
28.19490	31888
28.20302	32666
28.21113	30534
28.21927	34486
28.22738	33678
28.23550	34831
28.24363	33543
28.25175	39741
28.25988	34208
28.26800	34708
28.27612	32135
28.28425	30616
28.29237	30882
28.30050	34524
28.30862	37309
28.31673	41259
28.32487	33833
28.33298	36480
28.34112	39927
28.34923	40663
28.35735	50731
28.36548	55725
28.37360	59271
28.38172	68553
28.38985	76221
28.39797	81081
28.40610	79075
28.41422	79945
28.42233	81305
28.43047	74506
28.43858	67510
28.44672	70008
28.45483	64200
28.46295	64358
28.47108	56710
28.47920	51244
28.48733	56974
28.49545	51714
28.50357	50352
28.51170	47966
28.51982	47249
28.52793	45171
28.53607	43728
28.54418	41908
28.55232	41751
28.56043	40511
28.56855	46127
28.57668	40938
28.58480	40676
28.59293	39894
28.60105	39351
28.60917	40212
28.61730	38873
28.62542	42058
28.63355	39840
28.64167	41125
28.64978	40930
28.65792	42847
28.66603	44648
28.67415	45407
28.68228	48079
28.69040	41214
28.69853	44725
28.70665	41253
28.71477	39396
28.72290	35288
28.73102	35021
28.73915	34714
28.74727	36907
28.75538	38714
28.76352	37510
28.77163	38611
28.77975	40010
28.78788	44785
28.79600	48862
28.80413	46227
28.81225	43206
28.82037	38372
28.82850	40027
28.83662	37292
28.84475	36818
28.85287	35813
28.86098	34355
28.86912	34021
28.87723	33228
28.88537	31810
28.89348	32273
28.90160	37768
28.90973	33674
28.91785	31551
28.92597	36458
28.93410	33288
28.94222	35513
28.95035	38352
28.95847	40977
28.96658	47282
28.97472	43696
28.98283	44616
28.99097	41366
28.99908	41148
29.00720	37899
29.01533	37162
29.02345	39691
29.03157	36623
29.03970	31322
29.04782	38311
29.05595	35048
29.06407	34214
29.07218	34565
29.08032	32849
29.08843	33870
29.09657	32658
29.10468	30527
29.11280	31149
29.12093	32007
29.12905	38751
29.13718	32861
29.14530	31636
29.15342	28642
29.16155	32073
29.16967	33469
29.17778	34517
29.18592	34689
29.19403	36658
29.20217	37881
29.21028	34692
29.21840	38904
29.22653	34181
29.23465	34785
29.24278	37107
29.25090	35160
29.25902	37803
29.26715	35217
29.27527	31929
29.28340	37402
29.29152	32922
29.29963	30872
29.30777	29491
29.31588	31907
29.32400	32412
29.33213	33936
29.34025	34388
29.34838	32560
29.35650	33618
29.36462	31783
29.37275	32816
29.38087	37201
29.38900	30699
29.39712	31510
29.40523	29994
29.41337	31278
29.42148	32652
29.42960	35456
29.43773	29657
29.44585	31733
29.45398	30083
29.46210	32046
29.47022	33007
29.47835	31402
29.48647	32461
29.49460	32980
29.50272	36923
29.51083	37964
29.51897	35375
29.52708	38604
29.53522	37649
29.54333	42064
29.55145	32081
29.55958	31808
29.56770	34219
29.57582	33424
29.58395	32328
29.59207	30978
29.60020	29945
29.60832	32022
29.61643	33477
29.62457	30908
29.63268	33103
29.64082	29825
29.64893	34203
29.65705	31457
29.66518	31518
29.67330	30901
29.68143	33525
29.68955	33715
29.69767	32370
29.70580	30493
29.71392	29111
29.72203	31564
29.73017	32727
29.73828	33685
29.74642	35394
29.75453	32996
29.76265	34841
29.77078	34799
29.77890	31671
29.78703	30875
29.79515	29715
29.80327	34793
29.81140	28661
29.81952	28468
29.82763	30913
29.83577	33200
29.84388	28627
29.85202	30795
29.86013	32026
29.86825	32377
29.87638	41140
29.88450	49489
29.89263	62581
29.90075	77513
29.90887	86114
29.91700	93952
29.92512	87481
29.93325	73408
29.94137	64366
29.94948	48754
29.95762	43087
29.96573	44231
29.97385	42164
29.98198	42413
29.99010	44364
29.99823	42451
30.00635	53579
30.01447	49726
30.02260	46492
30.03072	54669
30.03885	55991
30.04697	61449
30.05508	61300
30.06322	64146
30.07133	59443
30.07945	63448
30.08758	58017
30.09570	52682
30.10383	56313
30.11195	51956
30.12007	54855
30.12820	48029
30.13632	51751
30.14445	46578
30.15257	45007
30.16068	44158
30.16882	47200
30.17693	47802
30.18507	43947
30.19318	42085
30.20130	41434
30.20943	41037
30.21755	36907
30.22567	42780
30.23380	39676
30.24192	37247
30.25005	37271
30.25817	38261
30.26628	36667
30.27442	38266
30.28253	35694
30.29067	36281
30.29878	36400
30.30690	37002
30.31503	35334
30.32315	34423
30.33128	35692
30.33940	37278
30.34752	35232
30.35565	37842
30.36377	31227
30.37188	33017
30.38002	33988
30.38813	37464
30.39627	34563
30.40438	31429
30.41250	33409
30.42063	33467
30.42875	32111
30.43688	34458
30.44500	32534
30.45312	32956
30.46125	31962
30.46937	39081
30.47748	34171
30.48562	32614
30.49373	32547
30.50187	32241
30.50998	32454
30.51810	35179
30.52623	32628
30.53435	35479
30.54248	31336
30.55060	32039
30.55872	30970
30.56685	30819
30.57497	33079
30.58310	29305
30.59122	31510
30.59933	34693
30.60747	30014
30.61558	32747
30.62370	32073
30.63183	28413
30.63995	31338
30.64808	32290
30.65620	30863
30.66432	31842
30.67245	27698
30.68057	30386
30.68870	28553
30.69682	31197
30.70493	31392
30.71307	30911
30.72118	30750
30.72932	28366
30.73743	34154
30.74555	32205
30.75368	27745
30.76180	32248
30.76992	30000
30.77805	33324
30.78617	33480
30.79430	32524
30.80242	33418
30.81053	38147
30.81867	37680
30.82678	39541
30.83492	37614
30.84303	36389
30.85115	33517
30.85928	35668
30.86740	29120
30.87552	32135
30.88365	38657
30.89177	30133
30.89990	32147
30.90802	28913
30.91613	31824
30.92427	32361
30.93238	29978
30.94052	31430
30.94863	34063
30.95675	34965
30.96488	29055
30.97300	29447
30.98113	28438
30.98925	26669
30.99737	30126
31.00550	31509
31.01362	31917
31.02173	36595
31.02987	40794
31.03798	38566
31.04612	42447
31.05423	39069
31.06235	43716
31.07048	44737
31.07860	47097
31.08673	56522
31.09485	67533
31.10297	88779
31.11110	115483
31.11922	138855
31.12735	135711
31.13547	115968
31.14358	92694
31.15172	70736
31.15983	49121
31.16795	44676
31.17608	44107
31.18420	36062
31.19233	39193
31.20045	40879
31.20857	47178
31.21670	57022
31.22482	64694
31.23295	64203
31.24107	68820
31.24918	66058
31.25732	56633
31.26543	50908
31.27355	43628
31.28168	35248
31.28980	33066
31.29793	37337
31.30605	35307
31.31417	34966
31.32230	32779
31.33042	33232
31.33855	30995
31.34667	34280
31.35478	31716
31.36292	40376
31.37103	34389
31.37917	41775
31.38728	47416
31.39540	50236
31.40353	49947
31.41165	56005
31.41977	45657
31.42790	39692
31.43602	37743
31.44415	36963
31.45227	36213
31.46038	36873
31.46852	34820
31.47663	33647
31.48477	33565
31.49288	34285
31.50100	33484
31.50913	32861
31.51725	33220
31.52537	33393
31.53350	31455
31.54162	31703
31.54975	32496
31.55787	28352
31.56598	33742
31.57412	31174
31.58223	32220
31.59037	34367
31.59848	28423
31.60660	31477
31.61473	33024
31.62285	30046
31.63098	34614
31.63910	29205
31.64722	33238
31.65535	30479
31.66347	31601
31.67158	38156
31.67972	35694
31.68783	37612
31.69597	31201
31.70408	32833
31.71220	34606
31.72033	31335
31.72845	28661
31.73658	34413
31.74470	31750
31.75282	30459
31.76095	29468
31.76907	31818
31.77720	37230
31.78532	33856
31.79343	33385
31.80157	35432
31.80968	33145
31.81780	34733
31.82593	34599
31.83405	36389
31.84218	37365
31.85030	36104
31.85842	42930
31.86655	38936
31.87467	41594
31.88280	41936
31.89092	39078
31.89903	45987
31.90717	42197
31.91528	50893
31.92340	45405
31.93153	47311
31.93965	49451
31.94778	47910
31.95590	48218
31.96402	52140
31.97215	48070
31.98027	52045
31.98840	51546
31.99652	51300
32.00463	51580
32.01277	53107
32.02088	54699
32.02902	50192
32.03713	49977
32.04525	45672
32.05338	53053
32.06150	47097
32.06962	45315
32.07775	49171
32.08587	46386
32.09400	49367
32.10212	47698
32.11023	44349
32.11837	38992
32.12648	41328
32.13462	38590
32.14273	37266
32.15085	38526
32.15898	42739
32.16710	36745
32.17523	41215
32.18335	36186
32.19147	33524
32.19960	34693
32.20772	36496
32.21583	34351
32.22397	36767
32.23208	37189
32.24022	32051
32.24833	41578
32.25645	39530
32.26458	36574
32.27270	39994
32.28083	37685
32.28895	40009
32.29707	37536
32.30520	36225
32.31332	39652
32.32143	33899
32.32957	37764
32.33768	38924
32.34582	35853
32.35393	40562
32.36205	42091
32.37018	43776
32.37830	41414
32.38643	41745
32.39455	39068
32.40267	38136
32.41080	34755
32.41892	34847
32.42705	38139
32.43517	32874
32.44328	31891
32.45142	32555
32.45953	34230
32.46765	32909
32.47578	33701
32.48390	30989
32.49203	35208
32.50015	33458
32.50827	33123
32.51640	31204
32.52452	31514
32.53265	33300
32.54077	33153
32.54888	33780
32.55702	32312
32.56513	38626
32.57325	34629
32.58138	31371
32.58950	35903
32.59763	34992
32.60575	29863
32.61387	30255
32.62200	34333
32.63012	30389
32.63825	32919
32.64637	33210
32.65448	30136
32.66262	33257
32.67073	34133
32.67887	42905
32.68698	45896
32.69510	45825
32.70323	42130
32.71135	40067
32.71947	40053
32.72760	38577
32.73572	38074
32.74385	36924
32.75197	33371
32.76008	36129
32.76822	35999
32.77633	35405
32.78447	29514
32.79258	30656
32.80070	31816
32.80883	32690
32.81695	32230
32.82508	31984
32.83320	30941
32.84132	33017
32.84945	33290
32.85757	31006
32.86568	28769
32.87382	29292
32.88193	31006
32.89007	28589
32.89818	32096
32.90630	33986
32.91443	33184
32.92255	34705
32.93068	34355
32.93880	31537
32.94692	34160
32.95505	34295
32.96317	32736
32.97128	32962
32.97942	32947
32.98753	32724
32.99567	32322
33.00378	29570
33.01190	29337
33.02003	34323
33.02815	31603
33.03628	32234
33.04440	32569
33.05252	32402
33.06065	32867
33.06877	30485
33.07690	34778
33.08502	35992
33.09313	37224
33.10127	42330
33.10938	49999
33.11750	60434
33.12563	55886
33.13375	57447
33.14188	57613
33.15000	53811
33.15812	48938
33.16625	39299
33.17437	34694
33.18250	31682
33.19062	33377
33.19873	35705
33.20687	36135
33.21498	35622
33.22312	38334
33.23123	35815
33.23935	31271
33.24748	33217
33.25560	35328
33.26372	34008
33.27185	36795
33.27997	36798
33.28810	34809
33.29622	29970
33.30433	35926
33.31247	31857
33.32058	35476
33.32872	38655
33.33683	30779
33.34495	32293
33.35308	32530
33.36120	29470
33.36932	33137
33.37745	35245
33.38557	34705
33.39370	34573
33.40182	33621
33.40993	33836
33.41807	35278
33.42618	32968
33.43432	34114
33.44243	28804
33.45055	33912
33.45868	29932
33.46680	34329
33.47493	33304
33.48305	29542
33.49117	35213
33.49930	34743
33.50742	33879
33.51553	30517
33.52367	32641
33.53178	31172
33.53992	34751
33.54803	33153
33.55615	33130
33.56428	34812
33.57240	39695
33.58053	33008
33.58865	34224
33.59677	35970
33.60490	34088
33.61302	32525
33.62113	31297
33.62927	34050
33.63738	30423
33.64552	34891
33.65363	33622
33.66175	33533
33.66988	35396
33.67800	35599
33.68613	34941
33.69425	31862
33.70237	33561
33.71050	34644
33.71862	32745
33.72675	37620
33.73487	32847
33.74298	36554
33.75112	35714
33.75923	30438
33.76735	33300
33.77548	33833
33.78360	31185
33.79173	32299
33.79985	30736
33.80797	31538
33.81610	35356
33.82422	35420
33.83235	29307
33.84047	35605
33.84858	34474
33.85672	34359
33.86483	36250
33.87297	41179
33.88108	41422
33.88920	39416
33.89733	33292
33.90545	36020
33.91357	34160
33.92170	37852
33.92982	36970
33.93795	34550
33.94607	35663
33.95418	36287
33.96232	36117
33.97043	37252
33.97857	38026
33.98668	39310
33.99480	32130
34.00293	34178
34.01105	37951
34.01918	32477
34.02730	32261
34.03542	35834
34.04355	36215
34.05167	33840
34.05978	34083
34.06792	35686
34.07603	36463
34.08417	32190
34.09228	30346
34.10040	33548
34.10853	38527
34.11665	35470
34.12478	38020
34.13290	36949
34.14102	36903
34.14915	32983
34.15727	32314
34.16538	37012
34.17352	32302
34.18163	33768
34.18977	32164
34.19788	29293
34.20600	33464
34.21413	31828
34.22225	33194
34.23038	32704
34.23850	34115
34.24662	40008
34.25475	35560
34.26287	34405
34.27100	36247
34.27912	41709
34.28723	35097
34.29537	34548
34.30348	31178
34.31160	37608
34.31973	35411
34.32785	37120
34.33598	33375
34.34410	37339
34.35222	39215
34.36035	38178
34.36847	35052
34.37660	34869
34.38472	33998
34.39283	35036
34.40097	41392
34.40908	34218
34.41720	41994
34.42533	35221
34.43345	33878
34.44158	35065
34.44970	36368
34.45782	34537
34.46595	32347
34.47407	32909
34.48220	36062
34.49032	38119
34.49843	35085
34.50657	40197
34.51468	34379
34.52282	37706
34.53093	39315
34.53905	40336
34.54718	43138
34.55530	41124
34.56342	50900
34.57155	53242
34.57967	48360
34.58780	50836
34.59592	49116
34.60403	46236
34.61217	43311
34.62028	48816
34.62842	45128
34.63653	43405
34.64465	42763
34.65278	42302
34.66090	40181
34.66903	36350
34.67715	39602
34.68527	35885
34.69340	36810
34.70152	37859
34.70963	41226
34.71777	37490
34.72588	36665
34.73402	37541
34.74213	37307
34.75025	35903
34.75838	40318
34.76650	34625
34.77463	38710
34.78275	37655
34.79087	44323
34.79900	36342
34.80712	39783
34.81523	38732
34.82337	39297
34.83148	40220
34.83962	38726
34.84773	37486
34.85585	38668
34.86398	36789
34.87210	42826
34.88023	38919
34.88835	37501
34.89647	35349
34.90460	38788
34.91272	37032
34.92085	40018
34.92897	42652
34.93708	37289
34.94522	47768
34.95333	63008
34.96145	92784
34.96958	136659
34.97770	197744
34.98583	246889
34.99395	275032
35.00207	256269
35.01020	199354
35.01832	138124
35.02645	88930
35.03457	72484
35.04268	59948
35.05082	52665
35.05893	53636
35.06707	51278
35.07518	47380
35.08330	48596
35.09143	45750
35.09955	47781
35.10767	44189
35.11580	46985
35.12392	44521
35.13205	47324
35.14017	43048
35.14828	48762
35.15642	47878
35.16453	43670
35.17267	40601
35.18078	45535
35.18890	42659
35.19703	46177
35.20515	43843
35.21327	40473
35.22140	40779
35.22952	41840
35.23765	44200
35.24577	44007
35.25388	46231
35.26202	44709
35.27013	42593
35.27827	46656
35.28638	47411
35.29450	48609
35.30263	45851
35.31075	45388
35.31888	38488
35.32700	38700
35.33512	35196
35.34325	39653
35.35137	41094
35.35948	40716
35.36762	40674
35.37573	43231
35.38387	37986
35.39198	40864
35.40010	41581
35.40823	40334
35.41635	43255
35.42448	39868
35.43260	40271
35.44072	44430
35.44885	42220
35.45697	42228
35.46508	44217
35.47322	44275
35.48133	48685
35.48947	44678
35.49758	43818
35.50570	42167
35.51383	39896
35.52195	42331
35.53008	42615
35.53820	39807
35.54632	41042
35.55445	45729
35.56257	47155
35.57070	38708
35.57882	43025
35.58693	43912
35.59507	47314
35.60318	44299
35.61130	45897
35.61943	46336
35.62755	45252
35.63568	42469
35.64380	47597
35.65192	39021
35.66005	39627
35.66817	43331
35.67630	43309
35.68442	40834
35.69253	43178
35.70067	47271
35.70878	41423
35.71692	46300
35.72503	43786
35.73315	44931
35.74128	42130
35.74940	43858
35.75752	39173
35.76565	47107
35.77377	41481
35.78190	42067
35.79002	41617
35.79813	42721
35.80627	41998
35.81438	42000
35.82252	39550
35.83063	42614
35.83875	42879
35.84688	42764
35.85500	41924
35.86312	44168
35.87125	37910
35.87937	43002
35.88750	38148
35.89562	41690
35.90373	44132
35.91187	42187
35.91998	40228
35.92812	43708
35.93623	41832
35.94435	42389
35.95248	40532
35.96060	39691
35.96873	40397
35.97685	37841
35.98497	40972
35.99310	43217
36.00122	42882
36.00933	42591
36.01747	43906
36.02558	44477
36.03372	45159
36.04183	47783
36.04995	44591
36.05808	41326
36.06620	45758
36.07433	41151
36.08245	39321
36.09057	43936
36.09870	41711
36.10682	43831
36.11495	42542
36.12307	39907
36.13118	43643
36.13932	43410
36.14743	43249
36.15555	42131
36.16368	45133
36.17180	40627
36.17993	42522
36.18805	45557
36.19617	43849
36.20430	39884
36.21242	40687
36.22055	42304
36.22867	40066
36.23678	42854
36.24492	42185
36.25303	41615
36.26115	44107
36.26928	41143
36.27740	40726
36.28553	41435
36.29365	39596
36.30177	40207
36.30990	44516
36.31802	47809
36.32615	48139
36.33427	48947
36.34238	50926
36.35052	50366
36.35863	46582
36.36677	46115
36.37488	41241
36.38300	39357
36.39113	42544
36.39925	42069
36.40737	45758
36.41550	46280
36.42362	43443
36.43175	45049
36.43987	45920
36.44798	42086
36.45612	41697
36.46423	41330
36.47237	40762
36.48048	44232
36.48860	41355
36.49673	39298
36.50485	43524
36.51298	43692
36.52110	42087
36.52922	44871
36.53735	43048
36.54547	42560
36.55358	43548
36.56172	42754
36.56983	42979
36.57797	40475
36.58608	42664
36.59420	40765
36.60233	44314
36.61045	39734
36.61858	41602
36.62670	40925
36.63482	46163
36.64295	42877
36.65107	40708
36.65918	37778
36.66732	41911
36.67543	43917
36.68357	46532
36.69168	42951
36.69980	41847
36.70793	42729
36.71605	46534
36.72418	43555
36.73230	44852
36.74042	45010
36.74855	43092
36.75667	39517
36.76480	41403
36.77292	42322
36.78103	44204
36.78917	44574
36.79728	44695
36.80540	41463
36.81353	45845
36.82165	45037
36.82978	43030
36.83790	42415
36.84602	43867
36.85415	43411
36.86227	41547
36.87040	43601
36.87852	42345
36.88663	45989
36.89477	45197
36.90288	42681
36.91100	46095
36.91913	47808
36.92725	45497
36.93538	44455
36.94350	43249
36.95162	43032
36.95975	43440
36.96787	41355
36.97600	40005
36.98412	44918
36.99223	44171
37.00037	47363
37.00848	42898
37.01662	44221
37.02473	46762
37.03285	44492
37.04098	44220
37.04910	46380
37.05722	43975
37.06535	45361
37.07347	43061
37.08160	42156
37.08972	43888
37.09783	38449
37.10597	44731
37.11408	48219
37.12222	43959
37.13033	49018
37.13845	42653
37.14658	43806
37.15470	44353
37.16283	48595
37.17095	45433
37.17907	49688
37.18720	47368
37.19532	46686
37.20343	47569
37.21157	47382
37.21968	46734
37.22782	47880
37.23593	46717
37.24405	46726
37.25218	45220
37.26030	45929
37.26843	46583
37.27655	48461
37.28467	46146
37.29280	50300
37.30092	49922
37.30903	45909
37.31717	47643
37.32528	47860
37.33342	47248
37.34153	44384
37.34965	49169
37.35778	50551
37.36590	53321
37.37403	55251
37.38215	56630
37.39027	59496
37.39840	57881
37.40652	52446
37.41465	48444
37.42277	53789
37.43088	54659
37.43902	52307
37.44713	51191
37.45525	52204
37.46338	51647
37.47150	47836
37.47963	51073
37.48775	51881
